Data from 1976.PennyLincolnUp.Lamp.En5.5.200Scan.071719.P1.Changed Mount._HRD10591_16-00-32-861.txt Node
Date: Thu Jul 18 16:00:32 EDT 2019
User: cochatt
Spectrometer: HR+D1059
Trigger mode: 1
Integration Time (sec): 1.000000E-1
Scans to average: 1
Electric dark correction enabled: true
Nonlinearity correction enabled: false
Boxcar width: 0
XAxis mode: Wavelengths
Number of Pixels in Spectrum: 2048
>>>>>Begin Spectral Data<<<<<
223.165	-15.75
223.4	-15.75
223.635	-15.75
223.869	-4.75
224.104	-11.75
224.338	-23.75
224.573	-10.75
224.808	-13.75
225.042	-11.75
225.277	-11.75
225.511	3.25
225.746	11.25
225.98	9.25
226.215	4.25
226.449	6.25
226.683	28.25
226.918	14.25
227.152	27.25
227.387	29.25
227.621	40.25
227.856	49.25
228.09	40.25
228.324	47.25
228.559	55.25
228.793	71.25
229.027	97.25
229.262	86.25
229.496	113.25
229.73	118.25
229.964	142.25
230.199	135.25
230.433	110.25
230.667	122.25
230.901	108.25
231.136	105.25
231.37	107.25
231.604	106.25
231.838	113.25
232.072	122.25
232.306	109.25
232.541	113.25
232.775	121.25
233.009	104.25
233.243	101.25
233.477	97.25
233.711	113.25
233.945	128.25
234.179	119.25
234.413	125.25
234.647	120.25
234.881	127.25
235.115	123.25
235.349	115.25
235.583	109.25
235.817	117.25
236.051	115.25
236.285	130.25
236.519	128.25
236.753	129.25
236.987	138.25
237.221	179.25
237.455	225.25
237.689	170.25
237.922	135.25
238.156	132.25
238.39	124.25
238.624	123.25
238.858	124.25
239.091	132.25
239.325	117.25
239.559	134.25
239.793	127.25
240.027	147.25
240.26	142.25
240.494	150.25
240.728	141.25
240.961	150.25
241.195	139.25
241.429	143.25
241.662	124.25
241.896	140.25
242.13	130.25
242.363	121.25
242.597	138.25
242.83	132.25
243.064	124.25
243.298	151.25
243.531	135.25
243.765	134.25
243.998	139.25
244.232	130.25
244.465	133.25
244.699	148.25
244.932	139.25
245.166	140.25
245.399	159.25
245.633	152.25
245.866	145.25
246.099	150.25
246.333	160.25
246.566	153.25
246.8	144.25
247.033	160.25
247.266	161.25
247.5	156.25
247.733	179.25
247.966	172.25
248.2	180.25
248.433	153.25
248.666	175.25
248.899	170.25
249.133	212.25
249.366	227.25
249.599	193.25
249.832	172.25
250.066	186.25
250.299	187.25
250.532	200.25
250.765	219.25
250.998	227.25
251.231	216.25
251.465	210.25
251.698	201.25
251.931	200.25
252.164	200.25
252.397	203.25
252.63	204.25
252.863	219.25
253.096	215.25
253.329	249.25
253.562	229.25
253.795	228.25
254.028	213.25
254.261	203.25
254.494	233.25
254.727	228.25
254.96	269.25
255.193	273.25
255.426	232.25
255.659	249.25
255.892	224.25
256.124	247.25
256.357	257.25
256.59	221.25
256.823	218.25
257.056	205.25
257.289	217.25
257.521	224.25
257.754	225.25
257.987	213.25
258.22	220.25
258.452	218.25
258.685	205.25
258.918	203.25
259.151	204.25
259.383	228.25
259.616	228.25
259.849	242.25
260.081	248.25
260.314	252.25
260.547	256.25
260.779	233.25
261.012	230.25
261.244	235.25
261.477	245.25
261.71	215.25
261.942	225.25
262.175	223.25
262.407	235.25
262.64	227.25
262.872	236.25
263.105	204.25
263.337	221.25
263.57	228.25
263.802	232.25
264.035	209.25
264.267	221.25
264.499	229.25
264.732	209.25
264.964	222.25
265.197	213.25
265.429	227.25
265.661	218.25
265.894	221.25
266.126	201.25
266.358	229.25
266.591	220.25
266.823	244.25
267.055	235.25
267.287	241.25
267.52	228.25
267.752	231.25
267.984	239.25
268.216	253.25
268.448	245.25
268.681	243.25
268.913	257.25
269.145	259.25
269.377	277.25
269.609	299.25
269.841	291.25
270.073	276.25
270.306	306.25
270.538	321.25
270.77	317.25
271.002	320.25
271.234	287.25
271.466	295.25
271.698	310.25
271.93	312.25
272.162	312.25
272.394	316.25
272.626	307.25
272.858	299.25
273.09	295.25
273.322	269.25
273.553	280.25
273.785	270.25
274.017	276.25
274.249	273.25
274.481	263.25
274.713	270.25
274.945	277.25
275.176	269.25
275.408	283.25
275.64	285.25
275.872	281.25
276.104	277.25
276.335	273.25
276.567	284.25
276.799	298.25
277.031	332.25
277.262	315.25
277.494	323.25
277.726	322.25
277.957	307.25
278.189	298.25
278.421	296.25
278.652	297.25
278.884	287.25
279.115	281.25
279.347	283.25
279.579	274.25
279.81	299.25
280.042	292.25
280.273	300.25
280.505	276.25
280.736	276.25
280.968	278.25
281.199	298.25
281.431	291.25
281.662	279.25
281.894	284.25
282.125	294.25
282.356	320.25
282.588	321.25
282.819	310.25
283.051	292.25
283.282	279.25
283.513	284.25
283.745	277.25
283.976	298.25
284.207	299.25
284.439	289.25
284.67	282.25
284.901	313.25
285.132	298.25
285.364	287.25
285.595	307.25
285.826	283.25
286.057	310.25
286.288	307.25
286.52	288.25
286.751	291.25
286.982	292.25
287.213	297.25
287.444	300.25
287.675	304.25
287.906	315.25
288.138	307.25
288.369	325.25
288.6	339.25
288.831	331.25
289.062	315.25
289.293	320.25
289.524	301.25
289.755	319.25
289.986	313.25
290.217	317.25
290.448	314.25
290.679	302.25
290.91	306.25
291.141	316.25
291.371	316.25
291.602	307.25
291.833	303.25
292.064	319.25
292.295	306.25
292.526	328.25
292.757	309.25
292.987	303.25
293.218	312.25
293.449	318.25
293.68	311.25
293.91	315.25
294.141	290.25
294.372	302.25
294.603	315.25
294.833	326.25
295.064	330.25
295.295	325.25
295.525	313.25
295.756	335.25
295.987	326.25
296.217	335.25
296.448	352.25
296.679	310.25
296.909	315.25
297.14	315.25
297.37	336.25
297.601	328.25
297.831	337.25
298.062	318.25
298.292	326.25
298.523	327.25
298.753	325.25
298.984	324.25
299.214	332.25
299.445	334.25
299.675	329.25
299.905	321.25
300.136	328.25
300.366	333.25
300.597	334.25
300.827	359.25
301.057	363.25
301.288	357.25
301.518	363.25
301.748	344.25
301.979	351.25
302.209	364.25
302.439	344.25
302.669	353.25
302.9	340.25
303.13	345.25
303.36	343.25
303.59	332.25
303.82	376.25
304.051	367.25
304.281	357.25
304.511	351.25
304.741	348.25
304.971	341.25
305.201	348.25
305.431	362.25
305.661	355.25
305.891	358.25
306.121	347.25
306.352	358.25
306.582	337.25
306.812	347.25
307.042	347.25
307.272	348.25
307.502	357.25
307.731	348.25
307.961	365.25
308.191	349.25
308.421	352.25
308.651	376.25
308.881	367.25
309.111	367.25
309.341	356.25
309.571	369.25
309.8	390.25
310.03	389.25
310.26	377.25
310.49	385.25
310.72	384.25
310.949	391.25
311.179	394.25
311.409	382.25
311.639	402.25
311.868	393.25
312.098	389.25
312.328	384.25
312.557	392.25
312.787	402.25
313.017	419.25
313.246	396.25
313.476	381.25
313.706	400.25
313.935	415.25
314.165	390.25
314.394	440.25
314.624	417.25
314.853	379.25
315.083	407.25
315.312	408.25
315.542	397.25
315.771	388.25
316.001	391.25
316.23	381.25
316.46	363.25
316.689	383.25
316.919	401.25
317.148	412.25
317.377	381.25
317.607	385.25
317.836	397.25
318.065	405.25
318.295	404.25
318.524	398.25
318.753	421.25
318.983	392.25
319.212	412.25
319.441	397.25
319.67	402.25
319.9	405.25
320.129	388.25
320.358	394.25
320.587	385.25
320.816	423.25
321.046	432.25
321.275	413.25
321.504	423.25
321.733	437.25
321.962	433.25
322.191	429.25
322.42	443.25
322.649	436.25
322.878	439.25
323.108	463.25
323.337	486.25
323.566	460.25
323.795	489.25
324.024	525.25
324.253	629.25
324.482	870.25
324.71	1283.25
324.939	1913.25
325.168	1626.25
325.397	829.25
325.626	603.25
325.855	507.25
326.084	474.25
326.313	471.25
326.542	470.25
326.77	523.25
326.999	587.25
327.228	782.25
327.457	1160.25
327.686	1428.25
327.914	939.25
328.143	645.25
328.372	605.25
328.6	550.25
328.829	549.25
329.058	531.25
329.287	534.25
329.515	533.25
329.744	511.25
329.972	518.25
330.201	517.25
330.43	551.25
330.658	568.25
330.887	577.25
331.115	563.25
331.344	529.25
331.572	497.25
331.801	489.25
332.03	490.25
332.258	471.25
332.486	473.25
332.715	468.25
332.943	473.25
333.172	479.25
333.4	479.25
333.629	478.25
333.857	509.25
334.085	518.25
334.314	539.25
334.542	564.25
334.771	572.25
334.999	530.25
335.227	520.25
335.455	492.25
335.684	473.25
335.912	467.25
336.14	469.25
336.369	482.25
336.597	480.25
336.825	495.25
337.053	481.25
337.281	473.25
337.51	485.25
337.738	473.25
337.966	466.25
338.194	485.25
338.422	459.25
338.65	450.25
338.878	447.25
339.106	425.25
339.334	439.25
339.562	445.25
339.79	427.25
340.018	444.25
340.246	442.25
340.474	432.25
340.702	444.25
340.93	451.25
341.158	456.25
341.386	449.25
341.614	451.25
341.842	437.25
342.07	439.25
342.298	434.25
342.526	435.25
342.754	448.25
342.981	438.25
343.209	431.25
343.437	447.25
343.665	458.25
343.893	461.25
344.12	464.25
344.348	464.25
344.576	468.25
344.804	476.25
345.031	461.25
345.259	464.25
345.487	441.25
345.714	454.25
345.942	422.25
346.17	435.25
346.397	442.25
346.625	435.25
346.853	439.25
347.08	434.25
347.308	425.25
347.535	443.25
347.763	443.25
347.99	417.25
348.218	435.25
348.445	436.25
348.673	436.25
348.9	440.25
349.128	435.25
349.355	430.25
349.583	437.25
349.81	401.25
350.037	411.25
350.265	403.25
350.492	429.25
350.72	424.25
350.947	404.25
351.174	437.25
351.402	438.25
351.629	441.25
351.856	450.25
352.083	411.25
352.311	442.25
352.538	446.25
352.765	423.25
352.992	427.25
353.22	412.25
353.447	426.25
353.674	417.25
353.901	420.25
354.128	405.25
354.355	395.25
354.583	392.25
354.81	415.25
355.037	405.25
355.264	401.25
355.491	403.25
355.718	391.25
355.945	415.25
356.172	405.25
356.399	401.25
356.626	406.25
356.853	432.25
357.08	396.25
357.307	406.25
357.534	409.25
357.761	398.25
357.988	405.25
358.215	413.25
358.441	415.25
358.668	409.25
358.895	415.25
359.122	442.25
359.349	399.25
359.576	438.25
359.802	447.25
360.029	459.25
360.256	465.25
360.483	443.25
360.709	434.25
360.936	418.25
361.163	441.25
361.39	441.25
361.616	420.25
361.843	447.25
362.07	423.25
362.296	416.25
362.523	427.25
362.749	436.25
362.976	419.25
363.203	412.25
363.429	408.25
363.656	414.25
363.882	407.25
364.109	434.25
364.335	409.25
364.562	417.25
364.788	428.25
365.015	420.25
365.241	406.25
365.468	420.25
365.694	445.25
365.92	409.25
366.147	394.25
366.373	428.25
366.599	404.25
366.826	409.25
367.052	429.25
367.278	431.25
367.505	417.25
367.731	421.25
367.957	405.25
368.184	434.25
368.41	433.25
368.636	409.25
368.862	429.25
369.089	446.25
369.315	433.25
369.541	427.25
369.767	409.25
369.993	426.25
370.219	413.25
370.445	425.25
370.672	434.25
370.898	434.25
371.124	405.25
371.35	418.25
371.576	432.25
371.802	420.25
372.028	415.25
372.254	399.25
372.48	444.25
372.706	424.25
372.932	431.25
373.158	409.25
373.384	435.25
373.61	437.25
373.835	434.25
374.061	427.25
374.287	443.25
374.513	425.25
374.739	443.25
374.965	438.25
375.191	418.25
375.416	451.25
375.642	434.25
375.868	441.25
376.094	439.25
376.319	418.25
376.545	415.25
376.771	409.25
376.997	413.25
377.222	431.25
377.448	410.25
377.674	417.25
377.899	421.25
378.125	408.25
378.35	428.25
378.576	411.25
378.802	390.25
379.027	416.25
379.253	419.25
379.478	409.25
379.704	419.25
379.929	422.25
380.155	432.25
380.38	410.25
380.606	440.25
380.831	411.25
381.057	439.25
381.282	428.25
381.507	428.25
381.733	414.25
381.958	423.25
382.184	421.25
382.409	449.25
382.634	437.25
382.86	439.25
383.085	457.25
383.31	430.25
383.535	444.25
383.761	436.25
383.986	451.25
384.211	455.25
384.436	440.25
384.662	475.25
384.887	465.25
385.112	453.25
385.337	459.25
385.562	481.25
385.787	462.25
386.013	464.25
386.238	468.25
386.463	466.25
386.688	459.25
386.913	458.25
387.138	461.25
387.363	486.25
387.588	463.25
387.813	467.25
388.038	499.25
388.263	484.25
388.488	464.25
388.713	473.25
388.938	481.25
389.163	476.25
389.387	488.25
389.612	484.25
389.837	462.25
390.062	455.25
390.287	459.25
390.512	459.25
390.736	479.25
390.961	458.25
391.186	489.25
391.411	488.25
391.636	464.25
391.86	509.25
392.085	471.25
392.31	504.25
392.534	483.25
392.759	497.25
392.984	458.25
393.208	475.25
393.433	493.25
393.658	469.25
393.882	476.25
394.107	486.25
394.331	490.25
394.556	472.25
394.78	481.25
395.005	490.25
395.229	480.25
395.454	487.25
395.678	475.25
395.903	509.25
396.127	523.25
396.352	533.25
396.576	515.25
396.801	495.25
397.025	485.25
397.249	524.25
397.474	501.25
397.698	505.25
397.922	537.25
398.147	526.25
398.371	564.25
398.595	544.25
398.82	547.25
399.044	572.25
399.268	604.25
399.492	635.25
399.717	651.25
399.941	693.25
400.165	696.25
400.389	680.25
400.613	633.25
400.837	600.25
401.062	574.25
401.286	543.25
401.51	556.25
401.734	551.25
401.958	564.25
402.182	567.25
402.406	569.25
402.63	569.25
402.854	573.25
403.078	580.25
403.302	575.25
403.526	584.25
403.75	582.25
403.974	597.25
404.198	575.25
404.422	573.25
404.645	575.25
404.869	576.25
405.093	612.25
405.317	657.25
405.541	709.25
405.765	641.25
405.988	598.25
406.212	615.25
406.436	635.25
406.66	647.25
406.883	626.25
407.107	635.25
407.331	685.25
407.555	762.25
407.778	749.25
408.002	689.25
408.226	630.25
408.449	626.25
408.673	637.25
408.896	659.25
409.12	700.25
409.344	671.25
409.567	597.25
409.791	600.25
410.014	584.25
410.238	562.25
410.461	574.25
410.685	562.25
410.908	580.25
411.132	618.25
411.355	619.25
411.578	603.25
411.802	560.25
412.025	562.25
412.249	563.25
412.472	578.25
412.695	642.25
412.919	618.25
413.142	581.25
413.365	564.25
413.589	552.25
413.812	563.25
414.035	567.25
414.258	523.25
414.482	561.25
414.705	537.25
414.928	532.25
415.151	521.25
415.374	522.25
415.597	553.25
415.821	523.25
416.044	535.25
416.267	529.25
416.49	525.25
416.713	510.25
416.936	538.25
417.159	534.25
417.382	540.25
417.605	561.25
417.828	572.25
418.051	561.25
418.274	555.25
418.497	535.25
418.72	532.25
418.943	536.25
419.166	560.25
419.389	575.25
419.611	599.25
419.834	573.25
420.057	570.25
420.28	585.25
420.503	576.25
420.726	567.25
420.948	571.25
421.171	607.25
421.394	651.25
421.617	589.25
421.839	554.25
422.062	577.25
422.285	582.25
422.507	607.25
422.73	705.25
422.953	671.25
423.175	611.25
423.398	584.25
423.621	604.25
423.843	611.25
424.066	604.25
424.288	581.25
424.511	607.25
424.733	657.25
424.956	737.25
425.178	715.25
425.401	711.25
425.623	725.25
425.846	646.25
426.068	622.25
426.291	572.25
426.513	578.25
426.735	586.25
426.958	618.25
427.18	697.25
427.402	866.25
427.625	915.25
427.847	770.25
428.069	687.25
428.292	618.25
428.514	559.25
428.736	549.25
428.958	547.25
429.181	525.25
429.403	555.25
429.625	565.25
429.847	565.25
430.069	641.25
430.292	666.25
430.514	573.25
430.736	545.25
430.958	540.25
431.18	533.25
431.402	523.25
431.624	499.25
431.846	523.25
432.068	516.25
432.29	505.25
432.512	527.25
432.734	552.25
432.956	506.25
433.178	539.25
433.4	520.25
433.622	513.25
433.844	533.25
434.066	484.25
434.287	520.25
434.509	520.25
434.731	555.25
434.953	536.25
435.175	573.25
435.397	569.25
435.618	577.25
435.84	586.25
436.062	682.25
436.284	773.25
436.505	662.25
436.727	598.25
436.949	567.25
437.17	553.25
437.392	518.25
437.614	568.25
437.835	565.25
438.057	661.25
438.278	769.25
438.5	771.25
438.721	836.25
438.943	808.25
439.165	644.25
439.386	599.25
439.608	582.25
439.829	569.25
440.05	595.25
440.272	662.25
440.493	627.25
440.715	579.25
440.936	557.25
441.158	561.25
441.379	541.25
441.6	568.25
441.822	604.25
442.043	632.25
442.264	700.25
442.486	755.25
442.707	629.25
442.928	623.25
443.149	607.25
443.371	594.25
443.592	673.25
443.813	735.25
444.034	841.25
444.255	703.25
444.476	623.25
444.698	613.25
444.919	608.25
445.14	717.25
445.361	661.25
445.582	646.25
445.803	683.25
446.024	779.25
446.245	772.25
446.466	723.25
446.687	612.25
446.908	583.25
447.129	555.25
447.35	565.25
447.571	555.25
447.792	507.25
448.013	541.25
448.234	540.25
448.455	589.25
448.675	732.25
448.896	818.25
449.117	709.25
449.338	668.25
449.559	735.25
449.779	867.25
450	675.25
450.221	571.25
450.442	525.25
450.662	540.25
450.883	520.25
451.104	524.25
451.324	474.25
451.545	515.25
451.766	490.25
451.986	507.25
452.207	482.25
452.428	464.25
452.648	475.25
452.869	471.25
453.089	485.25
453.31	499.25
453.53	490.25
453.751	468.25
453.971	462.25
454.192	483.25
454.412	480.25
454.633	482.25
454.853	477.25
455.073	488.25
455.294	502.25
455.514	574.25
455.734	540.25
455.955	467.25
456.175	453.25
456.395	448.25
456.616	440.25
456.836	448.25
457.056	474.25
457.276	411.25
457.497	471.25
457.717	470.25
457.937	449.25
458.157	461.25
458.377	466.25
458.598	481.25
458.818	538.25
459.038	601.25
459.258	615.25
459.478	540.25
459.698	521.25
459.918	504.25
460.138	532.25
460.358	565.25
460.578	531.25
460.798	548.25
461.018	554.25
461.238	522.25
461.458	537.25
461.678	527.25
461.898	549.25
462.118	542.25
462.338	546.25
462.558	535.25
462.777	584.25
462.997	613.25
463.217	611.25
463.437	632.25
463.657	584.25
463.876	597.25
464.096	610.25
464.316	578.25
464.536	580.25
464.755	586.25
464.975	590.25
465.195	608.25
465.414	648.25
465.634	572.25
465.854	564.25
466.073	525.25
466.293	528.25
466.512	510.25
466.732	499.25
466.951	484.25
467.171	503.25
467.391	492.25
467.61	512.25
467.829	510.25
468.049	499.25
468.268	525.25
468.488	499.25
468.707	461.25
468.927	476.25
469.146	485.25
469.365	490.25
469.585	497.25
469.804	498.25
470.023	490.25
470.243	525.25
470.462	485.25
470.681	518.25
470.901	521.25
471.12	523.25
471.339	525.25
471.558	501.25
471.777	508.25
471.997	485.25
472.216	495.25
472.435	541.25
472.654	523.25
472.873	489.25
473.092	497.25
473.311	481.25
473.53	487.25
473.749	511.25
473.968	555.25
474.187	619.25
474.406	664.25
474.625	552.25
474.844	528.25
475.063	503.25
475.282	495.25
475.501	499.25
475.72	493.25
475.939	511.25
476.158	519.25
476.377	490.25
476.596	515.25
476.814	554.25
477.033	520.25
477.252	534.25
477.471	545.25
477.69	535.25
477.908	540.25
478.127	550.25
478.346	544.25
478.564	559.25
478.783	563.25
479.002	563.25
479.22	564.25
479.439	560.25
479.658	611.25
479.876	588.25
480.095	616.25
480.313	646.25
480.532	615.25
480.751	626.25
480.969	620.25
481.188	643.25
481.406	665.25
481.624	632.25
481.843	600.25
482.061	587.25
482.28	608.25
482.498	587.25
482.717	567.25
482.935	591.25
483.153	553.25
483.372	568.25
483.59	562.25
483.808	605.25
484.027	572.25
484.245	585.25
484.463	603.25
484.681	601.25
484.9	589.25
485.118	602.25
485.336	577.25
485.554	602.25
485.772	596.25
485.99	590.25
486.209	603.25
486.427	606.25
486.645	606.25
486.863	627.25
487.081	596.25
487.299	616.25
487.517	631.25
487.735	637.25
487.953	632.25
488.171	627.25
488.389	624.25
488.607	617.25
488.825	616.25
489.043	632.25
489.261	633.25
489.479	628.25
489.696	639.25
489.914	643.25
490.132	645.25
490.35	641.25
490.568	661.25
490.786	649.25
491.003	673.25
491.221	675.25
491.439	709.25
491.657	712.25
491.874	717.25
492.092	716.25
492.31	720.25
492.527	742.25
492.745	722.25
492.963	711.25
493.18	738.25
493.398	731.25
493.615	733.25
493.833	716.25
494.05	741.25
494.268	726.25
494.485	722.25
494.703	730.25
494.92	710.25
495.138	739.25
495.355	758.25
495.573	738.25
495.79	721.25
496.008	736.25
496.225	746.25
496.442	736.25
496.66	749.25
496.877	726.25
497.094	752.25
497.312	758.25
497.529	757.25
497.746	762.25
497.963	770.25
498.181	811.25
498.398	850.25
498.615	832.25
498.832	902.25
499.049	894.25
499.267	926.25
499.484	925.25
499.701	1018.25
499.918	1051.25
500.135	1100.25
500.352	1176.25
500.569	1188.25
500.786	1199.25
501.003	1171.25
501.22	1157.25
501.437	1069.25
501.654	996.25
501.871	986.25
502.088	956.25
502.305	898.25
502.522	853.25
502.739	833.25
502.956	831.25
503.172	798.25
503.389	806.25
503.606	770.25
503.823	755.25
504.04	747.25
504.256	752.25
504.473	755.25
504.69	760.25
504.907	746.25
505.123	736.25
505.34	742.25
505.557	711.25
505.773	702.25
505.99	676.25
506.207	691.25
506.423	676.25
506.64	694.25
506.856	669.25
507.073	677.25
507.289	677.25
507.506	644.25
507.722	681.25
507.939	661.25
508.155	639.25
508.372	650.25
508.588	657.25
508.805	649.25
509.021	637.25
509.238	666.25
509.454	667.25
509.67	652.25
509.887	667.25
510.103	620.25
510.319	646.25
510.536	713.25
510.752	1064.25
510.968	871.25
511.184	671.25
511.401	627.25
511.617	630.25
511.833	649.25
512.049	603.25
512.265	607.25
512.481	596.25
512.698	612.25
512.914	601.25
513.13	599.25
513.346	604.25
513.562	586.25
513.778	593.25
513.994	627.25
514.21	610.25
514.426	650.25
514.642	667.25
514.858	667.25
515.074	704.25
515.29	801.25
515.506	1083.25
515.721	909.25
515.937	695.25
516.153	647.25
516.369	624.25
516.585	652.25
516.801	616.25
517.016	648.25
517.232	653.25
517.448	672.25
517.664	677.25
517.879	680.25
518.095	642.25
518.311	636.25
518.527	653.25
518.742	635.25
518.958	626.25
519.173	619.25
519.389	609.25
519.605	595.25
519.82	595.25
520.036	641.25
520.251	616.25
520.467	633.25
520.682	652.25
520.898	650.25
521.113	663.25
521.329	674.25
521.544	728.25
521.76	875.25
521.975	1299.25
522.19	1315.25
522.406	797.25
522.621	676.25
522.836	618.25
523.052	567.25
523.267	580.25
523.482	576.25
523.698	544.25
523.913	554.25
524.128	579.25
524.343	540.25
524.559	544.25
524.774	520.25
524.989	567.25
525.204	555.25
525.419	538.25
525.634	537.25
525.849	513.25
526.064	523.25
526.28	537.25
526.495	524.25
526.71	530.25
526.925	523.25
527.14	515.25
527.355	517.25
527.57	516.25
527.785	537.25
527.999	503.25
528.214	507.25
528.429	531.25
528.644	507.25
528.859	500.25
529.074	504.25
529.289	545.25
529.503	585.25
529.718	570.25
529.933	538.25
530.148	524.25
530.363	517.25
530.577	535.25
530.792	503.25
531.007	495.25
531.221	480.25
531.436	497.25
531.651	498.25
531.865	489.25
532.08	496.25
532.295	494.25
532.509	462.25
532.724	482.25
532.938	475.25
533.153	487.25
533.367	469.25
533.582	513.25
533.796	485.25
534.011	461.25
534.225	486.25
534.44	482.25
534.654	493.25
534.868	468.25
535.083	478.25
535.297	485.25
535.511	476.25
535.726	487.25
535.94	465.25
536.154	499.25
536.369	479.25
536.583	467.25
536.797	477.25
537.011	501.25
537.225	477.25
537.44	483.25
537.654	459.25
537.868	454.25
538.082	442.25
538.296	458.25
538.51	460.25
538.724	461.25
538.938	464.25
539.153	459.25
539.367	471.25
539.581	460.25
539.795	457.25
540.009	475.25
540.222	456.25
540.436	483.25
540.65	484.25
540.864	452.25
541.078	460.25
541.292	492.25
541.506	484.25
541.72	477.25
541.934	480.25
542.147	463.25
542.361	464.25
542.575	456.25
542.789	483.25
543.002	476.25
543.216	482.25
543.43	472.25
543.644	463.25
543.857	471.25
544.071	475.25
544.285	500.25
544.498	474.25
544.712	488.25
544.925	489.25
545.139	466.25
545.352	457.25
545.566	458.25
545.779	477.25
545.993	468.25
546.206	465.25
546.42	480.25
546.633	456.25
546.847	474.25
547.06	457.25
547.274	442.25
547.487	455.25
547.7	478.25
547.914	456.25
548.127	472.25
548.34	474.25
548.554	471.25
548.767	457.25
548.98	472.25
549.193	449.25
549.407	459.25
549.62	460.25
549.833	455.25
550.046	467.25
550.259	472.25
550.473	463.25
550.686	467.25
550.899	474.25
551.112	453.25
551.325	449.25
551.538	460.25
551.751	452.25
551.964	435.25
552.177	465.25
552.39	464.25
552.603	459.25
552.816	455.25
553.029	447.25
553.242	461.25
553.455	464.25
553.667	480.25
553.88	495.25
554.093	475.25
554.306	484.25
554.519	470.25
554.732	466.25
554.944	437.25
555.157	436.25
555.37	432.25
555.583	434.25
555.795	427.25
556.008	415.25
556.221	442.25
556.433	423.25
556.646	412.25
556.859	431.25
557.071	413.25
557.284	418.25
557.496	411.25
557.709	418.25
557.921	406.25
558.134	408.25
558.346	415.25
558.559	417.25
558.771	405.25
558.984	400.25
559.196	392.25
559.409	406.25
559.621	397.25
559.833	391.25
560.046	421.25
560.258	397.25
560.47	399.25
560.683	398.25
560.895	394.25
561.107	388.25
561.32	390.25
561.532	407.25
561.744	413.25
561.956	405.25
562.168	398.25
562.381	390.25
562.593	418.25
562.805	401.25
563.017	407.25
563.229	400.25
563.441	402.25
563.653	423.25
563.865	426.25
564.077	429.25
564.289	412.25
564.501	428.25
564.713	410.25
564.925	438.25
565.137	432.25
565.349	440.25
565.561	436.25
565.773	469.25
565.985	462.25
566.197	461.25
566.408	510.25
566.62	529.25
566.832	534.25
567.044	520.25
567.255	541.25
567.467	544.25
567.679	554.25
567.891	583.25
568.102	571.25
568.314	581.25
568.526	538.25
568.737	524.25
568.949	473.25
569.161	457.25
569.372	457.25
569.584	438.25
569.795	418.25
570.007	451.25
570.218	436.25
570.43	412.25
570.641	417.25
570.853	417.25
571.064	406.25
571.276	396.25
571.487	398.25
571.698	419.25
571.91	381.25
572.121	370.25
572.333	365.25
572.544	379.25
572.755	371.25
572.966	364.25
573.178	364.25
573.389	362.25
573.6	346.25
573.811	362.25
574.023	348.25
574.234	353.25
574.445	346.25
574.656	341.25
574.867	356.25
575.078	373.25
575.289	361.25
575.501	347.25
575.712	351.25
575.923	324.25
576.134	354.25
576.345	358.25
576.556	341.25
576.767	327.25
576.978	329.25
577.188	342.25
577.399	343.25
577.61	357.25
577.821	330.25
578.032	315.25
578.243	348.25
578.454	497.25
578.665	403.25
578.875	356.25
579.086	322.25
579.297	329.25
579.508	327.25
579.718	318.25
579.929	333.25
580.14	327.25
580.35	310.25
580.561	313.25
580.772	299.25
580.982	322.25
581.193	327.25
581.403	309.25
581.614	312.25
581.825	316.25
582.035	315.25
582.246	330.25
582.456	299.25
582.667	333.25
582.877	323.25
583.087	313.25
583.298	311.25
583.508	293.25
583.719	324.25
583.929	321.25
584.139	329.25
584.35	306.25
584.56	318.25
584.77	321.25
584.981	317.25
585.191	305.25
585.401	279.25
585.611	311.25
585.821	310.25
586.032	326.25
586.242	312.25
586.452	311.25
586.662	293.25
586.872	301.25
587.082	314.25
587.292	295.25
587.502	295.25
587.713	321.25
587.923	289.25
588.133	303.25
588.343	300.25
588.553	299.25
588.762	303.25
588.972	297.25
589.182	307.25
589.392	286.25
589.602	315.25
589.812	317.25
590.022	305.25
590.232	297.25
590.441	305.25
590.651	311.25
590.861	297.25
591.071	316.25
591.281	316.25
591.49	312.25
591.7	317.25
591.91	311.25
592.119	308.25
592.329	341.25
592.539	325.25
592.748	329.25
592.958	328.25
593.167	341.25
593.377	353.25
593.587	355.25
593.796	345.25
594.006	337.25
594.215	333.25
594.424	326.25
594.634	334.25
594.843	314.25
595.053	345.25
595.262	346.25
595.472	308.25
595.681	307.25
595.89	289.25
596.1	308.25
596.309	293.25
596.518	292.25
596.727	286.25
596.937	297.25
597.146	310.25
597.355	283.25
597.564	287.25
597.774	293.25
597.983	286.25
598.192	299.25
598.401	284.25
598.61	264.25
598.819	295.25
599.028	273.25
599.237	283.25
599.446	275.25
599.655	278.25
599.864	281.25
600.073	276.25
600.282	276.25
600.491	282.25
600.7	272.25
600.909	253.25
601.118	252.25
601.327	265.25
601.536	270.25
601.745	264.25
601.953	275.25
602.162	269.25
602.371	265.25
602.58	258.25
602.789	270.25
602.997	263.25
603.206	276.25
603.415	262.25
603.623	264.25
603.832	281.25
604.041	267.25
604.249	281.25
604.458	261.25
604.666	239.25
604.875	260.25
605.084	250.25
605.292	263.25
605.501	260.25
605.709	270.25
605.918	261.25
606.126	265.25
606.334	275.25
606.543	273.25
606.751	255.25
606.96	259.25
607.168	259.25
607.376	258.25
607.585	240.25
607.793	257.25
608.001	255.25
608.21	235.25
608.418	245.25
608.626	241.25
608.834	245.25
609.043	257.25
609.251	253.25
609.459	257.25
609.667	258.25
609.875	265.25
610.083	241.25
610.291	261.25
610.499	247.25
610.707	236.25
610.916	250.25
611.124	271.25
611.332	268.25
611.54	268.25
611.748	266.25
611.955	262.25
612.163	251.25
612.371	265.25
612.579	243.25
612.787	239.25
612.995	261.25
613.203	249.25
613.411	225.25
613.618	254.25
613.826	252.25
614.034	244.25
614.242	232.25
614.449	231.25
614.657	232.25
614.865	245.25
615.072	253.25
615.28	244.25
615.488	232.25
615.695	259.25
615.903	241.25
616.111	259.25
616.318	253.25
616.526	256.25
616.733	250.25
616.941	266.25
617.148	250.25
617.356	244.25
617.563	233.25
617.771	245.25
617.978	239.25
618.185	247.25
618.393	221.25
618.6	262.25
618.807	245.25
619.015	259.25
619.222	241.25
619.429	244.25
619.637	229.25
619.844	232.25
620.051	239.25
620.258	234.25
620.466	232.25
620.673	236.25
620.88	223.25
621.087	218.25
621.294	232.25
621.501	220.25
621.708	218.25
621.915	244.25
622.122	223.25
622.329	249.25
622.536	222.25
622.743	217.25
622.95	222.25
623.157	226.25
623.364	231.25
623.571	224.25
623.778	227.25
623.985	230.25
624.192	232.25
624.399	236.25
624.606	241.25
624.812	220.25
625.019	224.25
625.226	218.25
625.433	219.25
625.639	234.25
625.846	213.25
626.053	215.25
626.259	209.25
626.466	211.25
626.673	227.25
626.879	221.25
627.086	218.25
627.293	215.25
627.499	210.25
627.706	199.25
627.912	214.25
628.119	197.25
628.325	212.25
628.532	203.25
628.738	222.25
628.945	210.25
629.151	205.25
629.357	197.25
629.564	213.25
629.77	211.25
629.976	212.25
630.183	200.25
630.389	195.25
630.595	202.25
630.802	200.25
631.008	195.25
631.214	202.25
631.42	212.25
631.627	191.25
631.833	186.25
632.039	186.25
632.245	199.25
632.451	183.25
632.657	196.25
632.863	209.25
633.069	201.25
633.275	214.25
633.481	187.25
633.688	185.25
633.893	200.25
634.099	171.25
634.305	199.25
634.511	195.25
634.717	192.25
634.923	188.25
635.129	186.25
635.335	175.25
635.541	194.25
635.747	195.25
635.952	192.25
636.158	180.25
636.364	202.25
636.57	207.25
636.775	189.25
636.981	181.25
637.187	192.25
637.392	188.25
637.598	192.25
637.804	178.25
638.009	175.25
638.215	183.25
638.421	176.25
638.626	191.25
638.832	181.25
639.037	182.25
639.243	183.25
639.448	175.25
639.654	184.25
639.859	187.25
640.065	166.25
640.27	186.25
640.475	160.25
640.681	175.25
640.886	178.25
641.091	190.25
641.297	179.25
641.502	163.25
641.707	170.25
641.913	192.25
642.118	183.25
642.323	188.25
642.528	180.25
642.733	178.25
642.939	176.25
643.144	172.25
643.349	165.25
643.554	151.25
643.759	169.25
643.964	166.25
644.169	172.25
644.374	156.25
644.579	163.25
644.784	170.25
644.989	171.25
645.194	172.25
645.399	166.25
645.604	171.25
645.809	179.25
646.014	166.25
646.219	168.25
646.423	187.25
646.628	176.25
646.833	183.25
647.038	171.25
647.243	167.25
647.447	162.25
647.652	181.25
647.857	169.25
648.062	166.25
648.266	153.25
648.471	165.25
648.676	179.25
648.88	172.25
649.085	177.25
649.289	175.25
649.494	163.25
649.698	191.25
649.903	181.25
650.107	191.25
650.312	168.25
650.516	175.25
650.721	152.25
650.925	153.25
651.13	152.25
651.334	158.25
651.539	158.25
651.743	155.25
651.947	147.25
652.152	151.25
652.356	149.25
652.56	160.25
652.764	166.25
652.969	151.25
653.173	137.25
653.377	156.25
653.581	134.25
653.785	148.25
653.99	143.25
654.194	131.25
654.398	135.25
654.602	140.25
654.806	135.25
655.01	163.25
655.214	148.25
655.418	138.25
655.622	151.25
655.826	139.25
656.03	129.25
656.234	136.25
656.438	145.25
656.642	141.25
656.846	142.25
657.049	133.25
657.253	129.25
657.457	123.25
657.661	133.25
657.865	113.25
658.068	126.25
658.272	102.25
658.476	105.25
658.68	98.25
658.883	99.25
659.087	113.25
659.291	98.25
659.494	112.25
659.698	106.25
659.901	100.25
660.105	91.25
660.309	104.25
660.512	99.25
660.716	88.25
660.919	94.25
661.123	108.25
661.326	89.25
661.53	98.25
661.733	92.25
661.936	87.25
662.14	93.25
662.343	80.25
662.546	82.25
662.75	86.25
662.953	90.25
663.156	75.25
663.36	84.25
663.563	75.25
663.766	85.25
663.969	85.25
664.173	77.25
664.376	87.25
664.579	86.25
664.782	106.25
664.985	99.25
665.188	88.25
665.391	67.25
665.594	89.25
665.797	75.25
666	74.25
666.203	85.25
666.406	72.25
666.609	87.25
666.812	98.25
667.015	81.25
667.218	79.25
667.421	81.25
667.624	87.25
667.827	87.25
668.03	83.25
668.232	88.25
668.435	96.25
668.638	70.25
668.841	89.25
669.043	76.25
669.246	84.25
669.449	72.25
669.651	79.25
669.854	71.25
670.057	70.25
670.259	75.25
670.462	78.25
670.665	92.25
670.867	86.25
671.07	85.25
671.272	69.25
671.475	84.25
671.677	81.25
671.88	74.25
672.082	86.25
672.284	84.25
672.487	79.25
672.689	95.25
672.892	90.25
