Data from 1976.PennyLincolnUp.Lamp.En5.5.200Scan.071719.P1.Changed Mount._HRD10591_16-01-48-861.txt Node
Date: Thu Jul 18 16:01:48 EDT 2019
User: cochatt
Spectrometer: HR+D1059
Trigger mode: 1
Integration Time (sec): 1.000000E-1
Scans to average: 1
Electric dark correction enabled: true
Nonlinearity correction enabled: false
Boxcar width: 0
XAxis mode: Wavelengths
Number of Pixels in Spectrum: 2048
>>>>>Begin Spectral Data<<<<<
223.165	-27.31
223.4	-27.31
223.635	-27.31
223.869	-19.31
224.104	-24.31
224.338	-2.31
224.573	-14.31
224.808	-15.31
225.042	-12.31
225.277	-14.31
225.511	-10.31
225.746	-0.31
225.98	15.69
226.215	5.69
226.449	27.69
226.683	29.69
226.918	22.69
227.152	38.69
227.387	23.69
227.621	40.69
227.856	44.69
228.09	56.69
228.324	44.69
228.559	39.69
228.793	75.69
229.027	108.69
229.262	98.69
229.496	111.69
229.73	127.69
229.964	147.69
230.199	117.69
230.433	114.69
230.667	117.69
230.901	126.69
231.136	123.69
231.37	125.69
231.604	115.69
231.838	99.69
232.072	102.69
232.306	128.69
232.541	113.69
232.775	118.69
233.009	113.69
233.243	121.69
233.477	117.69
233.711	122.69
233.945	117.69
234.179	117.69
234.413	109.69
234.647	127.69
234.881	115.69
235.115	106.69
235.349	111.69
235.583	136.69
235.817	127.69
236.051	126.69
236.285	121.69
236.519	130.69
236.753	143.69
236.987	140.69
237.221	179.69
237.455	231.69
237.689	193.69
237.922	140.69
238.156	131.69
238.39	135.69
238.624	128.69
238.858	131.69
239.091	129.69
239.325	124.69
239.559	123.69
239.793	122.69
240.027	133.69
240.26	157.69
240.494	146.69
240.728	151.69
240.961	134.69
241.195	149.69
241.429	137.69
241.662	131.69
241.896	139.69
242.13	131.69
242.363	145.69
242.597	136.69
242.83	129.69
243.064	130.69
243.298	140.69
243.531	126.69
243.765	144.69
243.998	145.69
244.232	146.69
244.465	136.69
244.699	153.69
244.932	159.69
245.166	139.69
245.399	163.69
245.633	164.69
245.866	141.69
246.099	152.69
246.333	157.69
246.566	162.69
246.8	155.69
247.033	152.69
247.266	169.69
247.5	179.69
247.733	179.69
247.966	180.69
248.2	175.69
248.433	188.69
248.666	181.69
248.899	198.69
249.133	203.69
249.366	195.69
249.599	199.69
249.832	184.69
250.066	177.69
250.299	190.69
250.532	209.69
250.765	203.69
250.998	239.69
251.231	234.69
251.465	222.69
251.698	204.69
251.931	211.69
252.164	199.69
252.397	208.69
252.63	205.69
252.863	203.69
253.096	212.69
253.329	231.69
253.562	232.69
253.795	212.69
254.028	233.69
254.261	221.69
254.494	234.69
254.727	256.69
254.96	287.69
255.193	275.69
255.426	223.69
255.659	254.69
255.892	234.69
256.124	232.69
256.357	245.69
256.59	245.69
256.823	236.69
257.056	233.69
257.289	224.69
257.521	215.69
257.754	219.69
257.987	217.69
258.22	243.69
258.452	213.69
258.685	204.69
258.918	191.69
259.151	227.69
259.383	221.69
259.616	224.69
259.849	232.69
260.081	239.69
260.314	265.69
260.547	269.69
260.779	269.69
261.012	234.69
261.244	244.69
261.477	220.69
261.71	227.69
261.942	228.69
262.175	240.69
262.407	247.69
262.64	217.69
262.872	224.69
263.105	221.69
263.337	221.69
263.57	219.69
263.802	226.69
264.035	227.69
264.267	236.69
264.499	227.69
264.732	209.69
264.964	230.69
265.197	232.69
265.429	223.69
265.661	233.69
265.894	227.69
266.126	241.69
266.358	233.69
266.591	229.69
266.823	243.69
267.055	225.69
267.287	252.69
267.52	259.69
267.752	247.69
267.984	231.69
268.216	262.69
268.448	247.69
268.681	259.69
268.913	280.69
269.145	277.69
269.377	283.69
269.609	278.69
269.841	287.69
270.073	292.69
270.306	299.69
270.538	334.69
270.77	339.69
271.002	300.69
271.234	303.69
271.466	303.69
271.698	322.69
271.93	332.69
272.162	320.69
272.394	325.69
272.626	317.69
272.858	292.69
273.09	307.69
273.322	305.69
273.553	266.69
273.785	279.69
274.017	288.69
274.249	291.69
274.481	282.69
274.713	268.69
274.945	289.69
275.176	289.69
275.408	283.69
275.64	289.69
275.872	281.69
276.104	284.69
276.335	290.69
276.567	294.69
276.799	301.69
277.031	322.69
277.262	354.69
277.494	342.69
277.726	327.69
277.957	324.69
278.189	289.69
278.421	300.69
278.652	274.69
278.884	287.69
279.115	282.69
279.347	301.69
279.579	272.69
279.81	289.69
280.042	281.69
280.273	288.69
280.505	280.69
280.736	289.69
280.968	288.69
281.199	299.69
281.431	305.69
281.662	287.69
281.894	285.69
282.125	297.69
282.356	315.69
282.588	335.69
282.819	322.69
283.051	307.69
283.282	296.69
283.513	311.69
283.745	304.69
283.976	299.69
284.207	316.69
284.439	318.69
284.67	307.69
284.901	304.69
285.132	315.69
285.364	303.69
285.595	288.69
285.826	300.69
286.057	313.69
286.288	316.69
286.52	314.69
286.751	291.69
286.982	304.69
287.213	327.69
287.444	323.69
287.675	313.69
287.906	320.69
288.138	313.69
288.369	345.69
288.6	336.69
288.831	345.69
289.062	324.69
289.293	316.69
289.524	313.69
289.755	323.69
289.986	312.69
290.217	312.69
290.448	314.69
290.679	317.69
290.91	295.69
291.141	324.69
291.371	307.69
291.602	318.69
291.833	317.69
292.064	327.69
292.295	318.69
292.526	331.69
292.757	313.69
292.987	319.69
293.218	309.69
293.449	329.69
293.68	319.69
293.91	331.69
294.141	327.69
294.372	330.69
294.603	323.69
294.833	315.69
295.064	330.69
295.295	331.69
295.525	327.69
295.756	332.69
295.987	322.69
296.217	339.69
296.448	346.69
296.679	333.69
296.909	327.69
297.14	331.69
297.37	313.69
297.601	332.69
297.831	349.69
298.062	340.69
298.292	336.69
298.523	353.69
298.753	347.69
298.984	335.69
299.214	339.69
299.445	327.69
299.675	329.69
299.905	344.69
300.136	334.69
300.366	334.69
300.597	345.69
300.827	349.69
301.057	359.69
301.288	367.69
301.518	346.69
301.748	358.69
301.979	355.69
302.209	351.69
302.439	375.69
302.669	348.69
302.9	341.69
303.13	351.69
303.36	355.69
303.59	378.69
303.82	379.69
304.051	378.69
304.281	360.69
304.511	359.69
304.741	350.69
304.971	352.69
305.201	345.69
305.431	367.69
305.661	356.69
305.891	356.69
306.121	374.69
306.352	374.69
306.582	358.69
306.812	379.69
307.042	357.69
307.272	374.69
307.502	374.69
307.731	360.69
307.961	367.69
308.191	341.69
308.421	365.69
308.651	387.69
308.881	372.69
309.111	387.69
309.341	357.69
309.571	364.69
309.8	385.69
310.03	391.69
310.26	401.69
310.49	384.69
310.72	379.69
310.949	411.69
311.179	416.69
311.409	403.69
311.639	387.69
311.868	397.69
312.098	387.69
312.328	413.69
312.557	411.69
312.787	428.69
313.017	428.69
313.246	408.69
313.476	405.69
313.706	405.69
313.935	423.69
314.165	427.69
314.394	431.69
314.624	419.69
314.853	426.69
315.083	399.69
315.312	410.69
315.542	407.69
315.771	400.69
316.001	384.69
316.23	399.69
316.46	408.69
316.689	416.69
316.919	409.69
317.148	429.69
317.377	411.69
317.607	417.69
317.836	400.69
318.065	425.69
318.295	397.69
318.524	415.69
318.753	411.69
318.983	405.69
319.212	410.69
319.441	399.69
319.67	422.69
319.9	427.69
320.129	390.69
320.358	409.69
320.587	414.69
320.816	403.69
321.046	409.69
321.275	416.69
321.504	415.69
321.733	404.69
321.962	425.69
322.191	431.69
322.42	437.69
322.649	440.69
322.878	460.69
323.108	463.69
323.337	491.69
323.566	500.69
323.795	517.69
324.024	599.69
324.253	659.69
324.482	901.69
324.71	1381.69
324.939	2040.69
325.168	1741.69
325.397	894.69
325.626	603.69
325.855	529.69
326.084	517.69
326.313	514.69
326.542	492.69
326.77	531.69
326.999	627.69
327.228	844.69
327.457	1237.69
327.686	1521.69
327.914	1027.69
328.143	669.69
328.372	611.69
328.6	569.69
328.829	557.69
329.058	577.69
329.287	553.69
329.515	542.69
329.744	513.69
329.972	520.69
330.201	557.69
330.43	562.69
330.658	567.69
330.887	597.69
331.115	595.69
331.344	536.69
331.572	524.69
331.801	504.69
332.03	519.69
332.258	476.69
332.486	497.69
332.715	506.69
332.943	480.69
333.172	500.69
333.4	493.69
333.629	513.69
333.857	531.69
334.085	548.69
334.314	553.69
334.542	563.69
334.771	579.69
334.999	528.69
335.227	539.69
335.455	503.69
335.684	512.69
335.912	490.69
336.14	475.69
336.369	473.69
336.597	486.69
336.825	485.69
337.053	487.69
337.281	484.69
337.51	470.69
337.738	479.69
337.966	463.69
338.194	496.69
338.422	468.69
338.65	452.69
338.878	470.69
339.106	480.69
339.334	471.69
339.562	460.69
339.79	438.69
340.018	461.69
340.246	465.69
340.474	475.69
340.702	462.69
340.93	461.69
341.158	452.69
341.386	460.69
341.614	458.69
341.842	451.69
342.07	440.69
342.298	444.69
342.526	454.69
342.754	458.69
342.981	422.69
343.209	456.69
343.437	455.69
343.665	459.69
343.893	471.69
344.12	499.69
344.348	487.69
344.576	502.69
344.804	486.69
345.031	466.69
345.259	465.69
345.487	472.69
345.714	467.69
345.942	452.69
346.17	464.69
346.397	465.69
346.625	438.69
346.853	443.69
347.08	459.69
347.308	457.69
347.535	444.69
347.763	461.69
347.99	449.69
348.218	423.69
348.445	458.69
348.673	451.69
348.9	455.69
349.128	448.69
349.355	432.69
349.583	426.69
349.81	403.69
350.037	431.69
350.265	426.69
350.492	408.69
350.72	421.69
350.947	445.69
351.174	445.69
351.402	468.69
351.629	436.69
351.856	445.69
352.083	459.69
352.311	468.69
352.538	461.69
352.765	442.69
352.992	439.69
353.22	459.69
353.447	431.69
353.674	420.69
353.901	422.69
354.128	415.69
354.355	411.69
354.583	425.69
354.81	429.69
355.037	423.69
355.264	434.69
355.491	430.69
355.718	427.69
355.945	416.69
356.172	413.69
356.399	418.69
356.626	407.69
356.853	424.69
357.08	389.69
357.307	434.69
357.534	411.69
357.761	433.69
357.988	413.69
358.215	408.69
358.441	407.69
358.668	439.69
358.895	410.69
359.122	438.69
359.349	425.69
359.576	442.69
359.802	475.69
360.029	481.69
360.256	480.69
360.483	474.69
360.709	433.69
360.936	447.69
361.163	439.69
361.39	429.69
361.616	437.69
361.843	421.69
362.07	448.69
362.296	452.69
362.523	437.69
362.749	437.69
362.976	446.69
363.203	418.69
363.429	431.69
363.656	427.69
363.882	431.69
364.109	437.69
364.335	420.69
364.562	399.69
364.788	450.69
365.015	420.69
365.241	422.69
365.468	437.69
365.694	443.69
365.92	409.69
366.147	426.69
366.373	443.69
366.599	405.69
366.826	437.69
367.052	399.69
367.278	413.69
367.505	419.69
367.731	438.69
367.957	439.69
368.184	418.69
368.41	418.69
368.636	440.69
368.862	471.69
369.089	441.69
369.315	419.69
369.541	413.69
369.767	442.69
369.993	431.69
370.219	433.69
370.445	428.69
370.672	433.69
370.898	424.69
371.124	420.69
371.35	438.69
371.576	437.69
371.802	435.69
372.028	432.69
372.254	401.69
372.48	425.69
372.706	429.69
372.932	423.69
373.158	451.69
373.384	427.69
373.61	453.69
373.835	428.69
374.061	441.69
374.287	420.69
374.513	426.69
374.739	459.69
374.965	434.69
375.191	456.69
375.416	442.69
375.642	448.69
375.868	434.69
376.094	444.69
376.319	439.69
376.545	444.69
376.771	418.69
376.997	419.69
377.222	444.69
377.448	433.69
377.674	425.69
377.899	396.69
378.125	422.69
378.35	401.69
378.576	431.69
378.802	426.69
379.027	423.69
379.253	415.69
379.478	428.69
379.704	417.69
379.929	443.69
380.155	435.69
380.38	437.69
380.606	438.69
380.831	435.69
381.057	476.69
381.282	419.69
381.507	423.69
381.733	455.69
381.958	437.69
382.184	433.69
382.409	432.69
382.634	437.69
382.86	437.69
383.085	460.69
383.31	457.69
383.535	468.69
383.761	464.69
383.986	439.69
384.211	471.69
384.436	461.69
384.662	456.69
384.887	452.69
385.112	458.69
385.337	468.69
385.562	481.69
385.787	478.69
386.013	496.69
386.238	495.69
386.463	485.69
386.688	489.69
386.913	453.69
387.138	475.69
387.363	472.69
387.588	485.69
387.813	474.69
388.038	470.69
388.263	478.69
388.488	473.69
388.713	497.69
388.938	497.69
389.163	487.69
389.387	492.69
389.612	464.69
389.837	483.69
390.062	472.69
390.287	455.69
390.512	489.69
390.736	476.69
390.961	477.69
391.186	461.69
391.411	503.69
391.636	484.69
391.86	500.69
392.085	521.69
392.31	490.69
392.534	485.69
392.759	489.69
392.984	490.69
393.208	464.69
393.433	497.69
393.658	469.69
393.882	481.69
394.107	495.69
394.331	498.69
394.556	497.69
394.78	480.69
395.005	503.69
395.229	502.69
395.454	508.69
395.678	521.69
395.903	508.69
396.127	520.69
396.352	525.69
396.576	475.69
396.801	497.69
397.025	501.69
397.249	489.69
397.474	527.69
397.698	518.69
397.922	512.69
398.147	550.69
398.371	535.69
398.595	523.69
398.82	542.69
399.044	563.69
399.268	604.69
399.492	605.69
399.717	673.69
399.941	684.69
400.165	676.69
400.389	698.69
400.613	649.69
400.837	587.69
401.062	589.69
401.286	558.69
401.51	570.69
401.734	549.69
401.958	550.69
402.182	555.69
402.406	565.69
402.63	549.69
402.854	554.69
403.078	552.69
403.302	571.69
403.526	586.69
403.75	590.69
403.974	611.69
404.198	575.69
404.422	597.69
404.645	588.69
404.869	604.69
405.093	618.69
405.317	674.69
405.541	713.69
405.765	651.69
405.988	610.69
406.212	632.69
406.436	653.69
406.66	667.69
406.883	631.69
407.107	651.69
407.331	715.69
407.555	766.69
407.778	744.69
408.002	709.69
408.226	675.69
408.449	615.69
408.673	651.69
408.896	643.69
409.12	704.69
409.344	685.69
409.567	623.69
409.791	590.69
410.014	600.69
410.238	581.69
410.461	598.69
410.685	577.69
410.908	598.69
411.132	629.69
411.355	659.69
411.578	620.69
411.802	586.69
412.025	568.69
412.249	580.69
412.472	604.69
412.695	668.69
412.919	629.69
413.142	601.69
413.365	582.69
413.589	575.69
413.812	553.69
414.035	561.69
414.258	549.69
414.482	538.69
414.705	576.69
414.928	556.69
415.151	557.69
415.374	548.69
415.597	535.69
415.821	542.69
416.044	557.69
416.267	537.69
416.49	532.69
416.713	538.69
416.936	556.69
417.159	565.69
417.382	561.69
417.605	577.69
417.828	564.69
418.051	554.69
418.274	538.69
418.497	565.69
418.72	559.69
418.943	536.69
419.166	577.69
419.389	593.69
419.611	593.69
419.834	592.69
420.057	579.69
420.28	582.69
420.503	570.69
420.726	549.69
420.948	591.69
421.171	643.69
421.394	661.69
421.617	592.69
421.839	581.69
422.062	572.69
422.285	587.69
422.507	648.69
422.73	722.69
422.953	702.69
423.175	616.69
423.398	612.69
423.621	587.69
423.843	629.69
424.066	620.69
424.288	607.69
424.511	647.69
424.733	689.69
424.956	743.69
425.178	723.69
425.401	728.69
425.623	751.69
425.846	641.69
426.068	619.69
426.291	619.69
426.513	593.69
426.735	623.69
426.958	649.69
427.18	724.69
427.402	861.69
427.625	959.69
427.847	804.69
428.069	709.69
428.292	649.69
428.514	602.69
428.736	579.69
428.958	561.69
429.181	544.69
429.403	552.69
429.625	538.69
429.847	567.69
430.069	664.69
430.292	654.69
430.514	577.69
430.736	545.69
430.958	551.69
431.18	523.69
431.402	541.69
431.624	519.69
431.846	526.69
432.068	551.69
432.29	516.69
432.512	533.69
432.734	539.69
432.956	526.69
433.178	563.69
433.4	560.69
433.622	530.69
433.844	542.69
434.066	540.69
434.287	528.69
434.509	544.69
434.731	528.69
434.953	572.69
435.175	580.69
435.397	595.69
435.618	615.69
435.84	619.69
436.062	732.69
436.284	787.69
436.505	659.69
436.727	619.69
436.949	552.69
437.17	547.69
437.392	570.69
437.614	571.69
437.835	600.69
438.057	706.69
438.278	807.69
438.5	785.69
438.721	860.69
438.943	846.69
439.165	675.69
439.386	613.69
439.608	614.69
439.829	619.69
440.05	632.69
440.272	637.69
440.493	648.69
440.715	611.69
440.936	559.69
441.158	553.69
441.379	586.69
441.6	596.69
441.822	603.69
442.043	635.69
442.264	727.69
442.486	771.69
442.707	665.69
442.928	637.69
443.149	621.69
443.371	649.69
443.592	661.69
443.813	768.69
444.034	866.69
444.255	701.69
444.476	647.69
444.698	623.69
444.919	595.69
445.14	742.69
445.361	674.69
445.582	651.69
445.803	696.69
446.024	833.69
446.245	823.69
446.466	743.69
446.687	640.69
446.908	610.69
447.129	576.69
447.35	547.69
447.571	553.69
447.792	540.69
448.013	569.69
448.234	579.69
448.455	641.69
448.675	723.69
448.896	860.69
449.117	719.69
449.338	657.69
449.559	791.69
449.779	909.69
450	722.69
450.221	584.69
450.442	547.69
450.662	548.69
450.883	532.69
451.104	550.69
451.324	546.69
451.545	537.69
451.766	527.69
451.986	500.69
452.207	513.69
452.428	484.69
452.648	489.69
452.869	503.69
453.089	480.69
453.31	515.69
453.53	492.69
453.751	483.69
453.971	495.69
454.192	503.69
454.412	479.69
454.633	476.69
454.853	456.69
455.073	471.69
455.294	537.69
455.514	571.69
455.734	577.69
455.955	497.69
456.175	466.69
456.395	444.69
456.616	463.69
456.836	462.69
457.056	460.69
457.276	460.69
457.497	469.69
457.717	454.69
457.937	465.69
458.157	455.69
458.377	472.69
458.598	498.69
458.818	556.69
459.038	623.69
459.258	652.69
459.478	558.69
459.698	545.69
459.918	526.69
460.138	542.69
460.358	562.69
460.578	562.69
460.798	529.69
461.018	564.69
461.238	551.69
461.458	544.69
461.678	535.69
461.898	571.69
462.118	539.69
462.338	581.69
462.558	573.69
462.777	579.69
462.997	593.69
463.217	601.69
463.437	637.69
463.657	612.69
463.876	619.69
464.096	600.69
464.316	584.69
464.536	596.69
464.755	588.69
464.975	592.69
465.195	606.69
465.414	651.69
465.634	604.69
465.854	551.69
466.073	536.69
466.293	515.69
466.512	517.69
466.732	508.69
466.951	508.69
467.171	473.69
467.391	516.69
467.61	513.69
467.829	522.69
468.049	516.69
468.268	529.69
468.488	496.69
468.707	498.69
468.927	500.69
469.146	484.69
469.365	516.69
469.585	496.69
469.804	519.69
470.023	503.69
470.243	496.69
470.462	511.69
470.681	543.69
470.901	531.69
471.12	488.69
471.339	517.69
471.558	518.69
471.777	523.69
471.997	497.69
472.216	505.69
472.435	534.69
472.654	535.69
472.873	518.69
473.092	505.69
473.311	505.69
473.53	518.69
473.749	527.69
473.968	556.69
474.187	641.69
474.406	693.69
474.625	589.69
474.844	524.69
475.063	532.69
475.282	508.69
475.501	501.69
475.72	547.69
475.939	538.69
476.158	531.69
476.377	508.69
476.596	512.69
476.814	531.69
477.033	547.69
477.252	540.69
477.471	530.69
477.69	534.69
477.908	547.69
478.127	567.69
478.346	573.69
478.564	575.69
478.783	572.69
479.002	570.69
479.22	579.69
479.439	582.69
479.658	610.69
479.876	615.69
480.095	615.69
480.313	695.69
480.532	633.69
480.751	649.69
480.969	657.69
481.188	673.69
481.406	709.69
481.624	653.69
481.843	618.69
482.061	603.69
482.28	601.69
482.498	592.69
482.717	577.69
482.935	583.69
483.153	580.69
483.372	611.69
483.59	602.69
483.808	577.69
484.027	614.69
484.245	590.69
484.463	596.69
484.681	606.69
484.9	615.69
485.118	606.69
485.336	610.69
485.554	637.69
485.772	639.69
485.99	637.69
486.209	641.69
486.427	637.69
486.645	617.69
486.863	633.69
487.081	631.69
487.299	656.69
487.517	627.69
487.735	649.69
487.953	629.69
488.171	644.69
488.389	640.69
488.607	624.69
488.825	643.69
489.043	629.69
489.261	643.69
489.479	640.69
489.696	644.69
489.914	666.69
490.132	646.69
490.35	673.69
490.568	657.69
490.786	680.69
491.003	691.69
491.221	693.69
491.439	707.69
491.657	681.69
491.874	751.69
492.092	769.69
492.31	726.69
492.527	716.69
492.745	724.69
492.963	751.69
493.18	723.69
493.398	754.69
493.615	744.69
493.833	738.69
494.05	762.69
494.268	735.69
494.485	766.69
494.703	742.69
494.92	749.69
495.138	755.69
495.355	753.69
495.573	759.69
495.79	752.69
496.008	784.69
496.225	762.69
496.442	753.69
496.66	777.69
496.877	767.69
497.094	777.69
497.312	757.69
497.529	805.69
497.746	806.69
497.963	808.69
498.181	821.69
498.398	841.69
498.615	868.69
498.832	887.69
499.049	919.69
499.267	919.69
499.484	957.69
499.701	1027.69
499.918	1035.69
500.135	1130.69
500.352	1199.69
500.569	1212.69
500.786	1228.69
501.003	1197.69
501.22	1140.69
501.437	1092.69
501.654	1041.69
501.871	1004.69
502.088	974.69
502.305	917.69
502.522	891.69
502.739	884.69
502.956	845.69
503.172	807.69
503.389	809.69
503.606	808.69
503.823	765.69
504.04	781.69
504.256	763.69
504.473	774.69
504.69	762.69
504.907	758.69
505.123	745.69
505.34	715.69
505.557	734.69
505.773	721.69
505.99	708.69
506.207	705.69
506.423	680.69
506.64	699.69
506.856	725.69
507.073	693.69
507.289	713.69
507.506	694.69
507.722	701.69
507.939	707.69
508.155	677.69
508.372	660.69
508.588	668.69
508.805	645.69
509.021	661.69
509.238	699.69
509.454	675.69
509.67	667.69
509.887	673.69
510.103	636.69
510.319	661.69
510.536	735.69
510.752	1063.69
510.968	887.69
511.184	665.69
511.401	600.69
511.617	638.69
511.833	627.69
512.049	637.69
512.265	636.69
512.481	642.69
512.698	611.69
512.914	626.69
513.13	627.69
513.346	627.69
513.562	635.69
513.778	608.69
513.994	639.69
514.21	641.69
514.426	645.69
514.642	668.69
514.858	701.69
515.074	739.69
515.29	815.69
515.506	1091.69
515.721	946.69
515.937	740.69
516.153	703.69
516.369	667.69
516.585	638.69
516.801	633.69
517.016	671.69
517.232	685.69
517.448	697.69
517.664	680.69
517.879	688.69
518.095	676.69
518.311	657.69
518.527	662.69
518.742	650.69
518.958	646.69
519.173	647.69
519.389	657.69
519.605	645.69
519.82	623.69
520.036	635.69
520.251	652.69
520.467	672.69
520.682	637.69
520.898	669.69
521.113	677.69
521.329	723.69
521.544	759.69
521.76	884.69
521.975	1385.69
522.19	1375.69
522.406	828.69
522.621	655.69
522.836	634.69
523.052	589.69
523.267	612.69
523.482	589.69
523.698	571.69
523.913	576.69
524.128	576.69
524.343	537.69
524.559	576.69
524.774	562.69
524.989	556.69
525.204	551.69
525.419	561.69
525.634	569.69
525.849	539.69
526.064	525.69
526.28	525.69
526.495	541.69
526.71	521.69
526.925	501.69
527.14	509.69
527.355	532.69
527.57	527.69
527.785	519.69
527.999	525.69
528.214	533.69
528.429	524.69
528.644	537.69
528.859	532.69
529.074	532.69
529.289	531.69
529.503	603.69
529.718	559.69
529.933	525.69
530.148	532.69
530.363	507.69
530.577	533.69
530.792	539.69
531.007	530.69
531.221	497.69
531.436	516.69
531.651	511.69
531.865	506.69
532.08	521.69
532.295	515.69
532.509	498.69
532.724	519.69
532.938	513.69
533.153	516.69
533.367	502.69
533.582	480.69
533.796	505.69
534.011	497.69
534.225	500.69
534.44	481.69
534.654	510.69
534.868	488.69
535.083	492.69
535.297	506.69
535.511	490.69
535.726	504.69
535.94	500.69
536.154	502.69
536.369	499.69
536.583	481.69
536.797	479.69
537.011	484.69
537.225	490.69
537.44	474.69
537.654	458.69
537.868	467.69
538.082	473.69
538.296	486.69
538.51	476.69
538.724	519.69
538.938	490.69
539.153	486.69
539.367	501.69
539.581	465.69
539.795	474.69
540.009	489.69
540.222	496.69
540.436	465.69
540.65	467.69
540.864	467.69
541.078	491.69
541.292	492.69
541.506	483.69
541.72	486.69
541.934	481.69
542.147	459.69
542.361	477.69
542.575	460.69
542.789	473.69
543.002	499.69
543.216	476.69
543.43	483.69
543.644	499.69
543.857	468.69
544.071	473.69
544.285	498.69
544.498	469.69
544.712	493.69
544.925	508.69
545.139	474.69
545.352	485.69
545.566	471.69
545.779	455.69
545.993	489.69
546.206	492.69
546.42	485.69
546.633	467.69
546.847	466.69
547.06	472.69
547.274	482.69
547.487	471.69
547.7	460.69
547.914	480.69
548.127	458.69
548.34	469.69
548.554	480.69
548.767	455.69
548.98	467.69
549.193	461.69
549.407	458.69
549.62	451.69
549.833	471.69
550.046	470.69
550.259	449.69
550.473	481.69
550.686	458.69
550.899	441.69
551.112	460.69
551.325	460.69
551.538	459.69
551.751	449.69
551.964	448.69
552.177	464.69
552.39	470.69
552.603	466.69
552.816	481.69
553.029	455.69
553.242	484.69
553.455	487.69
553.667	475.69
553.88	495.69
554.093	473.69
554.306	473.69
554.519	483.69
554.732	472.69
554.944	461.69
555.157	459.69
555.37	463.69
555.583	440.69
555.795	447.69
556.008	451.69
556.221	449.69
556.433	429.69
556.646	411.69
556.859	420.69
557.071	409.69
557.284	403.69
557.496	418.69
557.709	415.69
557.921	408.69
558.134	415.69
558.346	428.69
558.559	415.69
558.771	401.69
558.984	405.69
559.196	403.69
559.409	406.69
559.621	419.69
559.833	403.69
560.046	411.69
560.258	414.69
560.47	395.69
560.683	402.69
560.895	415.69
561.107	426.69
561.32	406.69
561.532	410.69
561.744	405.69
561.956	419.69
562.168	397.69
562.381	417.69
562.593	400.69
562.805	405.69
563.017	382.69
563.229	419.69
563.441	407.69
563.653	416.69
563.865	428.69
564.077	436.69
564.289	417.69
564.501	437.69
564.713	455.69
564.925	442.69
565.137	447.69
565.349	442.69
565.561	456.69
565.773	468.69
565.985	477.69
566.197	504.69
566.408	490.69
566.62	510.69
566.832	541.69
567.044	550.69
567.255	526.69
567.467	578.69
567.679	570.69
567.891	594.69
568.102	584.69
568.314	549.69
568.526	531.69
568.737	504.69
568.949	488.69
569.161	468.69
569.372	453.69
569.584	431.69
569.795	453.69
570.007	428.69
570.218	463.69
570.43	451.69
570.641	422.69
570.853	391.69
571.064	419.69
571.276	399.69
571.487	392.69
571.698	399.69
571.91	399.69
572.121	387.69
572.333	387.69
572.544	375.69
572.755	377.69
572.966	371.69
573.178	383.69
573.389	362.69
573.6	358.69
573.811	343.69
574.023	362.69
574.234	371.69
574.445	360.69
574.656	361.69
574.867	345.69
575.078	346.69
575.289	345.69
575.501	375.69
575.712	354.69
575.923	339.69
576.134	338.69
576.345	336.69
576.556	335.69
576.767	352.69
576.978	344.69
577.188	353.69
577.399	339.69
577.61	345.69
577.821	361.69
578.032	344.69
578.243	358.69
578.454	542.69
578.665	426.69
578.875	340.69
579.086	303.69
579.297	333.69
579.508	335.69
579.718	337.69
579.929	340.69
580.14	313.69
580.35	344.69
580.561	309.69
580.772	311.69
580.982	322.69
581.193	337.69
581.403	323.69
581.614	329.69
581.825	343.69
582.035	336.69
582.246	317.69
582.456	316.69
582.667	311.69
582.877	327.69
583.087	311.69
583.298	328.69
583.508	332.69
583.719	315.69
583.929	328.69
584.139	308.69
584.35	323.69
584.56	298.69
584.77	338.69
584.981	330.69
585.191	323.69
585.401	308.69
585.611	329.69
585.821	307.69
586.032	313.69
586.242	310.69
586.452	310.69
586.662	314.69
586.872	297.69
587.082	330.69
587.292	317.69
587.502	317.69
587.713	288.69
587.923	311.69
588.133	311.69
588.343	303.69
588.553	301.69
588.762	293.69
588.972	307.69
589.182	296.69
589.392	339.69
589.602	303.69
589.812	298.69
590.022	293.69
590.232	318.69
590.441	303.69
590.651	304.69
590.861	301.69
591.071	319.69
591.281	318.69
591.49	317.69
591.7	308.69
591.91	332.69
592.119	333.69
592.329	321.69
592.539	329.69
592.748	339.69
592.958	345.69
593.167	318.69
593.377	338.69
593.587	359.69
593.796	355.69
594.006	338.69
594.215	354.69
594.424	337.69
594.634	343.69
594.843	353.69
595.053	331.69
595.262	328.69
595.472	316.69
595.681	308.69
595.89	310.69
596.1	291.69
596.309	327.69
596.518	323.69
596.727	284.69
596.937	311.69
597.146	300.69
597.355	296.69
597.564	276.69
597.774	288.69
597.983	275.69
598.192	294.69
598.401	283.69
598.61	290.69
598.819	283.69
599.028	252.69
599.237	283.69
599.446	282.69
599.655	277.69
599.864	286.69
600.073	272.69
600.282	264.69
600.491	261.69
600.7	261.69
600.909	283.69
601.118	257.69
601.327	263.69
601.536	277.69
601.745	276.69
601.953	265.69
602.162	271.69
602.371	260.69
602.58	264.69
602.789	256.69
602.997	274.69
603.206	268.69
603.415	278.69
603.623	277.69
603.832	258.69
604.041	265.69
604.249	289.69
604.458	268.69
604.666	258.69
604.875	264.69
605.084	240.69
605.292	253.69
605.501	261.69
605.709	265.69
605.918	271.69
606.126	255.69
606.334	260.69
606.543	260.69
606.751	267.69
606.96	244.69
607.168	275.69
607.376	279.69
607.585	255.69
607.793	263.69
608.001	260.69
608.21	260.69
608.418	244.69
608.626	258.69
608.834	259.69
609.043	235.69
609.251	242.69
609.459	252.69
609.667	260.69
609.875	246.69
610.083	241.69
610.291	247.69
610.499	257.69
610.707	262.69
610.916	268.69
611.124	250.69
611.332	265.69
611.54	252.69
611.748	258.69
611.955	263.69
612.163	266.69
612.371	247.69
612.579	235.69
612.787	247.69
612.995	240.69
613.203	268.69
613.411	227.69
613.618	250.69
613.826	279.69
614.034	251.69
614.242	236.69
614.449	234.69
614.657	241.69
614.865	242.69
615.072	253.69
615.28	236.69
615.488	250.69
615.695	245.69
615.903	239.69
616.111	255.69
616.318	265.69
616.526	244.69
616.733	246.69
616.941	263.69
617.148	234.69
617.356	258.69
617.563	241.69
617.771	259.69
617.978	252.69
618.185	234.69
618.393	237.69
618.6	240.69
618.807	243.69
619.015	250.69
619.222	236.69
619.429	244.69
619.637	228.69
619.844	227.69
620.051	234.69
620.258	235.69
620.466	232.69
620.673	227.69
620.88	213.69
621.087	231.69
621.294	232.69
621.501	235.69
621.708	241.69
621.915	241.69
622.122	228.69
622.329	250.69
622.536	232.69
622.743	257.69
622.95	232.69
623.157	216.69
623.364	215.69
623.571	244.69
623.778	232.69
623.985	229.69
624.192	217.69
624.399	210.69
624.606	232.69
624.812	223.69
625.019	233.69
625.226	208.69
625.433	232.69
625.639	220.69
625.846	216.69
626.053	225.69
626.259	217.69
626.466	199.69
626.673	180.69
626.879	217.69
627.086	218.69
627.293	216.69
627.499	213.69
627.706	208.69
627.912	209.69
628.119	216.69
628.325	229.69
628.532	217.69
628.738	197.69
628.945	209.69
629.151	212.69
629.357	215.69
629.564	207.69
629.77	198.69
629.976	217.69
630.183	205.69
630.389	211.69
630.595	187.69
630.802	203.69
631.008	201.69
631.214	195.69
631.42	193.69
631.627	221.69
631.833	210.69
632.039	203.69
632.245	209.69
632.451	216.69
632.657	194.69
632.863	206.69
633.069	194.69
633.275	197.69
633.481	192.69
633.688	185.69
633.893	191.69
634.099	179.69
634.305	192.69
634.511	191.69
634.717	183.69
634.923	203.69
635.129	191.69
635.335	193.69
635.541	184.69
635.747	200.69
635.952	207.69
636.158	198.69
636.364	194.69
636.57	210.69
636.775	173.69
636.981	200.69
637.187	195.69
637.392	190.69
637.598	193.69
637.804	179.69
638.009	189.69
638.215	202.69
638.421	178.69
638.626	205.69
638.832	190.69
639.037	191.69
639.243	182.69
639.448	188.69
639.654	168.69
639.859	179.69
640.065	181.69
640.27	164.69
640.475	179.69
640.681	187.69
640.886	172.69
641.091	167.69
641.297	170.69
641.502	165.69
641.707	186.69
641.913	164.69
642.118	172.69
642.323	187.69
642.528	177.69
642.733	169.69
642.939	156.69
643.144	161.69
643.349	167.69
643.554	169.69
643.759	173.69
643.964	167.69
644.169	170.69
644.374	170.69
644.579	161.69
644.784	186.69
644.989	165.69
645.194	172.69
645.399	174.69
645.604	164.69
645.809	187.69
646.014	168.69
646.219	167.69
646.423	176.69
646.628	171.69
646.833	172.69
647.038	185.69
647.243	160.69
647.447	177.69
647.652	179.69
647.857	168.69
648.062	172.69
648.266	155.69
648.471	168.69
648.676	180.69
648.88	173.69
649.085	180.69
649.289	193.69
649.494	172.69
649.698	150.69
649.903	184.69
650.107	174.69
650.312	181.69
650.516	150.69
650.721	182.69
650.925	154.69
651.13	148.69
651.334	147.69
651.539	154.69
651.743	138.69
651.947	143.69
652.152	151.69
652.356	158.69
652.56	137.69
652.764	146.69
652.969	133.69
653.173	146.69
653.377	157.69
653.581	132.69
653.785	135.69
653.99	137.69
654.194	133.69
654.398	135.69
654.602	132.69
654.806	130.69
655.01	147.69
655.214	147.69
655.418	151.69
655.622	130.69
655.826	161.69
656.03	132.69
656.234	140.69
656.438	135.69
656.642	135.69
656.846	137.69
657.049	139.69
657.253	130.69
657.457	124.69
657.661	124.69
657.865	115.69
658.068	108.69
658.272	105.69
658.476	113.69
658.68	102.69
658.883	105.69
659.087	94.69
659.291	90.69
659.494	103.69
659.698	85.69
659.901	97.69
660.105	97.69
660.309	105.69
660.512	103.69
660.716	96.69
660.919	99.69
661.123	95.69
661.326	100.69
661.53	94.69
661.733	88.69
661.936	91.69
662.14	92.69
662.343	82.69
662.546	90.69
662.75	89.69
662.953	81.69
663.156	75.69
663.36	73.69
663.563	85.69
663.766	73.69
663.969	95.69
664.173	76.69
664.376	77.69
664.579	76.69
664.782	80.69
664.985	88.69
665.188	90.69
665.391	83.69
665.594	85.69
665.797	91.69
666	69.69
666.203	83.69
666.406	83.69
666.609	69.69
666.812	75.69
667.015	69.69
667.218	77.69
667.421	84.69
667.624	66.69
667.827	80.69
668.03	74.69
668.232	66.69
668.435	79.69
668.638	83.69
668.841	87.69
669.043	77.69
669.246	99.69
669.449	86.69
669.651	76.69
669.854	77.69
670.057	90.69
670.259	77.69
670.462	77.69
670.665	72.69
670.867	72.69
671.07	85.69
671.272	76.69
671.475	86.69
671.677	86.69
671.88	64.69
672.082	74.69
672.284	71.69
672.487	89.69
672.689	80.69
672.892	86.69
