Data from 1976.PennyLincolnUp.Lamp.En5.5.200Scan.071719.P1.Changed Mount._HRD10591_16-00-54-861.txt Node
Date: Thu Jul 18 16:00:54 EDT 2019
User: cochatt
Spectrometer: HR+D1059
Trigger mode: 1
Integration Time (sec): 1.000000E-1
Scans to average: 1
Electric dark correction enabled: true
Nonlinearity correction enabled: false
Boxcar width: 0
XAxis mode: Wavelengths
Number of Pixels in Spectrum: 2048
>>>>>Begin Spectral Data<<<<<
223.165	-18.12
223.4	-18.12
223.635	-18.12
223.869	-17.12
224.104	-23.12
224.338	-17.12
224.573	-10.12
224.808	-17.12
225.042	-11.12
225.277	-3.12
225.511	5.88
225.746	8.88
225.98	11.88
226.215	2.88
226.449	11.88
226.683	20.88
226.918	32.88
227.152	21.88
227.387	28.88
227.621	39.88
227.856	41.88
228.09	50.88
228.324	56.88
228.559	52.88
228.793	62.88
229.027	96.88
229.262	108.88
229.496	90.88
229.73	140.88
229.964	159.88
230.199	125.88
230.433	116.88
230.667	114.88
230.901	121.88
231.136	99.88
231.37	121.88
231.604	114.88
231.838	112.88
232.072	118.88
232.306	122.88
232.541	113.88
232.775	109.88
233.009	105.88
233.243	122.88
233.477	119.88
233.711	124.88
233.945	114.88
234.179	110.88
234.413	118.88
234.647	116.88
234.881	116.88
235.115	106.88
235.349	130.88
235.583	141.88
235.817	113.88
236.051	124.88
236.285	126.88
236.519	130.88
236.753	132.88
236.987	130.88
237.221	176.88
237.455	224.88
237.689	167.88
237.922	141.88
238.156	141.88
238.39	132.88
238.624	122.88
238.858	132.88
239.091	125.88
239.325	145.88
239.559	126.88
239.793	130.88
240.027	142.88
240.26	144.88
240.494	160.88
240.728	145.88
240.961	152.88
241.195	139.88
241.429	139.88
241.662	137.88
241.896	133.88
242.13	154.88
242.363	143.88
242.597	132.88
242.83	142.88
243.064	158.88
243.298	150.88
243.531	130.88
243.765	150.88
243.998	147.88
244.232	154.88
244.465	139.88
244.699	158.88
244.932	157.88
245.166	144.88
245.399	151.88
245.633	157.88
245.866	151.88
246.099	142.88
246.333	169.88
246.566	152.88
246.8	166.88
247.033	168.88
247.266	175.88
247.5	162.88
247.733	168.88
247.966	174.88
248.2	174.88
248.433	178.88
248.666	186.88
248.899	189.88
249.133	214.88
249.366	193.88
249.599	193.88
249.832	199.88
250.066	187.88
250.299	192.88
250.532	196.88
250.765	199.88
250.998	247.88
251.231	228.88
251.465	226.88
251.698	215.88
251.931	198.88
252.164	206.88
252.397	201.88
252.63	205.88
252.863	211.88
253.096	206.88
253.329	237.88
253.562	225.88
253.795	221.88
254.028	218.88
254.261	224.88
254.494	238.88
254.727	247.88
254.96	273.88
255.193	280.88
255.426	258.88
255.659	237.88
255.892	229.88
256.124	239.88
256.357	237.88
256.59	217.88
256.823	232.88
257.056	215.88
257.289	199.88
257.521	212.88
257.754	216.88
257.987	222.88
258.22	224.88
258.452	211.88
258.685	218.88
258.918	206.88
259.151	214.88
259.383	220.88
259.616	250.88
259.849	230.88
260.081	239.88
260.314	258.88
260.547	264.88
260.779	252.88
261.012	240.88
261.244	255.88
261.477	235.88
261.71	230.88
261.942	237.88
262.175	235.88
262.407	232.88
262.64	226.88
262.872	226.88
263.105	235.88
263.337	232.88
263.57	225.88
263.802	235.88
264.035	217.88
264.267	223.88
264.499	221.88
264.732	213.88
264.964	223.88
265.197	221.88
265.429	236.88
265.661	237.88
265.894	228.88
266.126	238.88
266.358	235.88
266.591	235.88
266.823	252.88
267.055	239.88
267.287	239.88
267.52	241.88
267.752	231.88
267.984	247.88
268.216	253.88
268.448	250.88
268.681	251.88
268.913	269.88
269.145	268.88
269.377	291.88
269.609	304.88
269.841	293.88
270.073	286.88
270.306	285.88
270.538	317.88
270.77	316.88
271.002	347.88
271.234	299.88
271.466	315.88
271.698	323.88
271.93	329.88
272.162	310.88
272.394	327.88
272.626	326.88
272.858	294.88
273.09	292.88
273.322	286.88
273.553	285.88
273.785	288.88
274.017	274.88
274.249	298.88
274.481	281.88
274.713	282.88
274.945	282.88
275.176	278.88
275.408	284.88
275.64	279.88
275.872	282.88
276.104	279.88
276.335	299.88
276.567	298.88
276.799	299.88
277.031	319.88
277.262	353.88
277.494	324.88
277.726	331.88
277.957	311.88
278.189	306.88
278.421	284.88
278.652	298.88
278.884	293.88
279.115	313.88
279.347	306.88
279.579	302.88
279.81	274.88
280.042	286.88
280.273	291.88
280.505	292.88
280.736	286.88
280.968	294.88
281.199	297.88
281.431	298.88
281.662	300.88
281.894	284.88
282.125	297.88
282.356	307.88
282.588	320.88
282.819	317.88
283.051	312.88
283.282	292.88
283.513	299.88
283.745	293.88
283.976	288.88
284.207	318.88
284.439	322.88
284.67	313.88
284.901	290.88
285.132	334.88
285.364	300.88
285.595	308.88
285.826	309.88
286.057	313.88
286.288	326.88
286.52	310.88
286.751	299.88
286.982	327.88
287.213	308.88
287.444	316.88
287.675	323.88
287.906	329.88
288.138	334.88
288.369	339.88
288.6	324.88
288.831	323.88
289.062	344.88
289.293	313.88
289.524	299.88
289.755	331.88
289.986	325.88
290.217	307.88
290.448	308.88
290.679	315.88
290.91	322.88
291.141	326.88
291.371	315.88
291.602	322.88
291.833	320.88
292.064	331.88
292.295	314.88
292.526	321.88
292.757	336.88
292.987	324.88
293.218	317.88
293.449	338.88
293.68	323.88
293.91	319.88
294.141	336.88
294.372	331.88
294.603	333.88
294.833	332.88
295.064	335.88
295.295	336.88
295.525	336.88
295.756	317.88
295.987	334.88
296.217	359.88
296.448	345.88
296.679	329.88
296.909	327.88
297.14	347.88
297.37	364.88
297.601	328.88
297.831	324.88
298.062	325.88
298.292	333.88
298.523	335.88
298.753	342.88
298.984	352.88
299.214	347.88
299.445	342.88
299.675	350.88
299.905	339.88
300.136	312.88
300.366	347.88
300.597	351.88
300.827	341.88
301.057	358.88
301.288	368.88
301.518	356.88
301.748	366.88
301.979	358.88
302.209	376.88
302.439	366.88
302.669	352.88
302.9	358.88
303.13	360.88
303.36	380.88
303.59	377.88
303.82	350.88
304.051	378.88
304.281	363.88
304.511	358.88
304.741	366.88
304.971	346.88
305.201	360.88
305.431	367.88
305.661	354.88
305.891	357.88
306.121	364.88
306.352	361.88
306.582	368.88
306.812	359.88
307.042	352.88
307.272	379.88
307.502	372.88
307.731	373.88
307.961	367.88
308.191	370.88
308.421	360.88
308.651	360.88
308.881	372.88
309.111	363.88
309.341	368.88
309.571	378.88
309.8	402.88
310.03	400.88
310.26	409.88
310.49	393.88
310.72	406.88
310.949	426.88
311.179	439.88
311.409	405.88
311.639	404.88
311.868	410.88
312.098	420.88
312.328	409.88
312.557	446.88
312.787	424.88
313.017	432.88
313.246	412.88
313.476	410.88
313.706	421.88
313.935	414.88
314.165	416.88
314.394	437.88
314.624	418.88
314.853	418.88
315.083	408.88
315.312	390.88
315.542	408.88
315.771	397.88
316.001	412.88
316.23	410.88
316.46	421.88
316.689	418.88
316.919	415.88
317.148	438.88
317.377	422.88
317.607	399.88
317.836	407.88
318.065	397.88
318.295	391.88
318.524	414.88
318.753	384.88
318.983	401.88
319.212	388.88
319.441	403.88
319.67	414.88
319.9	406.88
320.129	388.88
320.358	400.88
320.587	408.88
320.816	412.88
321.046	419.88
321.275	434.88
321.504	420.88
321.733	423.88
321.962	421.88
322.191	447.88
322.42	451.88
322.649	470.88
322.878	454.88
323.108	471.88
323.337	470.88
323.566	481.88
323.795	532.88
324.024	564.88
324.253	639.88
324.482	864.88
324.71	1323.88
324.939	1926.88
325.168	1733.88
325.397	895.88
325.626	634.88
325.855	552.88
326.084	504.88
326.313	517.88
326.542	507.88
326.77	532.88
326.999	611.88
327.228	832.88
327.457	1208.88
327.686	1473.88
327.914	989.88
328.143	628.88
328.372	593.88
328.6	563.88
328.829	549.88
329.058	570.88
329.287	563.88
329.515	538.88
329.744	525.88
329.972	516.88
330.201	506.88
330.43	559.88
330.658	581.88
330.887	623.88
331.115	573.88
331.344	525.88
331.572	507.88
331.801	515.88
332.03	523.88
332.258	494.88
332.486	489.88
332.715	473.88
332.943	488.88
333.172	513.88
333.4	511.88
333.629	517.88
333.857	543.88
334.085	553.88
334.314	545.88
334.542	570.88
334.771	586.88
334.999	517.88
335.227	506.88
335.455	518.88
335.684	516.88
335.912	479.88
336.14	475.88
336.369	475.88
336.597	492.88
336.825	486.88
337.053	477.88
337.281	480.88
337.51	479.88
337.738	468.88
337.966	488.88
338.194	489.88
338.422	471.88
338.65	496.88
338.878	480.88
339.106	456.88
339.334	467.88
339.562	443.88
339.79	462.88
340.018	445.88
340.246	462.88
340.474	457.88
340.702	442.88
340.93	475.88
341.158	467.88
341.386	452.88
341.614	427.88
341.842	463.88
342.07	436.88
342.298	462.88
342.526	452.88
342.754	443.88
342.981	447.88
343.209	469.88
343.437	458.88
343.665	474.88
343.893	477.88
344.12	495.88
344.348	480.88
344.576	480.88
344.804	479.88
345.031	486.88
345.259	502.88
345.487	479.88
345.714	467.88
345.942	447.88
346.17	467.88
346.397	465.88
346.625	446.88
346.853	428.88
347.08	425.88
347.308	435.88
347.535	442.88
347.763	436.88
347.99	457.88
348.218	467.88
348.445	457.88
348.673	477.88
348.9	457.88
349.128	450.88
349.355	429.88
349.583	418.88
349.81	443.88
350.037	426.88
350.265	414.88
350.492	427.88
350.72	416.88
350.947	428.88
351.174	454.88
351.402	454.88
351.629	424.88
351.856	448.88
352.083	440.88
352.311	447.88
352.538	448.88
352.765	467.88
352.992	465.88
353.22	442.88
353.447	437.88
353.674	448.88
353.901	445.88
354.128	430.88
354.355	420.88
354.583	425.88
354.81	427.88
355.037	420.88
355.264	420.88
355.491	411.88
355.718	416.88
355.945	405.88
356.172	425.88
356.399	407.88
356.626	414.88
356.853	436.88
357.08	416.88
357.307	418.88
357.534	414.88
357.761	409.88
357.988	418.88
358.215	412.88
358.441	428.88
358.668	424.88
358.895	430.88
359.122	440.88
359.349	435.88
359.576	442.88
359.802	458.88
360.029	459.88
360.256	489.88
360.483	471.88
360.709	450.88
360.936	444.88
361.163	446.88
361.39	435.88
361.616	431.88
361.843	418.88
362.07	438.88
362.296	462.88
362.523	434.88
362.749	452.88
362.976	443.88
363.203	454.88
363.429	425.88
363.656	428.88
363.882	416.88
364.109	432.88
364.335	446.88
364.562	424.88
364.788	425.88
365.015	422.88
365.241	438.88
365.468	418.88
365.694	420.88
365.92	435.88
366.147	424.88
366.373	430.88
366.599	437.88
366.826	428.88
367.052	424.88
367.278	432.88
367.505	429.88
367.731	412.88
367.957	417.88
368.184	424.88
368.41	438.88
368.636	447.88
368.862	441.88
369.089	439.88
369.315	430.88
369.541	432.88
369.767	435.88
369.993	426.88
370.219	434.88
370.445	436.88
370.672	430.88
370.898	454.88
371.124	437.88
371.35	427.88
371.576	422.88
371.802	440.88
372.028	438.88
372.254	445.88
372.48	435.88
372.706	434.88
372.932	452.88
373.158	428.88
373.384	440.88
373.61	449.88
373.835	436.88
374.061	449.88
374.287	429.88
374.513	461.88
374.739	438.88
374.965	456.88
375.191	442.88
375.416	438.88
375.642	450.88
375.868	422.88
376.094	427.88
376.319	427.88
376.545	438.88
376.771	416.88
376.997	429.88
377.222	422.88
377.448	447.88
377.674	438.88
377.899	419.88
378.125	420.88
378.35	420.88
378.576	422.88
378.802	421.88
379.027	428.88
379.253	450.88
379.478	439.88
379.704	425.88
379.929	452.88
380.155	448.88
380.38	439.88
380.606	424.88
380.831	422.88
381.057	425.88
381.282	444.88
381.507	454.88
381.733	442.88
381.958	434.88
382.184	426.88
382.409	455.88
382.634	444.88
382.86	445.88
383.085	429.88
383.31	437.88
383.535	458.88
383.761	460.88
383.986	464.88
384.211	455.88
384.436	447.88
384.662	469.88
384.887	490.88
385.112	455.88
385.337	480.88
385.562	483.88
385.787	482.88
386.013	501.88
386.238	488.88
386.463	506.88
386.688	497.88
386.913	459.88
387.138	476.88
387.363	486.88
387.588	481.88
387.813	507.88
388.038	500.88
388.263	493.88
388.488	476.88
388.713	493.88
388.938	476.88
389.163	501.88
389.387	502.88
389.612	487.88
389.837	467.88
390.062	484.88
390.287	468.88
390.512	476.88
390.736	471.88
390.961	490.88
391.186	492.88
391.411	499.88
391.636	510.88
391.86	506.88
392.085	527.88
392.31	506.88
392.534	507.88
392.759	490.88
392.984	496.88
393.208	495.88
393.433	507.88
393.658	476.88
393.882	474.88
394.107	494.88
394.331	486.88
394.556	475.88
394.78	469.88
395.005	495.88
395.229	484.88
395.454	534.88
395.678	507.88
395.903	541.88
396.127	551.88
396.352	516.88
396.576	534.88
396.801	514.88
397.025	495.88
397.249	503.88
397.474	510.88
397.698	528.88
397.922	578.88
398.147	560.88
398.371	555.88
398.595	570.88
398.82	568.88
399.044	581.88
399.268	604.88
399.492	642.88
399.717	666.88
399.941	694.88
400.165	736.88
400.389	708.88
400.613	638.88
400.837	605.88
401.062	584.88
401.286	587.88
401.51	551.88
401.734	554.88
401.958	589.88
402.182	574.88
402.406	602.88
402.63	582.88
402.854	574.88
403.078	567.88
403.302	588.88
403.526	570.88
403.75	613.88
403.974	582.88
404.198	618.88
404.422	579.88
404.645	600.88
404.869	606.88
405.093	636.88
405.317	673.88
405.541	700.88
405.765	635.88
405.988	614.88
406.212	652.88
406.436	644.88
406.66	653.88
406.883	643.88
407.107	661.88
407.331	703.88
407.555	771.88
407.778	772.88
408.002	705.88
408.226	636.88
408.449	652.88
408.673	632.88
408.896	669.88
409.12	711.88
409.344	699.88
409.567	611.88
409.791	581.88
410.014	610.88
410.238	598.88
410.461	580.88
410.685	607.88
410.908	598.88
411.132	635.88
411.355	684.88
411.578	637.88
411.802	609.88
412.025	582.88
412.249	611.88
412.472	602.88
412.695	661.88
412.919	643.88
413.142	576.88
413.365	588.88
413.589	567.88
413.812	559.88
414.035	561.88
414.258	570.88
414.482	546.88
414.705	548.88
414.928	554.88
415.151	551.88
415.374	557.88
415.597	543.88
415.821	569.88
416.044	562.88
416.267	528.88
416.49	536.88
416.713	552.88
416.936	550.88
417.159	540.88
417.382	557.88
417.605	560.88
417.828	559.88
418.051	590.88
418.274	574.88
418.497	541.88
418.72	555.88
418.943	546.88
419.166	567.88
419.389	606.88
419.611	594.88
419.834	595.88
420.057	604.88
420.28	616.88
420.503	606.88
420.726	598.88
420.948	589.88
421.171	613.88
421.394	615.88
421.617	586.88
421.839	581.88
422.062	562.88
422.285	557.88
422.507	654.88
422.73	748.88
422.953	719.88
423.175	612.88
423.398	608.88
423.621	600.88
423.843	621.88
424.066	611.88
424.288	612.88
424.511	622.88
424.733	676.88
424.956	757.88
425.178	705.88
425.401	747.88
425.623	758.88
425.846	631.88
426.068	636.88
426.291	582.88
426.513	601.88
426.735	569.88
426.958	626.88
427.18	707.88
427.402	865.88
427.625	942.88
427.847	805.88
428.069	711.88
428.292	618.88
428.514	616.88
428.736	586.88
428.958	596.88
429.181	537.88
429.403	578.88
429.625	572.88
429.847	575.88
430.069	666.88
430.292	651.88
430.514	564.88
430.736	550.88
430.958	543.88
431.18	530.88
431.402	550.88
431.624	529.88
431.846	533.88
432.068	528.88
432.29	547.88
432.512	531.88
432.734	533.88
432.956	518.88
433.178	566.88
433.4	554.88
433.622	551.88
433.844	546.88
434.066	529.88
434.287	537.88
434.509	534.88
434.731	558.88
434.953	585.88
435.175	548.88
435.397	640.88
435.618	619.88
435.84	638.88
436.062	733.88
436.284	826.88
436.505	662.88
436.727	606.88
436.949	588.88
437.17	585.88
437.392	545.88
437.614	553.88
437.835	597.88
438.057	692.88
438.278	795.88
438.5	778.88
438.721	836.88
438.943	819.88
439.165	664.88
439.386	648.88
439.608	608.88
439.829	604.88
440.05	621.88
440.272	687.88
440.493	642.88
440.715	610.88
440.936	581.88
441.158	573.88
441.379	565.88
441.6	598.88
441.822	596.88
442.043	636.88
442.264	725.88
442.486	798.88
442.707	676.88
442.928	605.88
443.149	640.88
443.371	655.88
443.592	694.88
443.813	782.88
444.034	841.88
444.255	720.88
444.476	638.88
444.698	648.88
444.919	653.88
445.14	773.88
445.361	675.88
445.582	650.88
445.803	696.88
446.024	807.88
446.245	808.88
446.466	757.88
446.687	627.88
446.908	602.88
447.129	573.88
447.35	568.88
447.571	563.88
447.792	545.88
448.013	545.88
448.234	551.88
448.455	608.88
448.675	703.88
448.896	867.88
449.117	736.88
449.338	668.88
449.559	783.88
449.779	890.88
450	710.88
450.221	592.88
450.442	569.88
450.662	532.88
450.883	537.88
451.104	550.88
451.324	532.88
451.545	536.88
451.766	518.88
451.986	472.88
452.207	471.88
452.428	492.88
452.648	467.88
452.869	482.88
453.089	516.88
453.31	518.88
453.53	502.88
453.751	482.88
453.971	494.88
454.192	510.88
454.412	480.88
454.633	475.88
454.853	483.88
455.073	478.88
455.294	496.88
455.514	582.88
455.734	581.88
455.955	508.88
456.175	456.88
456.395	470.88
456.616	454.88
456.836	460.88
457.056	463.88
457.276	464.88
457.497	467.88
457.717	475.88
457.937	481.88
458.157	490.88
458.377	479.88
458.598	502.88
458.818	534.88
459.038	634.88
459.258	657.88
459.478	576.88
459.698	518.88
459.918	516.88
460.138	535.88
460.358	552.88
460.578	541.88
460.798	574.88
461.018	582.88
461.238	527.88
461.458	541.88
461.678	559.88
461.898	560.88
462.118	563.88
462.338	568.88
462.558	559.88
462.777	590.88
462.997	617.88
463.217	640.88
463.437	627.88
463.657	593.88
463.876	591.88
464.096	599.88
464.316	597.88
464.536	601.88
464.755	599.88
464.975	584.88
465.195	640.88
465.414	651.88
465.634	571.88
465.854	550.88
466.073	541.88
466.293	533.88
466.512	499.88
466.732	510.88
466.951	527.88
467.171	499.88
467.391	512.88
467.61	528.88
467.829	526.88
468.049	508.88
468.268	508.88
468.488	522.88
468.707	508.88
468.927	507.88
469.146	485.88
469.365	512.88
469.585	490.88
469.804	516.88
470.023	490.88
470.243	512.88
470.462	508.88
470.681	547.88
470.901	529.88
471.12	514.88
471.339	494.88
471.558	516.88
471.777	531.88
471.997	491.88
472.216	514.88
472.435	530.88
472.654	522.88
472.873	489.88
473.092	488.88
473.311	501.88
473.53	518.88
473.749	519.88
473.968	574.88
474.187	655.88
474.406	665.88
474.625	579.88
474.844	534.88
475.063	507.88
475.282	524.88
475.501	507.88
475.72	522.88
475.939	535.88
476.158	526.88
476.377	544.88
476.596	540.88
476.814	528.88
477.033	536.88
477.252	564.88
477.471	556.88
477.69	550.88
477.908	566.88
478.127	564.88
478.346	576.88
478.564	600.88
478.783	579.88
479.002	595.88
479.22	608.88
479.439	595.88
479.658	617.88
479.876	610.88
480.095	617.88
480.313	654.88
480.532	649.88
480.751	657.88
480.969	647.88
481.188	680.88
481.406	670.88
481.624	663.88
481.843	616.88
482.061	623.88
482.28	591.88
482.498	607.88
482.717	619.88
482.935	599.88
483.153	613.88
483.372	567.88
483.59	605.88
483.808	598.88
484.027	561.88
484.245	611.88
484.463	601.88
484.681	601.88
484.9	629.88
485.118	613.88
485.336	621.88
485.554	619.88
485.772	640.88
485.99	629.88
486.209	615.88
486.427	624.88
486.645	637.88
486.863	639.88
487.081	648.88
487.299	630.88
487.517	620.88
487.735	632.88
487.953	648.88
488.171	644.88
488.389	631.88
488.607	651.88
488.825	651.88
489.043	646.88
489.261	662.88
489.479	660.88
489.696	650.88
489.914	632.88
490.132	657.88
490.35	648.88
490.568	667.88
490.786	686.88
491.003	691.88
491.221	698.88
491.439	706.88
491.657	729.88
491.874	724.88
492.092	719.88
492.31	742.88
492.527	754.88
492.745	718.88
492.963	730.88
493.18	746.88
493.398	737.88
493.615	753.88
493.833	730.88
494.05	745.88
494.268	734.88
494.485	749.88
494.703	738.88
494.92	743.88
495.138	750.88
495.355	741.88
495.573	739.88
495.79	740.88
496.008	752.88
496.225	764.88
496.442	759.88
496.66	741.88
496.877	751.88
497.094	751.88
497.312	766.88
497.529	783.88
497.746	805.88
497.963	835.88
498.181	861.88
498.398	835.88
498.615	875.88
498.832	894.88
499.049	893.88
499.267	943.88
499.484	998.88
499.701	1024.88
499.918	1084.88
500.135	1125.88
500.352	1174.88
500.569	1246.88
500.786	1244.88
501.003	1216.88
501.22	1150.88
501.437	1109.88
501.654	1062.88
501.871	1007.88
502.088	974.88
502.305	934.88
502.522	902.88
502.739	895.88
502.956	850.88
503.172	824.88
503.389	812.88
503.606	802.88
503.823	779.88
504.04	790.88
504.256	788.88
504.473	777.88
504.69	770.88
504.907	742.88
505.123	746.88
505.34	746.88
505.557	750.88
505.773	715.88
505.99	738.88
506.207	721.88
506.423	727.88
506.64	721.88
506.856	711.88
507.073	714.88
507.289	709.88
507.506	683.88
507.722	698.88
507.939	694.88
508.155	692.88
508.372	685.88
508.588	647.88
508.805	644.88
509.021	652.88
509.238	672.88
509.454	673.88
509.67	669.88
509.887	666.88
510.103	651.88
510.319	629.88
510.536	712.88
510.752	1125.88
510.968	920.88
511.184	676.88
511.401	626.88
511.617	652.88
511.833	616.88
512.049	636.88
512.265	624.88
512.481	637.88
512.698	616.88
512.914	623.88
513.13	624.88
513.346	636.88
513.562	634.88
513.778	629.88
513.994	633.88
514.21	609.88
514.426	651.88
514.642	680.88
514.858	690.88
515.074	692.88
515.29	812.88
515.506	1117.88
515.721	951.88
515.937	728.88
516.153	675.88
516.369	662.88
516.585	661.88
516.801	675.88
517.016	674.88
517.232	642.88
517.448	698.88
517.664	687.88
517.879	700.88
518.095	690.88
518.311	691.88
518.527	670.88
518.742	631.88
518.958	662.88
519.173	647.88
519.389	645.88
519.605	659.88
519.82	658.88
520.036	643.88
520.251	647.88
520.467	662.88
520.682	655.88
520.898	649.88
521.113	669.88
521.329	690.88
521.544	737.88
521.76	912.88
521.975	1373.88
522.19	1348.88
522.406	826.88
522.621	683.88
522.836	626.88
523.052	602.88
523.267	582.88
523.482	575.88
523.698	580.88
523.913	556.88
524.128	576.88
524.343	550.88
524.559	572.88
524.774	532.88
524.989	547.88
525.204	546.88
525.419	524.88
525.634	534.88
525.849	538.88
526.064	541.88
526.28	518.88
526.495	538.88
526.71	539.88
526.925	533.88
527.14	527.88
527.355	508.88
527.57	516.88
527.785	498.88
527.999	516.88
528.214	506.88
528.429	532.88
528.644	519.88
528.859	524.88
529.074	528.88
529.289	540.88
529.503	589.88
529.718	576.88
529.933	535.88
530.148	514.88
530.363	532.88
530.577	526.88
530.792	525.88
531.007	525.88
531.221	527.88
531.436	509.88
531.651	489.88
531.865	486.88
532.08	532.88
532.295	522.88
532.509	517.88
532.724	506.88
532.938	527.88
533.153	486.88
533.367	500.88
533.582	482.88
533.796	507.88
534.011	505.88
534.225	483.88
534.44	464.88
534.654	507.88
534.868	515.88
535.083	499.88
535.297	484.88
535.511	485.88
535.726	496.88
535.94	537.88
536.154	500.88
536.369	463.88
536.583	490.88
536.797	478.88
537.011	461.88
537.225	471.88
537.44	498.88
537.654	465.88
537.868	476.88
538.082	469.88
538.296	476.88
538.51	481.88
538.724	493.88
538.938	470.88
539.153	473.88
539.367	499.88
539.581	474.88
539.795	468.88
540.009	475.88
540.222	480.88
540.436	475.88
540.65	491.88
540.864	495.88
541.078	487.88
541.292	499.88
541.506	466.88
541.72	483.88
541.934	474.88
542.147	466.88
542.361	479.88
542.575	465.88
542.789	488.88
543.002	486.88
543.216	462.88
543.43	481.88
543.644	467.88
543.857	473.88
544.071	487.88
544.285	478.88
544.498	452.88
544.712	476.88
544.925	471.88
545.139	482.88
545.352	474.88
545.566	486.88
545.779	472.88
545.993	479.88
546.206	499.88
546.42	488.88
546.633	463.88
546.847	495.88
547.06	470.88
547.274	488.88
547.487	468.88
547.7	484.88
547.914	475.88
548.127	477.88
548.34	478.88
548.554	465.88
548.767	479.88
548.98	463.88
549.193	475.88
549.407	462.88
549.62	484.88
549.833	492.88
550.046	462.88
550.259	452.88
550.473	466.88
550.686	487.88
550.899	468.88
551.112	458.88
551.325	468.88
551.538	483.88
551.751	448.88
551.964	473.88
552.177	462.88
552.39	464.88
552.603	464.88
552.816	490.88
553.029	477.88
553.242	467.88
553.455	499.88
553.667	505.88
553.88	499.88
554.093	511.88
554.306	470.88
554.519	441.88
554.732	470.88
554.944	447.88
555.157	442.88
555.37	449.88
555.583	446.88
555.795	431.88
556.008	439.88
556.221	438.88
556.433	436.88
556.646	398.88
556.859	428.88
557.071	421.88
557.284	420.88
557.496	412.88
557.709	428.88
557.921	413.88
558.134	406.88
558.346	421.88
558.559	419.88
558.771	407.88
558.984	406.88
559.196	422.88
559.409	390.88
559.621	399.88
559.833	412.88
560.046	408.88
560.258	404.88
560.47	410.88
560.683	417.88
560.895	406.88
561.107	407.88
561.32	398.88
561.532	415.88
561.744	417.88
561.956	408.88
562.168	418.88
562.381	431.88
562.593	396.88
562.805	408.88
563.017	411.88
563.229	451.88
563.441	417.88
563.653	424.88
563.865	423.88
564.077	441.88
564.289	403.88
564.501	443.88
564.713	459.88
564.925	453.88
565.137	471.88
565.349	450.88
565.561	484.88
565.773	472.88
565.985	486.88
566.197	492.88
566.408	505.88
566.62	527.88
566.832	520.88
567.044	561.88
567.255	550.88
567.467	570.88
567.679	566.88
567.891	575.88
568.102	589.88
568.314	556.88
568.526	542.88
568.737	538.88
568.949	479.88
569.161	469.88
569.372	480.88
569.584	447.88
569.795	456.88
570.007	454.88
570.218	475.88
570.43	432.88
570.641	431.88
570.853	425.88
571.064	430.88
571.276	419.88
571.487	398.88
571.698	400.88
571.91	391.88
572.121	412.88
572.333	398.88
572.544	382.88
572.755	374.88
572.966	387.88
573.178	380.88
573.389	375.88
573.6	377.88
573.811	371.88
574.023	362.88
574.234	361.88
574.445	336.88
574.656	356.88
574.867	343.88
575.078	357.88
575.289	358.88
575.501	362.88
575.712	358.88
575.923	363.88
576.134	350.88
576.345	354.88
576.556	346.88
576.767	349.88
576.978	355.88
577.188	350.88
577.399	337.88
577.61	340.88
577.821	355.88
578.032	327.88
578.243	376.88
578.454	520.88
578.665	439.88
578.875	348.88
579.086	342.88
579.297	347.88
579.508	335.88
579.718	342.88
579.929	346.88
580.14	334.88
580.35	331.88
580.561	324.88
580.772	318.88
580.982	319.88
581.193	322.88
581.403	327.88
581.614	342.88
581.825	342.88
582.035	319.88
582.246	330.88
582.456	318.88
582.667	324.88
582.877	307.88
583.087	316.88
583.298	308.88
583.508	339.88
583.719	337.88
583.929	329.88
584.139	312.88
584.35	332.88
584.56	302.88
584.77	314.88
584.981	315.88
585.191	311.88
585.401	322.88
585.611	320.88
585.821	313.88
586.032	306.88
586.242	312.88
586.452	340.88
586.662	325.88
586.872	309.88
587.082	315.88
587.292	314.88
587.502	312.88
587.713	307.88
587.923	313.88
588.133	312.88
588.343	302.88
588.553	315.88
588.762	302.88
588.972	311.88
589.182	293.88
589.392	327.88
589.602	315.88
589.812	309.88
590.022	324.88
590.232	312.88
590.441	307.88
590.651	296.88
590.861	310.88
591.071	333.88
591.281	342.88
591.49	333.88
591.7	324.88
591.91	319.88
592.119	339.88
592.329	340.88
592.539	340.88
592.748	336.88
592.958	346.88
593.167	349.88
593.377	338.88
593.587	366.88
593.796	339.88
594.006	353.88
594.215	346.88
594.424	352.88
594.634	342.88
594.843	336.88
595.053	330.88
595.262	332.88
595.472	325.88
595.681	308.88
595.89	309.88
596.1	317.88
596.309	326.88
596.518	312.88
596.727	306.88
596.937	300.88
597.146	299.88
597.355	307.88
597.564	285.88
597.774	299.88
597.983	309.88
598.192	294.88
598.401	300.88
598.61	286.88
598.819	298.88
599.028	275.88
599.237	279.88
599.446	268.88
599.655	298.88
599.864	301.88
600.073	279.88
600.282	275.88
600.491	270.88
600.7	267.88
600.909	272.88
601.118	268.88
601.327	275.88
601.536	274.88
601.745	262.88
601.953	288.88
602.162	275.88
602.371	285.88
602.58	275.88
602.789	280.88
602.997	270.88
603.206	288.88
603.415	273.88
603.623	264.88
603.832	261.88
604.041	262.88
604.249	275.88
604.458	264.88
604.666	262.88
604.875	268.88
605.084	266.88
605.292	272.88
605.501	252.88
605.709	268.88
605.918	272.88
606.126	258.88
606.334	286.88
606.543	247.88
606.751	266.88
606.96	248.88
607.168	272.88
607.376	262.88
607.585	266.88
607.793	261.88
608.001	264.88
608.21	254.88
608.418	267.88
608.626	250.88
608.834	279.88
609.043	253.88
609.251	258.88
609.459	249.88
609.667	263.88
609.875	260.88
610.083	247.88
610.291	256.88
610.499	266.88
610.707	258.88
610.916	278.88
611.124	258.88
611.332	259.88
611.54	254.88
611.748	268.88
611.955	267.88
612.163	272.88
612.371	248.88
612.579	252.88
612.787	249.88
612.995	258.88
613.203	247.88
613.411	243.88
613.618	258.88
613.826	262.88
614.034	254.88
614.242	255.88
614.449	248.88
614.657	245.88
614.865	247.88
615.072	251.88
615.28	251.88
615.488	259.88
615.695	254.88
615.903	249.88
616.111	258.88
616.318	266.88
616.526	251.88
616.733	262.88
616.941	239.88
617.148	241.88
617.356	266.88
617.563	249.88
617.771	242.88
617.978	249.88
618.185	259.88
618.393	251.88
618.6	248.88
618.807	256.88
619.015	250.88
619.222	244.88
619.429	241.88
619.637	246.88
619.844	231.88
620.051	235.88
620.258	242.88
620.466	264.88
620.673	223.88
620.88	244.88
621.087	258.88
621.294	232.88
621.501	220.88
621.708	240.88
621.915	236.88
622.122	248.88
622.329	241.88
622.536	239.88
622.743	229.88
622.95	225.88
623.157	213.88
623.364	232.88
623.571	218.88
623.778	244.88
623.985	239.88
624.192	226.88
624.399	232.88
624.606	218.88
624.812	232.88
625.019	219.88
625.226	224.88
625.433	219.88
625.639	212.88
625.846	223.88
626.053	240.88
626.259	212.88
626.466	220.88
626.673	214.88
626.879	216.88
627.086	218.88
627.293	219.88
627.499	224.88
627.706	206.88
627.912	206.88
628.119	226.88
628.325	226.88
628.532	218.88
628.738	208.88
628.945	213.88
629.151	225.88
629.357	211.88
629.564	192.88
629.77	203.88
629.976	221.88
630.183	215.88
630.389	192.88
630.595	206.88
630.802	222.88
631.008	195.88
631.214	193.88
631.42	202.88
631.627	210.88
631.833	193.88
632.039	200.88
632.245	210.88
632.451	197.88
632.657	198.88
632.863	204.88
633.069	211.88
633.275	201.88
633.481	206.88
633.688	211.88
633.893	196.88
634.099	195.88
634.305	205.88
634.511	198.88
634.717	187.88
634.923	193.88
635.129	198.88
635.335	200.88
635.541	190.88
635.747	190.88
635.952	193.88
636.158	169.88
636.364	201.88
636.57	202.88
636.775	188.88
636.981	185.88
637.187	182.88
637.392	182.88
637.598	195.88
637.804	194.88
638.009	200.88
638.215	193.88
638.421	185.88
638.626	186.88
638.832	189.88
639.037	176.88
639.243	185.88
639.448	178.88
639.654	184.88
639.859	180.88
640.065	170.88
640.27	183.88
640.475	175.88
640.681	180.88
640.886	192.88
641.091	176.88
641.297	188.88
641.502	175.88
641.707	178.88
641.913	182.88
642.118	175.88
642.323	168.88
642.528	174.88
642.733	165.88
642.939	183.88
643.144	185.88
643.349	194.88
643.554	176.88
643.759	176.88
643.964	176.88
644.169	192.88
644.374	182.88
644.579	181.88
644.784	181.88
644.989	177.88
645.194	191.88
645.399	171.88
645.604	157.88
645.809	181.88
646.014	172.88
646.219	194.88
646.423	163.88
646.628	163.88
646.833	182.88
647.038	178.88
647.243	181.88
647.447	174.88
647.652	170.88
647.857	167.88
648.062	180.88
648.266	180.88
648.471	197.88
648.676	199.88
648.88	176.88
649.085	184.88
649.289	169.88
649.494	170.88
649.698	182.88
649.903	186.88
650.107	174.88
650.312	162.88
650.516	173.88
650.721	172.88
650.925	163.88
651.13	165.88
651.334	155.88
651.539	167.88
651.743	170.88
651.947	144.88
652.152	174.88
652.356	162.88
652.56	141.88
652.764	155.88
652.969	142.88
653.173	151.88
653.377	132.88
653.581	141.88
653.785	158.88
653.99	151.88
654.194	148.88
654.398	155.88
654.602	137.88
654.806	144.88
655.01	157.88
655.214	160.88
655.418	136.88
655.622	160.88
655.826	139.88
656.03	142.88
656.234	141.88
656.438	146.88
656.642	133.88
656.846	132.88
657.049	141.88
657.253	130.88
657.457	120.88
657.661	116.88
657.865	130.88
658.068	124.88
658.272	117.88
658.476	108.88
658.68	116.88
658.883	116.88
659.087	95.88
659.291	115.88
659.494	114.88
659.698	105.88
659.901	103.88
660.105	99.88
660.309	103.88
660.512	97.88
660.716	106.88
660.919	97.88
661.123	87.88
661.326	95.88
661.53	89.88
661.733	106.88
661.936	86.88
662.14	92.88
662.343	100.88
662.546	93.88
662.75	78.88
662.953	93.88
663.156	96.88
663.36	88.88
663.563	87.88
663.766	95.88
663.969	95.88
664.173	76.88
664.376	90.88
664.579	86.88
664.782	95.88
664.985	104.88
665.188	95.88
665.391	92.88
665.594	102.88
665.797	91.88
666	72.88
666.203	85.88
666.406	81.88
666.609	76.88
666.812	96.88
667.015	87.88
667.218	95.88
667.421	75.88
667.624	80.88
667.827	76.88
668.03	89.88
668.232	81.88
668.435	102.88
668.638	88.88
668.841	93.88
669.043	89.88
669.246	85.88
669.449	77.88
669.651	84.88
669.854	84.88
670.057	82.88
670.259	90.88
670.462	77.88
670.665	79.88
670.867	74.88
671.07	71.88
671.272	87.88
671.475	97.88
671.677	93.88
671.88	96.88
672.082	88.88
672.284	85.88
672.487	86.88
672.689	89.88
672.892	82.88
