Data from 1976.PennyLincolnUp.Lamp.En5.5.200Scan.071719.P1.Changed Mount._HRD10591_16-00-22-861.txt Node
Date: Thu Jul 18 16:00:22 EDT 2019
User: cochatt
Spectrometer: HR+D1059
Trigger mode: 1
Integration Time (sec): 1.000000E-1
Scans to average: 1
Electric dark correction enabled: true
Nonlinearity correction enabled: false
Boxcar width: 0
XAxis mode: Wavelengths
Number of Pixels in Spectrum: 2048
>>>>>Begin Spectral Data<<<<<
223.165	-17.38
223.4	-17.38
223.635	-17.38
223.869	-4.38
224.104	-19.38
224.338	-27.38
224.573	-14.38
224.808	-6.38
225.042	0.62
225.277	-8.38
225.511	0.62
225.746	0.62
225.98	-3.38
226.215	0.62
226.449	10.62
226.683	25.62
226.918	31.62
227.152	30.62
227.387	33.62
227.621	38.62
227.856	42.62
228.09	45.62
228.324	59.62
228.559	67.62
228.793	71.62
229.027	93.62
229.262	97.62
229.496	115.62
229.73	137.62
229.964	152.62
230.199	119.62
230.433	120.62
230.667	108.62
230.901	110.62
231.136	121.62
231.37	106.62
231.604	108.62
231.838	120.62
232.072	119.62
232.306	118.62
232.541	106.62
232.775	115.62
233.009	130.62
233.243	121.62
233.477	105.62
233.711	117.62
233.945	105.62
234.179	109.62
234.413	115.62
234.647	115.62
234.881	112.62
235.115	114.62
235.349	126.62
235.583	131.62
235.817	137.62
236.051	131.62
236.285	131.62
236.519	118.62
236.753	130.62
236.987	155.62
237.221	171.62
237.455	221.62
237.689	180.62
237.922	131.62
238.156	133.62
238.39	130.62
238.624	115.62
238.858	135.62
239.091	128.62
239.325	115.62
239.559	123.62
239.793	136.62
240.027	131.62
240.26	135.62
240.494	155.62
240.728	158.62
240.961	142.62
241.195	136.62
241.429	135.62
241.662	127.62
241.896	128.62
242.13	143.62
242.363	144.62
242.597	133.62
242.83	124.62
243.064	137.62
243.298	131.62
243.531	132.62
243.765	151.62
243.998	140.62
244.232	149.62
244.465	141.62
244.699	159.62
244.932	149.62
245.166	138.62
245.399	143.62
245.633	148.62
245.866	164.62
246.099	138.62
246.333	151.62
246.566	139.62
246.8	142.62
247.033	144.62
247.266	169.62
247.5	144.62
247.733	179.62
247.966	161.62
248.2	162.62
248.433	174.62
248.666	187.62
248.899	179.62
249.133	204.62
249.366	193.62
249.599	181.62
249.832	181.62
250.066	191.62
250.299	185.62
250.532	197.62
250.765	196.62
250.998	237.62
251.231	243.62
251.465	205.62
251.698	190.62
251.931	192.62
252.164	220.62
252.397	207.62
252.63	190.62
252.863	219.62
253.096	237.62
253.329	238.62
253.562	232.62
253.795	219.62
254.028	219.62
254.261	222.62
254.494	230.62
254.727	244.62
254.96	257.62
255.193	254.62
255.426	247.62
255.659	221.62
255.892	213.62
256.124	233.62
256.357	231.62
256.59	243.62
256.823	232.62
257.056	205.62
257.289	211.62
257.521	212.62
257.754	198.62
257.987	209.62
258.22	208.62
258.452	185.62
258.685	213.62
258.918	188.62
259.151	195.62
259.383	214.62
259.616	221.62
259.849	224.62
260.081	221.62
260.314	264.62
260.547	253.62
260.779	230.62
261.012	231.62
261.244	225.62
261.477	239.62
261.71	216.62
261.942	219.62
262.175	237.62
262.407	239.62
262.64	219.62
262.872	207.62
263.105	213.62
263.337	214.62
263.57	174.62
263.802	205.62
264.035	210.62
264.267	210.62
264.499	220.62
264.732	229.62
264.964	221.62
265.197	215.62
265.429	235.62
265.661	209.62
265.894	210.62
266.126	232.62
266.358	219.62
266.591	229.62
266.823	244.62
267.055	218.62
267.287	240.62
267.52	244.62
267.752	232.62
267.984	219.62
268.216	221.62
268.448	235.62
268.681	235.62
268.913	262.62
269.145	271.62
269.377	268.62
269.609	278.62
269.841	261.62
270.073	277.62
270.306	295.62
270.538	318.62
270.77	318.62
271.002	302.62
271.234	287.62
271.466	288.62
271.698	313.62
271.93	298.62
272.162	298.62
272.394	307.62
272.626	297.62
272.858	291.62
273.09	296.62
273.322	278.62
273.553	270.62
273.785	269.62
274.017	271.62
274.249	281.62
274.481	279.62
274.713	279.62
274.945	272.62
275.176	271.62
275.408	265.62
275.64	264.62
275.872	261.62
276.104	264.62
276.335	279.62
276.567	280.62
276.799	292.62
277.031	292.62
277.262	324.62
277.494	315.62
277.726	308.62
277.957	292.62
278.189	307.62
278.421	281.62
278.652	295.62
278.884	252.62
279.115	275.62
279.347	276.62
279.579	264.62
279.81	264.62
280.042	276.62
280.273	276.62
280.505	267.62
280.736	286.62
280.968	281.62
281.199	279.62
281.431	284.62
281.662	294.62
281.894	271.62
282.125	279.62
282.356	295.62
282.588	321.62
282.819	311.62
283.051	300.62
283.282	292.62
283.513	279.62
283.745	289.62
283.976	293.62
284.207	291.62
284.439	293.62
284.67	306.62
284.901	305.62
285.132	289.62
285.364	300.62
285.595	271.62
285.826	277.62
286.057	308.62
286.288	301.62
286.52	288.62
286.751	292.62
286.982	301.62
287.213	283.62
287.444	309.62
287.675	304.62
287.906	323.62
288.138	301.62
288.369	303.62
288.6	304.62
288.831	304.62
289.062	318.62
289.293	328.62
289.524	309.62
289.755	310.62
289.986	304.62
290.217	302.62
290.448	304.62
290.679	305.62
290.91	310.62
291.141	295.62
291.371	313.62
291.602	340.62
291.833	305.62
292.064	310.62
292.295	299.62
292.526	311.62
292.757	302.62
292.987	314.62
293.218	307.62
293.449	284.62
293.68	311.62
293.91	295.62
294.141	305.62
294.372	301.62
294.603	308.62
294.833	308.62
295.064	312.62
295.295	310.62
295.525	308.62
295.756	323.62
295.987	329.62
296.217	305.62
296.448	327.62
296.679	312.62
296.909	324.62
297.14	316.62
297.37	310.62
297.601	320.62
297.831	331.62
298.062	319.62
298.292	327.62
298.523	319.62
298.753	340.62
298.984	328.62
299.214	325.62
299.445	315.62
299.675	333.62
299.905	333.62
300.136	319.62
300.366	335.62
300.597	309.62
300.827	327.62
301.057	356.62
301.288	349.62
301.518	328.62
301.748	338.62
301.979	337.62
302.209	341.62
302.439	348.62
302.669	336.62
302.9	332.62
303.13	343.62
303.36	348.62
303.59	343.62
303.82	351.62
304.051	344.62
304.281	322.62
304.511	338.62
304.741	362.62
304.971	359.62
305.201	323.62
305.431	340.62
305.661	351.62
305.891	351.62
306.121	337.62
306.352	330.62
306.582	343.62
306.812	339.62
307.042	346.62
307.272	323.62
307.502	341.62
307.731	354.62
307.961	332.62
308.191	352.62
308.421	344.62
308.651	356.62
308.881	351.62
309.111	364.62
309.341	328.62
309.571	359.62
309.8	364.62
310.03	365.62
310.26	365.62
310.49	373.62
310.72	379.62
310.949	387.62
311.179	395.62
311.409	388.62
311.639	380.62
311.868	349.62
312.098	376.62
312.328	362.62
312.557	401.62
312.787	408.62
313.017	414.62
313.246	389.62
313.476	377.62
313.706	399.62
313.935	396.62
314.165	393.62
314.394	409.62
314.624	401.62
314.853	379.62
315.083	399.62
315.312	392.62
315.542	400.62
315.771	376.62
316.001	379.62
316.23	380.62
316.46	370.62
316.689	399.62
316.919	379.62
317.148	379.62
317.377	385.62
317.607	395.62
317.836	401.62
318.065	398.62
318.295	380.62
318.524	383.62
318.753	384.62
318.983	397.62
319.212	388.62
319.441	395.62
319.67	392.62
319.9	381.62
320.129	385.62
320.358	381.62
320.587	395.62
320.816	396.62
321.046	404.62
321.275	403.62
321.504	408.62
321.733	384.62
321.962	418.62
322.191	418.62
322.42	422.62
322.649	431.62
322.878	446.62
323.108	432.62
323.337	464.62
323.566	452.62
323.795	508.62
324.024	515.62
324.253	600.62
324.482	832.62
324.71	1207.62
324.939	1735.62
325.168	1558.62
325.397	789.62
325.626	559.62
325.855	518.62
326.084	469.62
326.313	457.62
326.542	459.62
326.77	500.62
326.999	574.62
327.228	744.62
327.457	1106.62
327.686	1339.62
327.914	908.62
328.143	627.62
328.372	552.62
328.6	502.62
328.829	487.62
329.058	523.62
329.287	505.62
329.515	517.62
329.744	486.62
329.972	492.62
330.201	490.62
330.43	537.62
330.658	521.62
330.887	583.62
331.115	527.62
331.344	506.62
331.572	468.62
331.801	477.62
332.03	485.62
332.258	456.62
332.486	477.62
332.715	472.62
332.943	458.62
333.172	468.62
333.4	462.62
333.629	474.62
333.857	506.62
334.085	498.62
334.314	512.62
334.542	529.62
334.771	519.62
334.999	495.62
335.227	497.62
335.455	480.62
335.684	463.62
335.912	465.62
336.14	454.62
336.369	455.62
336.597	459.62
336.825	473.62
337.053	452.62
337.281	457.62
337.51	445.62
337.738	445.62
337.966	425.62
338.194	446.62
338.422	469.62
338.65	448.62
338.878	453.62
339.106	434.62
339.334	445.62
339.562	445.62
339.79	470.62
340.018	462.62
340.246	441.62
340.474	440.62
340.702	438.62
340.93	456.62
341.158	439.62
341.386	442.62
341.614	431.62
341.842	430.62
342.07	433.62
342.298	438.62
342.526	421.62
342.754	424.62
342.981	441.62
343.209	430.62
343.437	422.62
343.665	451.62
343.893	475.62
344.12	465.62
344.348	443.62
344.576	453.62
344.804	444.62
345.031	445.62
345.259	458.62
345.487	440.62
345.714	436.62
345.942	424.62
346.17	432.62
346.397	443.62
346.625	415.62
346.853	412.62
347.08	415.62
347.308	425.62
347.535	423.62
347.763	422.62
347.99	432.62
348.218	432.62
348.445	444.62
348.673	405.62
348.9	431.62
349.128	411.62
349.355	414.62
349.583	408.62
349.81	417.62
350.037	410.62
350.265	401.62
350.492	412.62
350.72	413.62
350.947	423.62
351.174	430.62
351.402	431.62
351.629	426.62
351.856	409.62
352.083	417.62
352.311	427.62
352.538	406.62
352.765	419.62
352.992	423.62
353.22	413.62
353.447	399.62
353.674	379.62
353.901	411.62
354.128	415.62
354.355	400.62
354.583	387.62
354.81	402.62
355.037	384.62
355.264	373.62
355.491	400.62
355.718	400.62
355.945	392.62
356.172	382.62
356.399	396.62
356.626	405.62
356.853	395.62
357.08	382.62
357.307	416.62
357.534	387.62
357.761	370.62
357.988	395.62
358.215	390.62
358.441	411.62
358.668	391.62
358.895	406.62
359.122	385.62
359.349	411.62
359.576	427.62
359.802	450.62
360.029	451.62
360.256	467.62
360.483	438.62
360.709	415.62
360.936	424.62
361.163	406.62
361.39	432.62
361.616	414.62
361.843	422.62
362.07	409.62
362.296	438.62
362.523	416.62
362.749	410.62
362.976	403.62
363.203	396.62
363.429	392.62
363.656	406.62
363.882	419.62
364.109	416.62
364.335	382.62
364.562	399.62
364.788	409.62
365.015	425.62
365.241	411.62
365.468	407.62
365.694	417.62
365.92	402.62
366.147	405.62
366.373	397.62
366.599	360.62
366.826	413.62
367.052	383.62
367.278	412.62
367.505	395.62
367.731	411.62
367.957	410.62
368.184	392.62
368.41	414.62
368.636	417.62
368.862	430.62
369.089	419.62
369.315	393.62
369.541	411.62
369.767	414.62
369.993	407.62
370.219	417.62
370.445	405.62
370.672	407.62
370.898	399.62
371.124	401.62
371.35	429.62
371.576	414.62
371.802	419.62
372.028	409.62
372.254	415.62
372.48	409.62
372.706	399.62
372.932	398.62
373.158	432.62
373.384	420.62
373.61	421.62
373.835	417.62
374.061	429.62
374.287	437.62
374.513	423.62
374.739	433.62
374.965	416.62
375.191	411.62
375.416	420.62
375.642	422.62
375.868	452.62
376.094	411.62
376.319	421.62
376.545	431.62
376.771	404.62
376.997	431.62
377.222	389.62
377.448	401.62
377.674	416.62
377.899	411.62
378.125	406.62
378.35	399.62
378.576	418.62
378.802	427.62
379.027	419.62
379.253	402.62
379.478	395.62
379.704	403.62
379.929	401.62
380.155	399.62
380.38	417.62
380.606	411.62
380.831	409.62
381.057	409.62
381.282	421.62
381.507	417.62
381.733	437.62
381.958	425.62
382.184	419.62
382.409	421.62
382.634	439.62
382.86	423.62
383.085	427.62
383.31	438.62
383.535	442.62
383.761	432.62
383.986	429.62
384.211	455.62
384.436	448.62
384.662	447.62
384.887	453.62
385.112	440.62
385.337	449.62
385.562	441.62
385.787	433.62
386.013	440.62
386.238	439.62
386.463	464.62
386.688	459.62
386.913	462.62
387.138	472.62
387.363	459.62
387.588	457.62
387.813	462.62
388.038	431.62
388.263	467.62
388.488	451.62
388.713	470.62
388.938	462.62
389.163	447.62
389.387	463.62
389.612	468.62
389.837	474.62
390.062	460.62
390.287	469.62
390.512	453.62
390.736	447.62
390.961	459.62
391.186	472.62
391.411	476.62
391.636	463.62
391.86	469.62
392.085	473.62
392.31	513.62
392.534	491.62
392.759	456.62
392.984	447.62
393.208	476.62
393.433	490.62
393.658	453.62
393.882	468.62
394.107	473.62
394.331	456.62
394.556	475.62
394.78	465.62
395.005	470.62
395.229	444.62
395.454	476.62
395.678	476.62
395.903	489.62
396.127	495.62
396.352	527.62
396.576	483.62
396.801	469.62
397.025	514.62
397.249	488.62
397.474	492.62
397.698	476.62
397.922	510.62
398.147	501.62
398.371	539.62
398.595	524.62
398.82	536.62
399.044	548.62
399.268	547.62
399.492	594.62
399.717	653.62
399.941	677.62
400.165	657.62
400.389	669.62
400.613	606.62
400.837	598.62
401.062	555.62
401.286	547.62
401.51	529.62
401.734	557.62
401.958	540.62
402.182	553.62
402.406	532.62
402.63	552.62
402.854	545.62
403.078	547.62
403.302	575.62
403.526	563.62
403.75	544.62
403.974	572.62
404.198	545.62
404.422	556.62
404.645	576.62
404.869	565.62
405.093	558.62
405.317	622.62
405.541	660.62
405.765	624.62
405.988	574.62
406.212	581.62
406.436	603.62
406.66	605.62
406.883	570.62
407.107	609.62
407.331	661.62
407.555	721.62
407.778	741.62
408.002	665.62
408.226	620.62
408.449	598.62
408.673	601.62
408.896	639.62
409.12	639.62
409.344	633.62
409.567	588.62
409.791	584.62
410.014	592.62
410.238	557.62
410.461	554.62
410.685	532.62
410.908	575.62
411.132	615.62
411.355	644.62
411.578	616.62
411.802	552.62
412.025	542.62
412.249	578.62
412.472	576.62
412.695	629.62
412.919	603.62
413.142	554.62
413.365	547.62
413.589	521.62
413.812	538.62
414.035	514.62
414.258	516.62
414.482	503.62
414.705	530.62
414.928	515.62
415.151	534.62
415.374	549.62
415.597	527.62
415.821	503.62
416.044	515.62
416.267	526.62
416.49	523.62
416.713	510.62
416.936	511.62
417.159	508.62
417.382	491.62
417.605	535.62
417.828	534.62
418.051	550.62
418.274	524.62
418.497	519.62
418.72	552.62
418.943	523.62
419.166	554.62
419.389	590.62
419.611	565.62
419.834	558.62
420.057	547.62
420.28	568.62
420.503	547.62
420.726	545.62
420.948	572.62
421.171	588.62
421.394	630.62
421.617	553.62
421.839	552.62
422.062	524.62
422.285	570.62
422.507	608.62
422.73	669.62
422.953	648.62
423.175	593.62
423.398	560.62
423.621	559.62
423.843	571.62
424.066	593.62
424.288	583.62
424.511	598.62
424.733	646.62
424.956	724.62
425.178	678.62
425.401	679.62
425.623	703.62
425.846	606.62
426.068	571.62
426.291	554.62
426.513	556.62
426.735	573.62
426.958	609.62
427.18	683.62
427.402	816.62
427.625	896.62
427.847	750.62
428.069	639.62
428.292	597.62
428.514	553.62
428.736	533.62
428.958	548.62
429.181	535.62
429.403	506.62
429.625	528.62
429.847	557.62
430.069	620.62
430.292	622.62
430.514	548.62
430.736	516.62
430.958	505.62
431.18	537.62
431.402	503.62
431.624	483.62
431.846	490.62
432.068	496.62
432.29	494.62
432.512	496.62
432.734	492.62
432.956	499.62
433.178	521.62
433.4	495.62
433.622	520.62
433.844	491.62
434.066	521.62
434.287	501.62
434.509	543.62
434.731	540.62
434.953	533.62
435.175	546.62
435.397	555.62
435.618	579.62
435.84	611.62
436.062	688.62
436.284	745.62
436.505	623.62
436.727	563.62
436.949	537.62
437.17	540.62
437.392	512.62
437.614	542.62
437.835	566.62
438.057	638.62
438.278	712.62
438.5	746.62
438.721	816.62
438.943	771.62
439.165	619.62
439.386	579.62
439.608	568.62
439.829	565.62
440.05	597.62
440.272	611.62
440.493	585.62
440.715	560.62
440.936	529.62
441.158	527.62
441.379	535.62
441.6	528.62
441.822	553.62
442.043	601.62
442.264	696.62
442.486	738.62
442.707	626.62
442.928	588.62
443.149	577.62
443.371	634.62
443.592	658.62
443.813	739.62
444.034	777.62
444.255	654.62
444.476	626.62
444.698	593.62
444.919	597.62
445.14	695.62
445.361	627.62
445.582	614.62
445.803	672.62
446.024	730.62
446.245	772.62
446.466	705.62
446.687	600.62
446.908	573.62
447.129	544.62
447.35	529.62
447.571	524.62
447.792	510.62
448.013	522.62
448.234	547.62
448.455	577.62
448.675	704.62
448.896	812.62
449.117	685.62
449.338	645.62
449.559	738.62
449.779	816.62
450	689.62
450.221	567.62
450.442	519.62
450.662	478.62
450.883	499.62
451.104	503.62
451.324	485.62
451.545	495.62
451.766	474.62
451.986	470.62
452.207	471.62
452.428	471.62
452.648	443.62
452.869	471.62
453.089	448.62
453.31	493.62
453.53	492.62
453.751	460.62
453.971	459.62
454.192	452.62
454.412	491.62
454.633	472.62
454.853	481.62
455.073	464.62
455.294	475.62
455.514	548.62
455.734	533.62
455.955	463.62
456.175	459.62
456.395	442.62
456.616	416.62
456.836	447.62
457.056	450.62
457.276	429.62
457.497	439.62
457.717	439.62
457.937	449.62
458.157	443.62
458.377	463.62
458.598	473.62
458.818	521.62
459.038	567.62
459.258	600.62
459.478	530.62
459.698	525.62
459.918	499.62
460.138	520.62
460.358	530.62
460.578	516.62
460.798	521.62
461.018	529.62
461.238	520.62
461.458	513.62
461.678	537.62
461.898	516.62
462.118	517.62
462.338	537.62
462.558	536.62
462.777	552.62
462.997	558.62
463.217	603.62
463.437	606.62
463.657	596.62
463.876	575.62
464.096	580.62
464.316	567.62
464.536	573.62
464.755	585.62
464.975	558.62
465.195	585.62
465.414	595.62
465.634	561.62
465.854	508.62
466.073	520.62
466.293	504.62
466.512	500.62
466.732	484.62
466.951	478.62
467.171	483.62
467.391	474.62
467.61	490.62
467.829	482.62
468.049	477.62
468.268	483.62
468.488	493.62
468.707	483.62
468.927	468.62
469.146	469.62
469.365	472.62
469.585	480.62
469.804	467.62
470.023	498.62
470.243	473.62
470.462	510.62
470.681	494.62
470.901	506.62
471.12	489.62
471.339	496.62
471.558	487.62
471.777	486.62
471.997	494.62
472.216	476.62
472.435	508.62
472.654	477.62
472.873	455.62
473.092	494.62
473.311	492.62
473.53	496.62
473.749	514.62
473.968	529.62
474.187	608.62
474.406	645.62
474.625	536.62
474.844	515.62
475.063	482.62
475.282	487.62
475.501	493.62
475.72	496.62
475.939	476.62
476.158	505.62
476.377	496.62
476.596	500.62
476.814	497.62
477.033	517.62
477.252	491.62
477.471	536.62
477.69	529.62
477.908	526.62
478.127	546.62
478.346	552.62
478.564	552.62
478.783	546.62
479.002	559.62
479.22	549.62
479.439	565.62
479.658	598.62
479.876	574.62
480.095	595.62
480.313	585.62
480.532	620.62
480.751	593.62
480.969	608.62
481.188	630.62
481.406	667.62
481.624	603.62
481.843	582.62
482.061	588.62
482.28	570.62
482.498	576.62
482.717	551.62
482.935	561.62
483.153	570.62
483.372	558.62
483.59	579.62
483.808	571.62
484.027	559.62
484.245	548.62
484.463	565.62
484.681	569.62
484.9	596.62
485.118	569.62
485.336	592.62
485.554	584.62
485.772	584.62
485.99	589.62
486.209	569.62
486.427	603.62
486.645	612.62
486.863	608.62
487.081	605.62
487.299	581.62
487.517	620.62
487.735	609.62
487.953	611.62
488.171	614.62
488.389	594.62
488.607	590.62
488.825	607.62
489.043	617.62
489.261	606.62
489.479	598.62
489.696	608.62
489.914	620.62
490.132	619.62
490.35	625.62
490.568	633.62
490.786	645.62
491.003	654.62
491.221	673.62
491.439	664.62
491.657	678.62
491.874	682.62
492.092	697.62
492.31	726.62
492.527	710.62
492.745	700.62
492.963	679.62
493.18	701.62
493.398	691.62
493.615	681.62
493.833	699.62
494.05	679.62
494.268	707.62
494.485	713.62
494.703	708.62
494.92	699.62
495.138	718.62
495.355	705.62
495.573	714.62
495.79	721.62
496.008	712.62
496.225	719.62
496.442	725.62
496.66	695.62
496.877	698.62
497.094	753.62
497.312	733.62
497.529	737.62
497.746	758.62
497.963	743.62
498.181	787.62
498.398	784.62
498.615	821.62
498.832	831.62
499.049	837.62
499.267	874.62
499.484	910.62
499.701	942.62
499.918	1003.62
500.135	1040.62
500.352	1110.62
500.569	1161.62
500.786	1144.62
501.003	1139.62
501.22	1074.62
501.437	1052.62
501.654	995.62
501.871	951.62
502.088	908.62
502.305	883.62
502.522	858.62
502.739	842.62
502.956	795.62
503.172	785.62
503.389	746.62
503.606	745.62
503.823	751.62
504.04	745.62
504.256	730.62
504.473	733.62
504.69	735.62
504.907	729.62
505.123	710.62
505.34	707.62
505.557	710.62
505.773	698.62
505.99	700.62
506.207	678.62
506.423	680.62
506.64	665.62
506.856	643.62
507.073	658.62
507.289	645.62
507.506	658.62
507.722	647.62
507.939	665.62
508.155	645.62
508.372	633.62
508.588	643.62
508.805	623.62
509.021	618.62
509.238	654.62
509.454	646.62
509.67	623.62
509.887	612.62
510.103	612.62
510.319	616.62
510.536	705.62
510.752	972.62
510.968	832.62
511.184	618.62
511.401	612.62
511.617	592.62
511.833	637.62
512.049	619.62
512.265	577.62
512.481	605.62
512.698	581.62
512.914	588.62
513.13	580.62
513.346	592.62
513.562	580.62
513.778	597.62
513.994	603.62
514.21	600.62
514.426	625.62
514.642	636.62
514.858	681.62
515.074	634.62
515.29	748.62
515.506	1006.62
515.721	858.62
515.937	664.62
516.153	637.62
516.369	612.62
516.585	614.62
516.801	642.62
517.016	629.62
517.232	636.62
517.448	640.62
517.664	638.62
517.879	623.62
518.095	643.62
518.311	613.62
518.527	631.62
518.742	624.62
518.958	641.62
519.173	594.62
519.389	613.62
519.605	616.62
519.82	598.62
520.036	597.62
520.251	623.62
520.467	627.62
520.682	615.62
520.898	639.62
521.113	635.62
521.329	632.62
521.544	704.62
521.76	842.62
521.975	1236.62
522.19	1216.62
522.406	763.62
522.621	612.62
522.836	585.62
523.052	576.62
523.267	530.62
523.482	547.62
523.698	532.62
523.913	517.62
524.128	535.62
524.343	524.62
524.559	533.62
524.774	525.62
524.989	518.62
525.204	517.62
525.419	506.62
525.634	519.62
525.849	513.62
526.064	490.62
526.28	499.62
526.495	509.62
526.71	500.62
526.925	495.62
527.14	490.62
527.355	493.62
527.57	505.62
527.785	507.62
527.999	488.62
528.214	499.62
528.429	504.62
528.644	495.62
528.859	490.62
529.074	488.62
529.289	536.62
529.503	561.62
529.718	555.62
529.933	526.62
530.148	511.62
530.363	485.62
530.577	496.62
530.792	502.62
531.007	477.62
531.221	486.62
531.436	481.62
531.651	499.62
531.865	480.62
532.08	476.62
532.295	485.62
532.509	480.62
532.724	490.62
532.938	478.62
533.153	484.62
533.367	475.62
533.582	475.62
533.796	458.62
534.011	491.62
534.225	468.62
534.44	479.62
534.654	470.62
534.868	469.62
535.083	452.62
535.297	473.62
535.511	474.62
535.726	473.62
535.94	475.62
536.154	473.62
536.369	461.62
536.583	483.62
536.797	463.62
537.011	452.62
537.225	467.62
537.44	461.62
537.654	464.62
537.868	460.62
538.082	459.62
538.296	470.62
538.51	452.62
538.724	477.62
538.938	474.62
539.153	465.62
539.367	468.62
539.581	467.62
539.795	463.62
540.009	460.62
540.222	454.62
540.436	446.62
540.65	466.62
540.864	458.62
541.078	470.62
541.292	454.62
541.506	451.62
541.72	464.62
541.934	463.62
542.147	466.62
542.361	446.62
542.575	435.62
542.789	480.62
543.002	443.62
543.216	481.62
543.43	443.62
543.644	453.62
543.857	460.62
544.071	452.62
544.285	473.62
544.498	462.62
544.712	455.62
544.925	456.62
545.139	441.62
545.352	447.62
545.566	445.62
545.779	469.62
545.993	460.62
546.206	458.62
546.42	448.62
546.633	463.62
546.847	463.62
547.06	432.62
547.274	441.62
547.487	450.62
547.7	447.62
547.914	472.62
548.127	476.62
548.34	455.62
548.554	447.62
548.767	447.62
548.98	458.62
549.193	445.62
549.407	448.62
549.62	462.62
549.833	448.62
550.046	453.62
550.259	459.62
550.473	473.62
550.686	452.62
550.899	458.62
551.112	449.62
551.325	465.62
551.538	463.62
551.751	441.62
551.964	445.62
552.177	435.62
552.39	455.62
552.603	442.62
552.816	460.62
553.029	470.62
553.242	440.62
553.455	455.62
553.667	463.62
553.88	463.62
554.093	467.62
554.306	453.62
554.519	443.62
554.732	439.62
554.944	442.62
555.157	442.62
555.37	447.62
555.583	436.62
555.795	432.62
556.008	417.62
556.221	419.62
556.433	400.62
556.646	414.62
556.859	404.62
557.071	409.62
557.284	392.62
557.496	404.62
557.709	416.62
557.921	408.62
558.134	413.62
558.346	393.62
558.559	400.62
558.771	383.62
558.984	408.62
559.196	386.62
559.409	396.62
559.621	405.62
559.833	382.62
560.046	377.62
560.258	387.62
560.47	402.62
560.683	389.62
560.895	397.62
561.107	381.62
561.32	398.62
561.532	413.62
561.744	411.62
561.956	402.62
562.168	398.62
562.381	400.62
562.593	397.62
562.805	429.62
563.017	403.62
563.229	403.62
563.441	410.62
563.653	399.62
563.865	410.62
564.077	416.62
564.289	410.62
564.501	414.62
564.713	418.62
564.925	408.62
565.137	423.62
565.349	431.62
565.561	442.62
565.773	442.62
565.985	454.62
566.197	470.62
566.408	489.62
566.62	489.62
566.832	503.62
567.044	514.62
567.255	517.62
567.467	530.62
567.679	531.62
567.891	575.62
568.102	576.62
568.314	549.62
568.526	538.62
568.737	486.62
568.949	481.62
569.161	459.62
569.372	455.62
569.584	440.62
569.795	412.62
570.007	432.62
570.218	441.62
570.43	413.62
570.641	394.62
570.853	403.62
571.064	410.62
571.276	410.62
571.487	387.62
571.698	397.62
571.91	387.62
572.121	388.62
572.333	379.62
572.544	379.62
572.755	353.62
572.966	369.62
573.178	351.62
573.389	355.62
573.6	353.62
573.811	361.62
574.023	358.62
574.234	359.62
574.445	328.62
574.656	353.62
574.867	334.62
575.078	352.62
575.289	350.62
575.501	352.62
575.712	363.62
575.923	341.62
576.134	339.62
576.345	362.62
576.556	360.62
576.767	343.62
576.978	332.62
577.188	334.62
577.399	329.62
577.61	343.62
577.821	348.62
578.032	317.62
578.243	358.62
578.454	479.62
578.665	389.62
578.875	328.62
579.086	327.62
579.297	303.62
579.508	311.62
579.718	324.62
579.929	350.62
580.14	318.62
580.35	314.62
580.561	331.62
580.772	317.62
580.982	334.62
581.193	311.62
581.403	311.62
581.614	324.62
581.825	308.62
582.035	328.62
582.246	304.62
582.456	310.62
582.667	306.62
582.877	319.62
583.087	312.62
583.298	302.62
583.508	287.62
583.719	327.62
583.929	325.62
584.139	320.62
584.35	315.62
584.56	300.62
584.77	315.62
584.981	303.62
585.191	296.62
585.401	316.62
585.611	308.62
585.821	323.62
586.032	320.62
586.242	313.62
586.452	311.62
586.662	309.62
586.872	303.62
587.082	293.62
587.292	300.62
587.502	303.62
587.713	313.62
587.923	298.62
588.133	289.62
588.343	302.62
588.553	291.62
588.762	302.62
588.972	307.62
589.182	302.62
589.392	311.62
589.602	301.62
589.812	293.62
590.022	322.62
590.232	327.62
590.441	295.62
590.651	293.62
590.861	300.62
591.071	304.62
591.281	305.62
591.49	300.62
591.7	318.62
591.91	317.62
592.119	314.62
592.329	316.62
592.539	340.62
592.748	324.62
592.958	330.62
593.167	328.62
593.377	337.62
593.587	336.62
593.796	321.62
594.006	319.62
594.215	344.62
594.424	324.62
594.634	332.62
594.843	342.62
595.053	335.62
595.262	321.62
595.472	307.62
595.681	304.62
595.89	307.62
596.1	307.62
596.309	295.62
596.518	287.62
596.727	300.62
596.937	298.62
597.146	286.62
597.355	277.62
597.564	282.62
597.774	288.62
597.983	290.62
598.192	281.62
598.401	299.62
598.61	285.62
598.819	291.62
599.028	272.62
599.237	259.62
599.446	286.62
599.655	287.62
599.864	287.62
600.073	248.62
600.282	278.62
600.491	274.62
600.7	263.62
600.909	273.62
601.118	273.62
601.327	268.62
601.536	287.62
601.745	270.62
601.953	261.62
602.162	265.62
602.371	265.62
602.58	264.62
602.789	274.62
602.997	267.62
603.206	259.62
603.415	241.62
603.623	246.62
603.832	252.62
604.041	258.62
604.249	250.62
604.458	244.62
604.666	254.62
604.875	238.62
605.084	265.62
605.292	264.62
605.501	264.62
605.709	256.62
605.918	252.62
606.126	248.62
606.334	232.62
606.543	249.62
606.751	244.62
606.96	232.62
607.168	258.62
607.376	243.62
607.585	251.62
607.793	229.62
608.001	252.62
608.21	252.62
608.418	254.62
608.626	244.62
608.834	244.62
609.043	251.62
609.251	252.62
609.459	265.62
609.667	251.62
609.875	240.62
610.083	243.62
610.291	247.62
610.499	240.62
610.707	225.62
610.916	240.62
611.124	251.62
611.332	243.62
611.54	271.62
611.748	271.62
611.955	248.62
612.163	222.62
612.371	243.62
612.579	251.62
612.787	253.62
612.995	249.62
613.203	243.62
613.411	236.62
613.618	220.62
613.826	244.62
614.034	233.62
614.242	240.62
614.449	237.62
614.657	237.62
614.865	233.62
615.072	237.62
615.28	239.62
615.488	241.62
615.695	232.62
615.903	225.62
616.111	224.62
616.318	250.62
616.526	230.62
616.733	251.62
616.941	239.62
617.148	268.62
617.356	259.62
617.563	250.62
617.771	251.62
617.978	234.62
618.185	223.62
618.393	232.62
618.6	235.62
618.807	240.62
619.015	233.62
619.222	236.62
619.429	235.62
619.637	226.62
619.844	224.62
620.051	241.62
620.258	219.62
620.466	231.62
620.673	233.62
620.88	224.62
621.087	232.62
621.294	231.62
621.501	236.62
621.708	224.62
621.915	231.62
622.122	224.62
622.329	233.62
622.536	233.62
622.743	218.62
622.95	224.62
623.157	224.62
623.364	230.62
623.571	224.62
623.778	220.62
623.985	231.62
624.192	209.62
624.399	213.62
624.606	217.62
624.812	221.62
625.019	229.62
625.226	224.62
625.433	215.62
625.639	206.62
625.846	207.62
626.053	201.62
626.259	224.62
626.466	219.62
626.673	216.62
626.879	191.62
627.086	223.62
627.293	208.62
627.499	213.62
627.706	205.62
627.912	222.62
628.119	218.62
628.325	214.62
628.532	206.62
628.738	225.62
628.945	199.62
629.151	203.62
629.357	205.62
629.564	207.62
629.77	209.62
629.976	205.62
630.183	205.62
630.389	192.62
630.595	217.62
630.802	205.62
631.008	208.62
631.214	197.62
631.42	196.62
631.627	201.62
631.833	203.62
632.039	211.62
632.245	194.62
632.451	203.62
632.657	220.62
632.863	189.62
633.069	198.62
633.275	197.62
633.481	179.62
633.688	201.62
633.893	200.62
634.099	196.62
634.305	173.62
634.511	183.62
634.717	175.62
634.923	190.62
635.129	195.62
635.335	207.62
635.541	186.62
635.747	174.62
635.952	181.62
636.158	179.62
636.364	193.62
636.57	186.62
636.775	174.62
636.981	169.62
637.187	187.62
637.392	184.62
637.598	180.62
637.804	175.62
638.009	187.62
638.215	185.62
638.421	184.62
638.626	181.62
638.832	190.62
639.037	164.62
639.243	187.62
639.448	185.62
639.654	170.62
639.859	181.62
640.065	175.62
640.27	177.62
640.475	184.62
640.681	177.62
640.886	172.62
641.091	178.62
641.297	181.62
641.502	189.62
641.707	175.62
641.913	181.62
642.118	179.62
642.323	172.62
642.528	191.62
642.733	179.62
642.939	177.62
643.144	175.62
643.349	174.62
643.554	165.62
643.759	176.62
643.964	161.62
644.169	183.62
644.374	168.62
644.579	163.62
644.784	160.62
644.989	176.62
645.194	191.62
645.399	176.62
645.604	160.62
645.809	176.62
646.014	184.62
646.219	178.62
646.423	178.62
646.628	163.62
646.833	156.62
647.038	180.62
647.243	162.62
647.447	164.62
647.652	183.62
647.857	179.62
648.062	204.62
648.266	171.62
648.471	188.62
648.676	181.62
648.88	184.62
649.085	179.62
649.289	174.62
649.494	167.62
649.698	196.62
649.903	187.62
650.107	187.62
650.312	188.62
650.516	167.62
650.721	173.62
650.925	185.62
651.13	179.62
651.334	158.62
651.539	160.62
651.743	170.62
651.947	151.62
652.152	152.62
652.356	156.62
652.56	136.62
652.764	142.62
652.969	149.62
653.173	167.62
653.377	153.62
653.581	134.62
653.785	145.62
653.99	140.62
654.194	142.62
654.398	159.62
654.602	147.62
654.806	145.62
655.01	140.62
655.214	136.62
655.418	129.62
655.622	149.62
655.826	137.62
656.03	151.62
656.234	154.62
656.438	141.62
656.642	149.62
656.846	135.62
657.049	137.62
657.253	135.62
657.457	111.62
657.661	126.62
657.865	125.62
658.068	124.62
658.272	119.62
658.476	107.62
658.68	117.62
658.883	99.62
659.087	106.62
659.291	106.62
659.494	109.62
659.698	99.62
659.901	103.62
660.105	100.62
660.309	98.62
660.512	109.62
660.716	109.62
660.919	75.62
661.123	104.62
661.326	94.62
661.53	98.62
661.733	89.62
661.936	90.62
662.14	94.62
662.343	96.62
662.546	94.62
662.75	91.62
662.953	101.62
663.156	76.62
663.36	81.62
663.563	79.62
663.766	79.62
663.969	81.62
664.173	78.62
664.376	70.62
664.579	98.62
664.782	105.62
664.985	70.62
665.188	90.62
665.391	77.62
665.594	84.62
665.797	68.62
666	76.62
666.203	76.62
666.406	77.62
666.609	92.62
666.812	84.62
667.015	85.62
667.218	70.62
667.421	88.62
667.624	86.62
667.827	77.62
668.03	92.62
668.232	75.62
668.435	91.62
668.638	85.62
668.841	94.62
669.043	79.62
669.246	84.62
669.449	92.62
669.651	80.62
669.854	84.62
670.057	80.62
670.259	83.62
670.462	84.62
670.665	81.62
670.867	79.62
671.07	96.62
671.272	85.62
671.475	92.62
671.677	86.62
671.88	83.62
672.082	93.62
672.284	107.62
672.487	89.62
672.689	89.62
672.892	86.62
