Data from 1976.PennyLincolnUp.Lamp.En5.5.200Scan.071719.P1.Changed Mount._HRD10591_16-00-46-861.txt Node
Date: Thu Jul 18 16:00:46 EDT 2019
User: cochatt
Spectrometer: HR+D1059
Trigger mode: 1
Integration Time (sec): 1.000000E-1
Scans to average: 1
Electric dark correction enabled: true
Nonlinearity correction enabled: false
Boxcar width: 0
XAxis mode: Wavelengths
Number of Pixels in Spectrum: 2048
>>>>>Begin Spectral Data<<<<<
223.165	-10.31
223.4	-10.31
223.635	-10.31
223.869	-21.31
224.104	-11.31
224.338	-15.31
224.573	-11.31
224.808	-8.31
225.042	-7.31
225.277	-8.31
225.511	2.69
225.746	5.69
225.98	8.69
226.215	21.69
226.449	5.69
226.683	5.69
226.918	23.69
227.152	19.69
227.387	31.69
227.621	41.69
227.856	41.69
228.09	43.69
228.324	30.69
228.559	51.69
228.793	61.69
229.027	109.69
229.262	90.69
229.496	131.69
229.73	123.69
229.964	149.69
230.199	113.69
230.433	109.69
230.667	101.69
230.901	117.69
231.136	118.69
231.37	119.69
231.604	115.69
231.838	115.69
232.072	132.69
232.306	104.69
232.541	115.69
232.775	108.69
233.009	102.69
233.243	113.69
233.477	115.69
233.711	116.69
233.945	117.69
234.179	117.69
234.413	120.69
234.647	123.69
234.881	109.69
235.115	94.69
235.349	119.69
235.583	121.69
235.817	128.69
236.051	121.69
236.285	131.69
236.519	126.69
236.753	125.69
236.987	139.69
237.221	180.69
237.455	216.69
237.689	183.69
237.922	143.69
238.156	127.69
238.39	142.69
238.624	105.69
238.858	116.69
239.091	119.69
239.325	131.69
239.559	113.69
239.793	136.69
240.027	121.69
240.26	128.69
240.494	143.69
240.728	166.69
240.961	167.69
241.195	159.69
241.429	141.69
241.662	131.69
241.896	133.69
242.13	118.69
242.363	121.69
242.597	140.69
242.83	149.69
243.064	132.69
243.298	135.69
243.531	138.69
243.765	156.69
243.998	126.69
244.232	127.69
244.465	138.69
244.699	157.69
244.932	137.69
245.166	143.69
245.399	153.69
245.633	155.69
245.866	140.69
246.099	128.69
246.333	152.69
246.566	151.69
246.8	156.69
247.033	141.69
247.266	147.69
247.5	163.69
247.733	179.69
247.966	169.69
248.2	182.69
248.433	172.69
248.666	155.69
248.899	199.69
249.133	187.69
249.366	199.69
249.599	192.69
249.832	175.69
250.066	187.69
250.299	175.69
250.532	179.69
250.765	199.69
250.998	218.69
251.231	217.69
251.465	223.69
251.698	201.69
251.931	179.69
252.164	189.69
252.397	197.69
252.63	199.69
252.863	209.69
253.096	210.69
253.329	224.69
253.562	224.69
253.795	196.69
254.028	217.69
254.261	217.69
254.494	234.69
254.727	234.69
254.96	278.69
255.193	275.69
255.426	255.69
255.659	227.69
255.892	226.69
256.124	212.69
256.357	236.69
256.59	219.69
256.823	219.69
257.056	217.69
257.289	211.69
257.521	208.69
257.754	205.69
257.987	205.69
258.22	193.69
258.452	211.69
258.685	209.69
258.918	203.69
259.151	205.69
259.383	218.69
259.616	216.69
259.849	208.69
260.081	231.69
260.314	239.69
260.547	253.69
260.779	243.69
261.012	227.69
261.244	222.69
261.477	203.69
261.71	235.69
261.942	231.69
262.175	228.69
262.407	231.69
262.64	219.69
262.872	218.69
263.105	226.69
263.337	212.69
263.57	213.69
263.802	218.69
264.035	209.69
264.267	226.69
264.499	217.69
264.732	201.69
264.964	212.69
265.197	211.69
265.429	225.69
265.661	215.69
265.894	215.69
266.126	215.69
266.358	225.69
266.591	230.69
266.823	235.69
267.055	235.69
267.287	230.69
267.52	232.69
267.752	242.69
267.984	235.69
268.216	239.69
268.448	231.69
268.681	241.69
268.913	265.69
269.145	259.69
269.377	291.69
269.609	267.69
269.841	266.69
270.073	275.69
270.306	255.69
270.538	311.69
270.77	325.69
271.002	303.69
271.234	295.69
271.466	315.69
271.698	308.69
271.93	309.69
272.162	315.69
272.394	328.69
272.626	283.69
272.858	273.69
273.09	287.69
273.322	284.69
273.553	283.69
273.785	273.69
274.017	260.69
274.249	267.69
274.481	275.69
274.713	248.69
274.945	272.69
275.176	283.69
275.408	273.69
275.64	282.69
275.872	272.69
276.104	265.69
276.335	281.69
276.567	273.69
276.799	294.69
277.031	312.69
277.262	313.69
277.494	315.69
277.726	324.69
277.957	310.69
278.189	299.69
278.421	288.69
278.652	272.69
278.884	274.69
279.115	283.69
279.347	280.69
279.579	280.69
279.81	262.69
280.042	287.69
280.273	289.69
280.505	268.69
280.736	282.69
280.968	269.69
281.199	281.69
281.431	269.69
281.662	281.69
281.894	284.69
282.125	275.69
282.356	283.69
282.588	300.69
282.819	313.69
283.051	290.69
283.282	292.69
283.513	296.69
283.745	276.69
283.976	298.69
284.207	282.69
284.439	278.69
284.67	308.69
284.901	299.69
285.132	298.69
285.364	307.69
285.595	273.69
285.826	277.69
286.057	304.69
286.288	290.69
286.52	287.69
286.751	306.69
286.982	287.69
287.213	287.69
287.444	319.69
287.675	300.69
287.906	305.69
288.138	334.69
288.369	323.69
288.6	328.69
288.831	328.69
289.062	318.69
289.293	292.69
289.524	305.69
289.755	315.69
289.986	291.69
290.217	294.69
290.448	300.69
290.679	301.69
290.91	295.69
291.141	300.69
291.371	309.69
291.602	316.69
291.833	305.69
292.064	300.69
292.295	310.69
292.526	320.69
292.757	292.69
292.987	301.69
293.218	300.69
293.449	323.69
293.68	321.69
293.91	307.69
294.141	324.69
294.372	315.69
294.603	293.69
294.833	313.69
295.064	307.69
295.295	312.69
295.525	318.69
295.756	319.69
295.987	321.69
296.217	335.69
296.448	331.69
296.679	336.69
296.909	300.69
297.14	307.69
297.37	311.69
297.601	324.69
297.831	318.69
298.062	336.69
298.292	319.69
298.523	329.69
298.753	323.69
298.984	315.69
299.214	328.69
299.445	311.69
299.675	335.69
299.905	324.69
300.136	349.69
300.366	327.69
300.597	314.69
300.827	346.69
301.057	341.69
301.288	337.69
301.518	340.69
301.748	335.69
301.979	355.69
302.209	344.69
302.439	351.69
302.669	340.69
302.9	336.69
303.13	320.69
303.36	347.69
303.59	344.69
303.82	332.69
304.051	341.69
304.281	349.69
304.511	368.69
304.741	338.69
304.971	341.69
305.201	364.69
305.431	337.69
305.661	346.69
305.891	357.69
306.121	333.69
306.352	342.69
306.582	338.69
306.812	340.69
307.042	341.69
307.272	372.69
307.502	342.69
307.731	356.69
307.961	340.69
308.191	332.69
308.421	353.69
308.651	365.69
308.881	336.69
309.111	351.69
309.341	353.69
309.571	375.69
309.8	365.69
310.03	376.69
310.26	379.69
310.49	387.69
310.72	393.69
310.949	387.69
311.179	387.69
311.409	371.69
311.639	371.69
311.868	375.69
312.098	405.69
312.328	393.69
312.557	389.69
312.787	389.69
313.017	401.69
313.246	406.69
313.476	383.69
313.706	372.69
313.935	390.69
314.165	390.69
314.394	404.69
314.624	403.69
314.853	384.69
315.083	377.69
315.312	390.69
315.542	379.69
315.771	391.69
316.001	391.69
316.23	377.69
316.46	385.69
316.689	392.69
316.919	392.69
317.148	389.69
317.377	400.69
317.607	400.69
317.836	383.69
318.065	377.69
318.295	385.69
318.524	383.69
318.753	394.69
318.983	377.69
319.212	392.69
319.441	377.69
319.67	387.69
319.9	378.69
320.129	386.69
320.358	370.69
320.587	393.69
320.816	405.69
321.046	403.69
321.275	385.69
321.504	407.69
321.733	405.69
321.962	394.69
322.191	421.69
322.42	417.69
322.649	447.69
322.878	442.69
323.108	452.69
323.337	459.69
323.566	458.69
323.795	500.69
324.024	513.69
324.253	616.69
324.482	847.69
324.71	1258.69
324.939	1843.69
325.168	1605.69
325.397	835.69
325.626	579.69
325.855	492.69
326.084	482.69
326.313	467.69
326.542	475.69
326.77	497.69
326.999	577.69
327.228	774.69
327.457	1146.69
327.686	1367.69
327.914	894.69
328.143	634.69
328.372	568.69
328.6	545.69
328.829	531.69
329.058	539.69
329.287	542.69
329.515	531.69
329.744	494.69
329.972	486.69
330.201	503.69
330.43	531.69
330.658	547.69
330.887	565.69
331.115	552.69
331.344	501.69
331.572	479.69
331.801	479.69
332.03	490.69
332.258	472.69
332.486	483.69
332.715	459.69
332.943	475.69
333.172	460.69
333.4	487.69
333.629	498.69
333.857	485.69
334.085	504.69
334.314	518.69
334.542	545.69
334.771	542.69
334.999	518.69
335.227	499.69
335.455	472.69
335.684	473.69
335.912	460.69
336.14	476.69
336.369	464.69
336.597	452.69
336.825	465.69
337.053	450.69
337.281	436.69
337.51	465.69
337.738	460.69
337.966	443.69
338.194	474.69
338.422	446.69
338.65	450.69
338.878	478.69
339.106	449.69
339.334	434.69
339.562	446.69
339.79	438.69
340.018	440.69
340.246	431.69
340.474	445.69
340.702	467.69
340.93	448.69
341.158	457.69
341.386	427.69
341.614	447.69
341.842	437.69
342.07	444.69
342.298	428.69
342.526	422.69
342.754	427.69
342.981	420.69
343.209	415.69
343.437	441.69
343.665	436.69
343.893	454.69
344.12	468.69
344.348	467.69
344.576	455.69
344.804	451.69
345.031	456.69
345.259	457.69
345.487	444.69
345.714	435.69
345.942	425.69
346.17	436.69
346.397	425.69
346.625	436.69
346.853	428.69
347.08	451.69
347.308	426.69
347.535	420.69
347.763	430.69
347.99	431.69
348.218	435.69
348.445	429.69
348.673	436.69
348.9	423.69
349.128	419.69
349.355	397.69
349.583	411.69
349.81	428.69
350.037	400.69
350.265	404.69
350.492	413.69
350.72	424.69
350.947	417.69
351.174	416.69
351.402	405.69
351.629	407.69
351.856	424.69
352.083	435.69
352.311	419.69
352.538	448.69
352.765	430.69
352.992	440.69
353.22	421.69
353.447	407.69
353.674	406.69
353.901	426.69
354.128	406.69
354.355	398.69
354.583	393.69
354.81	391.69
355.037	410.69
355.264	405.69
355.491	391.69
355.718	380.69
355.945	388.69
356.172	394.69
356.399	396.69
356.626	403.69
356.853	396.69
357.08	402.69
357.307	389.69
357.534	401.69
357.761	401.69
357.988	397.69
358.215	404.69
358.441	405.69
358.668	390.69
358.895	394.69
359.122	394.69
359.349	402.69
359.576	420.69
359.802	429.69
360.029	472.69
360.256	442.69
360.483	435.69
360.709	423.69
360.936	425.69
361.163	412.69
361.39	419.69
361.616	423.69
361.843	420.69
362.07	419.69
362.296	418.69
362.523	426.69
362.749	417.69
362.976	406.69
363.203	417.69
363.429	405.69
363.656	420.69
363.882	407.69
364.109	397.69
364.335	413.69
364.562	426.69
364.788	425.69
365.015	403.69
365.241	412.69
365.468	398.69
365.694	408.69
365.92	409.69
366.147	391.69
366.373	391.69
366.599	391.69
366.826	419.69
367.052	412.69
367.278	398.69
367.505	407.69
367.731	415.69
367.957	404.69
368.184	420.69
368.41	410.69
368.636	410.69
368.862	420.69
369.089	443.69
369.315	415.69
369.541	409.69
369.767	396.69
369.993	405.69
370.219	413.69
370.445	399.69
370.672	409.69
370.898	416.69
371.124	408.69
371.35	432.69
371.576	431.69
371.802	424.69
372.028	424.69
372.254	415.69
372.48	405.69
372.706	431.69
372.932	405.69
373.158	412.69
373.384	433.69
373.61	435.69
373.835	403.69
374.061	435.69
374.287	392.69
374.513	430.69
374.739	421.69
374.965	401.69
375.191	440.69
375.416	422.69
375.642	420.69
375.868	431.69
376.094	437.69
376.319	427.69
376.545	407.69
376.771	405.69
376.997	411.69
377.222	412.69
377.448	415.69
377.674	416.69
377.899	415.69
378.125	396.69
378.35	396.69
378.576	419.69
378.802	408.69
379.027	416.69
379.253	409.69
379.478	407.69
379.704	417.69
379.929	408.69
380.155	406.69
380.38	388.69
380.606	405.69
380.831	395.69
381.057	439.69
381.282	436.69
381.507	423.69
381.733	416.69
381.958	403.69
382.184	411.69
382.409	435.69
382.634	432.69
382.86	423.69
383.085	416.69
383.31	429.69
383.535	417.69
383.761	435.69
383.986	424.69
384.211	441.69
384.436	473.69
384.662	440.69
384.887	467.69
385.112	424.69
385.337	452.69
385.562	444.69
385.787	450.69
386.013	473.69
386.238	471.69
386.463	488.69
386.688	457.69
386.913	471.69
387.138	435.69
387.363	464.69
387.588	451.69
387.813	459.69
388.038	456.69
388.263	446.69
388.488	473.69
388.713	459.69
388.938	451.69
389.163	443.69
389.387	445.69
389.612	433.69
389.837	443.69
390.062	461.69
390.287	462.69
390.512	433.69
390.736	449.69
390.961	454.69
391.186	460.69
391.411	439.69
391.636	441.69
391.86	475.69
392.085	477.69
392.31	500.69
392.534	476.69
392.759	466.69
392.984	464.69
393.208	472.69
393.433	442.69
393.658	459.69
393.882	478.69
394.107	476.69
394.331	475.69
394.556	461.69
394.78	446.69
395.005	468.69
395.229	489.69
395.454	495.69
395.678	482.69
395.903	517.69
396.127	523.69
396.352	501.69
396.576	481.69
396.801	485.69
397.025	488.69
397.249	499.69
397.474	485.69
397.698	499.69
397.922	520.69
398.147	508.69
398.371	531.69
398.595	540.69
398.82	546.69
399.044	561.69
399.268	596.69
399.492	609.69
399.717	656.69
399.941	676.69
400.165	690.69
400.389	683.69
400.613	602.69
400.837	564.69
401.062	556.69
401.286	567.69
401.51	541.69
401.734	533.69
401.958	523.69
402.182	530.69
402.406	536.69
402.63	555.69
402.854	547.69
403.078	542.69
403.302	555.69
403.526	557.69
403.75	568.69
403.974	553.69
404.198	582.69
404.422	579.69
404.645	584.69
404.869	593.69
405.093	607.69
405.317	643.69
405.541	651.69
405.765	611.69
405.988	600.69
406.212	596.69
406.436	613.69
406.66	619.69
406.883	601.69
407.107	622.69
407.331	660.69
407.555	730.69
407.778	736.69
408.002	697.69
408.226	632.69
408.449	617.69
408.673	632.69
408.896	647.69
409.12	696.69
409.344	680.69
409.567	601.69
409.791	572.69
410.014	571.69
410.238	560.69
410.461	545.69
410.685	582.69
410.908	592.69
411.132	608.69
411.355	646.69
411.578	607.69
411.802	567.69
412.025	567.69
412.249	557.69
412.472	617.69
412.695	621.69
412.919	602.69
413.142	575.69
413.365	556.69
413.589	551.69
413.812	536.69
414.035	536.69
414.258	527.69
414.482	519.69
414.705	529.69
414.928	519.69
415.151	537.69
415.374	527.69
415.597	511.69
415.821	517.69
416.044	511.69
416.267	486.69
416.49	533.69
416.713	535.69
416.936	543.69
417.159	517.69
417.382	556.69
417.605	519.69
417.828	519.69
418.051	537.69
418.274	540.69
418.497	529.69
418.72	530.69
418.943	512.69
419.166	553.69
419.389	584.69
419.611	581.69
419.834	559.69
420.057	555.69
420.28	563.69
420.503	534.69
420.726	560.69
420.948	555.69
421.171	594.69
421.394	647.69
421.617	578.69
421.839	553.69
422.062	577.69
422.285	556.69
422.507	591.69
422.73	675.69
422.953	649.69
423.175	610.69
423.398	557.69
423.621	553.69
423.843	596.69
424.066	595.69
424.288	571.69
424.511	601.69
424.733	651.69
424.956	703.69
425.178	695.69
425.401	666.69
425.623	705.69
425.846	633.69
426.068	595.69
426.291	569.69
426.513	586.69
426.735	577.69
426.958	619.69
427.18	705.69
427.402	817.69
427.625	903.69
427.847	779.69
428.069	659.69
428.292	595.69
428.514	565.69
428.736	543.69
428.958	565.69
429.181	549.69
429.403	544.69
429.625	537.69
429.847	568.69
430.069	633.69
430.292	633.69
430.514	535.69
430.736	525.69
430.958	524.69
431.18	519.69
431.402	511.69
431.624	491.69
431.846	499.69
432.068	505.69
432.29	511.69
432.512	516.69
432.734	541.69
432.956	509.69
433.178	524.69
433.4	532.69
433.622	502.69
433.844	523.69
434.066	496.69
434.287	519.69
434.509	500.69
434.731	510.69
434.953	551.69
435.175	551.69
435.397	568.69
435.618	556.69
435.84	589.69
436.062	715.69
436.284	763.69
436.505	636.69
436.727	571.69
436.949	529.69
437.17	522.69
437.392	520.69
437.614	528.69
437.835	566.69
438.057	665.69
438.278	746.69
438.5	727.69
438.721	840.69
438.943	824.69
439.165	633.69
439.386	581.69
439.608	561.69
439.829	563.69
440.05	605.69
440.272	624.69
440.493	583.69
440.715	555.69
440.936	539.69
441.158	537.69
441.379	526.69
441.6	548.69
441.822	580.69
442.043	624.69
442.264	691.69
442.486	724.69
442.707	630.69
442.928	601.69
443.149	609.69
443.371	586.69
443.592	639.69
443.813	723.69
444.034	822.69
444.255	659.69
444.476	601.69
444.698	577.69
444.919	625.69
445.14	741.69
445.361	678.69
445.582	622.69
445.803	673.69
446.024	775.69
446.245	761.69
446.466	696.69
446.687	616.69
446.908	565.69
447.129	517.69
447.35	537.69
447.571	513.69
447.792	520.69
448.013	531.69
448.234	550.69
448.455	579.69
448.675	682.69
448.896	827.69
449.117	671.69
449.338	641.69
449.559	757.69
449.779	855.69
450	679.69
450.221	569.69
450.442	518.69
450.662	501.69
450.883	524.69
451.104	565.69
451.324	521.69
451.545	478.69
451.766	468.69
451.986	481.69
452.207	467.69
452.428	463.69
452.648	457.69
452.869	489.69
453.089	482.69
453.31	497.69
453.53	467.69
453.751	456.69
453.971	487.69
454.192	481.69
454.412	473.69
454.633	468.69
454.853	471.69
455.073	451.69
455.294	489.69
455.514	532.69
455.734	538.69
455.955	483.69
456.175	433.69
456.395	434.69
456.616	435.69
456.836	443.69
457.056	432.69
457.276	431.69
457.497	428.69
457.717	451.69
457.937	448.69
458.157	449.69
458.377	453.69
458.598	456.69
458.818	520.69
459.038	584.69
459.258	604.69
459.478	533.69
459.698	513.69
459.918	504.69
460.138	507.69
460.358	505.69
460.578	537.69
460.798	520.69
461.018	540.69
461.238	521.69
461.458	501.69
461.678	548.69
461.898	515.69
462.118	525.69
462.338	543.69
462.558	546.69
462.777	545.69
462.997	588.69
463.217	579.69
463.437	601.69
463.657	602.69
463.876	554.69
464.096	589.69
464.316	578.69
464.536	561.69
464.755	549.69
464.975	563.69
465.195	552.69
465.414	593.69
465.634	593.69
465.854	540.69
466.073	509.69
466.293	504.69
466.512	495.69
466.732	487.69
466.951	487.69
467.171	475.69
467.391	482.69
467.61	488.69
467.829	494.69
468.049	492.69
468.268	482.69
468.488	486.69
468.707	475.69
468.927	491.69
469.146	453.69
469.365	463.69
469.585	451.69
469.804	480.69
470.023	476.69
470.243	488.69
470.462	492.69
470.681	503.69
470.901	482.69
471.12	490.69
471.339	497.69
471.558	494.69
471.777	481.69
471.997	476.69
472.216	511.69
472.435	531.69
472.654	507.69
472.873	473.69
473.092	465.69
473.311	465.69
473.53	489.69
473.749	482.69
473.968	551.69
474.187	624.69
474.406	635.69
474.625	539.69
474.844	502.69
475.063	488.69
475.282	499.69
475.501	507.69
475.72	500.69
475.939	509.69
476.158	497.69
476.377	492.69
476.596	485.69
476.814	503.69
477.033	517.69
477.252	497.69
477.471	520.69
477.69	524.69
477.908	526.69
478.127	539.69
478.346	563.69
478.564	542.69
478.783	535.69
479.002	549.69
479.22	561.69
479.439	557.69
479.658	582.69
479.876	595.69
480.095	597.69
480.313	623.69
480.532	617.69
480.751	594.69
480.969	591.69
481.188	640.69
481.406	672.69
481.624	595.69
481.843	567.69
482.061	568.69
482.28	547.69
482.498	548.69
482.717	563.69
482.935	529.69
483.153	574.69
483.372	577.69
483.59	568.69
483.808	576.69
484.027	547.69
484.245	570.69
484.463	583.69
484.681	568.69
484.9	562.69
485.118	580.69
485.336	567.69
485.554	589.69
485.772	583.69
485.99	594.69
486.209	587.69
486.427	596.69
486.645	595.69
486.863	609.69
487.081	594.69
487.299	605.69
487.517	602.69
487.735	616.69
487.953	617.69
488.171	610.69
488.389	617.69
488.607	586.69
488.825	600.69
489.043	606.69
489.261	628.69
489.479	615.69
489.696	616.69
489.914	632.69
490.132	626.69
490.35	646.69
490.568	631.69
490.786	657.69
491.003	663.69
491.221	676.69
491.439	664.69
491.657	684.69
491.874	683.69
492.092	733.69
492.31	699.69
492.527	698.69
492.745	706.69
492.963	708.69
493.18	712.69
493.398	718.69
493.615	716.69
493.833	709.69
494.05	713.69
494.268	696.69
494.485	711.69
494.703	727.69
494.92	705.69
495.138	727.69
495.355	726.69
495.573	706.69
495.79	696.69
496.008	717.69
496.225	740.69
496.442	707.69
496.66	716.69
496.877	715.69
497.094	715.69
497.312	742.69
497.529	738.69
497.746	753.69
497.963	760.69
498.181	804.69
498.398	822.69
498.615	815.69
498.832	864.69
499.049	858.69
499.267	902.69
499.484	926.69
499.701	961.69
499.918	1047.69
500.135	1091.69
500.352	1167.69
500.569	1172.69
500.786	1163.69
501.003	1160.69
501.22	1086.69
501.437	1053.69
501.654	996.69
501.871	971.69
502.088	904.69
502.305	895.69
502.522	871.69
502.739	821.69
502.956	799.69
503.172	775.69
503.389	764.69
503.606	755.69
503.823	727.69
504.04	724.69
504.256	739.69
504.473	761.69
504.69	745.69
504.907	755.69
505.123	729.69
505.34	697.69
505.557	698.69
505.773	693.69
505.99	712.69
506.207	680.69
506.423	698.69
506.64	682.69
506.856	676.69
507.073	653.69
507.289	638.69
507.506	655.69
507.722	652.69
507.939	657.69
508.155	663.69
508.372	626.69
508.588	609.69
508.805	621.69
509.021	635.69
509.238	640.69
509.454	649.69
509.67	661.69
509.887	638.69
510.103	623.69
510.319	634.69
510.536	693.69
510.752	1026.69
510.968	850.69
511.184	625.69
511.401	602.69
511.617	611.69
511.833	595.69
512.049	605.69
512.265	602.69
512.481	586.69
512.698	588.69
512.914	598.69
513.13	582.69
513.346	569.69
513.562	568.69
513.778	602.69
513.994	597.69
514.21	618.69
514.426	636.69
514.642	612.69
514.858	656.69
515.074	689.69
515.29	783.69
515.506	1027.69
515.721	928.69
515.937	680.69
516.153	636.69
516.369	646.69
516.585	653.69
516.801	633.69
517.016	654.69
517.232	671.69
517.448	663.69
517.664	667.69
517.879	651.69
518.095	627.69
518.311	632.69
518.527	620.69
518.742	639.69
518.958	633.69
519.173	599.69
519.389	616.69
519.605	599.69
519.82	583.69
520.036	625.69
520.251	607.69
520.467	603.69
520.682	618.69
520.898	639.69
521.113	639.69
521.329	670.69
521.544	712.69
521.76	831.69
521.975	1294.69
522.19	1238.69
522.406	773.69
522.621	630.69
522.836	596.69
523.052	563.69
523.267	545.69
523.482	521.69
523.698	524.69
523.913	524.69
524.128	553.69
524.343	527.69
524.559	516.69
524.774	500.69
524.989	529.69
525.204	517.69
525.419	542.69
525.634	506.69
525.849	524.69
526.064	514.69
526.28	512.69
526.495	501.69
526.71	469.69
526.925	514.69
527.14	490.69
527.355	507.69
527.57	484.69
527.785	505.69
527.999	496.69
528.214	505.69
528.429	485.69
528.644	523.69
528.859	495.69
529.074	500.69
529.289	507.69
529.503	583.69
529.718	540.69
529.933	527.69
530.148	497.69
530.363	515.69
530.577	506.69
530.792	472.69
531.007	492.69
531.221	489.69
531.436	506.69
531.651	471.69
531.865	496.69
532.08	499.69
532.295	491.69
532.509	466.69
532.724	475.69
532.938	491.69
533.153	470.69
533.367	477.69
533.582	490.69
533.796	475.69
534.011	475.69
534.225	468.69
534.44	472.69
534.654	491.69
534.868	461.69
535.083	468.69
535.297	476.69
535.511	488.69
535.726	501.69
535.94	491.69
536.154	467.69
536.369	454.69
536.583	468.69
536.797	438.69
537.011	448.69
537.225	455.69
537.44	468.69
537.654	473.69
537.868	460.69
538.082	469.69
538.296	466.69
538.51	453.69
538.724	478.69
538.938	453.69
539.153	464.69
539.367	471.69
539.581	462.69
539.795	464.69
540.009	474.69
540.222	460.69
540.436	468.69
540.65	477.69
540.864	460.69
541.078	479.69
541.292	469.69
541.506	452.69
541.72	471.69
541.934	471.69
542.147	458.69
542.361	457.69
542.575	460.69
542.789	466.69
543.002	448.69
543.216	464.69
543.43	457.69
543.644	461.69
543.857	441.69
544.071	450.69
544.285	458.69
544.498	460.69
544.712	455.69
544.925	477.69
545.139	476.69
545.352	456.69
545.566	451.69
545.779	454.69
545.993	467.69
546.206	468.69
546.42	455.69
546.633	442.69
546.847	475.69
547.06	464.69
547.274	443.69
547.487	449.69
547.7	447.69
547.914	449.69
548.127	451.69
548.34	444.69
548.554	455.69
548.767	439.69
548.98	437.69
549.193	465.69
549.407	459.69
549.62	446.69
549.833	465.69
550.046	453.69
550.259	437.69
550.473	453.69
550.686	438.69
550.899	453.69
551.112	424.69
551.325	436.69
551.538	440.69
551.751	447.69
551.964	437.69
552.177	464.69
552.39	445.69
552.603	433.69
552.816	453.69
553.029	457.69
553.242	446.69
553.455	448.69
553.667	474.69
553.88	474.69
554.093	468.69
554.306	447.69
554.519	450.69
554.732	456.69
554.944	432.69
555.157	452.69
555.37	428.69
555.583	417.69
555.795	441.69
556.008	393.69
556.221	388.69
556.433	412.69
556.646	405.69
556.859	405.69
557.071	417.69
557.284	404.69
557.496	395.69
557.709	399.69
557.921	394.69
558.134	412.69
558.346	394.69
558.559	416.69
558.771	394.69
558.984	397.69
559.196	399.69
559.409	371.69
559.621	405.69
559.833	375.69
560.046	376.69
560.258	379.69
560.47	393.69
560.683	395.69
560.895	391.69
561.107	390.69
561.32	395.69
561.532	387.69
561.744	404.69
561.956	393.69
562.168	388.69
562.381	404.69
562.593	397.69
562.805	407.69
563.017	387.69
563.229	409.69
563.441	397.69
563.653	380.69
563.865	399.69
564.077	395.69
564.289	417.69
564.501	389.69
564.713	416.69
564.925	425.69
565.137	444.69
565.349	421.69
565.561	422.69
565.773	438.69
565.985	444.69
566.197	479.69
566.408	470.69
566.62	501.69
566.832	515.69
567.044	518.69
567.255	499.69
567.467	520.69
567.679	539.69
567.891	569.69
568.102	571.69
568.314	534.69
568.526	536.69
568.737	512.69
568.949	500.69
569.161	455.69
569.372	423.69
569.584	424.69
569.795	406.69
570.007	413.69
570.218	452.69
570.43	440.69
570.641	415.69
570.853	415.69
571.064	404.69
571.276	397.69
571.487	400.69
571.698	399.69
571.91	378.69
572.121	376.69
572.333	376.69
572.544	355.69
572.755	359.69
572.966	362.69
573.178	360.69
573.389	354.69
573.6	344.69
573.811	349.69
574.023	339.69
574.234	355.69
574.445	357.69
574.656	345.69
574.867	326.69
575.078	348.69
575.289	348.69
575.501	339.69
575.712	332.69
575.923	327.69
576.134	331.69
576.345	327.69
576.556	331.69
576.767	332.69
576.978	324.69
577.188	333.69
577.399	324.69
577.61	338.69
577.821	346.69
578.032	336.69
578.243	351.69
578.454	521.69
578.665	393.69
578.875	318.69
579.086	340.69
579.297	325.69
579.508	310.69
579.718	309.69
579.929	322.69
580.14	301.69
580.35	304.69
580.561	323.69
580.772	307.69
580.982	327.69
581.193	314.69
581.403	289.69
581.614	301.69
581.825	307.69
582.035	322.69
582.246	289.69
582.456	324.69
582.667	322.69
582.877	303.69
583.087	327.69
583.298	313.69
583.508	307.69
583.719	292.69
583.929	309.69
584.139	286.69
584.35	309.69
584.56	322.69
584.77	307.69
584.981	322.69
585.191	298.69
585.401	300.69
585.611	317.69
585.821	295.69
586.032	288.69
586.242	293.69
586.452	283.69
586.662	309.69
586.872	298.69
587.082	303.69
587.292	306.69
587.502	309.69
587.713	321.69
587.923	325.69
588.133	299.69
588.343	290.69
588.553	292.69
588.762	292.69
588.972	283.69
589.182	295.69
589.392	312.69
589.602	287.69
589.812	309.69
590.022	311.69
590.232	283.69
590.441	301.69
590.651	305.69
590.861	295.69
591.071	310.69
591.281	311.69
591.49	298.69
591.7	292.69
591.91	327.69
592.119	317.69
592.329	309.69
592.539	304.69
592.748	309.69
592.958	332.69
593.167	327.69
593.377	330.69
593.587	353.69
593.796	340.69
594.006	345.69
594.215	330.69
594.424	325.69
594.634	334.69
594.843	342.69
595.053	315.69
595.262	323.69
595.472	303.69
595.681	327.69
595.89	312.69
596.1	311.69
596.309	311.69
596.518	291.69
596.727	300.69
596.937	284.69
597.146	298.69
597.355	295.69
597.564	271.69
597.774	267.69
597.983	276.69
598.192	265.69
598.401	276.69
598.61	271.69
598.819	273.69
599.028	277.69
599.237	293.69
599.446	277.69
599.655	276.69
599.864	272.69
600.073	273.69
600.282	244.69
600.491	265.69
600.7	257.69
600.909	263.69
601.118	256.69
601.327	265.69
601.536	249.69
601.745	269.69
601.953	276.69
602.162	285.69
602.371	267.69
602.58	262.69
602.789	267.69
602.997	267.69
603.206	250.69
603.415	271.69
603.623	265.69
603.832	264.69
604.041	266.69
604.249	240.69
604.458	258.69
604.666	242.69
604.875	253.69
605.084	251.69
605.292	260.69
605.501	273.69
605.709	245.69
605.918	253.69
606.126	243.69
606.334	263.69
606.543	260.69
606.751	261.69
606.96	244.69
607.168	249.69
607.376	242.69
607.585	246.69
607.793	275.69
608.001	251.69
608.21	247.69
608.418	260.69
608.626	264.69
608.834	251.69
609.043	233.69
609.251	227.69
609.459	247.69
609.667	247.69
609.875	261.69
610.083	251.69
610.291	245.69
610.499	254.69
610.707	252.69
610.916	244.69
611.124	268.69
611.332	256.69
611.54	259.69
611.748	239.69
611.955	248.69
612.163	260.69
612.371	245.69
612.579	247.69
612.787	257.69
612.995	243.69
613.203	257.69
613.411	230.69
613.618	238.69
613.826	230.69
614.034	241.69
614.242	254.69
614.449	240.69
614.657	243.69
614.865	257.69
615.072	225.69
615.28	241.69
615.488	240.69
615.695	240.69
615.903	243.69
616.111	252.69
616.318	232.69
616.526	263.69
616.733	247.69
616.941	235.69
617.148	237.69
617.356	241.69
617.563	238.69
617.771	252.69
617.978	238.69
618.185	221.69
618.393	227.69
618.6	256.69
618.807	223.69
619.015	244.69
619.222	223.69
619.429	229.69
619.637	235.69
619.844	216.69
620.051	242.69
620.258	230.69
620.466	227.69
620.673	210.69
620.88	226.69
621.087	206.69
621.294	204.69
621.501	213.69
621.708	247.69
621.915	207.69
622.122	216.69
622.329	211.69
622.536	239.69
622.743	231.69
622.95	218.69
623.157	220.69
623.364	228.69
623.571	214.69
623.778	204.69
623.985	227.69
624.192	204.69
624.399	214.69
624.606	220.69
624.812	214.69
625.019	224.69
625.226	225.69
625.433	226.69
625.639	236.69
625.846	203.69
626.053	219.69
626.259	213.69
626.466	221.69
626.673	206.69
626.879	212.69
627.086	203.69
627.293	205.69
627.499	209.69
627.706	208.69
627.912	240.69
628.119	221.69
628.325	206.69
628.532	194.69
628.738	191.69
628.945	215.69
629.151	213.69
629.357	209.69
629.564	203.69
629.77	209.69
629.976	197.69
630.183	202.69
630.389	197.69
630.595	192.69
630.802	199.69
631.008	199.69
631.214	195.69
631.42	212.69
631.627	210.69
631.833	204.69
632.039	177.69
632.245	184.69
632.451	211.69
632.657	209.69
632.863	213.69
633.069	194.69
633.275	215.69
633.481	195.69
633.688	201.69
633.893	200.69
634.099	194.69
634.305	184.69
634.511	185.69
634.717	180.69
634.923	176.69
635.129	191.69
635.335	175.69
635.541	181.69
635.747	175.69
635.952	199.69
636.158	181.69
636.364	175.69
636.57	180.69
636.775	179.69
636.981	178.69
637.187	189.69
637.392	187.69
637.598	172.69
637.804	173.69
638.009	178.69
638.215	181.69
638.421	194.69
638.626	185.69
638.832	190.69
639.037	169.69
639.243	187.69
639.448	175.69
639.654	179.69
639.859	168.69
640.065	171.69
640.27	189.69
640.475	192.69
640.681	172.69
640.886	171.69
641.091	175.69
641.297	180.69
641.502	177.69
641.707	157.69
641.913	183.69
642.118	183.69
642.323	170.69
642.528	177.69
642.733	179.69
642.939	166.69
643.144	178.69
643.349	175.69
643.554	169.69
643.759	159.69
643.964	175.69
644.169	171.69
644.374	160.69
644.579	170.69
644.784	161.69
644.989	155.69
645.194	165.69
645.399	161.69
645.604	141.69
645.809	188.69
646.014	166.69
646.219	177.69
646.423	185.69
646.628	169.69
646.833	185.69
647.038	173.69
647.243	179.69
647.447	168.69
647.652	179.69
647.857	158.69
648.062	174.69
648.266	177.69
648.471	165.69
648.676	178.69
648.88	175.69
649.085	164.69
649.289	183.69
649.494	165.69
649.698	187.69
649.903	185.69
650.107	177.69
650.312	177.69
650.516	160.69
650.721	162.69
650.925	157.69
651.13	163.69
651.334	165.69
651.539	156.69
651.743	163.69
651.947	144.69
652.152	162.69
652.356	140.69
652.56	154.69
652.764	143.69
652.969	140.69
653.173	134.69
653.377	133.69
653.581	139.69
653.785	138.69
653.99	132.69
654.194	145.69
654.398	124.69
654.602	143.69
654.806	140.69
655.01	143.69
655.214	137.69
655.418	147.69
655.622	135.69
655.826	139.69
656.03	142.69
656.234	131.69
656.438	135.69
656.642	145.69
656.846	122.69
657.049	132.69
657.253	139.69
657.457	131.69
657.661	127.69
657.865	115.69
658.068	105.69
658.272	103.69
658.476	108.69
658.68	112.69
658.883	109.69
659.087	101.69
659.291	106.69
659.494	96.69
659.698	77.69
659.901	108.69
660.105	112.69
660.309	103.69
660.512	87.69
660.716	89.69
660.919	84.69
661.123	82.69
661.326	96.69
661.53	92.69
661.733	83.69
661.936	98.69
662.14	79.69
662.343	82.69
662.546	76.69
662.75	88.69
662.953	87.69
663.156	84.69
663.36	80.69
663.563	89.69
663.766	69.69
663.969	88.69
664.173	79.69
664.376	82.69
664.579	62.69
664.782	66.69
664.985	76.69
665.188	84.69
665.391	78.69
665.594	77.69
665.797	86.69
666	81.69
666.203	88.69
666.406	83.69
666.609	76.69
666.812	78.69
667.015	90.69
667.218	94.69
667.421	73.69
667.624	77.69
667.827	96.69
668.03	73.69
668.232	68.69
668.435	74.69
668.638	92.69
668.841	98.69
669.043	77.69
669.246	76.69
669.449	85.69
669.651	82.69
669.854	88.69
670.057	93.69
670.259	82.69
670.462	91.69
670.665	82.69
670.867	72.69
671.07	79.69
671.272	69.69
671.475	78.69
671.677	76.69
671.88	66.69
672.082	64.69
672.284	74.69
672.487	75.69
672.689	82.69
672.892	73.69
