Data from 1976.PennyLincolnUp.Lamp.En5.5.200Scan.071719.P1.Changed Mount._HRD10591_16-00-53-861.txt Node
Date: Thu Jul 18 16:00:53 EDT 2019
User: cochatt
Spectrometer: HR+D1059
Trigger mode: 1
Integration Time (sec): 1.000000E-1
Scans to average: 1
Electric dark correction enabled: true
Nonlinearity correction enabled: false
Boxcar width: 0
XAxis mode: Wavelengths
Number of Pixels in Spectrum: 2048
>>>>>Begin Spectral Data<<<<<
223.165	-17.94
223.4	-17.94
223.635	-17.94
223.869	-10.94
224.104	-8.94
224.338	-13.94
224.573	-5.94
224.808	-22.94
225.042	-3.94
225.277	-0.94
225.511	-1.94
225.746	-14.94
225.98	10.06
226.215	8.06
226.449	8.06
226.683	27.06
226.918	18.06
227.152	31.06
227.387	35.06
227.621	45.06
227.856	38.06
228.09	33.06
228.324	34.06
228.559	45.06
228.793	65.06
229.027	113.06
229.262	98.06
229.496	98.06
229.73	122.06
229.964	150.06
230.199	125.06
230.433	125.06
230.667	125.06
230.901	118.06
231.136	104.06
231.37	117.06
231.604	103.06
231.838	115.06
232.072	121.06
232.306	113.06
232.541	122.06
232.775	111.06
233.009	113.06
233.243	115.06
233.477	124.06
233.711	125.06
233.945	114.06
234.179	125.06
234.413	122.06
234.647	119.06
234.881	108.06
235.115	125.06
235.349	128.06
235.583	115.06
235.817	137.06
236.051	124.06
236.285	121.06
236.519	123.06
236.753	140.06
236.987	153.06
237.221	178.06
237.455	231.06
237.689	179.06
237.922	150.06
238.156	149.06
238.39	147.06
238.624	138.06
238.858	133.06
239.091	119.06
239.325	120.06
239.559	136.06
239.793	129.06
240.027	154.06
240.26	156.06
240.494	157.06
240.728	158.06
240.961	161.06
241.195	143.06
241.429	143.06
241.662	145.06
241.896	137.06
242.13	141.06
242.363	137.06
242.597	142.06
242.83	150.06
243.064	156.06
243.298	153.06
243.531	161.06
243.765	142.06
243.998	158.06
244.232	148.06
244.465	138.06
244.699	163.06
244.932	162.06
245.166	163.06
245.399	159.06
245.633	151.06
245.866	155.06
246.099	149.06
246.333	144.06
246.566	165.06
246.8	172.06
247.033	166.06
247.266	154.06
247.5	178.06
247.733	170.06
247.966	178.06
248.2	172.06
248.433	167.06
248.666	187.06
248.899	196.06
249.133	187.06
249.366	208.06
249.599	190.06
249.832	181.06
250.066	201.06
250.299	188.06
250.532	201.06
250.765	214.06
250.998	224.06
251.231	218.06
251.465	218.06
251.698	210.06
251.931	201.06
252.164	210.06
252.397	199.06
252.63	203.06
252.863	219.06
253.096	221.06
253.329	241.06
253.562	228.06
253.795	226.06
254.028	231.06
254.261	231.06
254.494	230.06
254.727	260.06
254.96	295.06
255.193	282.06
255.426	255.06
255.659	234.06
255.892	239.06
256.124	234.06
256.357	233.06
256.59	223.06
256.823	219.06
257.056	207.06
257.289	223.06
257.521	211.06
257.754	231.06
257.987	217.06
258.22	213.06
258.452	219.06
258.685	235.06
258.918	211.06
259.151	217.06
259.383	243.06
259.616	243.06
259.849	242.06
260.081	232.06
260.314	241.06
260.547	261.06
260.779	265.06
261.012	263.06
261.244	247.06
261.477	246.06
261.71	234.06
261.942	228.06
262.175	250.06
262.407	234.06
262.64	232.06
262.872	227.06
263.105	229.06
263.337	219.06
263.57	235.06
263.802	244.06
264.035	225.06
264.267	220.06
264.499	219.06
264.732	216.06
264.964	225.06
265.197	241.06
265.429	218.06
265.661	206.06
265.894	239.06
266.126	236.06
266.358	217.06
266.591	226.06
266.823	234.06
267.055	249.06
267.287	237.06
267.52	245.06
267.752	249.06
267.984	255.06
268.216	253.06
268.448	238.06
268.681	243.06
268.913	259.06
269.145	288.06
269.377	287.06
269.609	281.06
269.841	269.06
270.073	288.06
270.306	294.06
270.538	319.06
270.77	342.06
271.002	320.06
271.234	309.06
271.466	321.06
271.698	330.06
271.93	327.06
272.162	343.06
272.394	315.06
272.626	321.06
272.858	316.06
273.09	306.06
273.322	292.06
273.553	269.06
273.785	282.06
274.017	296.06
274.249	279.06
274.481	303.06
274.713	297.06
274.945	286.06
275.176	294.06
275.408	279.06
275.64	276.06
275.872	267.06
276.104	282.06
276.335	292.06
276.567	303.06
276.799	293.06
277.031	315.06
277.262	334.06
277.494	323.06
277.726	319.06
277.957	311.06
278.189	290.06
278.421	309.06
278.652	287.06
278.884	298.06
279.115	291.06
279.347	293.06
279.579	255.06
279.81	284.06
280.042	265.06
280.273	279.06
280.505	289.06
280.736	281.06
280.968	292.06
281.199	293.06
281.431	300.06
281.662	287.06
281.894	293.06
282.125	303.06
282.356	311.06
282.588	345.06
282.819	327.06
283.051	310.06
283.282	306.06
283.513	279.06
283.745	315.06
283.976	327.06
284.207	297.06
284.439	305.06
284.67	317.06
284.901	302.06
285.132	299.06
285.364	298.06
285.595	290.06
285.826	309.06
286.057	322.06
286.288	296.06
286.52	314.06
286.751	329.06
286.982	305.06
287.213	293.06
287.444	324.06
287.675	307.06
287.906	327.06
288.138	317.06
288.369	332.06
288.6	349.06
288.831	341.06
289.062	321.06
289.293	317.06
289.524	323.06
289.755	324.06
289.986	318.06
290.217	313.06
290.448	318.06
290.679	343.06
290.91	320.06
291.141	317.06
291.371	327.06
291.602	324.06
291.833	332.06
292.064	323.06
292.295	325.06
292.526	338.06
292.757	310.06
292.987	324.06
293.218	343.06
293.449	329.06
293.68	324.06
293.91	314.06
294.141	330.06
294.372	316.06
294.603	332.06
294.833	323.06
295.064	327.06
295.295	316.06
295.525	332.06
295.756	343.06
295.987	329.06
296.217	354.06
296.448	363.06
296.679	338.06
296.909	340.06
297.14	320.06
297.37	324.06
297.601	334.06
297.831	345.06
298.062	325.06
298.292	322.06
298.523	348.06
298.753	354.06
298.984	347.06
299.214	365.06
299.445	333.06
299.675	350.06
299.905	339.06
300.136	334.06
300.366	343.06
300.597	363.06
300.827	343.06
301.057	357.06
301.288	365.06
301.518	339.06
301.748	370.06
301.979	353.06
302.209	375.06
302.439	363.06
302.669	361.06
302.9	370.06
303.13	354.06
303.36	371.06
303.59	368.06
303.82	377.06
304.051	355.06
304.281	370.06
304.511	362.06
304.741	343.06
304.971	374.06
305.201	374.06
305.431	343.06
305.661	373.06
305.891	364.06
306.121	351.06
306.352	352.06
306.582	357.06
306.812	352.06
307.042	369.06
307.272	357.06
307.502	373.06
307.731	370.06
307.961	339.06
308.191	377.06
308.421	377.06
308.651	381.06
308.881	387.06
309.111	363.06
309.341	378.06
309.571	380.06
309.8	377.06
310.03	389.06
310.26	396.06
310.49	390.06
310.72	395.06
310.949	425.06
311.179	414.06
311.409	407.06
311.639	389.06
311.868	387.06
312.098	393.06
312.328	419.06
312.557	451.06
312.787	433.06
313.017	425.06
313.246	409.06
313.476	412.06
313.706	395.06
313.935	401.06
314.165	387.06
314.394	413.06
314.624	441.06
314.853	417.06
315.083	403.06
315.312	418.06
315.542	411.06
315.771	401.06
316.001	404.06
316.23	390.06
316.46	401.06
316.689	396.06
316.919	416.06
317.148	410.06
317.377	430.06
317.607	403.06
317.836	417.06
318.065	397.06
318.295	416.06
318.524	417.06
318.753	401.06
318.983	388.06
319.212	384.06
319.441	421.06
319.67	427.06
319.9	411.06
320.129	431.06
320.358	404.06
320.587	417.06
320.816	420.06
321.046	414.06
321.275	410.06
321.504	411.06
321.733	427.06
321.962	429.06
322.191	434.06
322.42	454.06
322.649	449.06
322.878	451.06
323.108	449.06
323.337	494.06
323.566	506.06
323.795	523.06
324.024	572.06
324.253	660.06
324.482	889.06
324.71	1329.06
324.939	1965.06
325.168	1664.06
325.397	878.06
325.626	626.06
325.855	527.06
326.084	513.06
326.313	502.06
326.542	514.06
326.77	535.06
326.999	615.06
327.228	840.06
327.457	1231.06
327.686	1474.06
327.914	982.06
328.143	682.06
328.372	602.06
328.6	564.06
328.829	551.06
329.058	542.06
329.287	569.06
329.515	563.06
329.744	535.06
329.972	499.06
330.201	541.06
330.43	575.06
330.658	583.06
330.887	614.06
331.115	575.06
331.344	541.06
331.572	497.06
331.801	510.06
332.03	497.06
332.258	489.06
332.486	481.06
332.715	491.06
332.943	500.06
333.172	489.06
333.4	500.06
333.629	503.06
333.857	515.06
334.085	525.06
334.314	549.06
334.542	597.06
334.771	587.06
334.999	551.06
335.227	531.06
335.455	515.06
335.684	503.06
335.912	478.06
336.14	483.06
336.369	472.06
336.597	504.06
336.825	485.06
337.053	473.06
337.281	468.06
337.51	462.06
337.738	504.06
337.966	471.06
338.194	470.06
338.422	483.06
338.65	455.06
338.878	450.06
339.106	456.06
339.334	462.06
339.562	458.06
339.79	460.06
340.018	463.06
340.246	474.06
340.474	467.06
340.702	472.06
340.93	476.06
341.158	457.06
341.386	460.06
341.614	465.06
341.842	479.06
342.07	457.06
342.298	450.06
342.526	441.06
342.754	434.06
342.981	456.06
343.209	462.06
343.437	453.06
343.665	484.06
343.893	477.06
344.12	486.06
344.348	483.06
344.576	485.06
344.804	466.06
345.031	470.06
345.259	477.06
345.487	475.06
345.714	446.06
345.942	429.06
346.17	437.06
346.397	446.06
346.625	437.06
346.853	439.06
347.08	428.06
347.308	469.06
347.535	458.06
347.763	458.06
347.99	431.06
348.218	444.06
348.445	453.06
348.673	424.06
348.9	427.06
349.128	435.06
349.355	422.06
349.583	433.06
349.81	449.06
350.037	413.06
350.265	432.06
350.492	450.06
350.72	433.06
350.947	449.06
351.174	444.06
351.402	443.06
351.629	447.06
351.856	441.06
352.083	447.06
352.311	481.06
352.538	460.06
352.765	436.06
352.992	449.06
353.22	435.06
353.447	443.06
353.674	437.06
353.901	443.06
354.128	411.06
354.355	419.06
354.583	423.06
354.81	426.06
355.037	428.06
355.264	424.06
355.491	406.06
355.718	420.06
355.945	422.06
356.172	427.06
356.399	426.06
356.626	414.06
356.853	413.06
357.08	390.06
357.307	408.06
357.534	410.06
357.761	410.06
357.988	425.06
358.215	421.06
358.441	411.06
358.668	432.06
358.895	423.06
359.122	418.06
359.349	413.06
359.576	447.06
359.802	426.06
360.029	469.06
360.256	469.06
360.483	452.06
360.709	454.06
360.936	441.06
361.163	429.06
361.39	430.06
361.616	443.06
361.843	434.06
362.07	447.06
362.296	433.06
362.523	444.06
362.749	448.06
362.976	457.06
363.203	452.06
363.429	429.06
363.656	421.06
363.882	414.06
364.109	423.06
364.335	425.06
364.562	400.06
364.788	419.06
365.015	438.06
365.241	429.06
365.468	419.06
365.694	432.06
365.92	433.06
366.147	422.06
366.373	435.06
366.599	434.06
366.826	420.06
367.052	420.06
367.278	446.06
367.505	435.06
367.731	455.06
367.957	424.06
368.184	427.06
368.41	426.06
368.636	429.06
368.862	463.06
369.089	438.06
369.315	419.06
369.541	429.06
369.767	409.06
369.993	434.06
370.219	443.06
370.445	422.06
370.672	419.06
370.898	430.06
371.124	423.06
371.35	442.06
371.576	461.06
371.802	428.06
372.028	416.06
372.254	435.06
372.48	441.06
372.706	457.06
372.932	449.06
373.158	436.06
373.384	441.06
373.61	450.06
373.835	413.06
374.061	427.06
374.287	460.06
374.513	431.06
374.739	446.06
374.965	437.06
375.191	441.06
375.416	456.06
375.642	433.06
375.868	447.06
376.094	440.06
376.319	425.06
376.545	435.06
376.771	446.06
376.997	445.06
377.222	427.06
377.448	414.06
377.674	422.06
377.899	425.06
378.125	452.06
378.35	425.06
378.576	426.06
378.802	422.06
379.027	435.06
379.253	420.06
379.478	417.06
379.704	415.06
379.929	443.06
380.155	408.06
380.38	418.06
380.606	455.06
380.831	417.06
381.057	422.06
381.282	424.06
381.507	423.06
381.733	430.06
381.958	451.06
382.184	445.06
382.409	436.06
382.634	440.06
382.86	425.06
383.085	418.06
383.31	443.06
383.535	465.06
383.761	462.06
383.986	459.06
384.211	457.06
384.436	456.06
384.662	461.06
384.887	474.06
385.112	449.06
385.337	471.06
385.562	487.06
385.787	481.06
386.013	482.06
386.238	491.06
386.463	491.06
386.688	485.06
386.913	460.06
387.138	479.06
387.363	486.06
387.588	475.06
387.813	483.06
388.038	482.06
388.263	501.06
388.488	479.06
388.713	489.06
388.938	461.06
389.163	481.06
389.387	495.06
389.612	476.06
389.837	457.06
390.062	485.06
390.287	462.06
390.512	456.06
390.736	486.06
390.961	475.06
391.186	507.06
391.411	488.06
391.636	494.06
391.86	531.06
392.085	502.06
392.31	517.06
392.534	519.06
392.759	500.06
392.984	515.06
393.208	516.06
393.433	490.06
393.658	483.06
393.882	486.06
394.107	487.06
394.331	495.06
394.556	499.06
394.78	501.06
395.005	509.06
395.229	495.06
395.454	498.06
395.678	505.06
395.903	521.06
396.127	528.06
396.352	538.06
396.576	510.06
396.801	511.06
397.025	520.06
397.249	501.06
397.474	525.06
397.698	537.06
397.922	532.06
398.147	555.06
398.371	554.06
398.595	563.06
398.82	551.06
399.044	557.06
399.268	598.06
399.492	643.06
399.717	670.06
399.941	693.06
400.165	715.06
400.389	702.06
400.613	663.06
400.837	612.06
401.062	584.06
401.286	557.06
401.51	560.06
401.734	557.06
401.958	544.06
402.182	572.06
402.406	572.06
402.63	574.06
402.854	593.06
403.078	571.06
403.302	591.06
403.526	571.06
403.75	593.06
403.974	586.06
404.198	615.06
404.422	596.06
404.645	598.06
404.869	592.06
405.093	604.06
405.317	676.06
405.541	685.06
405.765	637.06
405.988	624.06
406.212	599.06
406.436	616.06
406.66	631.06
406.883	627.06
407.107	669.06
407.331	689.06
407.555	783.06
407.778	764.06
408.002	715.06
408.226	671.06
408.449	654.06
408.673	654.06
408.896	696.06
409.12	684.06
409.344	675.06
409.567	588.06
409.791	614.06
410.014	589.06
410.238	571.06
410.461	574.06
410.685	586.06
410.908	599.06
411.132	635.06
411.355	681.06
411.578	618.06
411.802	587.06
412.025	596.06
412.249	563.06
412.472	614.06
412.695	651.06
412.919	654.06
413.142	607.06
413.365	585.06
413.589	567.06
413.812	562.06
414.035	570.06
414.258	563.06
414.482	546.06
414.705	579.06
414.928	568.06
415.151	561.06
415.374	532.06
415.597	533.06
415.821	553.06
416.044	541.06
416.267	550.06
416.49	552.06
416.713	541.06
416.936	535.06
417.159	547.06
417.382	556.06
417.605	550.06
417.828	540.06
418.051	565.06
418.274	552.06
418.497	550.06
418.72	556.06
418.943	575.06
419.166	558.06
419.389	609.06
419.611	589.06
419.834	594.06
420.057	589.06
420.28	583.06
420.503	574.06
420.726	585.06
420.948	586.06
421.171	637.06
421.394	668.06
421.617	610.06
421.839	559.06
422.062	565.06
422.285	582.06
422.507	652.06
422.73	735.06
422.953	701.06
423.175	617.06
423.398	593.06
423.621	591.06
423.843	632.06
424.066	615.06
424.288	607.06
424.511	650.06
424.733	681.06
424.956	764.06
425.178	727.06
425.401	697.06
425.623	755.06
425.846	645.06
426.068	596.06
426.291	603.06
426.513	593.06
426.735	590.06
426.958	636.06
427.18	727.06
427.402	849.06
427.625	951.06
427.847	807.06
428.069	695.06
428.292	626.06
428.514	569.06
428.736	553.06
428.958	563.06
429.181	557.06
429.403	538.06
429.625	564.06
429.847	598.06
430.069	654.06
430.292	665.06
430.514	564.06
430.736	553.06
430.958	543.06
431.18	535.06
431.402	540.06
431.624	530.06
431.846	525.06
432.068	508.06
432.29	533.06
432.512	521.06
432.734	553.06
432.956	544.06
433.178	547.06
433.4	561.06
433.622	552.06
433.844	540.06
434.066	551.06
434.287	526.06
434.509	553.06
434.731	545.06
434.953	555.06
435.175	549.06
435.397	579.06
435.618	587.06
435.84	615.06
436.062	710.06
436.284	778.06
436.505	650.06
436.727	594.06
436.949	559.06
437.17	571.06
437.392	559.06
437.614	578.06
437.835	606.06
438.057	680.06
438.278	780.06
438.5	747.06
438.721	856.06
438.943	826.06
439.165	667.06
439.386	595.06
439.608	580.06
439.829	594.06
440.05	620.06
440.272	674.06
440.493	604.06
440.715	590.06
440.936	569.06
441.158	574.06
441.379	554.06
441.6	579.06
441.822	614.06
442.043	640.06
442.264	719.06
442.486	774.06
442.707	654.06
442.928	611.06
443.149	610.06
443.371	624.06
443.592	700.06
443.813	787.06
444.034	840.06
444.255	715.06
444.476	635.06
444.698	622.06
444.919	635.06
445.14	737.06
445.361	685.06
445.582	674.06
445.803	710.06
446.024	782.06
446.245	823.06
446.466	724.06
446.687	641.06
446.908	620.06
447.129	562.06
447.35	529.06
447.571	558.06
447.792	541.06
448.013	567.06
448.234	566.06
448.455	617.06
448.675	732.06
448.896	838.06
449.117	711.06
449.338	662.06
449.559	773.06
449.779	894.06
450	727.06
450.221	575.06
450.442	554.06
450.662	540.06
450.883	534.06
451.104	543.06
451.324	530.06
451.545	515.06
451.766	478.06
451.986	506.06
452.207	514.06
452.428	508.06
452.648	513.06
452.869	499.06
453.089	491.06
453.31	509.06
453.53	502.06
453.751	492.06
453.971	495.06
454.192	485.06
454.412	489.06
454.633	483.06
454.853	500.06
455.073	484.06
455.294	509.06
455.514	571.06
455.734	571.06
455.955	499.06
456.175	481.06
456.395	470.06
456.616	452.06
456.836	463.06
457.056	460.06
457.276	443.06
457.497	481.06
457.717	456.06
457.937	469.06
458.157	459.06
458.377	464.06
458.598	493.06
458.818	549.06
459.038	617.06
459.258	645.06
459.478	577.06
459.698	523.06
459.918	524.06
460.138	523.06
460.358	543.06
460.578	553.06
460.798	561.06
461.018	574.06
461.238	534.06
461.458	536.06
461.678	538.06
461.898	570.06
462.118	538.06
462.338	570.06
462.558	586.06
462.777	584.06
462.997	615.06
463.217	618.06
463.437	611.06
463.657	623.06
463.876	595.06
464.096	609.06
464.316	602.06
464.536	610.06
464.755	619.06
464.975	595.06
465.195	635.06
465.414	621.06
465.634	594.06
465.854	561.06
466.073	530.06
466.293	545.06
466.512	520.06
466.732	534.06
466.951	504.06
467.171	501.06
467.391	497.06
467.61	487.06
467.829	519.06
468.049	498.06
468.268	513.06
468.488	490.06
468.707	491.06
468.927	514.06
469.146	486.06
469.365	519.06
469.585	509.06
469.804	501.06
470.023	503.06
470.243	524.06
470.462	523.06
470.681	518.06
470.901	544.06
471.12	528.06
471.339	498.06
471.558	544.06
471.777	530.06
471.997	509.06
472.216	527.06
472.435	525.06
472.654	519.06
472.873	506.06
473.092	506.06
473.311	517.06
473.53	533.06
473.749	520.06
473.968	542.06
474.187	615.06
474.406	660.06
474.625	567.06
474.844	511.06
475.063	504.06
475.282	502.06
475.501	515.06
475.72	511.06
475.939	517.06
476.158	534.06
476.377	521.06
476.596	520.06
476.814	519.06
477.033	517.06
477.252	551.06
477.471	554.06
477.69	545.06
477.908	551.06
478.127	557.06
478.346	556.06
478.564	575.06
478.783	571.06
479.002	598.06
479.22	614.06
479.439	621.06
479.658	583.06
479.876	604.06
480.095	627.06
480.313	654.06
480.532	650.06
480.751	633.06
480.969	644.06
481.188	658.06
481.406	711.06
481.624	636.06
481.843	604.06
482.061	576.06
482.28	593.06
482.498	587.06
482.717	587.06
482.935	604.06
483.153	572.06
483.372	571.06
483.59	583.06
483.808	591.06
484.027	591.06
484.245	614.06
484.463	596.06
484.681	603.06
484.9	596.06
485.118	616.06
485.336	618.06
485.554	614.06
485.772	635.06
485.99	619.06
486.209	606.06
486.427	627.06
486.645	610.06
486.863	658.06
487.081	654.06
487.299	619.06
487.517	642.06
487.735	627.06
487.953	619.06
488.171	663.06
488.389	643.06
488.607	629.06
488.825	646.06
489.043	638.06
489.261	677.06
489.479	633.06
489.696	641.06
489.914	636.06
490.132	647.06
490.35	655.06
490.568	648.06
490.786	666.06
491.003	700.06
491.221	671.06
491.439	705.06
491.657	720.06
491.874	718.06
492.092	727.06
492.31	725.06
492.527	718.06
492.745	741.06
492.963	721.06
493.18	756.06
493.398	766.06
493.615	737.06
493.833	764.06
494.05	749.06
494.268	758.06
494.485	753.06
494.703	735.06
494.92	739.06
495.138	753.06
495.355	771.06
495.573	744.06
495.79	745.06
496.008	739.06
496.225	779.06
496.442	755.06
496.66	749.06
496.877	732.06
497.094	762.06
497.312	774.06
497.529	792.06
497.746	778.06
497.963	795.06
498.181	847.06
498.398	828.06
498.615	856.06
498.832	893.06
499.049	907.06
499.267	931.06
499.484	985.06
499.701	991.06
499.918	1085.06
500.135	1135.06
500.352	1167.06
500.569	1216.06
500.786	1214.06
501.003	1182.06
501.22	1162.06
501.437	1108.06
501.654	1033.06
501.871	1021.06
502.088	974.06
502.305	909.06
502.522	878.06
502.739	877.06
502.956	818.06
503.172	801.06
503.389	812.06
503.606	787.06
503.823	777.06
504.04	786.06
504.256	764.06
504.473	776.06
504.69	759.06
504.907	778.06
505.123	748.06
505.34	729.06
505.557	740.06
505.773	721.06
505.99	729.06
506.207	748.06
506.423	725.06
506.64	714.06
506.856	698.06
507.073	723.06
507.289	699.06
507.506	683.06
507.722	685.06
507.939	701.06
508.155	675.06
508.372	645.06
508.588	677.06
508.805	671.06
509.021	654.06
509.238	677.06
509.454	678.06
509.67	679.06
509.887	660.06
510.103	650.06
510.319	655.06
510.536	728.06
510.752	1101.06
510.968	907.06
511.184	659.06
511.401	632.06
511.617	609.06
511.833	650.06
512.049	639.06
512.265	617.06
512.481	618.06
512.698	614.06
512.914	609.06
513.13	601.06
513.346	613.06
513.562	606.06
513.778	628.06
513.994	659.06
514.21	622.06
514.426	681.06
514.642	689.06
514.858	691.06
515.074	710.06
515.29	814.06
515.506	1111.06
515.721	968.06
515.937	724.06
516.153	654.06
516.369	682.06
516.585	685.06
516.801	655.06
517.016	653.06
517.232	669.06
517.448	680.06
517.664	686.06
517.879	682.06
518.095	701.06
518.311	685.06
518.527	659.06
518.742	679.06
518.958	658.06
519.173	639.06
519.389	635.06
519.605	635.06
519.82	636.06
520.036	631.06
520.251	639.06
520.467	646.06
520.682	684.06
520.898	666.06
521.113	671.06
521.329	683.06
521.544	748.06
521.76	897.06
521.975	1354.06
522.19	1337.06
522.406	825.06
522.621	663.06
522.836	617.06
523.052	628.06
523.267	595.06
523.482	590.06
523.698	593.06
523.913	590.06
524.128	561.06
524.343	563.06
524.559	547.06
524.774	558.06
524.989	554.06
525.204	565.06
525.419	540.06
525.634	533.06
525.849	545.06
526.064	543.06
526.28	541.06
526.495	521.06
526.71	530.06
526.925	537.06
527.14	523.06
527.355	529.06
527.57	517.06
527.785	517.06
527.999	529.06
528.214	517.06
528.429	521.06
528.644	517.06
528.859	524.06
529.074	540.06
529.289	513.06
529.503	597.06
529.718	596.06
529.933	557.06
530.148	519.06
530.363	533.06
530.577	535.06
530.792	495.06
531.007	507.06
531.221	513.06
531.436	501.06
531.651	527.06
531.865	517.06
532.08	517.06
532.295	498.06
532.509	490.06
532.724	476.06
532.938	506.06
533.153	516.06
533.367	494.06
533.582	513.06
533.796	511.06
534.011	495.06
534.225	503.06
534.44	477.06
534.654	500.06
534.868	487.06
535.083	484.06
535.297	503.06
535.511	483.06
535.726	504.06
535.94	509.06
536.154	485.06
536.369	475.06
536.583	477.06
536.797	495.06
537.011	508.06
537.225	490.06
537.44	495.06
537.654	486.06
537.868	502.06
538.082	485.06
538.296	494.06
538.51	491.06
538.724	489.06
538.938	477.06
539.153	478.06
539.367	481.06
539.581	493.06
539.795	477.06
540.009	486.06
540.222	462.06
540.436	461.06
540.65	490.06
540.864	482.06
541.078	492.06
541.292	477.06
541.506	478.06
541.72	490.06
541.934	483.06
542.147	481.06
542.361	479.06
542.575	481.06
542.789	454.06
543.002	478.06
543.216	475.06
543.43	484.06
543.644	472.06
543.857	486.06
544.071	469.06
544.285	466.06
544.498	502.06
544.712	479.06
544.925	456.06
545.139	460.06
545.352	486.06
545.566	475.06
545.779	458.06
545.993	462.06
546.206	474.06
546.42	488.06
546.633	470.06
546.847	471.06
547.06	498.06
547.274	465.06
547.487	459.06
547.7	488.06
547.914	446.06
548.127	455.06
548.34	483.06
548.554	475.06
548.767	459.06
548.98	467.06
549.193	483.06
549.407	486.06
549.62	468.06
549.833	475.06
550.046	459.06
550.259	459.06
550.473	477.06
550.686	453.06
550.899	451.06
551.112	466.06
551.325	457.06
551.538	466.06
551.751	462.06
551.964	469.06
552.177	494.06
552.39	445.06
552.603	453.06
552.816	475.06
553.029	473.06
553.242	491.06
553.455	504.06
553.667	497.06
553.88	502.06
554.093	473.06
554.306	476.06
554.519	470.06
554.732	472.06
554.944	454.06
555.157	445.06
555.37	462.06
555.583	451.06
555.795	443.06
556.008	426.06
556.221	453.06
556.433	433.06
556.646	435.06
556.859	428.06
557.071	430.06
557.284	414.06
557.496	437.06
557.709	405.06
557.921	408.06
558.134	405.06
558.346	413.06
558.559	410.06
558.771	426.06
558.984	397.06
559.196	429.06
559.409	418.06
559.621	418.06
559.833	412.06
560.046	405.06
560.258	411.06
560.47	412.06
560.683	410.06
560.895	397.06
561.107	392.06
561.32	412.06
561.532	433.06
561.744	410.06
561.956	406.06
562.168	429.06
562.381	417.06
562.593	419.06
562.805	410.06
563.017	425.06
563.229	413.06
563.441	414.06
563.653	410.06
563.865	412.06
564.077	422.06
564.289	413.06
564.501	435.06
564.713	425.06
564.925	453.06
565.137	462.06
565.349	452.06
565.561	478.06
565.773	442.06
565.985	469.06
566.197	499.06
566.408	521.06
566.62	509.06
566.832	541.06
567.044	529.06
567.255	549.06
567.467	575.06
567.679	554.06
567.891	614.06
568.102	596.06
568.314	567.06
568.526	544.06
568.737	506.06
568.949	496.06
569.161	472.06
569.372	455.06
569.584	467.06
569.795	464.06
570.007	440.06
570.218	444.06
570.43	433.06
570.641	420.06
570.853	447.06
571.064	419.06
571.276	422.06
571.487	427.06
571.698	401.06
571.91	389.06
572.121	392.06
572.333	384.06
572.544	385.06
572.755	383.06
572.966	374.06
573.178	360.06
573.389	371.06
573.6	363.06
573.811	397.06
574.023	364.06
574.234	370.06
574.445	353.06
574.656	357.06
574.867	339.06
575.078	354.06
575.289	342.06
575.501	342.06
575.712	365.06
575.923	343.06
576.134	362.06
576.345	343.06
576.556	343.06
576.767	349.06
576.978	357.06
577.188	335.06
577.399	335.06
577.61	351.06
577.821	352.06
578.032	367.06
578.243	390.06
578.454	521.06
578.665	422.06
578.875	342.06
579.086	338.06
579.297	330.06
579.508	322.06
579.718	341.06
579.929	325.06
580.14	316.06
580.35	315.06
580.561	318.06
580.772	308.06
580.982	330.06
581.193	324.06
581.403	315.06
581.614	321.06
581.825	327.06
582.035	332.06
582.246	309.06
582.456	307.06
582.667	322.06
582.877	309.06
583.087	327.06
583.298	314.06
583.508	329.06
583.719	323.06
583.929	311.06
584.139	321.06
584.35	310.06
584.56	307.06
584.77	309.06
584.981	319.06
585.191	319.06
585.401	313.06
585.611	298.06
585.821	299.06
586.032	323.06
586.242	318.06
586.452	333.06
586.662	300.06
586.872	301.06
587.082	305.06
587.292	318.06
587.502	311.06
587.713	307.06
587.923	311.06
588.133	319.06
588.343	311.06
588.553	318.06
588.762	317.06
588.972	302.06
589.182	287.06
589.392	299.06
589.602	321.06
589.812	296.06
590.022	322.06
590.232	305.06
590.441	319.06
590.651	297.06
590.861	321.06
591.071	302.06
591.281	324.06
591.49	311.06
591.7	318.06
591.91	321.06
592.119	333.06
592.329	328.06
592.539	332.06
592.748	340.06
592.958	341.06
593.167	364.06
593.377	349.06
593.587	351.06
593.796	350.06
594.006	349.06
594.215	348.06
594.424	339.06
594.634	335.06
594.843	322.06
595.053	339.06
595.262	333.06
595.472	339.06
595.681	323.06
595.89	297.06
596.1	315.06
596.309	306.06
596.518	301.06
596.727	313.06
596.937	304.06
597.146	271.06
597.355	290.06
597.564	294.06
597.774	294.06
597.983	293.06
598.192	283.06
598.401	285.06
598.61	280.06
598.819	278.06
599.028	283.06
599.237	294.06
599.446	259.06
599.655	281.06
599.864	285.06
600.073	272.06
600.282	266.06
600.491	286.06
600.7	264.06
600.909	279.06
601.118	275.06
601.327	268.06
601.536	301.06
601.745	279.06
601.953	281.06
602.162	264.06
602.371	275.06
602.58	265.06
602.789	278.06
602.997	287.06
603.206	274.06
603.415	267.06
603.623	272.06
603.832	261.06
604.041	256.06
604.249	254.06
604.458	251.06
604.666	249.06
604.875	262.06
605.084	268.06
605.292	262.06
605.501	265.06
605.709	258.06
605.918	234.06
606.126	255.06
606.334	262.06
606.543	248.06
606.751	266.06
606.96	254.06
607.168	258.06
607.376	259.06
607.585	253.06
607.793	263.06
608.001	266.06
608.21	262.06
608.418	254.06
608.626	275.06
608.834	279.06
609.043	254.06
609.251	248.06
609.459	248.06
609.667	278.06
609.875	276.06
610.083	258.06
610.291	278.06
610.499	259.06
610.707	248.06
610.916	254.06
611.124	268.06
611.332	248.06
611.54	257.06
611.748	259.06
611.955	265.06
612.163	241.06
612.371	253.06
612.579	237.06
612.787	257.06
612.995	254.06
613.203	241.06
613.411	250.06
613.618	259.06
613.826	252.06
614.034	254.06
614.242	246.06
614.449	250.06
614.657	256.06
614.865	244.06
615.072	244.06
615.28	250.06
615.488	247.06
615.695	251.06
615.903	262.06
616.111	246.06
616.318	242.06
616.526	255.06
616.733	253.06
616.941	258.06
617.148	249.06
617.356	262.06
617.563	267.06
617.771	246.06
617.978	257.06
618.185	250.06
618.393	255.06
618.6	236.06
618.807	245.06
619.015	236.06
619.222	246.06
619.429	252.06
619.637	248.06
619.844	240.06
620.051	221.06
620.258	235.06
620.466	243.06
620.673	237.06
620.88	243.06
621.087	218.06
621.294	223.06
621.501	232.06
621.708	254.06
621.915	245.06
622.122	250.06
622.329	252.06
622.536	213.06
622.743	230.06
622.95	237.06
623.157	216.06
623.364	229.06
623.571	241.06
623.778	237.06
623.985	221.06
624.192	243.06
624.399	228.06
624.606	231.06
624.812	223.06
625.019	239.06
625.226	233.06
625.433	219.06
625.639	231.06
625.846	215.06
626.053	218.06
626.259	232.06
626.466	233.06
626.673	211.06
626.879	217.06
627.086	223.06
627.293	218.06
627.499	228.06
627.706	219.06
627.912	221.06
628.119	227.06
628.325	226.06
628.532	217.06
628.738	210.06
628.945	208.06
629.151	208.06
629.357	220.06
629.564	202.06
629.77	207.06
629.976	211.06
630.183	205.06
630.389	203.06
630.595	224.06
630.802	216.06
631.008	198.06
631.214	209.06
631.42	215.06
631.627	221.06
631.833	199.06
632.039	200.06
632.245	196.06
632.451	198.06
632.657	201.06
632.863	194.06
633.069	206.06
633.275	199.06
633.481	188.06
633.688	189.06
633.893	190.06
634.099	192.06
634.305	198.06
634.511	195.06
634.717	207.06
634.923	193.06
635.129	193.06
635.335	186.06
635.541	190.06
635.747	199.06
635.952	195.06
636.158	191.06
636.364	192.06
636.57	193.06
636.775	189.06
636.981	198.06
637.187	199.06
637.392	178.06
637.598	188.06
637.804	201.06
638.009	194.06
638.215	205.06
638.421	183.06
638.626	173.06
638.832	182.06
639.037	180.06
639.243	173.06
639.448	191.06
639.654	188.06
639.859	194.06
640.065	187.06
640.27	190.06
640.475	190.06
640.681	186.06
640.886	192.06
641.091	186.06
641.297	185.06
641.502	168.06
641.707	184.06
641.913	177.06
642.118	172.06
642.323	189.06
642.528	196.06
642.733	189.06
642.939	166.06
643.144	175.06
643.349	167.06
643.554	185.06
643.759	181.06
643.964	183.06
644.169	186.06
644.374	158.06
644.579	167.06
644.784	194.06
644.989	190.06
645.194	172.06
645.399	170.06
645.604	178.06
645.809	185.06
646.014	181.06
646.219	168.06
646.423	173.06
646.628	166.06
646.833	189.06
647.038	164.06
647.243	170.06
647.447	172.06
647.652	180.06
647.857	195.06
648.062	185.06
648.266	173.06
648.471	188.06
648.676	173.06
648.88	180.06
649.085	169.06
649.289	181.06
649.494	181.06
649.698	198.06
649.903	186.06
650.107	169.06
650.312	164.06
650.516	177.06
650.721	183.06
650.925	172.06
651.13	158.06
651.334	163.06
651.539	154.06
651.743	161.06
651.947	138.06
652.152	151.06
652.356	155.06
652.56	153.06
652.764	148.06
652.969	151.06
653.173	144.06
653.377	163.06
653.581	139.06
653.785	135.06
653.99	142.06
654.194	160.06
654.398	129.06
654.602	150.06
654.806	152.06
655.01	163.06
655.214	155.06
655.418	139.06
655.622	131.06
655.826	134.06
656.03	160.06
656.234	149.06
656.438	154.06
656.642	147.06
656.846	149.06
657.049	144.06
657.253	143.06
657.457	139.06
657.661	128.06
657.865	115.06
658.068	130.06
658.272	117.06
658.476	118.06
658.68	95.06
658.883	110.06
659.087	101.06
659.291	110.06
659.494	101.06
659.698	89.06
659.901	89.06
660.105	101.06
660.309	95.06
660.512	81.06
660.716	88.06
660.919	87.06
661.123	95.06
661.326	85.06
661.53	90.06
661.733	95.06
661.936	90.06
662.14	103.06
662.343	88.06
662.546	84.06
662.75	104.06
662.953	87.06
663.156	83.06
663.36	86.06
663.563	83.06
663.766	98.06
663.969	90.06
664.173	79.06
664.376	83.06
664.579	79.06
664.782	70.06
664.985	89.06
665.188	75.06
665.391	74.06
665.594	68.06
665.797	80.06
666	87.06
666.203	95.06
666.406	83.06
666.609	91.06
666.812	78.06
667.015	84.06
667.218	75.06
667.421	82.06
667.624	76.06
667.827	86.06
668.03	84.06
668.232	101.06
668.435	81.06
668.638	86.06
668.841	99.06
669.043	94.06
669.246	87.06
669.449	83.06
669.651	81.06
669.854	94.06
670.057	86.06
670.259	82.06
670.462	77.06
670.665	101.06
670.867	82.06
671.07	83.06
671.272	82.06
671.475	82.06
671.677	83.06
671.88	82.06
672.082	82.06
672.284	86.06
672.487	73.06
672.689	72.06
672.892	71.06
