Data from 1976.PennyLincolnUp.Lamp.En5.5.200Scan.071719.P1.Changed Mount._HRD10591_16-01-01-861.txt Node
Date: Thu Jul 18 16:01:01 EDT 2019
User: cochatt
Spectrometer: HR+D1059
Trigger mode: 1
Integration Time (sec): 1.000000E-1
Scans to average: 1
Electric dark correction enabled: true
Nonlinearity correction enabled: false
Boxcar width: 0
XAxis mode: Wavelengths
Number of Pixels in Spectrum: 2048
>>>>>Begin Spectral Data<<<<<
223.165	-16.75
223.4	-16.75
223.635	-16.75
223.869	-15.75
224.104	-14.75
224.338	-14.75
224.573	-28.75
224.808	-5.75
225.042	-5.75
225.277	-12.75
225.511	-1.75
225.746	4.25
225.98	8.25
226.215	8.25
226.449	23.25
226.683	25.25
226.918	26.25
227.152	21.25
227.387	34.25
227.621	31.25
227.856	44.25
228.09	52.25
228.324	44.25
228.559	60.25
228.793	71.25
229.027	100.25
229.262	102.25
229.496	112.25
229.73	118.25
229.964	144.25
230.199	111.25
230.433	107.25
230.667	120.25
230.901	112.25
231.136	108.25
231.37	106.25
231.604	100.25
231.838	104.25
232.072	107.25
232.306	105.25
232.541	114.25
232.775	115.25
233.009	114.25
233.243	115.25
233.477	118.25
233.711	127.25
233.945	112.25
234.179	126.25
234.413	124.25
234.647	131.25
234.881	105.25
235.115	139.25
235.349	126.25
235.583	122.25
235.817	123.25
236.051	113.25
236.285	131.25
236.519	126.25
236.753	134.25
236.987	139.25
237.221	178.25
237.455	239.25
237.689	188.25
237.922	169.25
238.156	131.25
238.39	129.25
238.624	127.25
238.858	124.25
239.091	134.25
239.325	127.25
239.559	143.25
239.793	134.25
240.027	147.25
240.26	145.25
240.494	152.25
240.728	146.25
240.961	154.25
241.195	144.25
241.429	143.25
241.662	146.25
241.896	128.25
242.13	149.25
242.363	152.25
242.597	144.25
242.83	137.25
243.064	136.25
243.298	134.25
243.531	156.25
243.765	152.25
243.998	131.25
244.232	151.25
244.465	142.25
244.699	164.25
244.932	167.25
245.166	152.25
245.399	140.25
245.633	140.25
245.866	170.25
246.099	148.25
246.333	167.25
246.566	165.25
246.8	165.25
247.033	152.25
247.266	169.25
247.5	163.25
247.733	188.25
247.966	183.25
248.2	174.25
248.433	162.25
248.666	186.25
248.899	203.25
249.133	191.25
249.366	206.25
249.599	204.25
249.832	190.25
250.066	190.25
250.299	177.25
250.532	181.25
250.765	213.25
250.998	208.25
251.231	239.25
251.465	219.25
251.698	220.25
251.931	210.25
252.164	213.25
252.397	192.25
252.63	203.25
252.863	217.25
253.096	234.25
253.329	228.25
253.562	224.25
253.795	232.25
254.028	218.25
254.261	216.25
254.494	232.25
254.727	245.25
254.96	281.25
255.193	271.25
255.426	237.25
255.659	229.25
255.892	230.25
256.124	227.25
256.357	248.25
256.59	233.25
256.823	247.25
257.056	231.25
257.289	212.25
257.521	229.25
257.754	220.25
257.987	214.25
258.22	221.25
258.452	215.25
258.685	203.25
258.918	204.25
259.151	219.25
259.383	230.25
259.616	233.25
259.849	233.25
260.081	254.25
260.314	254.25
260.547	276.25
260.779	269.25
261.012	245.25
261.244	234.25
261.477	238.25
261.71	227.25
261.942	223.25
262.175	252.25
262.407	226.25
262.64	197.25
262.872	226.25
263.105	209.25
263.337	218.25
263.57	234.25
263.802	226.25
264.035	218.25
264.267	235.25
264.499	221.25
264.732	233.25
264.964	228.25
265.197	227.25
265.429	228.25
265.661	227.25
265.894	232.25
266.126	231.25
266.358	229.25
266.591	188.25
266.823	235.25
267.055	237.25
267.287	240.25
267.52	242.25
267.752	238.25
267.984	238.25
268.216	239.25
268.448	229.25
268.681	238.25
268.913	274.25
269.145	276.25
269.377	289.25
269.609	296.25
269.841	284.25
270.073	286.25
270.306	310.25
270.538	309.25
270.77	329.25
271.002	314.25
271.234	303.25
271.466	300.25
271.698	321.25
271.93	322.25
272.162	326.25
272.394	309.25
272.626	327.25
272.858	317.25
273.09	279.25
273.322	282.25
273.553	296.25
273.785	276.25
274.017	279.25
274.249	273.25
274.481	289.25
274.713	265.25
274.945	273.25
275.176	274.25
275.408	268.25
275.64	295.25
275.872	276.25
276.104	276.25
276.335	271.25
276.567	279.25
276.799	316.25
277.031	331.25
277.262	323.25
277.494	333.25
277.726	326.25
277.957	298.25
278.189	301.25
278.421	291.25
278.652	283.25
278.884	283.25
279.115	271.25
279.347	295.25
279.579	287.25
279.81	281.25
280.042	285.25
280.273	300.25
280.505	278.25
280.736	289.25
280.968	294.25
281.199	308.25
281.431	321.25
281.662	271.25
281.894	313.25
282.125	317.25
282.356	303.25
282.588	313.25
282.819	314.25
283.051	322.25
283.282	297.25
283.513	301.25
283.745	306.25
283.976	313.25
284.207	300.25
284.439	316.25
284.67	291.25
284.901	314.25
285.132	296.25
285.364	310.25
285.595	301.25
285.826	295.25
286.057	304.25
286.288	301.25
286.52	304.25
286.751	325.25
286.982	315.25
287.213	302.25
287.444	314.25
287.675	310.25
287.906	343.25
288.138	330.25
288.369	333.25
288.6	326.25
288.831	323.25
289.062	332.25
289.293	327.25
289.524	313.25
289.755	303.25
289.986	337.25
290.217	312.25
290.448	314.25
290.679	295.25
290.91	302.25
291.141	320.25
291.371	308.25
291.602	316.25
291.833	315.25
292.064	303.25
292.295	294.25
292.526	329.25
292.757	311.25
292.987	316.25
293.218	311.25
293.449	309.25
293.68	312.25
293.91	322.25
294.141	322.25
294.372	319.25
294.603	319.25
294.833	301.25
295.064	312.25
295.295	342.25
295.525	339.25
295.756	344.25
295.987	329.25
296.217	371.25
296.448	354.25
296.679	321.25
296.909	332.25
297.14	329.25
297.37	341.25
297.601	336.25
297.831	328.25
298.062	352.25
298.292	314.25
298.523	340.25
298.753	330.25
298.984	320.25
299.214	323.25
299.445	323.25
299.675	320.25
299.905	338.25
300.136	332.25
300.366	334.25
300.597	333.25
300.827	355.25
301.057	338.25
301.288	347.25
301.518	336.25
301.748	350.25
301.979	366.25
302.209	369.25
302.439	367.25
302.669	374.25
302.9	355.25
303.13	353.25
303.36	359.25
303.59	361.25
303.82	371.25
304.051	372.25
304.281	384.25
304.511	340.25
304.741	357.25
304.971	370.25
305.201	363.25
305.431	363.25
305.661	354.25
305.891	351.25
306.121	360.25
306.352	352.25
306.582	361.25
306.812	350.25
307.042	350.25
307.272	365.25
307.502	362.25
307.731	356.25
307.961	379.25
308.191	374.25
308.421	374.25
308.651	361.25
308.881	355.25
309.111	370.25
309.341	364.25
309.571	376.25
309.8	383.25
310.03	383.25
310.26	393.25
310.49	374.25
310.72	391.25
310.949	428.25
311.179	427.25
311.409	394.25
311.639	387.25
311.868	393.25
312.098	403.25
312.328	402.25
312.557	431.25
312.787	420.25
313.017	390.25
313.246	404.25
313.476	379.25
313.706	412.25
313.935	423.25
314.165	414.25
314.394	419.25
314.624	426.25
314.853	412.25
315.083	390.25
315.312	409.25
315.542	418.25
315.771	386.25
316.001	395.25
316.23	407.25
316.46	390.25
316.689	382.25
316.919	406.25
317.148	418.25
317.377	410.25
317.607	384.25
317.836	400.25
318.065	403.25
318.295	399.25
318.524	402.25
318.753	394.25
318.983	400.25
319.212	422.25
319.441	411.25
319.67	397.25
319.9	404.25
320.129	405.25
320.358	399.25
320.587	404.25
320.816	414.25
321.046	399.25
321.275	410.25
321.504	424.25
321.733	420.25
321.962	431.25
322.191	416.25
322.42	443.25
322.649	448.25
322.878	450.25
323.108	449.25
323.337	479.25
323.566	504.25
323.795	523.25
324.024	560.25
324.253	637.25
324.482	859.25
324.71	1306.25
324.939	1914.25
325.168	1668.25
325.397	846.25
325.626	614.25
325.855	514.25
326.084	495.25
326.313	483.25
326.542	476.25
326.77	532.25
326.999	630.25
327.228	810.25
327.457	1168.25
327.686	1446.25
327.914	967.25
328.143	658.25
328.372	587.25
328.6	554.25
328.829	554.25
329.058	557.25
329.287	569.25
329.515	536.25
329.744	507.25
329.972	510.25
330.201	507.25
330.43	538.25
330.658	543.25
330.887	579.25
331.115	590.25
331.344	526.25
331.572	503.25
331.801	520.25
332.03	495.25
332.258	517.25
332.486	473.25
332.715	462.25
332.943	457.25
333.172	492.25
333.4	497.25
333.629	506.25
333.857	502.25
334.085	523.25
334.314	555.25
334.542	559.25
334.771	562.25
334.999	528.25
335.227	492.25
335.455	490.25
335.684	474.25
335.912	480.25
336.14	474.25
336.369	479.25
336.597	480.25
336.825	491.25
337.053	475.25
337.281	476.25
337.51	460.25
337.738	484.25
337.966	470.25
338.194	452.25
338.422	464.25
338.65	461.25
338.878	463.25
339.106	453.25
339.334	479.25
339.562	468.25
339.79	442.25
340.018	453.25
340.246	444.25
340.474	467.25
340.702	457.25
340.93	450.25
341.158	445.25
341.386	443.25
341.614	456.25
341.842	449.25
342.07	446.25
342.298	454.25
342.526	429.25
342.754	450.25
342.981	461.25
343.209	431.25
343.437	440.25
343.665	468.25
343.893	482.25
344.12	506.25
344.348	483.25
344.576	462.25
344.804	478.25
345.031	469.25
345.259	465.25
345.487	464.25
345.714	445.25
345.942	442.25
346.17	451.25
346.397	423.25
346.625	452.25
346.853	430.25
347.08	448.25
347.308	420.25
347.535	456.25
347.763	444.25
347.99	450.25
348.218	444.25
348.445	444.25
348.673	463.25
348.9	425.25
349.128	444.25
349.355	421.25
349.583	415.25
349.81	415.25
350.037	412.25
350.265	425.25
350.492	414.25
350.72	427.25
350.947	426.25
351.174	447.25
351.402	442.25
351.629	441.25
351.856	459.25
352.083	437.25
352.311	426.25
352.538	432.25
352.765	446.25
352.992	440.25
353.22	449.25
353.447	426.25
353.674	406.25
353.901	418.25
354.128	423.25
354.355	426.25
354.583	407.25
354.81	408.25
355.037	421.25
355.264	426.25
355.491	414.25
355.718	413.25
355.945	425.25
356.172	427.25
356.399	423.25
356.626	411.25
356.853	429.25
357.08	406.25
357.307	393.25
357.534	410.25
357.761	423.25
357.988	401.25
358.215	431.25
358.441	404.25
358.668	418.25
358.895	411.25
359.122	429.25
359.349	431.25
359.576	444.25
359.802	466.25
360.029	463.25
360.256	471.25
360.483	470.25
360.709	451.25
360.936	436.25
361.163	422.25
361.39	435.25
361.616	448.25
361.843	430.25
362.07	431.25
362.296	430.25
362.523	423.25
362.749	430.25
362.976	421.25
363.203	447.25
363.429	418.25
363.656	430.25
363.882	396.25
364.109	416.25
364.335	427.25
364.562	404.25
364.788	402.25
365.015	421.25
365.241	432.25
365.468	436.25
365.694	427.25
365.92	438.25
366.147	420.25
366.373	423.25
366.599	430.25
366.826	410.25
367.052	432.25
367.278	422.25
367.505	411.25
367.731	416.25
367.957	425.25
368.184	423.25
368.41	424.25
368.636	409.25
368.862	411.25
369.089	409.25
369.315	423.25
369.541	406.25
369.767	436.25
369.993	425.25
370.219	414.25
370.445	426.25
370.672	412.25
370.898	411.25
371.124	423.25
371.35	441.25
371.576	436.25
371.802	425.25
372.028	414.25
372.254	426.25
372.48	418.25
372.706	423.25
372.932	421.25
373.158	438.25
373.384	421.25
373.61	411.25
373.835	428.25
374.061	431.25
374.287	423.25
374.513	435.25
374.739	430.25
374.965	445.25
375.191	434.25
375.416	413.25
375.642	427.25
375.868	435.25
376.094	411.25
376.319	451.25
376.545	442.25
376.771	416.25
376.997	422.25
377.222	404.25
377.448	430.25
377.674	438.25
377.899	418.25
378.125	425.25
378.35	419.25
378.576	412.25
378.802	410.25
379.027	410.25
379.253	444.25
379.478	397.25
379.704	409.25
379.929	434.25
380.155	428.25
380.38	445.25
380.606	418.25
380.831	441.25
381.057	442.25
381.282	438.25
381.507	419.25
381.733	438.25
381.958	444.25
382.184	446.25
382.409	442.25
382.634	440.25
382.86	425.25
383.085	431.25
383.31	450.25
383.535	464.25
383.761	459.25
383.986	450.25
384.211	445.25
384.436	458.25
384.662	453.25
384.887	468.25
385.112	463.25
385.337	476.25
385.562	479.25
385.787	478.25
386.013	484.25
386.238	470.25
386.463	491.25
386.688	485.25
386.913	480.25
387.138	470.25
387.363	469.25
387.588	470.25
387.813	488.25
388.038	469.25
388.263	467.25
388.488	459.25
388.713	450.25
388.938	466.25
389.163	471.25
389.387	485.25
389.612	468.25
389.837	448.25
390.062	476.25
390.287	435.25
390.512	470.25
390.736	470.25
390.961	473.25
391.186	464.25
391.411	468.25
391.636	483.25
391.86	512.25
392.085	520.25
392.31	493.25
392.534	475.25
392.759	478.25
392.984	471.25
393.208	511.25
393.433	476.25
393.658	478.25
393.882	483.25
394.107	490.25
394.331	486.25
394.556	485.25
394.78	479.25
395.005	487.25
395.229	487.25
395.454	493.25
395.678	485.25
395.903	511.25
396.127	525.25
396.352	539.25
396.576	519.25
396.801	511.25
397.025	516.25
397.249	497.25
397.474	525.25
397.698	500.25
397.922	520.25
398.147	552.25
398.371	553.25
398.595	547.25
398.82	532.25
399.044	574.25
399.268	581.25
399.492	615.25
399.717	649.25
399.941	682.25
400.165	717.25
400.389	697.25
400.613	644.25
400.837	585.25
401.062	591.25
401.286	598.25
401.51	557.25
401.734	558.25
401.958	557.25
402.182	542.25
402.406	573.25
402.63	546.25
402.854	574.25
403.078	556.25
403.302	565.25
403.526	581.25
403.75	584.25
403.974	591.25
404.198	589.25
404.422	575.25
404.645	589.25
404.869	588.25
405.093	609.25
405.317	674.25
405.541	695.25
405.765	642.25
405.988	612.25
406.212	616.25
406.436	624.25
406.66	638.25
406.883	613.25
407.107	646.25
407.331	704.25
407.555	775.25
407.778	747.25
408.002	687.25
408.226	655.25
408.449	617.25
408.673	627.25
408.896	671.25
409.12	698.25
409.344	662.25
409.567	628.25
409.791	581.25
410.014	578.25
410.238	556.25
410.461	544.25
410.685	580.25
410.908	606.25
411.132	618.25
411.355	648.25
411.578	628.25
411.802	574.25
412.025	574.25
412.249	579.25
412.472	597.25
412.695	631.25
412.919	636.25
413.142	592.25
413.365	604.25
413.589	574.25
413.812	572.25
414.035	543.25
414.258	552.25
414.482	556.25
414.705	548.25
414.928	535.25
415.151	535.25
415.374	538.25
415.597	547.25
415.821	556.25
416.044	546.25
416.267	558.25
416.49	548.25
416.713	540.25
416.936	532.25
417.159	530.25
417.382	543.25
417.605	535.25
417.828	525.25
418.051	563.25
418.274	572.25
418.497	547.25
418.72	532.25
418.943	543.25
419.166	553.25
419.389	605.25
419.611	563.25
419.834	588.25
420.057	569.25
420.28	583.25
420.503	564.25
420.726	554.25
420.948	584.25
421.171	617.25
421.394	645.25
421.617	587.25
421.839	557.25
422.062	573.25
422.285	592.25
422.507	632.25
422.73	725.25
422.953	685.25
423.175	611.25
423.398	584.25
423.621	584.25
423.843	631.25
424.066	620.25
424.288	609.25
424.511	607.25
424.733	655.25
424.956	743.25
425.178	708.25
425.401	699.25
425.623	747.25
425.846	631.25
426.068	601.25
426.291	591.25
426.513	587.25
426.735	596.25
426.958	643.25
427.18	698.25
427.402	870.25
427.625	892.25
427.847	778.25
428.069	698.25
428.292	629.25
428.514	616.25
428.736	574.25
428.958	544.25
429.181	533.25
429.403	532.25
429.625	549.25
429.847	582.25
430.069	649.25
430.292	614.25
430.514	584.25
430.736	551.25
430.958	525.25
431.18	528.25
431.402	539.25
431.624	536.25
431.846	529.25
432.068	515.25
432.29	523.25
432.512	534.25
432.734	534.25
432.956	522.25
433.178	523.25
433.4	510.25
433.622	540.25
433.844	533.25
434.066	540.25
434.287	522.25
434.509	540.25
434.731	544.25
434.953	537.25
435.175	542.25
435.397	565.25
435.618	572.25
435.84	608.25
436.062	714.25
436.284	791.25
436.505	672.25
436.727	589.25
436.949	554.25
437.17	549.25
437.392	564.25
437.614	551.25
437.835	589.25
438.057	660.25
438.278	782.25
438.5	772.25
438.721	821.25
438.943	784.25
439.165	643.25
439.386	601.25
439.608	600.25
439.829	592.25
440.05	590.25
440.272	651.25
440.493	641.25
440.715	580.25
440.936	549.25
441.158	572.25
441.379	570.25
441.6	592.25
441.822	592.25
442.043	637.25
442.264	693.25
442.486	746.25
442.707	636.25
442.928	613.25
443.149	620.25
443.371	636.25
443.592	662.25
443.813	755.25
444.034	842.25
444.255	702.25
444.476	622.25
444.698	602.25
444.919	622.25
445.14	733.25
445.361	679.25
445.582	650.25
445.803	685.25
446.024	813.25
446.245	795.25
446.466	725.25
446.687	663.25
446.908	606.25
447.129	582.25
447.35	548.25
447.571	540.25
447.792	542.25
448.013	543.25
448.234	543.25
448.455	597.25
448.675	693.25
448.896	821.25
449.117	678.25
449.338	663.25
449.559	767.25
449.779	858.25
450	694.25
450.221	597.25
450.442	546.25
450.662	528.25
450.883	520.25
451.104	535.25
451.324	506.25
451.545	506.25
451.766	523.25
451.986	482.25
452.207	481.25
452.428	486.25
452.648	482.25
452.869	477.25
453.089	488.25
453.31	501.25
453.53	474.25
453.751	491.25
453.971	482.25
454.192	484.25
454.412	478.25
454.633	474.25
454.853	472.25
455.073	494.25
455.294	509.25
455.514	575.25
455.734	567.25
455.955	483.25
456.175	458.25
456.395	459.25
456.616	467.25
456.836	438.25
457.056	454.25
457.276	428.25
457.497	466.25
457.717	452.25
457.937	460.25
458.157	445.25
458.377	474.25
458.598	494.25
458.818	540.25
459.038	632.25
459.258	636.25
459.478	563.25
459.698	520.25
459.918	520.25
460.138	553.25
460.358	537.25
460.578	520.25
460.798	549.25
461.018	524.25
461.238	528.25
461.458	517.25
461.678	523.25
461.898	537.25
462.118	539.25
462.338	547.25
462.558	557.25
462.777	576.25
462.997	593.25
463.217	617.25
463.437	635.25
463.657	596.25
463.876	582.25
464.096	604.25
464.316	578.25
464.536	599.25
464.755	594.25
464.975	590.25
465.195	618.25
465.414	660.25
465.634	588.25
465.854	552.25
466.073	543.25
466.293	525.25
466.512	502.25
466.732	508.25
466.951	518.25
467.171	513.25
467.391	499.25
467.61	506.25
467.829	493.25
468.049	514.25
468.268	518.25
468.488	488.25
468.707	461.25
468.927	498.25
469.146	470.25
469.365	480.25
469.585	457.25
469.804	511.25
470.023	510.25
470.243	495.25
470.462	514.25
470.681	528.25
470.901	518.25
471.12	519.25
471.339	513.25
471.558	502.25
471.777	512.25
471.997	503.25
472.216	495.25
472.435	545.25
472.654	520.25
472.873	495.25
473.092	484.25
473.311	492.25
473.53	492.25
473.749	514.25
473.968	541.25
474.187	634.25
474.406	644.25
474.625	548.25
474.844	546.25
475.063	496.25
475.282	499.25
475.501	493.25
475.72	503.25
475.939	514.25
476.158	526.25
476.377	534.25
476.596	502.25
476.814	524.25
477.033	524.25
477.252	527.25
477.471	512.25
477.69	531.25
477.908	540.25
478.127	565.25
478.346	557.25
478.564	568.25
478.783	578.25
479.002	589.25
479.22	574.25
479.439	601.25
479.658	604.25
479.876	600.25
480.095	620.25
480.313	668.25
480.532	600.25
480.751	648.25
480.969	640.25
481.188	676.25
481.406	688.25
481.624	625.25
481.843	599.25
482.061	596.25
482.28	580.25
482.498	591.25
482.717	582.25
482.935	600.25
483.153	571.25
483.372	584.25
483.59	584.25
483.808	580.25
484.027	612.25
484.245	581.25
484.463	588.25
484.681	598.25
484.9	606.25
485.118	591.25
485.336	592.25
485.554	605.25
485.772	628.25
485.99	596.25
486.209	607.25
486.427	597.25
486.645	623.25
486.863	633.25
487.081	632.25
487.299	628.25
487.517	625.25
487.735	630.25
487.953	610.25
488.171	628.25
488.389	635.25
488.607	621.25
488.825	611.25
489.043	632.25
489.261	639.25
489.479	643.25
489.696	647.25
489.914	637.25
490.132	621.25
490.35	631.25
490.568	660.25
490.786	659.25
491.003	663.25
491.221	718.25
491.439	714.25
491.657	711.25
491.874	722.25
492.092	700.25
492.31	723.25
492.527	697.25
492.745	727.25
492.963	747.25
493.18	711.25
493.398	704.25
493.615	751.25
493.833	740.25
494.05	728.25
494.268	744.25
494.485	731.25
494.703	723.25
494.92	740.25
495.138	699.25
495.355	743.25
495.573	746.25
495.79	741.25
496.008	746.25
496.225	708.25
496.442	749.25
496.66	756.25
496.877	749.25
497.094	767.25
497.312	741.25
497.529	782.25
497.746	787.25
497.963	813.25
498.181	845.25
498.398	816.25
498.615	855.25
498.832	869.25
499.049	889.25
499.267	932.25
499.484	938.25
499.701	1020.25
499.918	1028.25
500.135	1111.25
500.352	1162.25
500.569	1196.25
500.786	1211.25
501.003	1189.25
501.22	1089.25
501.437	1055.25
501.654	1013.25
501.871	1005.25
502.088	942.25
502.305	918.25
502.522	872.25
502.739	871.25
502.956	826.25
503.172	821.25
503.389	804.25
503.606	826.25
503.823	773.25
504.04	785.25
504.256	771.25
504.473	780.25
504.69	789.25
504.907	780.25
505.123	724.25
505.34	728.25
505.557	699.25
505.773	727.25
505.99	708.25
506.207	718.25
506.423	677.25
506.64	709.25
506.856	703.25
507.073	686.25
507.289	666.25
507.506	662.25
507.722	662.25
507.939	684.25
508.155	664.25
508.372	655.25
508.588	636.25
508.805	671.25
509.021	654.25
509.238	668.25
509.454	673.25
509.67	665.25
509.887	647.25
510.103	638.25
510.319	645.25
510.536	743.25
510.752	1054.25
510.968	886.25
511.184	652.25
511.401	646.25
511.617	637.25
511.833	627.25
512.049	594.25
512.265	610.25
512.481	604.25
512.698	613.25
512.914	615.25
513.13	618.25
513.346	604.25
513.562	622.25
513.778	616.25
513.994	631.25
514.21	620.25
514.426	650.25
514.642	667.25
514.858	678.25
515.074	701.25
515.29	795.25
515.506	1083.25
515.721	945.25
515.937	699.25
516.153	683.25
516.369	668.25
516.585	639.25
516.801	648.25
517.016	650.25
517.232	653.25
517.448	652.25
517.664	652.25
517.879	682.25
518.095	672.25
518.311	682.25
518.527	660.25
518.742	657.25
518.958	623.25
519.173	620.25
519.389	652.25
519.605	634.25
519.82	629.25
520.036	615.25
520.251	618.25
520.467	669.25
520.682	653.25
520.898	668.25
521.113	653.25
521.329	695.25
521.544	759.25
521.76	864.25
521.975	1352.25
522.19	1315.25
522.406	800.25
522.621	676.25
522.836	614.25
523.052	592.25
523.267	591.25
523.482	581.25
523.698	565.25
523.913	566.25
524.128	580.25
524.343	543.25
524.559	556.25
524.774	541.25
524.989	532.25
525.204	543.25
525.419	540.25
525.634	539.25
525.849	522.25
526.064	520.25
526.28	535.25
526.495	521.25
526.71	505.25
526.925	499.25
527.14	512.25
527.355	517.25
527.57	516.25
527.785	499.25
527.999	530.25
528.214	511.25
528.429	528.25
528.644	539.25
528.859	505.25
529.074	522.25
529.289	541.25
529.503	595.25
529.718	589.25
529.933	544.25
530.148	511.25
530.363	501.25
530.577	516.25
530.792	511.25
531.007	492.25
531.221	488.25
531.436	495.25
531.651	489.25
531.865	463.25
532.08	485.25
532.295	491.25
532.509	482.25
532.724	494.25
532.938	499.25
533.153	495.25
533.367	492.25
533.582	489.25
533.796	487.25
534.011	484.25
534.225	496.25
534.44	499.25
534.654	484.25
534.868	510.25
535.083	495.25
535.297	493.25
535.511	485.25
535.726	501.25
535.94	500.25
536.154	487.25
536.369	489.25
536.583	483.25
536.797	483.25
537.011	488.25
537.225	487.25
537.44	495.25
537.654	470.25
537.868	470.25
538.082	491.25
538.296	486.25
538.51	457.25
538.724	474.25
538.938	480.25
539.153	464.25
539.367	482.25
539.581	495.25
539.795	471.25
540.009	475.25
540.222	474.25
540.436	477.25
540.65	474.25
540.864	468.25
541.078	477.25
541.292	471.25
541.506	482.25
541.72	474.25
541.934	468.25
542.147	487.25
542.361	458.25
542.575	463.25
542.789	469.25
543.002	475.25
543.216	468.25
543.43	458.25
543.644	464.25
543.857	472.25
544.071	484.25
544.285	481.25
544.498	483.25
544.712	476.25
544.925	473.25
545.139	461.25
545.352	471.25
545.566	470.25
545.779	472.25
545.993	479.25
546.206	470.25
546.42	491.25
546.633	471.25
546.847	459.25
547.06	491.25
547.274	483.25
547.487	479.25
547.7	471.25
547.914	468.25
548.127	454.25
548.34	479.25
548.554	456.25
548.767	461.25
548.98	466.25
549.193	463.25
549.407	476.25
549.62	493.25
549.833	461.25
550.046	455.25
550.259	455.25
550.473	464.25
550.686	456.25
550.899	456.25
551.112	460.25
551.325	450.25
551.538	451.25
551.751	430.25
551.964	450.25
552.177	475.25
552.39	471.25
552.603	472.25
552.816	484.25
553.029	448.25
553.242	514.25
553.455	480.25
553.667	505.25
553.88	493.25
554.093	464.25
554.306	465.25
554.519	469.25
554.732	454.25
554.944	446.25
555.157	446.25
555.37	455.25
555.583	442.25
555.795	442.25
556.008	442.25
556.221	426.25
556.433	430.25
556.646	415.25
556.859	401.25
557.071	413.25
557.284	406.25
557.496	429.25
557.709	438.25
557.921	424.25
558.134	428.25
558.346	398.25
558.559	404.25
558.771	410.25
558.984	414.25
559.196	406.25
559.409	417.25
559.621	401.25
559.833	403.25
560.046	414.25
560.258	397.25
560.47	425.25
560.683	405.25
560.895	395.25
561.107	386.25
561.32	389.25
561.532	406.25
561.744	415.25
561.956	406.25
562.168	394.25
562.381	414.25
562.593	422.25
562.805	404.25
563.017	404.25
563.229	409.25
563.441	408.25
563.653	430.25
563.865	410.25
564.077	426.25
564.289	407.25
564.501	424.25
564.713	429.25
564.925	434.25
565.137	457.25
565.349	450.25
565.561	456.25
565.773	468.25
565.985	461.25
566.197	493.25
566.408	500.25
566.62	514.25
566.832	541.25
567.044	524.25
567.255	547.25
567.467	535.25
567.679	560.25
567.891	568.25
568.102	596.25
568.314	555.25
568.526	543.25
568.737	528.25
568.949	501.25
569.161	468.25
569.372	440.25
569.584	438.25
569.795	434.25
570.007	439.25
570.218	461.25
570.43	450.25
570.641	418.25
570.853	406.25
571.064	407.25
571.276	402.25
571.487	386.25
571.698	396.25
571.91	400.25
572.121	400.25
572.333	369.25
572.544	375.25
572.755	360.25
572.966	386.25
573.178	372.25
573.389	392.25
573.6	374.25
573.811	377.25
574.023	367.25
574.234	362.25
574.445	367.25
574.656	365.25
574.867	350.25
575.078	376.25
575.289	330.25
575.501	356.25
575.712	340.25
575.923	350.25
576.134	346.25
576.345	337.25
576.556	363.25
576.767	333.25
576.978	344.25
577.188	327.25
577.399	332.25
577.61	347.25
577.821	332.25
578.032	331.25
578.243	363.25
578.454	500.25
578.665	414.25
578.875	329.25
579.086	309.25
579.297	333.25
579.508	335.25
579.718	333.25
579.929	340.25
580.14	312.25
580.35	309.25
580.561	327.25
580.772	312.25
580.982	316.25
581.193	346.25
581.403	335.25
581.614	332.25
581.825	310.25
582.035	318.25
582.246	312.25
582.456	311.25
582.667	308.25
582.877	326.25
583.087	333.25
583.298	302.25
583.508	301.25
583.719	328.25
583.929	342.25
584.139	317.25
584.35	298.25
584.56	311.25
584.77	309.25
584.981	327.25
585.191	323.25
585.401	306.25
585.611	308.25
585.821	309.25
586.032	314.25
586.242	308.25
586.452	323.25
586.662	324.25
586.872	308.25
587.082	302.25
587.292	302.25
587.502	314.25
587.713	313.25
587.923	315.25
588.133	292.25
588.343	323.25
588.553	295.25
588.762	311.25
588.972	307.25
589.182	312.25
589.392	296.25
589.602	311.25
589.812	311.25
590.022	303.25
590.232	312.25
590.441	340.25
590.651	323.25
590.861	322.25
591.071	312.25
591.281	332.25
591.49	327.25
591.7	328.25
591.91	331.25
592.119	332.25
592.329	332.25
592.539	333.25
592.748	340.25
592.958	336.25
593.167	334.25
593.377	318.25
593.587	351.25
593.796	340.25
594.006	334.25
594.215	346.25
594.424	333.25
594.634	342.25
594.843	322.25
595.053	342.25
595.262	323.25
595.472	325.25
595.681	316.25
595.89	312.25
596.1	313.25
596.309	310.25
596.518	281.25
596.727	312.25
596.937	310.25
597.146	297.25
597.355	301.25
597.564	282.25
597.774	292.25
597.983	279.25
598.192	298.25
598.401	308.25
598.61	292.25
598.819	289.25
599.028	285.25
599.237	286.25
599.446	263.25
599.655	274.25
599.864	273.25
600.073	253.25
600.282	272.25
600.491	271.25
600.7	279.25
600.909	288.25
601.118	272.25
601.327	283.25
601.536	268.25
601.745	271.25
601.953	264.25
602.162	278.25
602.371	270.25
602.58	271.25
602.789	275.25
602.997	266.25
603.206	255.25
603.415	256.25
603.623	258.25
603.832	257.25
604.041	250.25
604.249	263.25
604.458	267.25
604.666	276.25
604.875	260.25
605.084	233.25
605.292	241.25
605.501	265.25
605.709	265.25
605.918	238.25
606.126	263.25
606.334	254.25
606.543	267.25
606.751	238.25
606.96	260.25
607.168	277.25
607.376	265.25
607.585	263.25
607.793	278.25
608.001	256.25
608.21	254.25
608.418	239.25
608.626	250.25
608.834	264.25
609.043	262.25
609.251	248.25
609.459	244.25
609.667	277.25
609.875	261.25
610.083	244.25
610.291	244.25
610.499	231.25
610.707	250.25
610.916	252.25
611.124	261.25
611.332	256.25
611.54	272.25
611.748	262.25
611.955	247.25
612.163	252.25
612.371	263.25
612.579	248.25
612.787	257.25
612.995	262.25
613.203	272.25
613.411	252.25
613.618	257.25
613.826	252.25
614.034	261.25
614.242	260.25
614.449	254.25
614.657	260.25
614.865	246.25
615.072	232.25
615.28	250.25
615.488	244.25
615.695	258.25
615.903	250.25
616.111	237.25
616.318	263.25
616.526	245.25
616.733	244.25
616.941	248.25
617.148	248.25
617.356	233.25
617.563	246.25
617.771	242.25
617.978	256.25
618.185	243.25
618.393	244.25
618.6	236.25
618.807	247.25
619.015	227.25
619.222	242.25
619.429	257.25
619.637	248.25
619.844	247.25
620.051	245.25
620.258	220.25
620.466	239.25
620.673	235.25
620.88	238.25
621.087	227.25
621.294	231.25
621.501	228.25
621.708	243.25
621.915	234.25
622.122	230.25
622.329	233.25
622.536	245.25
622.743	237.25
622.95	243.25
623.157	226.25
623.364	224.25
623.571	219.25
623.778	226.25
623.985	227.25
624.192	219.25
624.399	221.25
624.606	233.25
624.812	219.25
625.019	231.25
625.226	216.25
625.433	244.25
625.639	215.25
625.846	215.25
626.053	198.25
626.259	205.25
626.466	229.25
626.673	218.25
626.879	221.25
627.086	214.25
627.293	222.25
627.499	208.25
627.706	214.25
627.912	217.25
628.119	190.25
628.325	218.25
628.532	218.25
628.738	203.25
628.945	206.25
629.151	202.25
629.357	198.25
629.564	203.25
629.77	211.25
629.976	199.25
630.183	203.25
630.389	205.25
630.595	202.25
630.802	199.25
631.008	205.25
631.214	223.25
631.42	209.25
631.627	205.25
631.833	208.25
632.039	207.25
632.245	207.25
632.451	196.25
632.657	202.25
632.863	197.25
633.069	209.25
633.275	192.25
633.481	194.25
633.688	191.25
633.893	206.25
634.099	184.25
634.305	200.25
634.511	192.25
634.717	195.25
634.923	200.25
635.129	198.25
635.335	201.25
635.541	195.25
635.747	198.25
635.952	204.25
636.158	191.25
636.364	196.25
636.57	195.25
636.775	182.25
636.981	197.25
637.187	201.25
637.392	210.25
637.598	182.25
637.804	180.25
638.009	191.25
638.215	183.25
638.421	190.25
638.626	183.25
638.832	204.25
639.037	186.25
639.243	194.25
639.448	183.25
639.654	174.25
639.859	189.25
640.065	178.25
640.27	204.25
640.475	174.25
640.681	183.25
640.886	187.25
641.091	178.25
641.297	179.25
641.502	173.25
641.707	170.25
641.913	192.25
642.118	185.25
642.323	187.25
642.528	171.25
642.733	190.25
642.939	169.25
643.144	171.25
643.349	199.25
643.554	167.25
643.759	170.25
643.964	173.25
644.169	186.25
644.374	175.25
644.579	198.25
644.784	175.25
644.989	192.25
645.194	189.25
645.399	181.25
645.604	160.25
645.809	180.25
646.014	171.25
646.219	162.25
646.423	171.25
646.628	188.25
646.833	194.25
647.038	170.25
647.243	171.25
647.447	181.25
647.652	168.25
647.857	166.25
648.062	190.25
648.266	182.25
648.471	170.25
648.676	200.25
648.88	166.25
649.085	184.25
649.289	169.25
649.494	188.25
649.698	191.25
649.903	178.25
650.107	166.25
650.312	169.25
650.516	170.25
650.721	168.25
650.925	164.25
651.13	158.25
651.334	168.25
651.539	168.25
651.743	154.25
651.947	148.25
652.152	148.25
652.356	164.25
652.56	151.25
652.764	163.25
652.969	154.25
653.173	155.25
653.377	154.25
653.581	139.25
653.785	137.25
653.99	151.25
654.194	145.25
654.398	157.25
654.602	136.25
654.806	118.25
655.01	140.25
655.214	122.25
655.418	133.25
655.622	144.25
655.826	143.25
656.03	136.25
656.234	136.25
656.438	134.25
656.642	133.25
656.846	137.25
657.049	130.25
657.253	128.25
657.457	131.25
657.661	111.25
657.865	115.25
658.068	114.25
658.272	128.25
658.476	116.25
658.68	106.25
658.883	105.25
659.087	112.25
659.291	102.25
659.494	102.25
659.698	91.25
659.901	95.25
660.105	106.25
660.309	115.25
660.512	95.25
660.716	101.25
660.919	111.25
661.123	97.25
661.326	85.25
661.53	103.25
661.733	99.25
661.936	93.25
662.14	95.25
662.343	96.25
662.546	85.25
662.75	92.25
662.953	85.25
663.156	81.25
663.36	72.25
663.563	84.25
663.766	79.25
663.969	94.25
664.173	83.25
664.376	86.25
664.579	88.25
664.782	84.25
664.985	85.25
665.188	82.25
665.391	81.25
665.594	86.25
665.797	80.25
666	81.25
666.203	84.25
666.406	93.25
666.609	95.25
666.812	104.25
667.015	92.25
667.218	85.25
667.421	86.25
667.624	81.25
667.827	81.25
668.03	86.25
668.232	93.25
668.435	90.25
668.638	76.25
668.841	76.25
669.043	89.25
669.246	83.25
669.449	84.25
669.651	93.25
669.854	78.25
670.057	86.25
670.259	90.25
670.462	87.25
670.665	68.25
670.867	94.25
671.07	81.25
671.272	83.25
671.475	85.25
671.677	75.25
671.88	91.25
672.082	69.25
672.284	90.25
672.487	72.25
672.689	91.25
672.892	80.25
