Data from 1976.PennyLincolnUp.Lamp.En5.5.200Scan.071719.P1.Changed Mount._HRD10591_16-02-09-862.txt Node
Date: Thu Jul 18 16:02:09 EDT 2019
User: cochatt
Spectrometer: HR+D1059
Trigger mode: 1
Integration Time (sec): 1.000000E-1
Scans to average: 1
Electric dark correction enabled: true
Nonlinearity correction enabled: false
Boxcar width: 0
XAxis mode: Wavelengths
Number of Pixels in Spectrum: 2048
>>>>>Begin Spectral Data<<<<<
223.165	-9.12
223.4	-9.12
223.635	-9.12
223.869	-11.12
224.104	-17.12
224.338	-21.12
224.573	-17.12
224.808	-9.12
225.042	-10.12
225.277	-2.12
225.511	-6.12
225.746	10.88
225.98	-7.12
226.215	7.88
226.449	16.88
226.683	30.88
226.918	14.88
227.152	28.88
227.387	30.88
227.621	29.88
227.856	48.88
228.09	33.88
228.324	46.88
228.559	49.88
228.793	76.88
229.027	114.88
229.262	108.88
229.496	107.88
229.73	131.88
229.964	162.88
230.199	137.88
230.433	122.88
230.667	110.88
230.901	109.88
231.136	115.88
231.37	108.88
231.604	118.88
231.838	123.88
232.072	101.88
232.306	104.88
232.541	114.88
232.775	120.88
233.009	104.88
233.243	132.88
233.477	113.88
233.711	111.88
233.945	123.88
234.179	118.88
234.413	135.88
234.647	124.88
234.881	128.88
235.115	121.88
235.349	124.88
235.583	134.88
235.817	118.88
236.051	135.88
236.285	128.88
236.519	129.88
236.753	143.88
236.987	152.88
237.221	186.88
237.455	228.88
237.689	198.88
237.922	157.88
238.156	135.88
238.39	117.88
238.624	145.88
238.858	117.88
239.091	130.88
239.325	137.88
239.559	128.88
239.793	154.88
240.027	135.88
240.26	138.88
240.494	148.88
240.728	163.88
240.961	157.88
241.195	159.88
241.429	139.88
241.662	148.88
241.896	168.88
242.13	142.88
242.363	160.88
242.597	150.88
242.83	145.88
243.064	149.88
243.298	149.88
243.531	136.88
243.765	153.88
243.998	140.88
244.232	133.88
244.465	156.88
244.699	136.88
244.932	164.88
245.166	166.88
245.399	157.88
245.633	147.88
245.866	147.88
246.099	150.88
246.333	156.88
246.566	159.88
246.8	153.88
247.033	177.88
247.266	163.88
247.5	174.88
247.733	183.88
247.966	179.88
248.2	164.88
248.433	167.88
248.666	184.88
248.899	199.88
249.133	196.88
249.366	218.88
249.599	198.88
249.832	187.88
250.066	194.88
250.299	190.88
250.532	203.88
250.765	202.88
250.998	218.88
251.231	234.88
251.465	233.88
251.698	197.88
251.931	202.88
252.164	197.88
252.397	197.88
252.63	202.88
252.863	211.88
253.096	224.88
253.329	238.88
253.562	228.88
253.795	228.88
254.028	226.88
254.261	217.88
254.494	242.88
254.727	267.88
254.96	288.88
255.193	245.88
255.426	250.88
255.659	236.88
255.892	244.88
256.124	251.88
256.357	252.88
256.59	252.88
256.823	224.88
257.056	220.88
257.289	228.88
257.521	225.88
257.754	216.88
257.987	220.88
258.22	214.88
258.452	209.88
258.685	203.88
258.918	254.88
259.151	210.88
259.383	236.88
259.616	237.88
259.849	239.88
260.081	240.88
260.314	263.88
260.547	271.88
260.779	257.88
261.012	243.88
261.244	240.88
261.477	231.88
261.71	221.88
261.942	235.88
262.175	241.88
262.407	242.88
262.64	246.88
262.872	241.88
263.105	230.88
263.337	241.88
263.57	240.88
263.802	237.88
264.035	233.88
264.267	232.88
264.499	234.88
264.732	230.88
264.964	211.88
265.197	234.88
265.429	230.88
265.661	224.88
265.894	234.88
266.126	240.88
266.358	245.88
266.591	247.88
266.823	234.88
267.055	240.88
267.287	255.88
267.52	242.88
267.752	242.88
267.984	236.88
268.216	252.88
268.448	237.88
268.681	255.88
268.913	258.88
269.145	289.88
269.377	280.88
269.609	279.88
269.841	287.88
270.073	305.88
270.306	320.88
270.538	311.88
270.77	332.88
271.002	319.88
271.234	302.88
271.466	312.88
271.698	319.88
271.93	337.88
272.162	341.88
272.394	325.88
272.626	327.88
272.858	321.88
273.09	296.88
273.322	284.88
273.553	300.88
273.785	276.88
274.017	284.88
274.249	270.88
274.481	276.88
274.713	276.88
274.945	299.88
275.176	306.88
275.408	291.88
275.64	277.88
275.872	273.88
276.104	275.88
276.335	290.88
276.567	298.88
276.799	297.88
277.031	307.88
277.262	355.88
277.494	342.88
277.726	341.88
277.957	318.88
278.189	306.88
278.421	290.88
278.652	305.88
278.884	296.88
279.115	291.88
279.347	296.88
279.579	293.88
279.81	302.88
280.042	274.88
280.273	282.88
280.505	308.88
280.736	288.88
280.968	300.88
281.199	276.88
281.431	317.88
281.662	285.88
281.894	321.88
282.125	309.88
282.356	316.88
282.588	304.88
282.819	297.88
283.051	322.88
283.282	306.88
283.513	291.88
283.745	320.88
283.976	319.88
284.207	307.88
284.439	310.88
284.67	305.88
284.901	300.88
285.132	316.88
285.364	317.88
285.595	329.88
285.826	313.88
286.057	314.88
286.288	295.88
286.52	309.88
286.751	328.88
286.982	306.88
287.213	305.88
287.444	320.88
287.675	327.88
287.906	340.88
288.138	341.88
288.369	345.88
288.6	318.88
288.831	328.88
289.062	376.88
289.293	318.88
289.524	316.88
289.755	326.88
289.986	332.88
290.217	320.88
290.448	329.88
290.679	333.88
290.91	326.88
291.141	310.88
291.371	319.88
291.602	323.88
291.833	315.88
292.064	324.88
292.295	334.88
292.526	343.88
292.757	318.88
292.987	317.88
293.218	331.88
293.449	332.88
293.68	333.88
293.91	314.88
294.141	329.88
294.372	338.88
294.603	330.88
294.833	340.88
295.064	332.88
295.295	321.88
295.525	320.88
295.756	338.88
295.987	337.88
296.217	350.88
296.448	354.88
296.679	327.88
296.909	338.88
297.14	334.88
297.37	341.88
297.601	338.88
297.831	340.88
298.062	346.88
298.292	340.88
298.523	343.88
298.753	359.88
298.984	351.88
299.214	333.88
299.445	334.88
299.675	350.88
299.905	350.88
300.136	336.88
300.366	334.88
300.597	336.88
300.827	348.88
301.057	349.88
301.288	363.88
301.518	342.88
301.748	366.88
301.979	365.88
302.209	363.88
302.439	368.88
302.669	344.88
302.9	338.88
303.13	355.88
303.36	358.88
303.59	385.88
303.82	358.88
304.051	376.88
304.281	358.88
304.511	363.88
304.741	357.88
304.971	364.88
305.201	349.88
305.431	342.88
305.661	370.88
305.891	364.88
306.121	354.88
306.352	356.88
306.582	366.88
306.812	379.88
307.042	384.88
307.272	384.88
307.502	368.88
307.731	365.88
307.961	390.88
308.191	343.88
308.421	374.88
308.651	378.88
308.881	383.88
309.111	349.88
309.341	365.88
309.571	387.88
309.8	379.88
310.03	396.88
310.26	399.88
310.49	380.88
310.72	390.88
310.949	410.88
311.179	418.88
311.409	400.88
311.639	381.88
311.868	403.88
312.098	411.88
312.328	415.88
312.557	423.88
312.787	410.88
313.017	439.88
313.246	397.88
313.476	406.88
313.706	407.88
313.935	394.88
314.165	427.88
314.394	435.88
314.624	418.88
314.853	404.88
315.083	397.88
315.312	415.88
315.542	411.88
315.771	417.88
316.001	416.88
316.23	406.88
316.46	391.88
316.689	406.88
316.919	412.88
317.148	414.88
317.377	412.88
317.607	394.88
317.836	402.88
318.065	409.88
318.295	403.88
318.524	397.88
318.753	424.88
318.983	401.88
319.212	415.88
319.441	420.88
319.67	416.88
319.9	417.88
320.129	408.88
320.358	424.88
320.587	421.88
320.816	432.88
321.046	410.88
321.275	441.88
321.504	430.88
321.733	423.88
321.962	430.88
322.191	429.88
322.42	443.88
322.649	456.88
322.878	458.88
323.108	475.88
323.337	488.88
323.566	497.88
323.795	530.88
324.024	577.88
324.253	651.88
324.482	912.88
324.71	1397.88
324.939	2085.88
325.168	1839.88
325.397	920.88
325.626	661.88
325.855	570.88
326.084	536.88
326.313	525.88
326.542	519.88
326.77	560.88
326.999	638.88
327.228	841.88
327.457	1291.88
327.686	1551.88
327.914	1034.88
328.143	682.88
328.372	634.88
328.6	591.88
328.829	556.88
329.058	581.88
329.287	608.88
329.515	562.88
329.744	555.88
329.972	546.88
330.201	564.88
330.43	579.88
330.658	598.88
330.887	602.88
331.115	596.88
331.344	552.88
331.572	514.88
331.801	502.88
332.03	525.88
332.258	503.88
332.486	512.88
332.715	474.88
332.943	489.88
333.172	492.88
333.4	516.88
333.629	522.88
333.857	517.88
334.085	566.88
334.314	562.88
334.542	564.88
334.771	593.88
334.999	562.88
335.227	523.88
335.455	500.88
335.684	506.88
335.912	513.88
336.14	468.88
336.369	493.88
336.597	501.88
336.825	487.88
337.053	470.88
337.281	482.88
337.51	499.88
337.738	481.88
337.966	483.88
338.194	470.88
338.422	472.88
338.65	491.88
338.878	471.88
339.106	470.88
339.334	473.88
339.562	450.88
339.79	475.88
340.018	489.88
340.246	468.88
340.474	479.88
340.702	468.88
340.93	475.88
341.158	479.88
341.386	445.88
341.614	469.88
341.842	455.88
342.07	460.88
342.298	448.88
342.526	467.88
342.754	449.88
342.981	472.88
343.209	452.88
343.437	479.88
343.665	470.88
343.893	467.88
344.12	504.88
344.348	512.88
344.576	498.88
344.804	471.88
345.031	504.88
345.259	474.88
345.487	468.88
345.714	460.88
345.942	454.88
346.17	438.88
346.397	445.88
346.625	451.88
346.853	440.88
347.08	441.88
347.308	452.88
347.535	468.88
347.763	452.88
347.99	454.88
348.218	466.88
348.445	465.88
348.673	447.88
348.9	440.88
349.128	432.88
349.355	429.88
349.583	448.88
349.81	441.88
350.037	436.88
350.265	429.88
350.492	436.88
350.72	427.88
350.947	440.88
351.174	443.88
351.402	429.88
351.629	452.88
351.856	475.88
352.083	460.88
352.311	469.88
352.538	467.88
352.765	472.88
352.992	461.88
353.22	429.88
353.447	449.88
353.674	451.88
353.901	436.88
354.128	443.88
354.355	437.88
354.583	427.88
354.81	416.88
355.037	397.88
355.264	420.88
355.491	421.88
355.718	414.88
355.945	413.88
356.172	426.88
356.399	417.88
356.626	403.88
356.853	416.88
357.08	407.88
357.307	422.88
357.534	428.88
357.761	424.88
357.988	404.88
358.215	412.88
358.441	409.88
358.668	405.88
358.895	419.88
359.122	436.88
359.349	421.88
359.576	450.88
359.802	460.88
360.029	477.88
360.256	477.88
360.483	458.88
360.709	445.88
360.936	449.88
361.163	448.88
361.39	453.88
361.616	447.88
361.843	445.88
362.07	461.88
362.296	436.88
362.523	447.88
362.749	471.88
362.976	452.88
363.203	441.88
363.429	423.88
363.656	433.88
363.882	437.88
364.109	414.88
364.335	406.88
364.562	404.88
364.788	411.88
365.015	428.88
365.241	437.88
365.468	444.88
365.694	427.88
365.92	429.88
366.147	426.88
366.373	448.88
366.599	442.88
366.826	436.88
367.052	420.88
367.278	447.88
367.505	423.88
367.731	442.88
367.957	417.88
368.184	420.88
368.41	446.88
368.636	436.88
368.862	446.88
369.089	420.88
369.315	428.88
369.541	455.88
369.767	429.88
369.993	425.88
370.219	429.88
370.445	435.88
370.672	434.88
370.898	427.88
371.124	436.88
371.35	413.88
371.576	428.88
371.802	437.88
372.028	438.88
372.254	428.88
372.48	434.88
372.706	448.88
372.932	433.88
373.158	442.88
373.384	437.88
373.61	429.88
373.835	425.88
374.061	405.88
374.287	448.88
374.513	420.88
374.739	458.88
374.965	444.88
375.191	474.88
375.416	439.88
375.642	445.88
375.868	448.88
376.094	431.88
376.319	439.88
376.545	442.88
376.771	445.88
376.997	426.88
377.222	411.88
377.448	424.88
377.674	428.88
377.899	427.88
378.125	426.88
378.35	445.88
378.576	425.88
378.802	412.88
379.027	440.88
379.253	426.88
379.478	439.88
379.704	426.88
379.929	455.88
380.155	449.88
380.38	439.88
380.606	441.88
380.831	426.88
381.057	451.88
381.282	446.88
381.507	432.88
381.733	440.88
381.958	443.88
382.184	448.88
382.409	440.88
382.634	454.88
382.86	452.88
383.085	476.88
383.31	452.88
383.535	448.88
383.761	454.88
383.986	452.88
384.211	459.88
384.436	480.88
384.662	460.88
384.887	466.88
385.112	469.88
385.337	492.88
385.562	474.88
385.787	474.88
386.013	490.88
386.238	483.88
386.463	493.88
386.688	503.88
386.913	477.88
387.138	480.88
387.363	484.88
387.588	495.88
387.813	488.88
388.038	460.88
388.263	484.88
388.488	472.88
388.713	463.88
388.938	476.88
389.163	508.88
389.387	497.88
389.612	444.88
389.837	484.88
390.062	480.88
390.287	461.88
390.512	462.88
390.736	488.88
390.961	514.88
391.186	485.88
391.411	491.88
391.636	483.88
391.86	516.88
392.085	512.88
392.31	482.88
392.534	491.88
392.759	513.88
392.984	491.88
393.208	484.88
393.433	497.88
393.658	476.88
393.882	487.88
394.107	480.88
394.331	473.88
394.556	502.88
394.78	496.88
395.005	473.88
395.229	503.88
395.454	500.88
395.678	509.88
395.903	521.88
396.127	533.88
396.352	517.88
396.576	528.88
396.801	528.88
397.025	516.88
397.249	509.88
397.474	506.88
397.698	547.88
397.922	535.88
398.147	548.88
398.371	554.88
398.595	538.88
398.82	556.88
399.044	570.88
399.268	576.88
399.492	638.88
399.717	661.88
399.941	708.88
400.165	698.88
400.389	716.88
400.613	654.88
400.837	620.88
401.062	584.88
401.286	575.88
401.51	569.88
401.734	559.88
401.958	584.88
402.182	555.88
402.406	586.88
402.63	571.88
402.854	566.88
403.078	582.88
403.302	593.88
403.526	590.88
403.75	588.88
403.974	584.88
404.198	577.88
404.422	589.88
404.645	615.88
404.869	611.88
405.093	648.88
405.317	685.88
405.541	716.88
405.765	662.88
405.988	633.88
406.212	625.88
406.436	646.88
406.66	622.88
406.883	608.88
407.107	666.88
407.331	719.88
407.555	778.88
407.778	800.88
408.002	680.88
408.226	667.88
408.449	655.88
408.673	661.88
408.896	660.88
409.12	688.88
409.344	693.88
409.567	604.88
409.791	597.88
410.014	604.88
410.238	580.88
410.461	589.88
410.685	589.88
410.908	599.88
411.132	640.88
411.355	672.88
411.578	631.88
411.802	601.88
412.025	584.88
412.249	588.88
412.472	620.88
412.695	650.88
412.919	651.88
413.142	611.88
413.365	581.88
413.589	582.88
413.812	557.88
414.035	558.88
414.258	546.88
414.482	548.88
414.705	573.88
414.928	556.88
415.151	534.88
415.374	568.88
415.597	562.88
415.821	529.88
416.044	539.88
416.267	574.88
416.49	557.88
416.713	540.88
416.936	540.88
417.159	529.88
417.382	544.88
417.605	545.88
417.828	560.88
418.051	600.88
418.274	574.88
418.497	539.88
418.72	557.88
418.943	554.88
419.166	587.88
419.389	609.88
419.611	609.88
419.834	588.88
420.057	598.88
420.28	586.88
420.503	570.88
420.726	596.88
420.948	594.88
421.171	637.88
421.394	641.88
421.617	589.88
421.839	570.88
422.062	574.88
422.285	597.88
422.507	661.88
422.73	739.88
422.953	696.88
423.175	638.88
423.398	605.88
423.621	619.88
423.843	625.88
424.066	638.88
424.288	619.88
424.511	639.88
424.733	696.88
424.956	776.88
425.178	763.88
425.401	719.88
425.623	745.88
425.846	679.88
426.068	621.88
426.291	600.88
426.513	634.88
426.735	626.88
426.958	637.88
427.18	731.88
427.402	894.88
427.625	958.88
427.847	819.88
428.069	736.88
428.292	650.88
428.514	619.88
428.736	576.88
428.958	576.88
429.181	560.88
429.403	584.88
429.625	569.88
429.847	588.88
430.069	680.88
430.292	660.88
430.514	601.88
430.736	572.88
430.958	560.88
431.18	542.88
431.402	539.88
431.624	537.88
431.846	532.88
432.068	510.88
432.29	546.88
432.512	561.88
432.734	550.88
432.956	552.88
433.178	560.88
433.4	558.88
433.622	527.88
433.844	531.88
434.066	532.88
434.287	524.88
434.509	539.88
434.731	557.88
434.953	571.88
435.175	573.88
435.397	598.88
435.618	594.88
435.84	648.88
436.062	734.88
436.284	830.88
436.505	689.88
436.727	619.88
436.949	572.88
437.17	561.88
437.392	560.88
437.614	577.88
437.835	602.88
438.057	701.88
438.278	827.88
438.5	806.88
438.721	893.88
438.943	864.88
439.165	647.88
439.386	612.88
439.608	607.88
439.829	607.88
440.05	619.88
440.272	669.88
440.493	641.88
440.715	615.88
440.936	592.88
441.158	588.88
441.379	572.88
441.6	581.88
441.822	614.88
442.043	649.88
442.264	723.88
442.486	778.88
442.707	656.88
442.928	638.88
443.149	655.88
443.371	662.88
443.592	698.88
443.813	820.88
444.034	875.88
444.255	694.88
444.476	637.88
444.698	635.88
444.919	612.88
445.14	739.88
445.361	681.88
445.582	650.88
445.803	742.88
446.024	819.88
446.245	825.88
446.466	737.88
446.687	641.88
446.908	600.88
447.129	574.88
447.35	561.88
447.571	570.88
447.792	561.88
448.013	555.88
448.234	568.88
448.455	624.88
448.675	747.88
448.896	881.88
449.117	721.88
449.338	693.88
449.559	803.88
449.779	919.88
450	734.88
450.221	626.88
450.442	539.88
450.662	557.88
450.883	538.88
451.104	535.88
451.324	540.88
451.545	519.88
451.766	528.88
451.986	497.88
452.207	504.88
452.428	486.88
452.648	490.88
452.869	502.88
453.089	502.88
453.31	534.88
453.53	501.88
453.751	500.88
453.971	516.88
454.192	504.88
454.412	506.88
454.633	486.88
454.853	496.88
455.073	497.88
455.294	512.88
455.514	592.88
455.734	571.88
455.955	491.88
456.175	478.88
456.395	465.88
456.616	460.88
456.836	460.88
457.056	473.88
457.276	468.88
457.497	446.88
457.717	461.88
457.937	492.88
458.157	445.88
458.377	471.88
458.598	527.88
458.818	547.88
459.038	635.88
459.258	662.88
459.478	587.88
459.698	545.88
459.918	536.88
460.138	549.88
460.358	530.88
460.578	554.88
460.798	551.88
461.018	570.88
461.238	554.88
461.458	555.88
461.678	553.88
461.898	581.88
462.118	564.88
462.338	572.88
462.558	573.88
462.777	589.88
462.997	627.88
463.217	630.88
463.437	625.88
463.657	584.88
463.876	607.88
464.096	628.88
464.316	599.88
464.536	603.88
464.755	591.88
464.975	602.88
465.195	614.88
465.414	642.88
465.634	611.88
465.854	578.88
466.073	556.88
466.293	542.88
466.512	509.88
466.732	501.88
466.951	517.88
467.171	490.88
467.391	503.88
467.61	519.88
467.829	540.88
468.049	519.88
468.268	521.88
468.488	504.88
468.707	478.88
468.927	500.88
469.146	475.88
469.365	490.88
469.585	489.88
469.804	513.88
470.023	522.88
470.243	517.88
470.462	517.88
470.681	539.88
470.901	551.88
471.12	516.88
471.339	499.88
471.558	523.88
471.777	529.88
471.997	511.88
472.216	516.88
472.435	538.88
472.654	531.88
472.873	497.88
473.092	507.88
473.311	519.88
473.53	505.88
473.749	526.88
473.968	558.88
474.187	649.88
474.406	685.88
474.625	566.88
474.844	528.88
475.063	527.88
475.282	523.88
475.501	491.88
475.72	534.88
475.939	538.88
476.158	513.88
476.377	536.88
476.596	504.88
476.814	536.88
477.033	545.88
477.252	546.88
477.471	561.88
477.69	535.88
477.908	559.88
478.127	571.88
478.346	574.88
478.564	590.88
478.783	588.88
479.002	587.88
479.22	596.88
479.439	618.88
479.658	620.88
479.876	630.88
480.095	624.88
480.313	676.88
480.532	664.88
480.751	666.88
480.969	627.88
481.188	668.88
481.406	695.88
481.624	670.88
481.843	610.88
482.061	625.88
482.28	603.88
482.498	596.88
482.717	586.88
482.935	606.88
483.153	624.88
483.372	598.88
483.59	612.88
483.808	587.88
484.027	605.88
484.245	609.88
484.463	589.88
484.681	610.88
484.9	629.88
485.118	615.88
485.336	597.88
485.554	626.88
485.772	639.88
485.99	627.88
486.209	636.88
486.427	635.88
486.645	622.88
486.863	646.88
487.081	634.88
487.299	628.88
487.517	643.88
487.735	636.88
487.953	645.88
488.171	650.88
488.389	636.88
488.607	643.88
488.825	642.88
489.043	672.88
489.261	670.88
489.479	649.88
489.696	646.88
489.914	693.88
490.132	686.88
490.35	670.88
490.568	668.88
490.786	664.88
491.003	692.88
491.221	684.88
491.439	714.88
491.657	718.88
491.874	722.88
492.092	739.88
492.31	731.88
492.527	698.88
492.745	741.88
492.963	754.88
493.18	750.88
493.398	743.88
493.615	771.88
493.833	773.88
494.05	762.88
494.268	757.88
494.485	735.88
494.703	718.88
494.92	748.88
495.138	753.88
495.355	772.88
495.573	762.88
495.79	768.88
496.008	757.88
496.225	740.88
496.442	766.88
496.66	761.88
496.877	772.88
497.094	786.88
497.312	788.88
497.529	807.88
497.746	811.88
497.963	786.88
498.181	836.88
498.398	845.88
498.615	895.88
498.832	900.88
499.049	926.88
499.267	946.88
499.484	1016.88
499.701	1027.88
499.918	1077.88
500.135	1146.88
500.352	1197.88
500.569	1218.88
500.786	1241.88
501.003	1188.88
501.22	1149.88
501.437	1075.88
501.654	1043.88
501.871	1014.88
502.088	994.88
502.305	952.88
502.522	908.88
502.739	880.88
502.956	838.88
503.172	832.88
503.389	830.88
503.606	782.88
503.823	791.88
504.04	780.88
504.256	772.88
504.473	773.88
504.69	803.88
504.907	776.88
505.123	758.88
505.34	764.88
505.557	753.88
505.773	749.88
505.99	718.88
506.207	727.88
506.423	726.88
506.64	723.88
506.856	700.88
507.073	682.88
507.289	671.88
507.506	677.88
507.722	712.88
507.939	682.88
508.155	693.88
508.372	684.88
508.588	660.88
508.805	680.88
509.021	682.88
509.238	711.88
509.454	685.88
509.67	684.88
509.887	696.88
510.103	661.88
510.319	660.88
510.536	754.88
510.752	1105.88
510.968	921.88
511.184	708.88
511.401	660.88
511.617	630.88
511.833	633.88
512.049	652.88
512.265	631.88
512.481	642.88
512.698	629.88
512.914	645.88
513.13	621.88
513.346	619.88
513.562	630.88
513.778	655.88
513.994	594.88
514.21	609.88
514.426	648.88
514.642	676.88
514.858	707.88
515.074	718.88
515.29	844.88
515.506	1106.88
515.721	953.88
515.937	732.88
516.153	701.88
516.369	671.88
516.585	664.88
516.801	654.88
517.016	684.88
517.232	673.88
517.448	710.88
517.664	706.88
517.879	685.88
518.095	664.88
518.311	660.88
518.527	664.88
518.742	666.88
518.958	628.88
519.173	648.88
519.389	644.88
519.605	621.88
519.82	610.88
520.036	632.88
520.251	668.88
520.467	674.88
520.682	656.88
520.898	681.88
521.113	678.88
521.329	716.88
521.544	785.88
521.76	902.88
521.975	1340.88
522.19	1317.88
522.406	836.88
522.621	667.88
522.836	636.88
523.052	604.88
523.267	609.88
523.482	564.88
523.698	581.88
523.913	585.88
524.128	561.88
524.343	570.88
524.559	541.88
524.774	544.88
524.989	538.88
525.204	548.88
525.419	571.88
525.634	536.88
525.849	531.88
526.064	553.88
526.28	522.88
526.495	545.88
526.71	543.88
526.925	537.88
527.14	523.88
527.355	521.88
527.57	520.88
527.785	505.88
527.999	508.88
528.214	514.88
528.429	522.88
528.644	529.88
528.859	550.88
529.074	524.88
529.289	533.88
529.503	602.88
529.718	582.88
529.933	545.88
530.148	532.88
530.363	540.88
530.577	524.88
530.792	516.88
531.007	502.88
531.221	503.88
531.436	493.88
531.651	483.88
531.865	510.88
532.08	485.88
532.295	490.88
532.509	511.88
532.724	502.88
532.938	502.88
533.153	515.88
533.367	512.88
533.582	504.88
533.796	525.88
534.011	518.88
534.225	498.88
534.44	493.88
534.654	497.88
534.868	514.88
535.083	517.88
535.297	500.88
535.511	532.88
535.726	510.88
535.94	529.88
536.154	489.88
536.369	509.88
536.583	514.88
536.797	509.88
537.011	492.88
537.225	479.88
537.44	486.88
537.654	471.88
537.868	479.88
538.082	467.88
538.296	492.88
538.51	492.88
538.724	489.88
538.938	487.88
539.153	477.88
539.367	492.88
539.581	480.88
539.795	482.88
540.009	478.88
540.222	481.88
540.436	488.88
540.65	493.88
540.864	509.88
541.078	516.88
541.292	487.88
541.506	467.88
541.72	466.88
541.934	473.88
542.147	474.88
542.361	476.88
542.575	473.88
542.789	495.88
543.002	472.88
543.216	493.88
543.43	498.88
543.644	488.88
543.857	499.88
544.071	474.88
544.285	497.88
544.498	490.88
544.712	493.88
544.925	517.88
545.139	483.88
545.352	461.88
545.566	464.88
545.779	475.88
545.993	508.88
546.206	485.88
546.42	473.88
546.633	467.88
546.847	489.88
547.06	482.88
547.274	476.88
547.487	467.88
547.7	453.88
547.914	467.88
548.127	466.88
548.34	470.88
548.554	474.88
548.767	447.88
548.98	472.88
549.193	479.88
549.407	470.88
549.62	485.88
549.833	473.88
550.046	453.88
550.259	464.88
550.473	458.88
550.686	470.88
550.899	477.88
551.112	453.88
551.325	464.88
551.538	450.88
551.751	465.88
551.964	487.88
552.177	472.88
552.39	449.88
552.603	468.88
552.816	468.88
553.029	486.88
553.242	486.88
553.455	488.88
553.667	497.88
553.88	477.88
554.093	479.88
554.306	458.88
554.519	473.88
554.732	488.88
554.944	455.88
555.157	461.88
555.37	443.88
555.583	456.88
555.795	430.88
556.008	437.88
556.221	441.88
556.433	434.88
556.646	417.88
556.859	425.88
557.071	426.88
557.284	426.88
557.496	441.88
557.709	420.88
557.921	432.88
558.134	422.88
558.346	406.88
558.559	439.88
558.771	411.88
558.984	412.88
559.196	427.88
559.409	424.88
559.621	420.88
559.833	404.88
560.046	400.88
560.258	413.88
560.47	401.88
560.683	396.88
560.895	411.88
561.107	417.88
561.32	418.88
561.532	403.88
561.744	421.88
561.956	415.88
562.168	424.88
562.381	426.88
562.593	434.88
562.805	424.88
563.017	416.88
563.229	436.88
563.441	434.88
563.653	434.88
563.865	419.88
564.077	428.88
564.289	424.88
564.501	417.88
564.713	443.88
564.925	460.88
565.137	448.88
565.349	450.88
565.561	448.88
565.773	460.88
565.985	497.88
566.197	472.88
566.408	507.88
566.62	510.88
566.832	550.88
567.044	547.88
567.255	538.88
567.467	547.88
567.679	560.88
567.891	585.88
568.102	590.88
568.314	572.88
568.526	550.88
568.737	530.88
568.949	481.88
569.161	469.88
569.372	460.88
569.584	453.88
569.795	461.88
570.007	457.88
570.218	457.88
570.43	447.88
570.641	418.88
570.853	408.88
571.064	418.88
571.276	402.88
571.487	405.88
571.698	410.88
571.91	406.88
572.121	402.88
572.333	380.88
572.544	377.88
572.755	380.88
572.966	366.88
573.178	372.88
573.389	365.88
573.6	368.88
573.811	380.88
574.023	367.88
574.234	356.88
574.445	366.88
574.656	356.88
574.867	356.88
575.078	375.88
575.289	358.88
575.501	379.88
575.712	351.88
575.923	354.88
576.134	351.88
576.345	354.88
576.556	353.88
576.767	357.88
576.978	359.88
577.188	342.88
577.399	340.88
577.61	355.88
577.821	338.88
578.032	337.88
578.243	347.88
578.454	501.88
578.665	422.88
578.875	344.88
579.086	334.88
579.297	334.88
579.508	342.88
579.718	336.88
579.929	340.88
580.14	322.88
580.35	330.88
580.561	339.88
580.772	338.88
580.982	326.88
581.193	327.88
581.403	341.88
581.614	330.88
581.825	325.88
582.035	311.88
582.246	324.88
582.456	314.88
582.667	309.88
582.877	299.88
583.087	309.88
583.298	332.88
583.508	317.88
583.719	304.88
583.929	323.88
584.139	318.88
584.35	318.88
584.56	341.88
584.77	324.88
584.981	332.88
585.191	316.88
585.401	330.88
585.611	304.88
585.821	331.88
586.032	306.88
586.242	316.88
586.452	296.88
586.662	330.88
586.872	305.88
587.082	314.88
587.292	324.88
587.502	310.88
587.713	297.88
587.923	310.88
588.133	304.88
588.343	304.88
588.553	326.88
588.762	306.88
588.972	329.88
589.182	298.88
589.392	299.88
589.602	310.88
589.812	322.88
590.022	296.88
590.232	302.88
590.441	301.88
590.651	314.88
590.861	325.88
591.071	320.88
591.281	331.88
591.49	323.88
591.7	333.88
591.91	311.88
592.119	332.88
592.329	308.88
592.539	356.88
592.748	340.88
592.958	341.88
593.167	326.88
593.377	339.88
593.587	345.88
593.796	359.88
594.006	353.88
594.215	362.88
594.424	342.88
594.634	344.88
594.843	334.88
595.053	338.88
595.262	326.88
595.472	336.88
595.681	324.88
595.89	322.88
596.1	313.88
596.309	299.88
596.518	301.88
596.727	313.88
596.937	301.88
597.146	300.88
597.355	297.88
597.564	284.88
597.774	309.88
597.983	268.88
598.192	276.88
598.401	304.88
598.61	298.88
598.819	256.88
599.028	288.88
599.237	282.88
599.446	294.88
599.655	278.88
599.864	296.88
600.073	287.88
600.282	286.88
600.491	283.88
600.7	289.88
600.909	270.88
601.118	251.88
601.327	288.88
601.536	285.88
601.745	268.88
601.953	268.88
602.162	295.88
602.371	284.88
602.58	271.88
602.789	268.88
602.997	256.88
603.206	264.88
603.415	288.88
603.623	271.88
603.832	275.88
604.041	275.88
604.249	275.88
604.458	257.88
604.666	263.88
604.875	243.88
605.084	256.88
605.292	231.88
605.501	278.88
605.709	253.88
605.918	268.88
606.126	272.88
606.334	267.88
606.543	249.88
606.751	270.88
606.96	268.88
607.168	263.88
607.376	256.88
607.585	269.88
607.793	266.88
608.001	266.88
608.21	266.88
608.418	266.88
608.626	266.88
608.834	240.88
609.043	250.88
609.251	276.88
609.459	268.88
609.667	262.88
609.875	264.88
610.083	262.88
610.291	247.88
610.499	253.88
610.707	250.88
610.916	258.88
611.124	266.88
611.332	258.88
611.54	268.88
611.748	287.88
611.955	249.88
612.163	264.88
612.371	265.88
612.579	261.88
612.787	265.88
612.995	274.88
613.203	241.88
613.411	263.88
613.618	241.88
613.826	251.88
614.034	262.88
614.242	250.88
614.449	250.88
614.657	261.88
614.865	253.88
615.072	260.88
615.28	248.88
615.488	254.88
615.695	247.88
615.903	248.88
616.111	253.88
616.318	243.88
616.526	249.88
616.733	259.88
616.941	257.88
617.148	260.88
617.356	237.88
617.563	248.88
617.771	256.88
617.978	256.88
618.185	253.88
618.393	254.88
618.6	244.88
618.807	250.88
619.015	245.88
619.222	238.88
619.429	233.88
619.637	249.88
619.844	236.88
620.051	253.88
620.258	261.88
620.466	245.88
620.673	244.88
620.88	248.88
621.087	219.88
621.294	218.88
621.501	231.88
621.708	216.88
621.915	221.88
622.122	238.88
622.329	227.88
622.536	244.88
622.743	222.88
622.95	218.88
623.157	227.88
623.364	225.88
623.571	228.88
623.778	229.88
623.985	227.88
624.192	214.88
624.399	224.88
624.606	211.88
624.812	227.88
625.019	233.88
625.226	234.88
625.433	227.88
625.639	217.88
625.846	219.88
626.053	196.88
626.259	229.88
626.466	232.88
626.673	217.88
626.879	209.88
627.086	221.88
627.293	206.88
627.499	218.88
627.706	229.88
627.912	219.88
628.119	214.88
628.325	223.88
628.532	206.88
628.738	221.88
628.945	240.88
629.151	214.88
629.357	199.88
629.564	202.88
629.77	200.88
629.976	207.88
630.183	199.88
630.389	187.88
630.595	194.88
630.802	208.88
631.008	218.88
631.214	205.88
631.42	217.88
631.627	201.88
631.833	192.88
632.039	212.88
632.245	197.88
632.451	198.88
632.657	192.88
632.863	201.88
633.069	194.88
633.275	199.88
633.481	182.88
633.688	210.88
633.893	200.88
634.099	199.88
634.305	202.88
634.511	195.88
634.717	192.88
634.923	193.88
635.129	181.88
635.335	185.88
635.541	195.88
635.747	191.88
635.952	186.88
636.158	194.88
636.364	204.88
636.57	184.88
636.775	197.88
636.981	187.88
637.187	195.88
637.392	196.88
637.598	185.88
637.804	177.88
638.009	187.88
638.215	186.88
638.421	176.88
638.626	176.88
638.832	180.88
639.037	187.88
639.243	166.88
639.448	178.88
639.654	178.88
639.859	174.88
640.065	179.88
640.27	156.88
640.475	177.88
640.681	194.88
640.886	199.88
641.091	179.88
641.297	188.88
641.502	156.88
641.707	167.88
641.913	177.88
642.118	167.88
642.323	171.88
642.528	184.88
642.733	178.88
642.939	176.88
643.144	183.88
643.349	188.88
643.554	169.88
643.759	183.88
643.964	178.88
644.169	188.88
644.374	179.88
644.579	170.88
644.784	182.88
644.989	172.88
645.194	177.88
645.399	185.88
645.604	184.88
645.809	170.88
646.014	172.88
646.219	165.88
646.423	174.88
646.628	164.88
646.833	169.88
647.038	173.88
647.243	181.88
647.447	186.88
647.652	189.88
647.857	178.88
648.062	173.88
648.266	184.88
648.471	195.88
648.676	182.88
648.88	195.88
649.085	180.88
649.289	183.88
649.494	186.88
649.698	202.88
649.903	189.88
650.107	185.88
650.312	185.88
650.516	154.88
650.721	169.88
650.925	173.88
651.13	163.88
651.334	157.88
651.539	156.88
651.743	155.88
651.947	143.88
652.152	151.88
652.356	152.88
652.56	145.88
652.764	149.88
652.969	141.88
653.173	147.88
653.377	144.88
653.581	154.88
653.785	162.88
653.99	129.88
654.194	139.88
654.398	146.88
654.602	143.88
654.806	122.88
655.01	153.88
655.214	151.88
655.418	133.88
655.622	156.88
655.826	138.88
656.03	155.88
656.234	141.88
656.438	129.88
656.642	138.88
656.846	132.88
657.049	142.88
657.253	140.88
657.457	132.88
657.661	121.88
657.865	118.88
658.068	130.88
658.272	124.88
658.476	108.88
658.68	91.88
658.883	114.88
659.087	87.88
659.291	96.88
659.494	108.88
659.698	94.88
659.901	104.88
660.105	92.88
660.309	101.88
660.512	98.88
660.716	107.88
660.919	99.88
661.123	103.88
661.326	85.88
661.53	89.88
661.733	82.88
661.936	78.88
662.14	85.88
662.343	86.88
662.546	90.88
662.75	86.88
662.953	80.88
663.156	92.88
663.36	94.88
663.563	83.88
663.766	85.88
663.969	78.88
664.173	77.88
664.376	98.88
664.579	80.88
664.782	98.88
664.985	74.88
665.188	77.88
665.391	100.88
665.594	73.88
665.797	79.88
666	80.88
666.203	77.88
666.406	73.88
666.609	82.88
666.812	86.88
667.015	74.88
667.218	85.88
667.421	77.88
667.624	76.88
667.827	68.88
668.03	80.88
668.232	90.88
668.435	72.88
668.638	82.88
668.841	75.88
669.043	69.88
669.246	92.88
669.449	83.88
669.651	89.88
669.854	84.88
670.057	79.88
670.259	80.88
670.462	87.88
670.665	68.88
670.867	72.88
671.07	87.88
671.272	82.88
671.475	92.88
671.677	82.88
671.88	82.88
672.082	90.88
672.284	78.88
672.487	83.88
672.689	80.88
672.892	83.88
