Data from 1976.PennyLincolnUp.Lamp.En5.5.200Scan.071719.P1.Changed Mount._HRD10591_16-02-03-861.txt Node
Date: Thu Jul 18 16:02:03 EDT 2019
User: cochatt
Spectrometer: HR+D1059
Trigger mode: 1
Integration Time (sec): 1.000000E-1
Scans to average: 1
Electric dark correction enabled: true
Nonlinearity correction enabled: false
Boxcar width: 0
XAxis mode: Wavelengths
Number of Pixels in Spectrum: 2048
>>>>>Begin Spectral Data<<<<<
223.165	-9.94
223.4	-9.94
223.635	-9.94
223.869	-24.94
224.104	-30.94
224.338	6.06
224.573	-4.94
224.808	-10.94
225.042	-11.94
225.277	-23.94
225.511	-3.94
225.746	1.06
225.98	12.06
226.215	11.06
226.449	9.06
226.683	27.06
226.918	27.06
227.152	28.06
227.387	25.06
227.621	25.06
227.856	31.06
228.09	49.06
228.324	45.06
228.559	51.06
228.793	68.06
229.027	95.06
229.262	121.06
229.496	115.06
229.73	124.06
229.964	165.06
230.199	135.06
230.433	120.06
230.667	109.06
230.901	111.06
231.136	125.06
231.37	109.06
231.604	113.06
231.838	115.06
232.072	97.06
232.306	102.06
232.541	97.06
232.775	104.06
233.009	127.06
233.243	120.06
233.477	109.06
233.711	119.06
233.945	116.06
234.179	107.06
234.413	116.06
234.647	95.06
234.881	99.06
235.115	114.06
235.349	131.06
235.583	132.06
235.817	112.06
236.051	130.06
236.285	135.06
236.519	121.06
236.753	127.06
236.987	146.06
237.221	173.06
237.455	228.06
237.689	186.06
237.922	151.06
238.156	135.06
238.39	123.06
238.624	122.06
238.858	123.06
239.091	120.06
239.325	121.06
239.559	119.06
239.793	134.06
240.027	135.06
240.26	144.06
240.494	166.06
240.728	145.06
240.961	161.06
241.195	166.06
241.429	143.06
241.662	127.06
241.896	135.06
242.13	150.06
242.363	141.06
242.597	124.06
242.83	148.06
243.064	129.06
243.298	140.06
243.531	130.06
243.765	151.06
243.998	150.06
244.232	144.06
244.465	154.06
244.699	139.06
244.932	166.06
245.166	155.06
245.399	156.06
245.633	142.06
245.866	159.06
246.099	147.06
246.333	156.06
246.566	149.06
246.8	151.06
247.033	158.06
247.266	170.06
247.5	159.06
247.733	190.06
247.966	164.06
248.2	163.06
248.433	175.06
248.666	173.06
248.899	185.06
249.133	203.06
249.366	213.06
249.599	208.06
249.832	195.06
250.066	184.06
250.299	190.06
250.532	203.06
250.765	207.06
250.998	218.06
251.231	223.06
251.465	214.06
251.698	216.06
251.931	214.06
252.164	208.06
252.397	223.06
252.63	214.06
252.863	206.06
253.096	212.06
253.329	232.06
253.562	250.06
253.795	227.06
254.028	220.06
254.261	216.06
254.494	228.06
254.727	252.06
254.96	285.06
255.193	266.06
255.426	246.06
255.659	237.06
255.892	241.06
256.124	241.06
256.357	238.06
256.59	238.06
256.823	217.06
257.056	216.06
257.289	213.06
257.521	205.06
257.754	206.06
257.987	205.06
258.22	198.06
258.452	205.06
258.685	212.06
258.918	216.06
259.151	226.06
259.383	243.06
259.616	228.06
259.849	213.06
260.081	224.06
260.314	257.06
260.547	254.06
260.779	257.06
261.012	249.06
261.244	243.06
261.477	244.06
261.71	227.06
261.942	245.06
262.175	237.06
262.407	236.06
262.64	205.06
262.872	227.06
263.105	236.06
263.337	236.06
263.57	224.06
263.802	227.06
264.035	210.06
264.267	232.06
264.499	226.06
264.732	227.06
264.964	225.06
265.197	219.06
265.429	217.06
265.661	214.06
265.894	229.06
266.126	234.06
266.358	225.06
266.591	236.06
266.823	242.06
267.055	232.06
267.287	240.06
267.52	255.06
267.752	247.06
267.984	250.06
268.216	246.06
268.448	258.06
268.681	241.06
268.913	261.06
269.145	269.06
269.377	274.06
269.609	285.06
269.841	274.06
270.073	284.06
270.306	301.06
270.538	326.06
270.77	325.06
271.002	332.06
271.234	309.06
271.466	301.06
271.698	323.06
271.93	326.06
272.162	331.06
272.394	335.06
272.626	334.06
272.858	306.06
273.09	288.06
273.322	294.06
273.553	264.06
273.785	275.06
274.017	265.06
274.249	271.06
274.481	279.06
274.713	275.06
274.945	292.06
275.176	285.06
275.408	263.06
275.64	278.06
275.872	284.06
276.104	277.06
276.335	307.06
276.567	288.06
276.799	301.06
277.031	309.06
277.262	337.06
277.494	321.06
277.726	313.06
277.957	297.06
278.189	292.06
278.421	305.06
278.652	275.06
278.884	287.06
279.115	290.06
279.347	267.06
279.579	283.06
279.81	285.06
280.042	267.06
280.273	310.06
280.505	279.06
280.736	292.06
280.968	293.06
281.199	288.06
281.431	302.06
281.662	281.06
281.894	295.06
282.125	302.06
282.356	305.06
282.588	323.06
282.819	309.06
283.051	303.06
283.282	277.06
283.513	291.06
283.745	305.06
283.976	311.06
284.207	295.06
284.439	313.06
284.67	314.06
284.901	299.06
285.132	298.06
285.364	278.06
285.595	289.06
285.826	297.06
286.057	301.06
286.288	277.06
286.52	309.06
286.751	298.06
286.982	311.06
287.213	305.06
287.444	300.06
287.675	315.06
287.906	317.06
288.138	322.06
288.369	315.06
288.6	340.06
288.831	319.06
289.062	312.06
289.293	309.06
289.524	311.06
289.755	322.06
289.986	307.06
290.217	310.06
290.448	291.06
290.679	313.06
290.91	316.06
291.141	325.06
291.371	321.06
291.602	314.06
291.833	303.06
292.064	298.06
292.295	324.06
292.526	309.06
292.757	329.06
292.987	312.06
293.218	313.06
293.449	324.06
293.68	303.06
293.91	308.06
294.141	325.06
294.372	322.06
294.603	318.06
294.833	335.06
295.064	318.06
295.295	320.06
295.525	322.06
295.756	318.06
295.987	318.06
296.217	338.06
296.448	350.06
296.679	325.06
296.909	341.06
297.14	339.06
297.37	334.06
297.601	328.06
297.831	324.06
298.062	321.06
298.292	336.06
298.523	339.06
298.753	326.06
298.984	342.06
299.214	330.06
299.445	342.06
299.675	329.06
299.905	336.06
300.136	342.06
300.366	353.06
300.597	352.06
300.827	326.06
301.057	348.06
301.288	358.06
301.518	360.06
301.748	356.06
301.979	363.06
302.209	377.06
302.439	358.06
302.669	335.06
302.9	359.06
303.13	351.06
303.36	349.06
303.59	358.06
303.82	354.06
304.051	358.06
304.281	340.06
304.511	350.06
304.741	373.06
304.971	369.06
305.201	358.06
305.431	354.06
305.661	358.06
305.891	361.06
306.121	369.06
306.352	369.06
306.582	377.06
306.812	360.06
307.042	347.06
307.272	355.06
307.502	367.06
307.731	345.06
307.961	337.06
308.191	353.06
308.421	341.06
308.651	395.06
308.881	371.06
309.111	392.06
309.341	384.06
309.571	361.06
309.8	397.06
310.03	405.06
310.26	397.06
310.49	384.06
310.72	396.06
310.949	395.06
311.179	414.06
311.409	427.06
311.639	393.06
311.868	387.06
312.098	391.06
312.328	401.06
312.557	417.06
312.787	414.06
313.017	407.06
313.246	397.06
313.476	376.06
313.706	406.06
313.935	411.06
314.165	427.06
314.394	405.06
314.624	416.06
314.853	400.06
315.083	408.06
315.312	409.06
315.542	407.06
315.771	387.06
316.001	429.06
316.23	422.06
316.46	405.06
316.689	390.06
316.919	383.06
317.148	373.06
317.377	423.06
317.607	415.06
317.836	417.06
318.065	374.06
318.295	395.06
318.524	413.06
318.753	400.06
318.983	419.06
319.212	394.06
319.441	404.06
319.67	400.06
319.9	404.06
320.129	397.06
320.358	401.06
320.587	402.06
320.816	418.06
321.046	418.06
321.275	436.06
321.504	423.06
321.733	405.06
321.962	429.06
322.191	427.06
322.42	435.06
322.649	439.06
322.878	446.06
323.108	460.06
323.337	465.06
323.566	506.06
323.795	524.06
324.024	554.06
324.253	648.06
324.482	890.06
324.71	1410.06
324.939	2075.06
325.168	1766.06
325.397	889.06
325.626	606.06
325.855	534.06
326.084	504.06
326.313	518.06
326.542	503.06
326.77	540.06
326.999	617.06
327.228	848.06
327.457	1244.06
327.686	1542.06
327.914	1011.06
328.143	680.06
328.372	597.06
328.6	551.06
328.829	554.06
329.058	550.06
329.287	563.06
329.515	549.06
329.744	522.06
329.972	513.06
330.201	521.06
330.43	570.06
330.658	575.06
330.887	612.06
331.115	613.06
331.344	530.06
331.572	497.06
331.801	515.06
332.03	509.06
332.258	500.06
332.486	476.06
332.715	485.06
332.943	470.06
333.172	485.06
333.4	485.06
333.629	522.06
333.857	521.06
334.085	524.06
334.314	527.06
334.542	570.06
334.771	568.06
334.999	496.06
335.227	516.06
335.455	473.06
335.684	507.06
335.912	483.06
336.14	486.06
336.369	479.06
336.597	490.06
336.825	488.06
337.053	469.06
337.281	479.06
337.51	472.06
337.738	482.06
337.966	470.06
338.194	482.06
338.422	468.06
338.65	476.06
338.878	446.06
339.106	435.06
339.334	440.06
339.562	454.06
339.79	443.06
340.018	467.06
340.246	438.06
340.474	423.06
340.702	458.06
340.93	463.06
341.158	442.06
341.386	465.06
341.614	455.06
341.842	446.06
342.07	452.06
342.298	450.06
342.526	436.06
342.754	470.06
342.981	442.06
343.209	441.06
343.437	452.06
343.665	436.06
343.893	466.06
344.12	475.06
344.348	470.06
344.576	467.06
344.804	452.06
345.031	449.06
345.259	476.06
345.487	471.06
345.714	458.06
345.942	442.06
346.17	446.06
346.397	437.06
346.625	451.06
346.853	463.06
347.08	431.06
347.308	439.06
347.535	435.06
347.763	441.06
347.99	448.06
348.218	446.06
348.445	440.06
348.673	438.06
348.9	427.06
349.128	442.06
349.355	413.06
349.583	426.06
349.81	406.06
350.037	431.06
350.265	434.06
350.492	438.06
350.72	438.06
350.947	422.06
351.174	430.06
351.402	441.06
351.629	427.06
351.856	435.06
352.083	428.06
352.311	444.06
352.538	460.06
352.765	424.06
352.992	439.06
353.22	453.06
353.447	425.06
353.674	435.06
353.901	427.06
354.128	401.06
354.355	405.06
354.583	415.06
354.81	407.06
355.037	408.06
355.264	403.06
355.491	433.06
355.718	400.06
355.945	412.06
356.172	400.06
356.399	407.06
356.626	406.06
356.853	415.06
357.08	390.06
357.307	403.06
357.534	397.06
357.761	411.06
357.988	399.06
358.215	434.06
358.441	409.06
358.668	404.06
358.895	426.06
359.122	423.06
359.349	421.06
359.576	430.06
359.802	462.06
360.029	469.06
360.256	468.06
360.483	444.06
360.709	451.06
360.936	451.06
361.163	447.06
361.39	441.06
361.616	433.06
361.843	450.06
362.07	453.06
362.296	442.06
362.523	436.06
362.749	437.06
362.976	418.06
363.203	438.06
363.429	420.06
363.656	421.06
363.882	418.06
364.109	417.06
364.335	435.06
364.562	447.06
364.788	432.06
365.015	411.06
365.241	403.06
365.468	422.06
365.694	433.06
365.92	435.06
366.147	415.06
366.373	428.06
366.599	404.06
366.826	428.06
367.052	420.06
367.278	395.06
367.505	433.06
367.731	422.06
367.957	406.06
368.184	422.06
368.41	430.06
368.636	449.06
368.862	426.06
369.089	425.06
369.315	421.06
369.541	418.06
369.767	435.06
369.993	409.06
370.219	415.06
370.445	412.06
370.672	417.06
370.898	416.06
371.124	411.06
371.35	415.06
371.576	409.06
371.802	435.06
372.028	416.06
372.254	434.06
372.48	425.06
372.706	434.06
372.932	417.06
373.158	454.06
373.384	433.06
373.61	428.06
373.835	423.06
374.061	423.06
374.287	411.06
374.513	415.06
374.739	430.06
374.965	430.06
375.191	451.06
375.416	439.06
375.642	426.06
375.868	438.06
376.094	420.06
376.319	412.06
376.545	405.06
376.771	410.06
376.997	425.06
377.222	415.06
377.448	444.06
377.674	425.06
377.899	402.06
378.125	415.06
378.35	401.06
378.576	407.06
378.802	407.06
379.027	408.06
379.253	439.06
379.478	415.06
379.704	412.06
379.929	426.06
380.155	408.06
380.38	416.06
380.606	431.06
380.831	414.06
381.057	419.06
381.282	421.06
381.507	415.06
381.733	442.06
381.958	431.06
382.184	435.06
382.409	428.06
382.634	409.06
382.86	413.06
383.085	430.06
383.31	454.06
383.535	448.06
383.761	414.06
383.986	423.06
384.211	462.06
384.436	453.06
384.662	450.06
384.887	449.06
385.112	447.06
385.337	439.06
385.562	466.06
385.787	474.06
386.013	467.06
386.238	478.06
386.463	476.06
386.688	489.06
386.913	454.06
387.138	503.06
387.363	460.06
387.588	447.06
387.813	463.06
388.038	450.06
388.263	469.06
388.488	477.06
388.713	461.06
388.938	461.06
389.163	479.06
389.387	466.06
389.612	444.06
389.837	465.06
390.062	449.06
390.287	467.06
390.512	481.06
390.736	490.06
390.961	471.06
391.186	474.06
391.411	469.06
391.636	517.06
391.86	483.06
392.085	475.06
392.31	471.06
392.534	493.06
392.759	487.06
392.984	494.06
393.208	482.06
393.433	473.06
393.658	475.06
393.882	474.06
394.107	461.06
394.331	517.06
394.556	497.06
394.78	498.06
395.005	477.06
395.229	481.06
395.454	478.06
395.678	504.06
395.903	518.06
396.127	510.06
396.352	523.06
396.576	475.06
396.801	490.06
397.025	477.06
397.249	482.06
397.474	521.06
397.698	497.06
397.922	521.06
398.147	541.06
398.371	547.06
398.595	547.06
398.82	536.06
399.044	547.06
399.268	592.06
399.492	621.06
399.717	659.06
399.941	683.06
400.165	669.06
400.389	699.06
400.613	626.06
400.837	584.06
401.062	571.06
401.286	544.06
401.51	565.06
401.734	551.06
401.958	570.06
402.182	533.06
402.406	561.06
402.63	562.06
402.854	546.06
403.078	578.06
403.302	569.06
403.526	594.06
403.75	593.06
403.974	567.06
404.198	592.06
404.422	570.06
404.645	590.06
404.869	587.06
405.093	639.06
405.317	657.06
405.541	697.06
405.765	627.06
405.988	603.06
406.212	620.06
406.436	630.06
406.66	638.06
406.883	627.06
407.107	632.06
407.331	680.06
407.555	762.06
407.778	771.06
408.002	693.06
408.226	665.06
408.449	635.06
408.673	622.06
408.896	636.06
409.12	705.06
409.344	657.06
409.567	601.06
409.791	579.06
410.014	581.06
410.238	562.06
410.461	569.06
410.685	563.06
410.908	612.06
411.132	641.06
411.355	640.06
411.578	632.06
411.802	565.06
412.025	569.06
412.249	584.06
412.472	612.06
412.695	632.06
412.919	615.06
413.142	597.06
413.365	581.06
413.589	532.06
413.812	553.06
414.035	528.06
414.258	536.06
414.482	554.06
414.705	537.06
414.928	542.06
415.151	533.06
415.374	534.06
415.597	525.06
415.821	554.06
416.044	564.06
416.267	572.06
416.49	540.06
416.713	522.06
416.936	534.06
417.159	548.06
417.382	559.06
417.605	565.06
417.828	556.06
418.051	552.06
418.274	551.06
418.497	551.06
418.72	555.06
418.943	539.06
419.166	553.06
419.389	603.06
419.611	580.06
419.834	575.06
420.057	564.06
420.28	561.06
420.503	573.06
420.726	561.06
420.948	582.06
421.171	625.06
421.394	645.06
421.617	581.06
421.839	581.06
422.062	569.06
422.285	591.06
422.507	627.06
422.73	693.06
422.953	656.06
423.175	587.06
423.398	581.06
423.621	591.06
423.843	609.06
424.066	615.06
424.288	611.06
424.511	605.06
424.733	652.06
424.956	753.06
425.178	702.06
425.401	719.06
425.623	747.06
425.846	621.06
426.068	579.06
426.291	602.06
426.513	583.06
426.735	618.06
426.958	642.06
427.18	707.06
427.402	865.06
427.625	940.06
427.847	796.06
428.069	677.06
428.292	639.06
428.514	588.06
428.736	541.06
428.958	557.06
429.181	539.06
429.403	543.06
429.625	536.06
429.847	602.06
430.069	651.06
430.292	634.06
430.514	547.06
430.736	532.06
430.958	534.06
431.18	523.06
431.402	526.06
431.624	508.06
431.846	507.06
432.068	528.06
432.29	513.06
432.512	537.06
432.734	538.06
432.956	533.06
433.178	529.06
433.4	549.06
433.622	534.06
433.844	524.06
434.066	522.06
434.287	538.06
434.509	537.06
434.731	541.06
434.953	551.06
435.175	564.06
435.397	600.06
435.618	601.06
435.84	602.06
436.062	704.06
436.284	793.06
436.505	665.06
436.727	597.06
436.949	582.06
437.17	539.06
437.392	564.06
437.614	557.06
437.835	571.06
438.057	662.06
438.278	779.06
438.5	782.06
438.721	849.06
438.943	829.06
439.165	649.06
439.386	583.06
439.608	583.06
439.829	571.06
440.05	610.06
440.272	639.06
440.493	620.06
440.715	569.06
440.936	583.06
441.158	577.06
441.379	531.06
441.6	569.06
441.822	583.06
442.043	619.06
442.264	710.06
442.486	754.06
442.707	633.06
442.928	612.06
443.149	593.06
443.371	625.06
443.592	691.06
443.813	784.06
444.034	834.06
444.255	699.06
444.476	614.06
444.698	622.06
444.919	619.06
445.14	731.06
445.361	695.06
445.582	659.06
445.803	701.06
446.024	802.06
446.245	796.06
446.466	713.06
446.687	629.06
446.908	607.06
447.129	579.06
447.35	564.06
447.571	517.06
447.792	533.06
448.013	539.06
448.234	558.06
448.455	632.06
448.675	713.06
448.896	834.06
449.117	702.06
449.338	661.06
449.559	791.06
449.779	885.06
450	693.06
450.221	574.06
450.442	554.06
450.662	524.06
450.883	527.06
451.104	553.06
451.324	524.06
451.545	499.06
451.766	497.06
451.986	486.06
452.207	473.06
452.428	488.06
452.648	480.06
452.869	494.06
453.089	483.06
453.31	473.06
453.53	503.06
453.751	479.06
453.971	481.06
454.192	520.06
454.412	471.06
454.633	470.06
454.853	477.06
455.073	462.06
455.294	503.06
455.514	579.06
455.734	539.06
455.955	476.06
456.175	446.06
456.395	452.06
456.616	443.06
456.836	482.06
457.056	454.06
457.276	457.06
457.497	462.06
457.717	467.06
457.937	461.06
458.157	479.06
458.377	470.06
458.598	491.06
458.818	561.06
459.038	614.06
459.258	638.06
459.478	556.06
459.698	513.06
459.918	516.06
460.138	513.06
460.358	541.06
460.578	555.06
460.798	560.06
461.018	546.06
461.238	529.06
461.458	543.06
461.678	535.06
461.898	542.06
462.118	548.06
462.338	548.06
462.558	541.06
462.777	586.06
462.997	590.06
463.217	625.06
463.437	606.06
463.657	599.06
463.876	605.06
464.096	589.06
464.316	584.06
464.536	606.06
464.755	571.06
464.975	578.06
465.195	606.06
465.414	653.06
465.634	585.06
465.854	542.06
466.073	523.06
466.293	505.06
466.512	509.06
466.732	492.06
466.951	498.06
467.171	495.06
467.391	521.06
467.61	493.06
467.829	515.06
468.049	488.06
468.268	509.06
468.488	515.06
468.707	493.06
468.927	469.06
469.146	479.06
469.365	501.06
469.585	482.06
469.804	493.06
470.023	492.06
470.243	510.06
470.462	501.06
470.681	517.06
470.901	548.06
471.12	504.06
471.339	492.06
471.558	502.06
471.777	519.06
471.997	491.06
472.216	514.06
472.435	540.06
472.654	513.06
472.873	501.06
473.092	513.06
473.311	495.06
473.53	493.06
473.749	543.06
473.968	549.06
474.187	643.06
474.406	674.06
474.625	571.06
474.844	521.06
475.063	489.06
475.282	493.06
475.501	490.06
475.72	491.06
475.939	517.06
476.158	511.06
476.377	515.06
476.596	503.06
476.814	520.06
477.033	546.06
477.252	527.06
477.471	536.06
477.69	555.06
477.908	550.06
478.127	540.06
478.346	566.06
478.564	549.06
478.783	577.06
479.002	591.06
479.22	575.06
479.439	604.06
479.658	607.06
479.876	593.06
480.095	647.06
480.313	645.06
480.532	647.06
480.751	623.06
480.969	636.06
481.188	679.06
481.406	707.06
481.624	635.06
481.843	585.06
482.061	587.06
482.28	582.06
482.498	575.06
482.717	567.06
482.935	573.06
483.153	618.06
483.372	586.06
483.59	569.06
483.808	591.06
484.027	581.06
484.245	585.06
484.463	588.06
484.681	586.06
484.9	591.06
485.118	577.06
485.336	590.06
485.554	590.06
485.772	582.06
485.99	587.06
486.209	591.06
486.427	603.06
486.645	650.06
486.863	633.06
487.081	598.06
487.299	625.06
487.517	653.06
487.735	641.06
487.953	617.06
488.171	614.06
488.389	613.06
488.607	634.06
488.825	591.06
489.043	598.06
489.261	626.06
489.479	618.06
489.696	637.06
489.914	652.06
490.132	634.06
490.35	665.06
490.568	674.06
490.786	685.06
491.003	678.06
491.221	699.06
491.439	702.06
491.657	716.06
491.874	697.06
492.092	703.06
492.31	717.06
492.527	713.06
492.745	707.06
492.963	717.06
493.18	714.06
493.398	750.06
493.615	739.06
493.833	716.06
494.05	745.06
494.268	746.06
494.485	758.06
494.703	729.06
494.92	725.06
495.138	738.06
495.355	753.06
495.573	735.06
495.79	714.06
496.008	729.06
496.225	738.06
496.442	754.06
496.66	758.06
496.877	741.06
497.094	747.06
497.312	739.06
497.529	755.06
497.746	780.06
497.963	777.06
498.181	812.06
498.398	817.06
498.615	857.06
498.832	862.06
499.049	870.06
499.267	906.06
499.484	957.06
499.701	959.06
499.918	1045.06
500.135	1064.06
500.352	1161.06
500.569	1198.06
500.786	1203.06
501.003	1151.06
501.22	1124.06
501.437	1043.06
501.654	1029.06
501.871	1011.06
502.088	934.06
502.305	910.06
502.522	876.06
502.739	844.06
502.956	805.06
503.172	800.06
503.389	798.06
503.606	760.06
503.823	783.06
504.04	775.06
504.256	759.06
504.473	771.06
504.69	767.06
504.907	739.06
505.123	718.06
505.34	715.06
505.557	690.06
505.773	710.06
505.99	712.06
506.207	711.06
506.423	700.06
506.64	683.06
506.856	697.06
507.073	675.06
507.289	690.06
507.506	679.06
507.722	691.06
507.939	677.06
508.155	653.06
508.372	662.06
508.588	663.06
508.805	644.06
509.021	663.06
509.238	647.06
509.454	661.06
509.67	661.06
509.887	673.06
510.103	648.06
510.319	651.06
510.536	744.06
510.752	1098.06
510.968	955.06
511.184	679.06
511.401	628.06
511.617	628.06
511.833	599.06
512.049	611.06
512.265	598.06
512.481	629.06
512.698	619.06
512.914	610.06
513.13	604.06
513.346	598.06
513.562	622.06
513.778	598.06
513.994	620.06
514.21	614.06
514.426	619.06
514.642	663.06
514.858	705.06
515.074	697.06
515.29	810.06
515.506	1153.06
515.721	977.06
515.937	714.06
516.153	671.06
516.369	635.06
516.585	647.06
516.801	667.06
517.016	646.06
517.232	641.06
517.448	622.06
517.664	679.06
517.879	674.06
518.095	656.06
518.311	673.06
518.527	676.06
518.742	631.06
518.958	632.06
519.173	614.06
519.389	604.06
519.605	631.06
519.82	625.06
520.036	635.06
520.251	635.06
520.467	641.06
520.682	667.06
520.898	665.06
521.113	664.06
521.329	699.06
521.544	756.06
521.76	880.06
521.975	1387.06
522.19	1365.06
522.406	824.06
522.621	668.06
522.836	608.06
523.052	585.06
523.267	569.06
523.482	564.06
523.698	549.06
523.913	555.06
524.128	545.06
524.343	562.06
524.559	527.06
524.774	525.06
524.989	545.06
525.204	537.06
525.419	545.06
525.634	543.06
525.849	523.06
526.064	520.06
526.28	509.06
526.495	534.06
526.71	503.06
526.925	503.06
527.14	491.06
527.355	523.06
527.57	504.06
527.785	489.06
527.999	516.06
528.214	511.06
528.429	517.06
528.644	522.06
528.859	522.06
529.074	520.06
529.289	505.06
529.503	578.06
529.718	579.06
529.933	524.06
530.148	533.06
530.363	525.06
530.577	512.06
530.792	504.06
531.007	482.06
531.221	502.06
531.436	503.06
531.651	499.06
531.865	487.06
532.08	492.06
532.295	485.06
532.509	512.06
532.724	478.06
532.938	495.06
533.153	478.06
533.367	503.06
533.582	477.06
533.796	484.06
534.011	492.06
534.225	485.06
534.44	473.06
534.654	488.06
534.868	459.06
535.083	487.06
535.297	485.06
535.511	487.06
535.726	507.06
535.94	519.06
536.154	481.06
536.369	480.06
536.583	487.06
536.797	461.06
537.011	468.06
537.225	478.06
537.44	467.06
537.654	458.06
537.868	447.06
538.082	454.06
538.296	452.06
538.51	469.06
538.724	455.06
538.938	487.06
539.153	483.06
539.367	487.06
539.581	481.06
539.795	469.06
540.009	479.06
540.222	481.06
540.436	459.06
540.65	462.06
540.864	463.06
541.078	486.06
541.292	481.06
541.506	483.06
541.72	482.06
541.934	478.06
542.147	486.06
542.361	460.06
542.575	474.06
542.789	470.06
543.002	456.06
543.216	471.06
543.43	469.06
543.644	453.06
543.857	444.06
544.071	474.06
544.285	490.06
544.498	452.06
544.712	467.06
544.925	478.06
545.139	504.06
545.352	467.06
545.566	439.06
545.779	456.06
545.993	481.06
546.206	456.06
546.42	481.06
546.633	474.06
546.847	477.06
547.06	479.06
547.274	453.06
547.487	448.06
547.7	470.06
547.914	469.06
548.127	481.06
548.34	466.06
548.554	453.06
548.767	456.06
548.98	463.06
549.193	453.06
549.407	453.06
549.62	458.06
549.833	455.06
550.046	439.06
550.259	453.06
550.473	453.06
550.686	458.06
550.899	452.06
551.112	449.06
551.325	454.06
551.538	436.06
551.751	446.06
551.964	442.06
552.177	440.06
552.39	434.06
552.603	473.06
552.816	475.06
553.029	458.06
553.242	480.06
553.455	461.06
553.667	489.06
553.88	498.06
554.093	475.06
554.306	452.06
554.519	460.06
554.732	455.06
554.944	449.06
555.157	437.06
555.37	449.06
555.583	444.06
555.795	424.06
556.008	413.06
556.221	421.06
556.433	400.06
556.646	437.06
556.859	426.06
557.071	413.06
557.284	405.06
557.496	421.06
557.709	414.06
557.921	414.06
558.134	418.06
558.346	403.06
558.559	419.06
558.771	409.06
558.984	395.06
559.196	406.06
559.409	382.06
559.621	406.06
559.833	413.06
560.046	375.06
560.258	384.06
560.47	393.06
560.683	379.06
560.895	395.06
561.107	391.06
561.32	398.06
561.532	398.06
561.744	407.06
561.956	412.06
562.168	410.06
562.381	425.06
562.593	414.06
562.805	415.06
563.017	404.06
563.229	413.06
563.441	414.06
563.653	405.06
563.865	403.06
564.077	393.06
564.289	395.06
564.501	431.06
564.713	436.06
564.925	442.06
565.137	433.06
565.349	449.06
565.561	441.06
565.773	449.06
565.985	463.06
566.197	456.06
566.408	480.06
566.62	490.06
566.832	548.06
567.044	533.06
567.255	556.06
567.467	542.06
567.679	543.06
567.891	590.06
568.102	590.06
568.314	541.06
568.526	541.06
568.737	511.06
568.949	470.06
569.161	441.06
569.372	446.06
569.584	446.06
569.795	434.06
570.007	436.06
570.218	451.06
570.43	435.06
570.641	414.06
570.853	403.06
571.064	404.06
571.276	421.06
571.487	390.06
571.698	376.06
571.91	387.06
572.121	403.06
572.333	401.06
572.544	388.06
572.755	358.06
572.966	379.06
573.178	370.06
573.389	364.06
573.6	355.06
573.811	349.06
574.023	372.06
574.234	347.06
574.445	348.06
574.656	357.06
574.867	328.06
575.078	343.06
575.289	360.06
575.501	351.06
575.712	340.06
575.923	343.06
576.134	350.06
576.345	342.06
576.556	330.06
576.767	335.06
576.978	327.06
577.188	331.06
577.399	349.06
577.61	344.06
577.821	334.06
578.032	326.06
578.243	347.06
578.454	515.06
578.665	418.06
578.875	345.06
579.086	339.06
579.297	329.06
579.508	328.06
579.718	333.06
579.929	330.06
580.14	333.06
580.35	332.06
580.561	337.06
580.772	318.06
580.982	316.06
581.193	319.06
581.403	335.06
581.614	324.06
581.825	316.06
582.035	329.06
582.246	301.06
582.456	317.06
582.667	310.06
582.877	314.06
583.087	303.06
583.298	309.06
583.508	326.06
583.719	336.06
583.929	311.06
584.139	315.06
584.35	311.06
584.56	320.06
584.77	319.06
584.981	309.06
585.191	317.06
585.401	324.06
585.611	314.06
585.821	294.06
586.032	305.06
586.242	321.06
586.452	317.06
586.662	310.06
586.872	315.06
587.082	319.06
587.292	306.06
587.502	308.06
587.713	305.06
587.923	313.06
588.133	297.06
588.343	318.06
588.553	307.06
588.762	297.06
588.972	301.06
589.182	291.06
589.392	294.06
589.602	296.06
589.812	303.06
590.022	291.06
590.232	301.06
590.441	295.06
590.651	305.06
590.861	305.06
591.071	308.06
591.281	321.06
591.49	298.06
591.7	312.06
591.91	323.06
592.119	325.06
592.329	315.06
592.539	333.06
592.748	323.06
592.958	322.06
593.167	327.06
593.377	338.06
593.587	329.06
593.796	333.06
594.006	336.06
594.215	354.06
594.424	338.06
594.634	354.06
594.843	315.06
595.053	318.06
595.262	320.06
595.472	300.06
595.681	314.06
595.89	303.06
596.1	296.06
596.309	295.06
596.518	291.06
596.727	297.06
596.937	293.06
597.146	279.06
597.355	302.06
597.564	266.06
597.774	279.06
597.983	289.06
598.192	293.06
598.401	278.06
598.61	269.06
598.819	257.06
599.028	245.06
599.237	274.06
599.446	276.06
599.655	290.06
599.864	276.06
600.073	297.06
600.282	261.06
600.491	264.06
600.7	276.06
600.909	265.06
601.118	258.06
601.327	260.06
601.536	260.06
601.745	260.06
601.953	267.06
602.162	267.06
602.371	276.06
602.58	277.06
602.789	247.06
602.997	279.06
603.206	258.06
603.415	269.06
603.623	285.06
603.832	257.06
604.041	266.06
604.249	259.06
604.458	249.06
604.666	266.06
604.875	239.06
605.084	266.06
605.292	253.06
605.501	257.06
605.709	272.06
605.918	277.06
606.126	249.06
606.334	247.06
606.543	259.06
606.751	252.06
606.96	263.06
607.168	261.06
607.376	247.06
607.585	250.06
607.793	270.06
608.001	246.06
608.21	248.06
608.418	251.06
608.626	247.06
608.834	247.06
609.043	254.06
609.251	246.06
609.459	240.06
609.667	274.06
609.875	246.06
610.083	265.06
610.291	265.06
610.499	249.06
610.707	255.06
610.916	261.06
611.124	243.06
611.332	251.06
611.54	261.06
611.748	258.06
611.955	261.06
612.163	256.06
612.371	268.06
612.579	246.06
612.787	230.06
612.995	232.06
613.203	234.06
613.411	230.06
613.618	246.06
613.826	244.06
614.034	239.06
614.242	255.06
614.449	245.06
614.657	215.06
614.865	235.06
615.072	246.06
615.28	248.06
615.488	234.06
615.695	261.06
615.903	252.06
616.111	254.06
616.318	249.06
616.526	263.06
616.733	236.06
616.941	250.06
617.148	233.06
617.356	250.06
617.563	230.06
617.771	245.06
617.978	234.06
618.185	222.06
618.393	242.06
618.6	254.06
618.807	245.06
619.015	241.06
619.222	265.06
619.429	242.06
619.637	250.06
619.844	226.06
620.051	238.06
620.258	246.06
620.466	232.06
620.673	221.06
620.88	234.06
621.087	221.06
621.294	229.06
621.501	226.06
621.708	226.06
621.915	228.06
622.122	237.06
622.329	222.06
622.536	242.06
622.743	228.06
622.95	216.06
623.157	235.06
623.364	242.06
623.571	228.06
623.778	219.06
623.985	214.06
624.192	215.06
624.399	220.06
624.606	234.06
624.812	223.06
625.019	218.06
625.226	223.06
625.433	212.06
625.639	214.06
625.846	231.06
626.053	213.06
626.259	218.06
626.466	204.06
626.673	222.06
626.879	207.06
627.086	205.06
627.293	212.06
627.499	197.06
627.706	219.06
627.912	207.06
628.119	218.06
628.325	213.06
628.532	226.06
628.738	201.06
628.945	211.06
629.151	199.06
629.357	215.06
629.564	202.06
629.77	208.06
629.976	206.06
630.183	196.06
630.389	216.06
630.595	190.06
630.802	206.06
631.008	208.06
631.214	202.06
631.42	192.06
631.627	213.06
631.833	213.06
632.039	191.06
632.245	194.06
632.451	196.06
632.657	189.06
632.863	206.06
633.069	197.06
633.275	204.06
633.481	181.06
633.688	175.06
633.893	201.06
634.099	201.06
634.305	177.06
634.511	196.06
634.717	194.06
634.923	170.06
635.129	188.06
635.335	188.06
635.541	192.06
635.747	184.06
635.952	186.06
636.158	199.06
636.364	192.06
636.57	185.06
636.775	183.06
636.981	200.06
637.187	181.06
637.392	179.06
637.598	171.06
637.804	192.06
638.009	183.06
638.215	189.06
638.421	183.06
638.626	191.06
638.832	193.06
639.037	196.06
639.243	186.06
639.448	194.06
639.654	183.06
639.859	175.06
640.065	187.06
640.27	180.06
640.475	178.06
640.681	186.06
640.886	180.06
641.091	184.06
641.297	180.06
641.502	180.06
641.707	168.06
641.913	167.06
642.118	179.06
642.323	171.06
642.528	185.06
642.733	176.06
642.939	188.06
643.144	201.06
643.349	183.06
643.554	172.06
643.759	173.06
643.964	171.06
644.169	185.06
644.374	168.06
644.579	179.06
644.784	188.06
644.989	158.06
645.194	182.06
645.399	174.06
645.604	156.06
645.809	191.06
646.014	167.06
646.219	159.06
646.423	166.06
646.628	169.06
646.833	166.06
647.038	170.06
647.243	183.06
647.447	185.06
647.652	186.06
647.857	169.06
648.062	174.06
648.266	168.06
648.471	159.06
648.676	176.06
648.88	189.06
649.085	167.06
649.289	177.06
649.494	169.06
649.698	182.06
649.903	199.06
650.107	184.06
650.312	167.06
650.516	178.06
650.721	169.06
650.925	144.06
651.13	157.06
651.334	182.06
651.539	154.06
651.743	137.06
651.947	153.06
652.152	154.06
652.356	155.06
652.56	145.06
652.764	145.06
652.969	163.06
653.173	157.06
653.377	165.06
653.581	153.06
653.785	146.06
653.99	142.06
654.194	151.06
654.398	135.06
654.602	124.06
654.806	129.06
655.01	141.06
655.214	138.06
655.418	134.06
655.622	143.06
655.826	137.06
656.03	153.06
656.234	144.06
656.438	144.06
656.642	161.06
656.846	145.06
657.049	147.06
657.253	130.06
657.457	145.06
657.661	119.06
657.865	123.06
658.068	125.06
658.272	114.06
658.476	103.06
658.68	107.06
658.883	114.06
659.087	89.06
659.291	98.06
659.494	107.06
659.698	107.06
659.901	111.06
660.105	107.06
660.309	95.06
660.512	104.06
660.716	91.06
660.919	92.06
661.123	89.06
661.326	85.06
661.53	94.06
661.733	98.06
661.936	93.06
662.14	88.06
662.343	73.06
662.546	81.06
662.75	81.06
662.953	86.06
663.156	78.06
663.36	87.06
663.563	73.06
663.766	89.06
663.969	84.06
664.173	71.06
664.376	76.06
664.579	85.06
664.782	76.06
664.985	94.06
665.188	103.06
665.391	71.06
665.594	91.06
665.797	94.06
666	79.06
666.203	77.06
666.406	60.06
666.609	69.06
666.812	87.06
667.015	89.06
667.218	81.06
667.421	74.06
667.624	89.06
667.827	101.06
668.03	82.06
668.232	91.06
668.435	76.06
668.638	91.06
668.841	78.06
669.043	84.06
669.246	74.06
669.449	83.06
669.651	85.06
669.854	69.06
670.057	79.06
670.259	73.06
670.462	68.06
670.665	90.06
670.867	96.06
671.07	79.06
671.272	81.06
671.475	81.06
671.677	77.06
671.88	83.06
672.082	80.06
672.284	82.06
672.487	77.06
672.689	89.06
672.892	85.06
