Data from 1976.PennyLincolnUp.Lamp.En5.5.200Scan.071719.P1.Changed Mount._HRD10591_16-01-32-880.txt Node
Date: Thu Jul 18 16:01:32 EDT 2019
User: cochatt
Spectrometer: HR+D1059
Trigger mode: 1
Integration Time (sec): 1.000000E-1
Scans to average: 1
Electric dark correction enabled: true
Nonlinearity correction enabled: false
Boxcar width: 0
XAxis mode: Wavelengths
Number of Pixels in Spectrum: 2048
>>>>>Begin Spectral Data<<<<<
223.165	-20.25
223.4	-20.25
223.635	-20.25
223.869	-32.25
224.104	-31.25
224.338	-2.25
224.573	-5.25
224.808	-8.25
225.042	-9.25
225.277	-11.25
225.511	-7.25
225.746	13.75
225.98	-2.25
226.215	12.75
226.449	13.75
226.683	23.75
226.918	31.75
227.152	33.75
227.387	33.75
227.621	41.75
227.856	49.75
228.09	63.75
228.324	39.75
228.559	58.75
228.793	75.75
229.027	89.75
229.262	106.75
229.496	115.75
229.73	124.75
229.964	151.75
230.199	132.75
230.433	108.75
230.667	115.75
230.901	105.75
231.136	109.75
231.37	109.75
231.604	116.75
231.838	107.75
232.072	108.75
232.306	104.75
232.541	109.75
232.775	111.75
233.009	117.75
233.243	109.75
233.477	121.75
233.711	132.75
233.945	118.75
234.179	126.75
234.413	126.75
234.647	127.75
234.881	124.75
235.115	126.75
235.349	134.75
235.583	126.75
235.817	127.75
236.051	130.75
236.285	131.75
236.519	135.75
236.753	139.75
236.987	142.75
237.221	176.75
237.455	228.75
237.689	190.75
237.922	144.75
238.156	150.75
238.39	132.75
238.624	131.75
238.858	126.75
239.091	137.75
239.325	134.75
239.559	127.75
239.793	129.75
240.027	137.75
240.26	135.75
240.494	160.75
240.728	147.75
240.961	151.75
241.195	150.75
241.429	157.75
241.662	149.75
241.896	141.75
242.13	135.75
242.363	136.75
242.597	143.75
242.83	155.75
243.064	149.75
243.298	147.75
243.531	139.75
243.765	135.75
243.998	145.75
244.232	155.75
244.465	149.75
244.699	157.75
244.932	147.75
245.166	155.75
245.399	153.75
245.633	160.75
245.866	140.75
246.099	150.75
246.333	157.75
246.566	147.75
246.8	155.75
247.033	156.75
247.266	163.75
247.5	171.75
247.733	168.75
247.966	184.75
248.2	186.75
248.433	158.75
248.666	187.75
248.899	198.75
249.133	209.75
249.366	215.75
249.599	202.75
249.832	187.75
250.066	189.75
250.299	202.75
250.532	198.75
250.765	207.75
250.998	229.75
251.231	236.75
251.465	227.75
251.698	223.75
251.931	206.75
252.164	213.75
252.397	208.75
252.63	220.75
252.863	222.75
253.096	222.75
253.329	224.75
253.562	244.75
253.795	233.75
254.028	224.75
254.261	223.75
254.494	237.75
254.727	273.75
254.96	293.75
255.193	270.75
255.426	267.75
255.659	238.75
255.892	229.75
256.124	262.75
256.357	237.75
256.59	252.75
256.823	231.75
257.056	217.75
257.289	233.75
257.521	218.75
257.754	238.75
257.987	236.75
258.22	220.75
258.452	209.75
258.685	219.75
258.918	232.75
259.151	219.75
259.383	246.75
259.616	234.75
259.849	231.75
260.081	245.75
260.314	274.75
260.547	285.75
260.779	252.75
261.012	228.75
261.244	257.75
261.477	244.75
261.71	233.75
261.942	243.75
262.175	237.75
262.407	252.75
262.64	238.75
262.872	229.75
263.105	224.75
263.337	233.75
263.57	228.75
263.802	220.75
264.035	227.75
264.267	223.75
264.499	228.75
264.732	231.75
264.964	231.75
265.197	235.75
265.429	234.75
265.661	240.75
265.894	259.75
266.126	232.75
266.358	239.75
266.591	216.75
266.823	250.75
267.055	253.75
267.287	253.75
267.52	240.75
267.752	237.75
267.984	233.75
268.216	240.75
268.448	251.75
268.681	240.75
268.913	251.75
269.145	265.75
269.377	309.75
269.609	286.75
269.841	288.75
270.073	286.75
270.306	312.75
270.538	336.75
270.77	335.75
271.002	324.75
271.234	311.75
271.466	323.75
271.698	329.75
271.93	333.75
272.162	326.75
272.394	329.75
272.626	321.75
272.858	310.75
273.09	300.75
273.322	307.75
273.553	306.75
273.785	282.75
274.017	287.75
274.249	287.75
274.481	288.75
274.713	281.75
274.945	283.75
275.176	275.75
275.408	293.75
275.64	284.75
275.872	285.75
276.104	290.75
276.335	286.75
276.567	286.75
276.799	311.75
277.031	342.75
277.262	358.75
277.494	353.75
277.726	338.75
277.957	320.75
278.189	295.75
278.421	289.75
278.652	300.75
278.884	318.75
279.115	298.75
279.347	295.75
279.579	296.75
279.81	292.75
280.042	300.75
280.273	281.75
280.505	294.75
280.736	291.75
280.968	279.75
281.199	299.75
281.431	302.75
281.662	293.75
281.894	277.75
282.125	292.75
282.356	312.75
282.588	317.75
282.819	328.75
283.051	308.75
283.282	319.75
283.513	310.75
283.745	307.75
283.976	320.75
284.207	309.75
284.439	337.75
284.67	326.75
284.901	324.75
285.132	301.75
285.364	305.75
285.595	301.75
285.826	304.75
286.057	315.75
286.288	313.75
286.52	304.75
286.751	323.75
286.982	319.75
287.213	316.75
287.444	299.75
287.675	333.75
287.906	320.75
288.138	350.75
288.369	328.75
288.6	318.75
288.831	325.75
289.062	313.75
289.293	342.75
289.524	315.75
289.755	303.75
289.986	319.75
290.217	314.75
290.448	307.75
290.679	347.75
290.91	309.75
291.141	312.75
291.371	333.75
291.602	335.75
291.833	321.75
292.064	303.75
292.295	295.75
292.526	328.75
292.757	324.75
292.987	322.75
293.218	326.75
293.449	329.75
293.68	323.75
293.91	325.75
294.141	317.75
294.372	327.75
294.603	333.75
294.833	331.75
295.064	319.75
295.295	341.75
295.525	348.75
295.756	329.75
295.987	334.75
296.217	344.75
296.448	355.75
296.679	326.75
296.909	325.75
297.14	342.75
297.37	348.75
297.601	352.75
297.831	328.75
298.062	324.75
298.292	345.75
298.523	357.75
298.753	339.75
298.984	323.75
299.214	327.75
299.445	366.75
299.675	339.75
299.905	355.75
300.136	346.75
300.366	360.75
300.597	341.75
300.827	375.75
301.057	354.75
301.288	345.75
301.518	349.75
301.748	368.75
301.979	360.75
302.209	348.75
302.439	363.75
302.669	356.75
302.9	356.75
303.13	368.75
303.36	387.75
303.59	363.75
303.82	352.75
304.051	362.75
304.281	354.75
304.511	365.75
304.741	352.75
304.971	371.75
305.201	356.75
305.431	331.75
305.661	368.75
305.891	377.75
306.121	359.75
306.352	355.75
306.582	388.75
306.812	385.75
307.042	381.75
307.272	372.75
307.502	368.75
307.731	379.75
307.961	364.75
308.191	372.75
308.421	365.75
308.651	362.75
308.881	375.75
309.111	379.75
309.341	373.75
309.571	380.75
309.8	400.75
310.03	389.75
310.26	389.75
310.49	391.75
310.72	397.75
310.949	413.75
311.179	421.75
311.409	404.75
311.639	406.75
311.868	397.75
312.098	393.75
312.328	399.75
312.557	422.75
312.787	409.75
313.017	436.75
313.246	423.75
313.476	410.75
313.706	400.75
313.935	397.75
314.165	416.75
314.394	439.75
314.624	447.75
314.853	411.75
315.083	405.75
315.312	402.75
315.542	402.75
315.771	400.75
316.001	403.75
316.23	396.75
316.46	417.75
316.689	401.75
316.919	414.75
317.148	409.75
317.377	431.75
317.607	441.75
317.836	388.75
318.065	440.75
318.295	389.75
318.524	405.75
318.753	409.75
318.983	416.75
319.212	400.75
319.441	403.75
319.67	409.75
319.9	414.75
320.129	401.75
320.358	405.75
320.587	421.75
320.816	420.75
321.046	416.75
321.275	426.75
321.504	421.75
321.733	431.75
321.962	430.75
322.191	435.75
322.42	423.75
322.649	453.75
322.878	479.75
323.108	484.75
323.337	490.75
323.566	503.75
323.795	522.75
324.024	568.75
324.253	629.75
324.482	917.75
324.71	1415.75
324.939	2020.75
325.168	1790.75
325.397	917.75
325.626	635.75
325.855	517.75
326.084	509.75
326.313	516.75
326.542	501.75
326.77	561.75
326.999	627.75
327.228	827.75
327.457	1242.75
327.686	1515.75
327.914	1033.75
328.143	695.75
328.372	598.75
328.6	570.75
328.829	540.75
329.058	573.75
329.287	595.75
329.515	535.75
329.744	528.75
329.972	517.75
330.201	521.75
330.43	553.75
330.658	582.75
330.887	613.75
331.115	591.75
331.344	528.75
331.572	533.75
331.801	500.75
332.03	527.75
332.258	509.75
332.486	478.75
332.715	493.75
332.943	509.75
333.172	496.75
333.4	527.75
333.629	519.75
333.857	525.75
334.085	526.75
334.314	530.75
334.542	575.75
334.771	580.75
334.999	544.75
335.227	519.75
335.455	503.75
335.684	502.75
335.912	488.75
336.14	481.75
336.369	486.75
336.597	507.75
336.825	505.75
337.053	478.75
337.281	469.75
337.51	471.75
337.738	480.75
337.966	475.75
338.194	482.75
338.422	472.75
338.65	477.75
338.878	468.75
339.106	457.75
339.334	462.75
339.562	469.75
339.79	463.75
340.018	462.75
340.246	469.75
340.474	486.75
340.702	477.75
340.93	488.75
341.158	465.75
341.386	459.75
341.614	444.75
341.842	480.75
342.07	448.75
342.298	442.75
342.526	449.75
342.754	441.75
342.981	449.75
343.209	430.75
343.437	465.75
343.665	456.75
343.893	477.75
344.12	503.75
344.348	475.75
344.576	494.75
344.804	489.75
345.031	478.75
345.259	494.75
345.487	473.75
345.714	478.75
345.942	451.75
346.17	443.75
346.397	449.75
346.625	448.75
346.853	435.75
347.08	436.75
347.308	439.75
347.535	453.75
347.763	464.75
347.99	453.75
348.218	468.75
348.445	448.75
348.673	462.75
348.9	468.75
349.128	457.75
349.355	413.75
349.583	432.75
349.81	431.75
350.037	429.75
350.265	449.75
350.492	451.75
350.72	451.75
350.947	443.75
351.174	444.75
351.402	484.75
351.629	438.75
351.856	447.75
352.083	464.75
352.311	448.75
352.538	459.75
352.765	453.75
352.992	437.75
353.22	443.75
353.447	443.75
353.674	418.75
353.901	450.75
354.128	428.75
354.355	421.75
354.583	416.75
354.81	400.75
355.037	432.75
355.264	411.75
355.491	431.75
355.718	425.75
355.945	416.75
356.172	409.75
356.399	419.75
356.626	408.75
356.853	437.75
357.08	430.75
357.307	415.75
357.534	410.75
357.761	407.75
357.988	417.75
358.215	433.75
358.441	432.75
358.668	423.75
358.895	431.75
359.122	436.75
359.349	452.75
359.576	455.75
359.802	477.75
360.029	479.75
360.256	478.75
360.483	455.75
360.709	469.75
360.936	454.75
361.163	457.75
361.39	457.75
361.616	432.75
361.843	430.75
362.07	435.75
362.296	447.75
362.523	432.75
362.749	439.75
362.976	435.75
363.203	432.75
363.429	429.75
363.656	423.75
363.882	439.75
364.109	456.75
364.335	417.75
364.562	422.75
364.788	433.75
365.015	423.75
365.241	415.75
365.468	428.75
365.694	439.75
365.92	457.75
366.147	426.75
366.373	426.75
366.599	432.75
366.826	416.75
367.052	419.75
367.278	431.75
367.505	403.75
367.731	424.75
367.957	425.75
368.184	424.75
368.41	462.75
368.636	465.75
368.862	456.75
369.089	468.75
369.315	422.75
369.541	440.75
369.767	437.75
369.993	429.75
370.219	430.75
370.445	413.75
370.672	446.75
370.898	429.75
371.124	449.75
371.35	436.75
371.576	443.75
371.802	429.75
372.028	428.75
372.254	436.75
372.48	426.75
372.706	433.75
372.932	445.75
373.158	455.75
373.384	449.75
373.61	442.75
373.835	445.75
374.061	446.75
374.287	434.75
374.513	453.75
374.739	457.75
374.965	446.75
375.191	449.75
375.416	446.75
375.642	450.75
375.868	443.75
376.094	446.75
376.319	440.75
376.545	446.75
376.771	445.75
376.997	437.75
377.222	426.75
377.448	417.75
377.674	426.75
377.899	447.75
378.125	426.75
378.35	438.75
378.576	419.75
378.802	426.75
379.027	425.75
379.253	432.75
379.478	428.75
379.704	428.75
379.929	430.75
380.155	417.75
380.38	433.75
380.606	455.75
380.831	447.75
381.057	443.75
381.282	445.75
381.507	432.75
381.733	452.75
381.958	439.75
382.184	444.75
382.409	443.75
382.634	445.75
382.86	475.75
383.085	455.75
383.31	456.75
383.535	458.75
383.761	453.75
383.986	461.75
384.211	470.75
384.436	461.75
384.662	469.75
384.887	479.75
385.112	469.75
385.337	481.75
385.562	472.75
385.787	493.75
386.013	483.75
386.238	496.75
386.463	491.75
386.688	498.75
386.913	480.75
387.138	467.75
387.363	479.75
387.588	478.75
387.813	476.75
388.038	498.75
388.263	493.75
388.488	478.75
388.713	487.75
388.938	480.75
389.163	493.75
389.387	502.75
389.612	467.75
389.837	476.75
390.062	463.75
390.287	473.75
390.512	505.75
390.736	477.75
390.961	485.75
391.186	499.75
391.411	513.75
391.636	510.75
391.86	495.75
392.085	511.75
392.31	501.75
392.534	513.75
392.759	512.75
392.984	495.75
393.208	490.75
393.433	491.75
393.658	514.75
393.882	485.75
394.107	474.75
394.331	491.75
394.556	501.75
394.78	499.75
395.005	506.75
395.229	496.75
395.454	494.75
395.678	494.75
395.903	526.75
396.127	541.75
396.352	549.75
396.576	509.75
396.801	505.75
397.025	514.75
397.249	537.75
397.474	516.75
397.698	529.75
397.922	538.75
398.147	551.75
398.371	540.75
398.595	545.75
398.82	547.75
399.044	571.75
399.268	608.75
399.492	644.75
399.717	695.75
399.941	717.75
400.165	711.75
400.389	715.75
400.613	647.75
400.837	611.75
401.062	569.75
401.286	574.75
401.51	575.75
401.734	555.75
401.958	584.75
402.182	575.75
402.406	595.75
402.63	588.75
402.854	577.75
403.078	596.75
403.302	589.75
403.526	586.75
403.75	607.75
403.974	598.75
404.198	590.75
404.422	590.75
404.645	598.75
404.869	611.75
405.093	631.75
405.317	645.75
405.541	700.75
405.765	663.75
405.988	621.75
406.212	653.75
406.436	645.75
406.66	651.75
406.883	632.75
407.107	660.75
407.331	682.75
407.555	776.75
407.778	776.75
408.002	693.75
408.226	675.75
408.449	649.75
408.673	645.75
408.896	645.75
409.12	718.75
409.344	684.75
409.567	608.75
409.791	593.75
410.014	580.75
410.238	587.75
410.461	574.75
410.685	601.75
410.908	620.75
411.132	658.75
411.355	675.75
411.578	638.75
411.802	581.75
412.025	596.75
412.249	619.75
412.472	604.75
412.695	657.75
412.919	639.75
413.142	605.75
413.365	584.75
413.589	536.75
413.812	553.75
414.035	560.75
414.258	561.75
414.482	549.75
414.705	558.75
414.928	545.75
415.151	590.75
415.374	560.75
415.597	543.75
415.821	555.75
416.044	585.75
416.267	563.75
416.49	556.75
416.713	541.75
416.936	551.75
417.159	541.75
417.382	551.75
417.605	564.75
417.828	555.75
418.051	560.75
418.274	567.75
418.497	554.75
418.72	579.75
418.943	550.75
419.166	597.75
419.389	607.75
419.611	603.75
419.834	583.75
420.057	590.75
420.28	576.75
420.503	586.75
420.726	591.75
420.948	600.75
421.171	629.75
421.394	667.75
421.617	585.75
421.839	573.75
422.062	590.75
422.285	593.75
422.507	643.75
422.73	729.75
422.953	695.75
423.175	646.75
423.398	609.75
423.621	603.75
423.843	624.75
424.066	637.75
424.288	619.75
424.511	643.75
424.733	676.75
424.956	755.75
425.178	736.75
425.401	729.75
425.623	740.75
425.846	646.75
426.068	624.75
426.291	617.75
426.513	602.75
426.735	609.75
426.958	646.75
427.18	737.75
427.402	849.75
427.625	986.75
427.847	809.75
428.069	703.75
428.292	641.75
428.514	625.75
428.736	576.75
428.958	564.75
429.181	549.75
429.403	567.75
429.625	567.75
429.847	600.75
430.069	677.75
430.292	679.75
430.514	574.75
430.736	569.75
430.958	543.75
431.18	524.75
431.402	511.75
431.624	525.75
431.846	541.75
432.068	535.75
432.29	539.75
432.512	541.75
432.734	544.75
432.956	550.75
433.178	526.75
433.4	544.75
433.622	547.75
433.844	544.75
434.066	544.75
434.287	527.75
434.509	541.75
434.731	566.75
434.953	549.75
435.175	586.75
435.397	616.75
435.618	628.75
435.84	631.75
436.062	737.75
436.284	835.75
436.505	691.75
436.727	629.75
436.949	574.75
437.17	555.75
437.392	537.75
437.614	592.75
437.835	599.75
438.057	691.75
438.278	781.75
438.5	801.75
438.721	883.75
438.943	854.75
439.165	688.75
439.386	607.75
439.608	614.75
439.829	583.75
440.05	632.75
440.272	675.75
440.493	642.75
440.715	593.75
440.936	556.75
441.158	565.75
441.379	584.75
441.6	609.75
441.822	602.75
442.043	647.75
442.264	733.75
442.486	785.75
442.707	663.75
442.928	631.75
443.149	648.75
443.371	656.75
443.592	696.75
443.813	790.75
444.034	863.75
444.255	712.75
444.476	665.75
444.698	643.75
444.919	632.75
445.14	775.75
445.361	692.75
445.582	664.75
445.803	710.75
446.024	829.75
446.245	853.75
446.466	757.75
446.687	662.75
446.908	601.75
447.129	567.75
447.35	550.75
447.571	555.75
447.792	565.75
448.013	537.75
448.234	560.75
448.455	599.75
448.675	750.75
448.896	868.75
449.117	714.75
449.338	671.75
449.559	801.75
449.779	914.75
450	738.75
450.221	589.75
450.442	556.75
450.662	550.75
450.883	530.75
451.104	545.75
451.324	549.75
451.545	532.75
451.766	499.75
451.986	493.75
452.207	477.75
452.428	488.75
452.648	489.75
452.869	488.75
453.089	488.75
453.31	523.75
453.53	523.75
453.751	501.75
453.971	489.75
454.192	511.75
454.412	512.75
454.633	478.75
454.853	503.75
455.073	501.75
455.294	544.75
455.514	579.75
455.734	571.75
455.955	500.75
456.175	479.75
456.395	481.75
456.616	479.75
456.836	491.75
457.056	468.75
457.276	443.75
457.497	480.75
457.717	469.75
457.937	476.75
458.157	469.75
458.377	472.75
458.598	496.75
458.818	549.75
459.038	627.75
459.258	666.75
459.478	573.75
459.698	519.75
459.918	547.75
460.138	533.75
460.358	529.75
460.578	552.75
460.798	542.75
461.018	561.75
461.238	563.75
461.458	569.75
461.678	534.75
461.898	559.75
462.118	559.75
462.338	560.75
462.558	576.75
462.777	581.75
462.997	631.75
463.217	615.75
463.437	639.75
463.657	605.75
463.876	596.75
464.096	591.75
464.316	591.75
464.536	616.75
464.755	613.75
464.975	619.75
465.195	621.75
465.414	643.75
465.634	590.75
465.854	589.75
466.073	538.75
466.293	524.75
466.512	496.75
466.732	501.75
466.951	508.75
467.171	506.75
467.391	537.75
467.61	507.75
467.829	521.75
468.049	511.75
468.268	503.75
468.488	539.75
468.707	492.75
468.927	507.75
469.146	467.75
469.365	513.75
469.585	501.75
469.804	510.75
470.023	520.75
470.243	520.75
470.462	536.75
470.681	540.75
470.901	532.75
471.12	504.75
471.339	515.75
471.558	492.75
471.777	515.75
471.997	496.75
472.216	509.75
472.435	529.75
472.654	545.75
472.873	524.75
473.092	511.75
473.311	509.75
473.53	523.75
473.749	519.75
473.968	559.75
474.187	655.75
474.406	699.75
474.625	599.75
474.844	505.75
475.063	495.75
475.282	508.75
475.501	525.75
475.72	524.75
475.939	540.75
476.158	534.75
476.377	539.75
476.596	540.75
476.814	532.75
477.033	549.75
477.252	544.75
477.471	548.75
477.69	545.75
477.908	539.75
478.127	565.75
478.346	584.75
478.564	600.75
478.783	585.75
479.002	599.75
479.22	595.75
479.439	616.75
479.658	605.75
479.876	615.75
480.095	629.75
480.313	651.75
480.532	638.75
480.751	656.75
480.969	649.75
481.188	687.75
481.406	697.75
481.624	658.75
481.843	614.75
482.061	622.75
482.28	615.75
482.498	584.75
482.717	609.75
482.935	611.75
483.153	592.75
483.372	570.75
483.59	607.75
483.808	596.75
484.027	592.75
484.245	601.75
484.463	591.75
484.681	620.75
484.9	596.75
485.118	619.75
485.336	608.75
485.554	623.75
485.772	611.75
485.99	627.75
486.209	638.75
486.427	602.75
486.645	623.75
486.863	634.75
487.081	658.75
487.299	650.75
487.517	627.75
487.735	619.75
487.953	641.75
488.171	635.75
488.389	635.75
488.607	636.75
488.825	637.75
489.043	670.75
489.261	663.75
489.479	671.75
489.696	650.75
489.914	645.75
490.132	635.75
490.35	677.75
490.568	681.75
490.786	671.75
491.003	698.75
491.221	696.75
491.439	715.75
491.657	714.75
491.874	731.75
492.092	728.75
492.31	723.75
492.527	763.75
492.745	747.75
492.963	742.75
493.18	758.75
493.398	771.75
493.615	744.75
493.833	726.75
494.05	768.75
494.268	779.75
494.485	759.75
494.703	753.75
494.92	767.75
495.138	773.75
495.355	748.75
495.573	764.75
495.79	743.75
496.008	789.75
496.225	774.75
496.442	791.75
496.66	759.75
496.877	785.75
497.094	793.75
497.312	776.75
497.529	821.75
497.746	812.75
497.963	854.75
498.181	836.75
498.398	878.75
498.615	862.75
498.832	885.75
499.049	913.75
499.267	969.75
499.484	993.75
499.701	1016.75
499.918	1068.75
500.135	1112.75
500.352	1191.75
500.569	1240.75
500.786	1229.75
501.003	1203.75
501.22	1151.75
501.437	1095.75
501.654	1028.75
501.871	1022.75
502.088	995.75
502.305	913.75
502.522	906.75
502.739	866.75
502.956	888.75
503.172	838.75
503.389	813.75
503.606	790.75
503.823	805.75
504.04	794.75
504.256	790.75
504.473	770.75
504.69	771.75
504.907	776.75
505.123	759.75
505.34	756.75
505.557	729.75
505.773	743.75
505.99	729.75
506.207	726.75
506.423	695.75
506.64	703.75
506.856	699.75
507.073	707.75
507.289	712.75
507.506	717.75
507.722	695.75
507.939	681.75
508.155	666.75
508.372	657.75
508.588	668.75
508.805	655.75
509.021	656.75
509.238	704.75
509.454	683.75
509.67	693.75
509.887	668.75
510.103	660.75
510.319	662.75
510.536	731.75
510.752	1079.75
510.968	923.75
511.184	681.75
511.401	681.75
511.617	639.75
511.833	613.75
512.049	625.75
512.265	633.75
512.481	652.75
512.698	629.75
512.914	625.75
513.13	621.75
513.346	615.75
513.562	626.75
513.778	629.75
513.994	608.75
514.21	639.75
514.426	656.75
514.642	683.75
514.858	708.75
515.074	743.75
515.29	810.75
515.506	1132.75
515.721	925.75
515.937	715.75
516.153	687.75
516.369	669.75
516.585	663.75
516.801	675.75
517.016	654.75
517.232	679.75
517.448	677.75
517.664	688.75
517.879	699.75
518.095	649.75
518.311	661.75
518.527	669.75
518.742	660.75
518.958	631.75
519.173	643.75
519.389	654.75
519.605	649.75
519.82	635.75
520.036	649.75
520.251	643.75
520.467	653.75
520.682	657.75
520.898	670.75
521.113	692.75
521.329	700.75
521.544	753.75
521.76	911.75
521.975	1368.75
522.19	1347.75
522.406	816.75
522.621	680.75
522.836	639.75
523.052	597.75
523.267	588.75
523.482	595.75
523.698	567.75
523.913	569.75
524.128	581.75
524.343	539.75
524.559	542.75
524.774	529.75
524.989	558.75
525.204	553.75
525.419	554.75
525.634	530.75
525.849	527.75
526.064	548.75
526.28	533.75
526.495	521.75
526.71	533.75
526.925	531.75
527.14	512.75
527.355	552.75
527.57	525.75
527.785	530.75
527.999	535.75
528.214	529.75
528.429	530.75
528.644	518.75
528.859	529.75
529.074	519.75
529.289	524.75
529.503	612.75
529.718	573.75
529.933	564.75
530.148	529.75
530.363	521.75
530.577	509.75
530.792	519.75
531.007	525.75
531.221	516.75
531.436	520.75
531.651	491.75
531.865	513.75
532.08	494.75
532.295	511.75
532.509	500.75
532.724	520.75
532.938	503.75
533.153	498.75
533.367	525.75
533.582	507.75
533.796	533.75
534.011	528.75
534.225	515.75
534.44	480.75
534.654	512.75
534.868	526.75
535.083	483.75
535.297	493.75
535.511	503.75
535.726	509.75
535.94	491.75
536.154	486.75
536.369	509.75
536.583	494.75
536.797	493.75
537.011	483.75
537.225	474.75
537.44	487.75
537.654	482.75
537.868	493.75
538.082	464.75
538.296	460.75
538.51	480.75
538.724	488.75
538.938	488.75
539.153	480.75
539.367	493.75
539.581	471.75
539.795	484.75
540.009	471.75
540.222	484.75
540.436	490.75
540.65	472.75
540.864	473.75
541.078	476.75
541.292	516.75
541.506	481.75
541.72	476.75
541.934	472.75
542.147	485.75
542.361	471.75
542.575	473.75
542.789	476.75
543.002	489.75
543.216	493.75
543.43	485.75
543.644	473.75
543.857	491.75
544.071	474.75
544.285	482.75
544.498	481.75
544.712	475.75
544.925	492.75
545.139	488.75
545.352	487.75
545.566	471.75
545.779	484.75
545.993	466.75
546.206	491.75
546.42	480.75
546.633	488.75
546.847	471.75
547.06	471.75
547.274	471.75
547.487	467.75
547.7	463.75
547.914	477.75
548.127	479.75
548.34	458.75
548.554	462.75
548.767	476.75
548.98	479.75
549.193	455.75
549.407	449.75
549.62	474.75
549.833	479.75
550.046	485.75
550.259	471.75
550.473	468.75
550.686	448.75
550.899	476.75
551.112	480.75
551.325	468.75
551.538	475.75
551.751	457.75
551.964	455.75
552.177	470.75
552.39	456.75
552.603	453.75
552.816	491.75
553.029	475.75
553.242	486.75
553.455	487.75
553.667	509.75
553.88	504.75
554.093	491.75
554.306	489.75
554.519	464.75
554.732	478.75
554.944	486.75
555.157	456.75
555.37	467.75
555.583	458.75
555.795	442.75
556.008	460.75
556.221	432.75
556.433	425.75
556.646	442.75
556.859	416.75
557.071	430.75
557.284	415.75
557.496	419.75
557.709	432.75
557.921	419.75
558.134	429.75
558.346	408.75
558.559	413.75
558.771	397.75
558.984	430.75
559.196	415.75
559.409	403.75
559.621	419.75
559.833	413.75
560.046	408.75
560.258	411.75
560.47	437.75
560.683	405.75
560.895	409.75
561.107	415.75
561.32	409.75
561.532	404.75
561.744	408.75
561.956	414.75
562.168	409.75
562.381	388.75
562.593	411.75
562.805	405.75
563.017	413.75
563.229	432.75
563.441	420.75
563.653	437.75
563.865	405.75
564.077	418.75
564.289	437.75
564.501	451.75
564.713	438.75
564.925	424.75
565.137	439.75
565.349	441.75
565.561	460.75
565.773	489.75
565.985	473.75
566.197	471.75
566.408	465.75
566.62	514.75
566.832	528.75
567.044	529.75
567.255	537.75
567.467	565.75
567.679	568.75
567.891	587.75
568.102	593.75
568.314	575.75
568.526	545.75
568.737	512.75
568.949	507.75
569.161	466.75
569.372	431.75
569.584	447.75
569.795	449.75
570.007	457.75
570.218	462.75
570.43	461.75
570.641	428.75
570.853	423.75
571.064	426.75
571.276	396.75
571.487	392.75
571.698	400.75
571.91	415.75
572.121	410.75
572.333	401.75
572.544	378.75
572.755	365.75
572.966	373.75
573.178	368.75
573.389	356.75
573.6	370.75
573.811	346.75
574.023	361.75
574.234	359.75
574.445	349.75
574.656	366.75
574.867	373.75
575.078	359.75
575.289	375.75
575.501	360.75
575.712	341.75
575.923	352.75
576.134	346.75
576.345	373.75
576.556	328.75
576.767	346.75
576.978	361.75
577.188	364.75
577.399	348.75
577.61	335.75
577.821	350.75
578.032	349.75
578.243	366.75
578.454	539.75
578.665	421.75
578.875	358.75
579.086	331.75
579.297	338.75
579.508	330.75
579.718	345.75
579.929	333.75
580.14	325.75
580.35	343.75
580.561	315.75
580.772	327.75
580.982	329.75
581.193	307.75
581.403	338.75
581.614	335.75
581.825	315.75
582.035	327.75
582.246	330.75
582.456	309.75
582.667	325.75
582.877	334.75
583.087	321.75
583.298	323.75
583.508	302.75
583.719	324.75
583.929	335.75
584.139	311.75
584.35	348.75
584.56	336.75
584.77	301.75
584.981	318.75
585.191	310.75
585.401	320.75
585.611	303.75
585.821	295.75
586.032	326.75
586.242	307.75
586.452	317.75
586.662	326.75
586.872	311.75
587.082	305.75
587.292	298.75
587.502	317.75
587.713	315.75
587.923	301.75
588.133	318.75
588.343	320.75
588.553	303.75
588.762	339.75
588.972	314.75
589.182	320.75
589.392	313.75
589.602	297.75
589.812	304.75
590.022	316.75
590.232	318.75
590.441	310.75
590.651	320.75
590.861	314.75
591.071	330.75
591.281	323.75
591.49	321.75
591.7	337.75
591.91	311.75
592.119	331.75
592.329	325.75
592.539	346.75
592.748	336.75
592.958	335.75
593.167	340.75
593.377	358.75
593.587	354.75
593.796	349.75
594.006	360.75
594.215	342.75
594.424	345.75
594.634	358.75
594.843	337.75
595.053	350.75
595.262	337.75
595.472	321.75
595.681	303.75
595.89	319.75
596.1	294.75
596.309	299.75
596.518	316.75
596.727	289.75
596.937	309.75
597.146	307.75
597.355	300.75
597.564	299.75
597.774	288.75
597.983	292.75
598.192	283.75
598.401	276.75
598.61	291.75
598.819	280.75
599.028	292.75
599.237	278.75
599.446	289.75
599.655	284.75
599.864	280.75
600.073	284.75
600.282	263.75
600.491	251.75
600.7	273.75
600.909	292.75
601.118	278.75
601.327	276.75
601.536	275.75
601.745	281.75
601.953	268.75
602.162	273.75
602.371	281.75
602.58	258.75
602.789	271.75
602.997	259.75
603.206	260.75
603.415	289.75
603.623	252.75
603.832	265.75
604.041	263.75
604.249	258.75
604.458	273.75
604.666	268.75
604.875	274.75
605.084	257.75
605.292	252.75
605.501	256.75
605.709	279.75
605.918	262.75
606.126	264.75
606.334	248.75
606.543	256.75
606.751	252.75
606.96	270.75
607.168	271.75
607.376	261.75
607.585	268.75
607.793	244.75
608.001	271.75
608.21	259.75
608.418	249.75
608.626	259.75
608.834	267.75
609.043	258.75
609.251	270.75
609.459	243.75
609.667	248.75
609.875	273.75
610.083	271.75
610.291	276.75
610.499	262.75
610.707	259.75
610.916	236.75
611.124	276.75
611.332	255.75
611.54	273.75
611.748	265.75
611.955	238.75
612.163	249.75
612.371	271.75
612.579	273.75
612.787	267.75
612.995	264.75
613.203	264.75
613.411	269.75
613.618	246.75
613.826	253.75
614.034	234.75
614.242	261.75
614.449	261.75
614.657	264.75
614.865	255.75
615.072	254.75
615.28	261.75
615.488	245.75
615.695	262.75
615.903	255.75
616.111	251.75
616.318	248.75
616.526	241.75
616.733	259.75
616.941	263.75
617.148	249.75
617.356	259.75
617.563	247.75
617.771	235.75
617.978	236.75
618.185	254.75
618.393	247.75
618.6	240.75
618.807	255.75
619.015	248.75
619.222	253.75
619.429	241.75
619.637	236.75
619.844	258.75
620.051	247.75
620.258	230.75
620.466	230.75
620.673	247.75
620.88	230.75
621.087	229.75
621.294	237.75
621.501	263.75
621.708	238.75
621.915	228.75
622.122	232.75
622.329	234.75
622.536	235.75
622.743	232.75
622.95	233.75
623.157	236.75
623.364	230.75
623.571	240.75
623.778	246.75
623.985	225.75
624.192	233.75
624.399	247.75
624.606	243.75
624.812	229.75
625.019	229.75
625.226	216.75
625.433	236.75
625.639	221.75
625.846	242.75
626.053	226.75
626.259	227.75
626.466	222.75
626.673	226.75
626.879	219.75
627.086	217.75
627.293	243.75
627.499	227.75
627.706	213.75
627.912	219.75
628.119	218.75
628.325	212.75
628.532	223.75
628.738	217.75
628.945	212.75
629.151	213.75
629.357	199.75
629.564	206.75
629.77	214.75
629.976	221.75
630.183	201.75
630.389	209.75
630.595	216.75
630.802	215.75
631.008	226.75
631.214	199.75
631.42	217.75
631.627	204.75
631.833	209.75
632.039	204.75
632.245	204.75
632.451	213.75
632.657	215.75
632.863	212.75
633.069	198.75
633.275	196.75
633.481	190.75
633.688	201.75
633.893	211.75
634.099	199.75
634.305	186.75
634.511	202.75
634.717	194.75
634.923	195.75
635.129	201.75
635.335	190.75
635.541	184.75
635.747	204.75
635.952	196.75
636.158	202.75
636.364	204.75
636.57	209.75
636.775	208.75
636.981	187.75
637.187	202.75
637.392	188.75
637.598	188.75
637.804	198.75
638.009	188.75
638.215	195.75
638.421	183.75
638.626	198.75
638.832	183.75
639.037	179.75
639.243	170.75
639.448	170.75
639.654	176.75
639.859	173.75
640.065	183.75
640.27	181.75
640.475	179.75
640.681	196.75
640.886	195.75
641.091	184.75
641.297	171.75
641.502	179.75
641.707	174.75
641.913	166.75
642.118	177.75
642.323	184.75
642.528	183.75
642.733	185.75
642.939	188.75
643.144	171.75
643.349	175.75
643.554	182.75
643.759	183.75
643.964	173.75
644.169	185.75
644.374	169.75
644.579	168.75
644.784	179.75
644.989	208.75
645.194	174.75
645.399	177.75
645.604	184.75
645.809	180.75
646.014	176.75
646.219	159.75
646.423	166.75
646.628	170.75
646.833	179.75
647.038	184.75
647.243	186.75
647.447	183.75
647.652	165.75
647.857	177.75
648.062	179.75
648.266	174.75
648.471	186.75
648.676	179.75
648.88	195.75
649.085	164.75
649.289	184.75
649.494	173.75
649.698	208.75
649.903	179.75
650.107	179.75
650.312	189.75
650.516	171.75
650.721	176.75
650.925	153.75
651.13	169.75
651.334	164.75
651.539	161.75
651.743	163.75
651.947	142.75
652.152	161.75
652.356	161.75
652.56	154.75
652.764	164.75
652.969	149.75
653.173	143.75
653.377	149.75
653.581	150.75
653.785	157.75
653.99	144.75
654.194	149.75
654.398	151.75
654.602	138.75
654.806	144.75
655.01	160.75
655.214	160.75
655.418	148.75
655.622	141.75
655.826	141.75
656.03	151.75
656.234	151.75
656.438	143.75
656.642	149.75
656.846	142.75
657.049	133.75
657.253	132.75
657.457	139.75
657.661	132.75
657.865	136.75
658.068	132.75
658.272	113.75
658.476	117.75
658.68	113.75
658.883	100.75
659.087	126.75
659.291	104.75
659.494	88.75
659.698	102.75
659.901	86.75
660.105	98.75
660.309	101.75
660.512	107.75
660.716	92.75
660.919	97.75
661.123	105.75
661.326	102.75
661.53	101.75
661.733	85.75
661.936	93.75
662.14	102.75
662.343	91.75
662.546	72.75
662.75	74.75
662.953	88.75
663.156	94.75
663.36	91.75
663.563	68.75
663.766	86.75
663.969	92.75
664.173	97.75
664.376	87.75
664.579	81.75
664.782	76.75
664.985	90.75
665.188	81.75
665.391	89.75
665.594	92.75
665.797	85.75
666	88.75
666.203	89.75
666.406	80.75
666.609	77.75
666.812	77.75
667.015	93.75
667.218	88.75
667.421	78.75
667.624	76.75
667.827	75.75
668.03	82.75
668.232	81.75
668.435	106.75
668.638	80.75
668.841	89.75
669.043	86.75
669.246	73.75
669.449	80.75
669.651	94.75
669.854	77.75
670.057	77.75
670.259	84.75
670.462	88.75
670.665	95.75
670.867	75.75
671.07	91.75
671.272	89.75
671.475	95.75
671.677	87.75
671.88	76.75
672.082	85.75
672.284	74.75
672.487	81.75
672.689	75.75
672.892	82.75
