Data from 1976.PennyLincolnUp.Lamp.En5.5.200Scan.071719.P1.Changed Mount._HRD10591_15-59-31-860.txt Node
Date: Thu Jul 18 15:59:31 EDT 2019
User: cochatt
Spectrometer: HR+D1059
Trigger mode: 1
Integration Time (sec): 1.000000E-1
Scans to average: 1
Electric dark correction enabled: true
Nonlinearity correction enabled: false
Boxcar width: 0
XAxis mode: Wavelengths
Number of Pixels in Spectrum: 2048
>>>>>Begin Spectral Data<<<<<
223.165	-9.62
223.4	-9.62
223.635	-9.62
223.869	-20.62
224.104	-8.62
224.338	-8.62
224.573	-7.62
224.808	-13.62
225.042	-2.62
225.277	-4.62
225.511	-6.62
225.746	7.38
225.98	3.38
226.215	5.38
226.449	10.38
226.683	9.38
226.918	9.38
227.152	37.38
227.387	35.38
227.621	38.38
227.856	43.38
228.09	46.38
228.324	40.38
228.559	57.38
228.793	53.38
229.027	80.38
229.262	103.38
229.496	90.38
229.73	115.38
229.964	147.38
230.199	126.38
230.433	89.38
230.667	109.38
230.901	117.38
231.136	106.38
231.37	91.38
231.604	98.38
231.838	98.38
232.072	108.38
232.306	111.38
232.541	111.38
232.775	105.38
233.009	116.38
233.243	115.38
233.477	118.38
233.711	122.38
233.945	105.38
234.179	101.38
234.413	109.38
234.647	102.38
234.881	104.38
235.115	115.38
235.349	115.38
235.583	118.38
235.817	123.38
236.051	107.38
236.285	104.38
236.519	117.38
236.753	115.38
236.987	131.38
237.221	137.38
237.455	202.38
237.689	164.38
237.922	130.38
238.156	126.38
238.39	121.38
238.624	114.38
238.858	109.38
239.091	125.38
239.325	135.38
239.559	117.38
239.793	126.38
240.027	124.38
240.26	127.38
240.494	137.38
240.728	140.38
240.961	138.38
241.195	144.38
241.429	143.38
241.662	134.38
241.896	126.38
242.13	134.38
242.363	123.38
242.597	122.38
242.83	106.38
243.064	122.38
243.298	132.38
243.531	141.38
243.765	147.38
243.998	146.38
244.232	137.38
244.465	149.38
244.699	143.38
244.932	131.38
245.166	139.38
245.399	156.38
245.633	148.38
245.866	130.38
246.099	128.38
246.333	148.38
246.566	134.38
246.8	133.38
247.033	150.38
247.266	138.38
247.5	165.38
247.733	157.38
247.966	163.38
248.2	155.38
248.433	179.38
248.666	156.38
248.899	183.38
249.133	177.38
249.366	175.38
249.599	174.38
249.832	169.38
250.066	171.38
250.299	167.38
250.532	169.38
250.765	184.38
250.998	221.38
251.231	209.38
251.465	179.38
251.698	183.38
251.931	174.38
252.164	170.38
252.397	171.38
252.63	172.38
252.863	183.38
253.096	198.38
253.329	215.38
253.562	200.38
253.795	178.38
254.028	178.38
254.261	185.38
254.494	202.38
254.727	209.38
254.96	229.38
255.193	236.38
255.426	220.38
255.659	202.38
255.892	211.38
256.124	194.38
256.357	208.38
256.59	224.38
256.823	193.38
257.056	189.38
257.289	194.38
257.521	185.38
257.754	188.38
257.987	199.38
258.22	200.38
258.452	192.38
258.685	193.38
258.918	179.38
259.151	190.38
259.383	211.38
259.616	195.38
259.849	213.38
260.081	207.38
260.314	205.38
260.547	241.38
260.779	212.38
261.012	214.38
261.244	213.38
261.477	211.38
261.71	190.38
261.942	198.38
262.175	198.38
262.407	210.38
262.64	209.38
262.872	197.38
263.105	204.38
263.337	196.38
263.57	195.38
263.802	194.38
264.035	195.38
264.267	188.38
264.499	196.38
264.732	192.38
264.964	207.38
265.197	201.38
265.429	191.38
265.661	195.38
265.894	204.38
266.126	201.38
266.358	193.38
266.591	213.38
266.823	210.38
267.055	189.38
267.287	229.38
267.52	229.38
267.752	227.38
267.984	221.38
268.216	202.38
268.448	223.38
268.681	217.38
268.913	222.38
269.145	245.38
269.377	261.38
269.609	245.38
269.841	265.38
270.073	245.38
270.306	243.38
270.538	289.38
270.77	265.38
271.002	275.38
271.234	250.38
271.466	271.38
271.698	282.38
271.93	275.38
272.162	267.38
272.394	286.38
272.626	283.38
272.858	265.38
273.09	264.38
273.322	264.38
273.553	256.38
273.785	246.38
274.017	244.38
274.249	231.38
274.481	242.38
274.713	253.38
274.945	254.38
275.176	247.38
275.408	262.38
275.64	251.38
275.872	257.38
276.104	265.38
276.335	247.38
276.567	243.38
276.799	270.38
277.031	286.38
277.262	299.38
277.494	277.38
277.726	265.38
277.957	269.38
278.189	254.38
278.421	269.38
278.652	234.38
278.884	252.38
279.115	248.38
279.347	246.38
279.579	261.38
279.81	265.38
280.042	243.38
280.273	242.38
280.505	244.38
280.736	255.38
280.968	261.38
281.199	272.38
281.431	259.38
281.662	250.38
281.894	257.38
282.125	281.38
282.356	276.38
282.588	277.38
282.819	289.38
283.051	279.38
283.282	252.38
283.513	270.38
283.745	259.38
283.976	265.38
284.207	268.38
284.439	274.38
284.67	257.38
284.901	262.38
285.132	286.38
285.364	262.38
285.595	284.38
285.826	270.38
286.057	258.38
286.288	272.38
286.52	290.38
286.751	288.38
286.982	281.38
287.213	268.38
287.444	267.38
287.675	282.38
287.906	285.38
288.138	285.38
288.369	303.38
288.6	290.38
288.831	283.38
289.062	295.38
289.293	270.38
289.524	281.38
289.755	290.38
289.986	281.38
290.217	279.38
290.448	285.38
290.679	282.38
290.91	277.38
291.141	276.38
291.371	279.38
291.602	278.38
291.833	279.38
292.064	270.38
292.295	295.38
292.526	286.38
292.757	281.38
292.987	293.38
293.218	295.38
293.449	279.38
293.68	282.38
293.91	286.38
294.141	302.38
294.372	294.38
294.603	291.38
294.833	294.38
295.064	296.38
295.295	307.38
295.525	285.38
295.756	285.38
295.987	290.38
296.217	293.38
296.448	294.38
296.679	302.38
296.909	293.38
297.14	302.38
297.37	298.38
297.601	280.38
297.831	318.38
298.062	296.38
298.292	295.38
298.523	311.38
298.753	302.38
298.984	293.38
299.214	306.38
299.445	301.38
299.675	273.38
299.905	300.38
300.136	293.38
300.366	312.38
300.597	321.38
300.827	305.38
301.057	302.38
301.288	309.38
301.518	291.38
301.748	318.38
301.979	302.38
302.209	325.38
302.439	305.38
302.669	302.38
302.9	319.38
303.13	311.38
303.36	334.38
303.59	322.38
303.82	319.38
304.051	330.38
304.281	323.38
304.511	307.38
304.741	302.38
304.971	325.38
305.201	321.38
305.431	307.38
305.661	337.38
305.891	324.38
306.121	329.38
306.352	318.38
306.582	327.38
306.812	307.38
307.042	309.38
307.272	302.38
307.502	328.38
307.731	330.38
307.961	331.38
308.191	335.38
308.421	319.38
308.651	306.38
308.881	332.38
309.111	318.38
309.341	310.38
309.571	314.38
309.8	323.38
310.03	352.38
310.26	336.38
310.49	334.38
310.72	344.38
310.949	336.38
311.179	356.38
311.409	342.38
311.639	342.38
311.868	344.38
312.098	343.38
312.328	340.38
312.557	355.38
312.787	352.38
313.017	374.38
313.246	350.38
313.476	346.38
313.706	334.38
313.935	348.38
314.165	350.38
314.394	374.38
314.624	341.38
314.853	367.38
315.083	339.38
315.312	356.38
315.542	352.38
315.771	345.38
316.001	343.38
316.23	346.38
316.46	356.38
316.689	367.38
316.919	345.38
317.148	340.38
317.377	364.38
317.607	334.38
317.836	357.38
318.065	359.38
318.295	338.38
318.524	333.38
318.753	356.38
318.983	350.38
319.212	369.38
319.441	347.38
319.67	356.38
319.9	349.38
320.129	352.38
320.358	347.38
320.587	345.38
320.816	354.38
321.046	366.38
321.275	369.38
321.504	371.38
321.733	366.38
321.962	374.38
322.191	385.38
322.42	381.38
322.649	378.38
322.878	394.38
323.108	398.38
323.337	414.38
323.566	403.38
323.795	418.38
324.024	443.38
324.253	483.38
324.482	678.38
324.71	1037.38
324.939	1473.38
325.168	1293.38
325.397	656.38
325.626	462.38
325.855	406.38
326.084	399.38
326.313	425.38
326.542	418.38
326.77	439.38
326.999	503.38
327.228	646.38
327.457	906.38
327.686	1106.38
327.914	734.38
328.143	538.38
328.372	479.38
328.6	469.38
328.829	439.38
329.058	438.38
329.287	454.38
329.515	440.38
329.744	420.38
329.972	419.38
330.201	422.38
330.43	442.38
330.658	453.38
330.887	481.38
331.115	485.38
331.344	473.38
331.572	412.38
331.801	428.38
332.03	420.38
332.258	425.38
332.486	421.38
332.715	422.38
332.943	409.38
333.172	431.38
333.4	422.38
333.629	419.38
333.857	447.38
334.085	442.38
334.314	430.38
334.542	465.38
334.771	476.38
334.999	466.38
335.227	429.38
335.455	442.38
335.684	433.38
335.912	430.38
336.14	415.38
336.369	433.38
336.597	419.38
336.825	422.38
337.053	416.38
337.281	410.38
337.51	411.38
337.738	425.38
337.966	419.38
338.194	418.38
338.422	412.38
338.65	418.38
338.878	417.38
339.106	415.38
339.334	407.38
339.562	407.38
339.79	391.38
340.018	403.38
340.246	383.38
340.474	398.38
340.702	407.38
340.93	409.38
341.158	383.38
341.386	403.38
341.614	388.38
341.842	405.38
342.07	399.38
342.298	403.38
342.526	372.38
342.754	397.38
342.981	389.38
343.209	400.38
343.437	396.38
343.665	424.38
343.893	421.38
344.12	449.38
344.348	410.38
344.576	425.38
344.804	396.38
345.031	426.38
345.259	405.38
345.487	410.38
345.714	389.38
345.942	375.38
346.17	382.38
346.397	378.38
346.625	390.38
346.853	389.38
347.08	369.38
347.308	386.38
347.535	389.38
347.763	398.38
347.99	372.38
348.218	367.38
348.445	397.38
348.673	382.38
348.9	391.38
349.128	381.38
349.355	364.38
349.583	392.38
349.81	373.38
350.037	371.38
350.265	364.38
350.492	371.38
350.72	385.38
350.947	377.38
351.174	381.38
351.402	402.38
351.629	389.38
351.856	375.38
352.083	379.38
352.311	390.38
352.538	372.38
352.765	394.38
352.992	376.38
353.22	374.38
353.447	371.38
353.674	371.38
353.901	366.38
354.128	376.38
354.355	369.38
354.583	374.38
354.81	361.38
355.037	358.38
355.264	364.38
355.491	353.38
355.718	359.38
355.945	364.38
356.172	360.38
356.399	374.38
356.626	364.38
356.853	373.38
357.08	357.38
357.307	361.38
357.534	366.38
357.761	365.38
357.988	364.38
358.215	371.38
358.441	371.38
358.668	360.38
358.895	381.38
359.122	377.38
359.349	369.38
359.576	386.38
359.802	387.38
360.029	378.38
360.256	407.38
360.483	390.38
360.709	377.38
360.936	385.38
361.163	375.38
361.39	388.38
361.616	381.38
361.843	374.38
362.07	377.38
362.296	392.38
362.523	381.38
362.749	359.38
362.976	369.38
363.203	362.38
363.429	375.38
363.656	381.38
363.882	372.38
364.109	383.38
364.335	365.38
364.562	371.38
364.788	373.38
365.015	362.38
365.241	389.38
365.468	361.38
365.694	393.38
365.92	376.38
366.147	370.38
366.373	373.38
366.599	373.38
366.826	361.38
367.052	361.38
367.278	382.38
367.505	371.38
367.731	382.38
367.957	372.38
368.184	379.38
368.41	371.38
368.636	394.38
368.862	385.38
369.089	381.38
369.315	371.38
369.541	367.38
369.767	383.38
369.993	391.38
370.219	365.38
370.445	393.38
370.672	382.38
370.898	388.38
371.124	378.38
371.35	387.38
371.576	372.38
371.802	390.38
372.028	376.38
372.254	382.38
372.48	382.38
372.706	391.38
372.932	366.38
373.158	378.38
373.384	386.38
373.61	412.38
373.835	379.38
374.061	393.38
374.287	379.38
374.513	383.38
374.739	393.38
374.965	385.38
375.191	388.38
375.416	412.38
375.642	376.38
375.868	375.38
376.094	391.38
376.319	373.38
376.545	369.38
376.771	388.38
376.997	387.38
377.222	379.38
377.448	385.38
377.674	402.38
377.899	370.38
378.125	374.38
378.35	394.38
378.576	390.38
378.802	370.38
379.027	387.38
379.253	372.38
379.478	397.38
379.704	379.38
379.929	382.38
380.155	389.38
380.38	382.38
380.606	403.38
380.831	385.38
381.057	375.38
381.282	393.38
381.507	385.38
381.733	394.38
381.958	391.38
382.184	402.38
382.409	389.38
382.634	395.38
382.86	402.38
383.085	401.38
383.31	392.38
383.535	402.38
383.761	426.38
383.986	431.38
384.211	431.38
384.436	414.38
384.662	404.38
384.887	434.38
385.112	426.38
385.337	411.38
385.562	428.38
385.787	421.38
386.013	443.38
386.238	449.38
386.463	442.38
386.688	450.38
386.913	430.38
387.138	414.38
387.363	447.38
387.588	425.38
387.813	445.38
388.038	422.38
388.263	441.38
388.488	438.38
388.713	430.38
388.938	440.38
389.163	425.38
389.387	444.38
389.612	418.38
389.837	422.38
390.062	404.38
390.287	411.38
390.512	421.38
390.736	415.38
390.961	417.38
391.186	427.38
391.411	433.38
391.636	450.38
391.86	434.38
392.085	469.38
392.31	455.38
392.534	443.38
392.759	426.38
392.984	433.38
393.208	438.38
393.433	433.38
393.658	436.38
393.882	424.38
394.107	449.38
394.331	423.38
394.556	445.38
394.78	463.38
395.005	435.38
395.229	443.38
395.454	438.38
395.678	462.38
395.903	443.38
396.127	493.38
396.352	473.38
396.576	454.38
396.801	446.38
397.025	449.38
397.249	470.38
397.474	461.38
397.698	461.38
397.922	470.38
398.147	475.38
398.371	467.38
398.595	465.38
398.82	493.38
399.044	513.38
399.268	526.38
399.492	544.38
399.717	599.38
399.941	618.38
400.165	653.38
400.389	631.38
400.613	590.38
400.837	527.38
401.062	484.38
401.286	519.38
401.51	490.38
401.734	491.38
401.958	499.38
402.182	518.38
402.406	508.38
402.63	491.38
402.854	527.38
403.078	497.38
403.302	507.38
403.526	539.38
403.75	512.38
403.974	562.38
404.198	528.38
404.422	533.38
404.645	536.38
404.869	517.38
405.093	543.38
405.317	588.38
405.541	607.38
405.765	559.38
405.988	542.38
406.212	565.38
406.436	545.38
406.66	567.38
406.883	537.38
407.107	538.38
407.331	623.38
407.555	658.38
407.778	664.38
408.002	609.38
408.226	587.38
408.449	563.38
408.673	562.38
408.896	581.38
409.12	622.38
409.344	609.38
409.567	552.38
409.791	524.38
410.014	518.38
410.238	533.38
410.461	527.38
410.685	533.38
410.908	554.38
411.132	550.38
411.355	589.38
411.578	543.38
411.802	518.38
412.025	511.38
412.249	497.38
412.472	535.38
412.695	572.38
412.919	528.38
413.142	531.38
413.365	518.38
413.589	509.38
413.812	487.38
414.035	481.38
414.258	490.38
414.482	493.38
414.705	499.38
414.928	501.38
415.151	493.38
415.374	485.38
415.597	498.38
415.821	489.38
416.044	497.38
416.267	495.38
416.49	491.38
416.713	473.38
416.936	477.38
417.159	477.38
417.382	500.38
417.605	482.38
417.828	501.38
418.051	505.38
418.274	478.38
418.497	476.38
418.72	486.38
418.943	492.38
419.166	500.38
419.389	541.38
419.611	514.38
419.834	525.38
420.057	519.38
420.28	523.38
420.503	496.38
420.726	485.38
420.948	505.38
421.171	526.38
421.394	559.38
421.617	533.38
421.839	502.38
422.062	483.38
422.285	513.38
422.507	543.38
422.73	620.38
422.953	611.38
423.175	541.38
423.398	519.38
423.621	531.38
423.843	527.38
424.066	541.38
424.288	554.38
424.511	558.38
424.733	582.38
424.956	660.38
425.178	636.38
425.401	625.38
425.623	643.38
425.846	579.38
426.068	527.38
426.291	502.38
426.513	518.38
426.735	514.38
426.958	540.38
427.18	629.38
427.402	750.38
427.625	803.38
427.847	668.38
428.069	569.38
428.292	545.38
428.514	485.38
428.736	502.38
428.958	501.38
429.181	478.38
429.403	464.38
429.625	490.38
429.847	509.38
430.069	560.38
430.292	568.38
430.514	495.38
430.736	457.38
430.958	471.38
431.18	450.38
431.402	470.38
431.624	467.38
431.846	437.38
432.068	459.38
432.29	490.38
432.512	471.38
432.734	454.38
432.956	473.38
433.178	455.38
433.4	470.38
433.622	462.38
433.844	462.38
434.066	490.38
434.287	461.38
434.509	487.38
434.731	508.38
434.953	468.38
435.175	484.38
435.397	538.38
435.618	534.38
435.84	559.38
436.062	626.38
436.284	695.38
436.505	586.38
436.727	513.38
436.949	497.38
437.17	498.38
437.392	467.38
437.614	506.38
437.835	490.38
438.057	563.38
438.278	663.38
438.5	661.38
438.721	700.38
438.943	735.38
439.165	576.38
439.386	508.38
439.608	528.38
439.829	518.38
440.05	549.38
440.272	563.38
440.493	527.38
440.715	528.38
440.936	510.38
441.158	482.38
441.379	479.38
441.6	501.38
441.822	500.38
442.043	562.38
442.264	627.38
442.486	647.38
442.707	547.38
442.928	514.38
443.149	534.38
443.371	548.38
443.592	596.38
443.813	664.38
444.034	706.38
444.255	594.38
444.476	573.38
444.698	545.38
444.919	547.38
445.14	666.38
445.361	592.38
445.582	575.38
445.803	608.38
446.024	654.38
446.245	691.38
446.466	635.38
446.687	554.38
446.908	499.38
447.129	499.38
447.35	511.38
447.571	497.38
447.792	454.38
448.013	488.38
448.234	507.38
448.455	528.38
448.675	627.38
448.896	719.38
449.117	605.38
449.338	540.38
449.559	662.38
449.779	760.38
450	611.38
450.221	517.38
450.442	497.38
450.662	467.38
450.883	458.38
451.104	453.38
451.324	448.38
451.545	473.38
451.766	412.38
451.986	436.38
452.207	435.38
452.428	428.38
452.648	429.38
452.869	453.38
453.089	431.38
453.31	433.38
453.53	419.38
453.751	445.38
453.971	430.38
454.192	435.38
454.412	419.38
454.633	421.38
454.853	425.38
455.073	403.38
455.294	436.38
455.514	483.38
455.734	493.38
455.955	442.38
456.175	403.38
456.395	400.38
456.616	406.38
456.836	408.38
457.056	425.38
457.276	400.38
457.497	418.38
457.717	432.38
457.937	403.38
458.157	411.38
458.377	423.38
458.598	421.38
458.818	474.38
459.038	528.38
459.258	562.38
459.478	482.38
459.698	485.38
459.918	463.38
460.138	486.38
460.358	499.38
460.578	477.38
460.798	495.38
461.018	499.38
461.238	489.38
461.458	502.38
461.678	488.38
461.898	518.38
462.118	521.38
462.338	525.38
462.558	519.38
462.777	513.38
462.997	547.38
463.217	576.38
463.437	561.38
463.657	546.38
463.876	552.38
464.096	535.38
464.316	543.38
464.536	551.38
464.755	526.38
464.975	533.38
465.195	519.38
465.414	545.38
465.634	517.38
465.854	471.38
466.073	493.38
466.293	463.38
466.512	456.38
466.732	467.38
466.951	473.38
467.171	454.38
467.391	454.38
467.61	458.38
467.829	444.38
468.049	445.38
468.268	439.38
468.488	456.38
468.707	432.38
468.927	436.38
469.146	442.38
469.365	439.38
469.585	454.38
469.804	442.38
470.023	461.38
470.243	466.38
470.462	460.38
470.681	468.38
470.901	464.38
471.12	456.38
471.339	455.38
471.558	440.38
471.777	460.38
471.997	433.38
472.216	454.38
472.435	455.38
472.654	454.38
472.873	447.38
473.092	423.38
473.311	450.38
473.53	450.38
473.749	440.38
473.968	483.38
474.187	543.38
474.406	575.38
474.625	485.38
474.844	476.38
475.063	461.38
475.282	437.38
475.501	443.38
475.72	426.38
475.939	473.38
476.158	460.38
476.377	469.38
476.596	454.38
476.814	475.38
477.033	480.38
477.252	482.38
477.471	481.38
477.69	482.38
477.908	496.38
478.127	511.38
478.346	488.38
478.564	532.38
478.783	511.38
479.002	532.38
479.22	551.38
479.439	534.38
479.658	545.38
479.876	542.38
480.095	533.38
480.313	557.38
480.532	574.38
480.751	579.38
480.969	559.38
481.188	567.38
481.406	581.38
481.624	524.38
481.843	537.38
482.061	541.38
482.28	550.38
482.498	508.38
482.717	534.38
482.935	540.38
483.153	532.38
483.372	517.38
483.59	530.38
483.808	549.38
484.027	507.38
484.245	506.38
484.463	535.38
484.681	534.38
484.9	539.38
485.118	547.38
485.336	521.38
485.554	525.38
485.772	543.38
485.99	558.38
486.209	540.38
486.427	583.38
486.645	554.38
486.863	553.38
487.081	562.38
487.299	542.38
487.517	553.38
487.735	569.38
487.953	545.38
488.171	554.38
488.389	576.38
488.607	573.38
488.825	566.38
489.043	566.38
489.261	547.38
489.479	568.38
489.696	571.38
489.914	548.38
490.132	593.38
490.35	582.38
490.568	607.38
490.786	586.38
491.003	609.38
491.221	587.38
491.439	622.38
491.657	629.38
491.874	635.38
492.092	625.38
492.31	619.38
492.527	634.38
492.745	615.38
492.963	637.38
493.18	625.38
493.398	610.38
493.615	641.38
493.833	669.38
494.05	645.38
494.268	655.38
494.485	630.38
494.703	651.38
494.92	649.38
495.138	673.38
495.355	639.38
495.573	654.38
495.79	662.38
496.008	674.38
496.225	667.38
496.442	678.38
496.66	655.38
496.877	651.38
497.094	655.38
497.312	683.38
497.529	697.38
497.746	685.38
497.963	694.38
498.181	710.38
498.398	754.38
498.615	776.38
498.832	773.38
499.049	809.38
499.267	837.38
499.484	857.38
499.701	917.38
499.918	929.38
500.135	1013.38
500.352	1085.38
500.569	1100.38
500.786	1092.38
501.003	1081.38
501.22	1025.38
501.437	1002.38
501.654	912.38
501.871	871.38
502.088	859.38
502.305	813.38
502.522	799.38
502.739	767.38
502.956	741.38
503.172	745.38
503.389	696.38
503.606	699.38
503.823	686.38
504.04	677.38
504.256	701.38
504.473	689.38
504.69	677.38
504.907	693.38
505.123	675.38
505.34	641.38
505.557	627.38
505.773	644.38
505.99	639.38
506.207	620.38
506.423	609.38
506.64	588.38
506.856	590.38
507.073	599.38
507.289	605.38
507.506	590.38
507.722	615.38
507.939	590.38
508.155	590.38
508.372	564.38
508.588	551.38
508.805	585.38
509.021	557.38
509.238	586.38
509.454	588.38
509.67	589.38
509.887	583.38
510.103	563.38
510.319	554.38
510.536	600.38
510.752	819.38
510.968	706.38
511.184	558.38
511.401	561.38
511.617	543.38
511.833	533.38
512.049	529.38
512.265	540.38
512.481	536.38
512.698	540.38
512.914	528.38
513.13	527.38
513.346	533.38
513.562	542.38
513.778	544.38
513.994	529.38
514.21	531.38
514.426	552.38
514.642	550.38
514.858	559.38
515.074	600.38
515.29	655.38
515.506	798.38
515.721	706.38
515.937	605.38
516.153	584.38
516.369	590.38
516.585	543.38
516.801	558.38
517.016	564.38
517.232	576.38
517.448	588.38
517.664	623.38
517.879	617.38
518.095	626.38
518.311	593.38
518.527	592.38
518.742	565.38
518.958	566.38
519.173	559.38
519.389	577.38
519.605	552.38
519.82	538.38
520.036	545.38
520.251	538.38
520.467	541.38
520.682	552.38
520.898	558.38
521.113	547.38
521.329	563.38
521.544	583.38
521.76	673.38
521.975	959.38
522.19	920.38
522.406	637.38
522.621	572.38
522.836	527.38
523.052	522.38
523.267	508.38
523.482	509.38
523.698	493.38
523.913	488.38
524.128	493.38
524.343	495.38
524.559	500.38
524.774	473.38
524.989	495.38
525.204	454.38
525.419	501.38
525.634	458.38
525.849	475.38
526.064	475.38
526.28	477.38
526.495	480.38
526.71	445.38
526.925	463.38
527.14	447.38
527.355	451.38
527.57	445.38
527.785	439.38
527.999	459.38
528.214	470.38
528.429	474.38
528.644	480.38
528.859	452.38
529.074	456.38
529.289	458.38
529.503	530.38
529.718	483.38
529.933	476.38
530.148	452.38
530.363	474.38
530.577	450.38
530.792	455.38
531.007	447.38
531.221	452.38
531.436	454.38
531.651	462.38
531.865	451.38
532.08	449.38
532.295	455.38
532.509	441.38
532.724	454.38
532.938	462.38
533.153	434.38
533.367	442.38
533.582	444.38
533.796	449.38
534.011	437.38
534.225	443.38
534.44	435.38
534.654	442.38
534.868	424.38
535.083	456.38
535.297	438.38
535.511	423.38
535.726	459.38
535.94	430.38
536.154	422.38
536.369	421.38
536.583	437.38
536.797	435.38
537.011	423.38
537.225	427.38
537.44	445.38
537.654	435.38
537.868	410.38
538.082	424.38
538.296	435.38
538.51	447.38
538.724	429.38
538.938	421.38
539.153	395.38
539.367	426.38
539.581	435.38
539.795	413.38
540.009	384.38
540.222	413.38
540.436	414.38
540.65	431.38
540.864	442.38
541.078	424.38
541.292	433.38
541.506	435.38
541.72	438.38
541.934	434.38
542.147	423.38
542.361	439.38
542.575	400.38
542.789	418.38
543.002	424.38
543.216	417.38
543.43	427.38
543.644	422.38
543.857	435.38
544.071	429.38
544.285	451.38
544.498	440.38
544.712	413.38
544.925	407.38
545.139	425.38
545.352	425.38
545.566	445.38
545.779	447.38
545.993	420.38
546.206	435.38
546.42	427.38
546.633	437.38
546.847	420.38
547.06	428.38
547.274	409.38
547.487	427.38
547.7	412.38
547.914	421.38
548.127	429.38
548.34	421.38
548.554	421.38
548.767	445.38
548.98	412.38
549.193	420.38
549.407	416.38
549.62	437.38
549.833	428.38
550.046	435.38
550.259	414.38
550.473	407.38
550.686	413.38
550.899	441.38
551.112	437.38
551.325	417.38
551.538	401.38
551.751	413.38
551.964	421.38
552.177	410.38
552.39	427.38
552.603	430.38
552.816	420.38
553.029	435.38
553.242	436.38
553.455	433.38
553.667	445.38
553.88	442.38
554.093	444.38
554.306	453.38
554.519	450.38
554.732	422.38
554.944	410.38
555.157	414.38
555.37	411.38
555.583	414.38
555.795	389.38
556.008	395.38
556.221	385.38
556.433	405.38
556.646	387.38
556.859	398.38
557.071	387.38
557.284	393.38
557.496	370.38
557.709	373.38
557.921	369.38
558.134	387.38
558.346	370.38
558.559	372.38
558.771	371.38
558.984	371.38
559.196	364.38
559.409	366.38
559.621	357.38
559.833	375.38
560.046	369.38
560.258	380.38
560.47	375.38
560.683	380.38
560.895	361.38
561.107	374.38
561.32	393.38
561.532	354.38
561.744	370.38
561.956	377.38
562.168	378.38
562.381	375.38
562.593	371.38
562.805	395.38
563.017	383.38
563.229	382.38
563.441	369.38
563.653	401.38
563.865	383.38
564.077	395.38
564.289	381.38
564.501	393.38
564.713	384.38
564.925	403.38
565.137	421.38
565.349	424.38
565.561	404.38
565.773	418.38
565.985	443.38
566.197	455.38
566.408	440.38
566.62	449.38
566.832	509.38
567.044	519.38
567.255	512.38
567.467	506.38
567.679	543.38
567.891	537.38
568.102	545.38
568.314	529.38
568.526	497.38
568.737	478.38
568.949	462.38
569.161	447.38
569.372	426.38
569.584	414.38
569.795	411.38
570.007	404.38
570.218	418.38
570.43	397.38
570.641	379.38
570.853	381.38
571.064	383.38
571.276	388.38
571.487	365.38
571.698	369.38
571.91	371.38
572.121	377.38
572.333	361.38
572.544	361.38
572.755	345.38
572.966	331.38
573.178	333.38
573.389	342.38
573.6	343.38
573.811	336.38
574.023	326.38
574.234	347.38
574.445	344.38
574.656	317.38
574.867	325.38
575.078	358.38
575.289	317.38
575.501	334.38
575.712	324.38
575.923	326.38
576.134	326.38
576.345	297.38
576.556	323.38
576.767	325.38
576.978	339.38
577.188	329.38
577.399	320.38
577.61	323.38
577.821	306.38
578.032	316.38
578.243	330.38
578.454	393.38
578.665	372.38
578.875	309.38
579.086	320.38
579.297	311.38
579.508	309.38
579.718	300.38
579.929	321.38
580.14	303.38
580.35	303.38
580.561	305.38
580.772	321.38
580.982	268.38
581.193	312.38
581.403	312.38
581.614	293.38
581.825	311.38
582.035	294.38
582.246	295.38
582.456	300.38
582.667	292.38
582.877	287.38
583.087	298.38
583.298	298.38
583.508	308.38
583.719	295.38
583.929	308.38
584.139	293.38
584.35	301.38
584.56	298.38
584.77	305.38
584.981	295.38
585.191	315.38
585.401	311.38
585.611	294.38
585.821	264.38
586.032	302.38
586.242	300.38
586.452	292.38
586.662	262.38
586.872	284.38
587.082	297.38
587.292	305.38
587.502	294.38
587.713	278.38
587.923	282.38
588.133	301.38
588.343	305.38
588.553	292.38
588.762	291.38
588.972	300.38
589.182	290.38
589.392	297.38
589.602	299.38
589.812	290.38
590.022	291.38
590.232	296.38
590.441	307.38
590.651	287.38
590.861	298.38
591.071	298.38
591.281	287.38
591.49	303.38
591.7	290.38
591.91	298.38
592.119	313.38
592.329	319.38
592.539	325.38
592.748	325.38
592.958	311.38
593.167	307.38
593.377	300.38
593.587	347.38
593.796	337.38
594.006	333.38
594.215	339.38
594.424	323.38
594.634	328.38
594.843	304.38
595.053	303.38
595.262	298.38
595.472	299.38
595.681	306.38
595.89	299.38
596.1	287.38
596.309	300.38
596.518	280.38
596.727	276.38
596.937	280.38
597.146	284.38
597.355	264.38
597.564	250.38
597.774	274.38
597.983	271.38
598.192	263.38
598.401	280.38
598.61	265.38
598.819	270.38
599.028	276.38
599.237	265.38
599.446	249.38
599.655	284.38
599.864	281.38
600.073	263.38
600.282	247.38
600.491	268.38
600.7	250.38
600.909	243.38
601.118	248.38
601.327	244.38
601.536	267.38
601.745	262.38
601.953	269.38
602.162	255.38
602.371	266.38
602.58	233.38
602.789	241.38
602.997	241.38
603.206	250.38
603.415	226.38
603.623	264.38
603.832	241.38
604.041	238.38
604.249	244.38
604.458	225.38
604.666	243.38
604.875	258.38
605.084	254.38
605.292	260.38
605.501	250.38
605.709	244.38
605.918	247.38
606.126	238.38
606.334	260.38
606.543	255.38
606.751	246.38
606.96	251.38
607.168	235.38
607.376	238.38
607.585	247.38
607.793	255.38
608.001	244.38
608.21	236.38
608.418	247.38
608.626	234.38
608.834	253.38
609.043	245.38
609.251	241.38
609.459	263.38
609.667	259.38
609.875	258.38
610.083	247.38
610.291	248.38
610.499	250.38
610.707	244.38
610.916	253.38
611.124	260.38
611.332	235.38
611.54	233.38
611.748	250.38
611.955	238.38
612.163	246.38
612.371	233.38
612.579	246.38
612.787	241.38
612.995	249.38
613.203	247.38
613.411	234.38
613.618	249.38
613.826	246.38
614.034	249.38
614.242	254.38
614.449	232.38
614.657	248.38
614.865	233.38
615.072	243.38
615.28	228.38
615.488	236.38
615.695	230.38
615.903	233.38
616.111	230.38
616.318	234.38
616.526	234.38
616.733	246.38
616.941	244.38
617.148	237.38
617.356	249.38
617.563	232.38
617.771	243.38
617.978	221.38
618.185	221.38
618.393	229.38
618.6	233.38
618.807	250.38
619.015	237.38
619.222	249.38
619.429	237.38
619.637	222.38
619.844	226.38
620.051	219.38
620.258	225.38
620.466	219.38
620.673	218.38
620.88	210.38
621.087	221.38
621.294	211.38
621.501	227.38
621.708	229.38
621.915	232.38
622.122	223.38
622.329	218.38
622.536	214.38
622.743	219.38
622.95	213.38
623.157	221.38
623.364	214.38
623.571	222.38
623.778	208.38
623.985	210.38
624.192	218.38
624.399	227.38
624.606	201.38
624.812	209.38
625.019	219.38
625.226	210.38
625.433	218.38
625.639	216.38
625.846	212.38
626.053	198.38
626.259	191.38
626.466	211.38
626.673	202.38
626.879	185.38
627.086	193.38
627.293	205.38
627.499	213.38
627.706	221.38
627.912	205.38
628.119	211.38
628.325	197.38
628.532	209.38
628.738	215.38
628.945	215.38
629.151	205.38
629.357	200.38
629.564	203.38
629.77	181.38
629.976	203.38
630.183	202.38
630.389	199.38
630.595	203.38
630.802	201.38
631.008	200.38
631.214	197.38
631.42	197.38
631.627	205.38
631.833	189.38
632.039	179.38
632.245	214.38
632.451	181.38
632.657	195.38
632.863	183.38
633.069	195.38
633.275	195.38
633.481	193.38
633.688	189.38
633.893	194.38
634.099	186.38
634.305	194.38
634.511	186.38
634.717	178.38
634.923	177.38
635.129	189.38
635.335	166.38
635.541	190.38
635.747	190.38
635.952	178.38
636.158	178.38
636.364	196.38
636.57	186.38
636.775	171.38
636.981	168.38
637.187	189.38
637.392	171.38
637.598	172.38
637.804	187.38
638.009	190.38
638.215	187.38
638.421	186.38
638.626	187.38
638.832	169.38
639.037	166.38
639.243	167.38
639.448	172.38
639.654	158.38
639.859	173.38
640.065	179.38
640.27	184.38
640.475	177.38
640.681	182.38
640.886	182.38
641.091	177.38
641.297	187.38
641.502	156.38
641.707	179.38
641.913	177.38
642.118	151.38
642.323	172.38
642.528	182.38
642.733	164.38
642.939	177.38
643.144	171.38
643.349	161.38
643.554	173.38
643.759	171.38
643.964	152.38
644.169	174.38
644.374	179.38
644.579	158.38
644.784	162.38
644.989	172.38
645.194	153.38
645.399	175.38
645.604	181.38
645.809	185.38
646.014	165.38
646.219	170.38
646.423	157.38
646.628	166.38
646.833	169.38
647.038	179.38
647.243	168.38
647.447	177.38
647.652	159.38
647.857	169.38
648.062	172.38
648.266	174.38
648.471	174.38
648.676	168.38
648.88	159.38
649.085	169.38
649.289	172.38
649.494	166.38
649.698	197.38
649.903	189.38
650.107	169.38
650.312	156.38
650.516	147.38
650.721	154.38
650.925	161.38
651.13	165.38
651.334	149.38
651.539	170.38
651.743	141.38
651.947	154.38
652.152	147.38
652.356	159.38
652.56	162.38
652.764	157.38
652.969	133.38
653.173	149.38
653.377	143.38
653.581	146.38
653.785	161.38
653.99	151.38
654.194	141.38
654.398	141.38
654.602	135.38
654.806	134.38
655.01	143.38
655.214	138.38
655.418	135.38
655.622	156.38
655.826	134.38
656.03	147.38
656.234	147.38
656.438	142.38
656.642	151.38
656.846	133.38
657.049	134.38
657.253	125.38
657.457	134.38
657.661	119.38
657.865	138.38
658.068	128.38
658.272	110.38
658.476	106.38
658.68	114.38
658.883	93.38
659.087	104.38
659.291	97.38
659.494	90.38
659.698	109.38
659.901	97.38
660.105	107.38
660.309	100.38
660.512	101.38
660.716	90.38
660.919	85.38
661.123	105.38
661.326	93.38
661.53	98.38
661.733	88.38
661.936	90.38
662.14	88.38
662.343	84.38
662.546	76.38
662.75	90.38
662.953	99.38
663.156	98.38
663.36	89.38
663.563	84.38
663.766	85.38
663.969	88.38
664.173	79.38
664.376	95.38
664.579	75.38
664.782	78.38
664.985	81.38
665.188	84.38
665.391	79.38
665.594	85.38
665.797	93.38
666	78.38
666.203	89.38
666.406	75.38
666.609	95.38
666.812	74.38
667.015	79.38
667.218	93.38
667.421	89.38
667.624	78.38
667.827	75.38
668.03	77.38
668.232	80.38
668.435	85.38
668.638	84.38
668.841	68.38
669.043	83.38
669.246	69.38
669.449	82.38
669.651	73.38
669.854	92.38
670.057	77.38
670.259	82.38
670.462	73.38
670.665	83.38
670.867	91.38
671.07	85.38
671.272	76.38
671.475	80.38
671.677	83.38
671.88	78.38
672.082	75.38
672.284	84.38
672.487	92.38
672.689	80.38
672.892	81.38
