Data from 1976.PennyLincolnUp.Lamp.En5.5.200Scan.071719.P1.Changed Mount._HRD10591_16-00-19-861.txt Node
Date: Thu Jul 18 16:00:19 EDT 2019
User: cochatt
Spectrometer: HR+D1059
Trigger mode: 1
Integration Time (sec): 1.000000E-1
Scans to average: 1
Electric dark correction enabled: true
Nonlinearity correction enabled: false
Boxcar width: 0
XAxis mode: Wavelengths
Number of Pixels in Spectrum: 2048
>>>>>Begin Spectral Data<<<<<
223.165	-34.94
223.4	-34.94
223.635	-34.94
223.869	-17.94
224.104	-24.94
224.338	-32.94
224.573	-7.94
224.808	-2.94
225.042	-3.94
225.277	0.06
225.511	-5.94
225.746	15.06
225.98	11.06
226.215	11.06
226.449	8.06
226.683	38.06
226.918	18.06
227.152	30.06
227.387	25.06
227.621	25.06
227.856	34.06
228.09	35.06
228.324	38.06
228.559	42.06
228.793	62.06
229.027	93.06
229.262	109.06
229.496	97.06
229.73	125.06
229.964	140.06
230.199	121.06
230.433	110.06
230.667	110.06
230.901	106.06
231.136	114.06
231.37	98.06
231.604	105.06
231.838	114.06
232.072	90.06
232.306	93.06
232.541	116.06
232.775	106.06
233.009	112.06
233.243	106.06
233.477	121.06
233.711	114.06
233.945	114.06
234.179	104.06
234.413	113.06
234.647	104.06
234.881	104.06
235.115	131.06
235.349	109.06
235.583	119.06
235.817	121.06
236.051	118.06
236.285	114.06
236.519	126.06
236.753	116.06
236.987	141.06
237.221	173.06
237.455	214.06
237.689	182.06
237.922	138.06
238.156	131.06
238.39	128.06
238.624	118.06
238.858	117.06
239.091	118.06
239.325	117.06
239.559	109.06
239.793	130.06
240.027	134.06
240.26	142.06
240.494	159.06
240.728	158.06
240.961	154.06
241.195	155.06
241.429	142.06
241.662	107.06
241.896	123.06
242.13	126.06
242.363	142.06
242.597	131.06
242.83	129.06
243.064	136.06
243.298	140.06
243.531	138.06
243.765	140.06
243.998	139.06
244.232	127.06
244.465	149.06
244.699	138.06
244.932	152.06
245.166	146.06
245.399	156.06
245.633	131.06
245.866	159.06
246.099	153.06
246.333	146.06
246.566	150.06
246.8	157.06
247.033	152.06
247.266	145.06
247.5	163.06
247.733	168.06
247.966	158.06
248.2	168.06
248.433	165.06
248.666	174.06
248.899	175.06
249.133	184.06
249.366	202.06
249.599	200.06
249.832	184.06
250.066	184.06
250.299	194.06
250.532	195.06
250.765	187.06
250.998	202.06
251.231	220.06
251.465	224.06
251.698	197.06
251.931	198.06
252.164	194.06
252.397	186.06
252.63	180.06
252.863	202.06
253.096	194.06
253.329	211.06
253.562	229.06
253.795	220.06
254.028	223.06
254.261	221.06
254.494	214.06
254.727	253.06
254.96	267.06
255.193	270.06
255.426	234.06
255.659	221.06
255.892	242.06
256.124	223.06
256.357	238.06
256.59	220.06
256.823	221.06
257.056	207.06
257.289	209.06
257.521	222.06
257.754	206.06
257.987	219.06
258.22	202.06
258.452	215.06
258.685	209.06
258.918	199.06
259.151	207.06
259.383	206.06
259.616	222.06
259.849	224.06
260.081	221.06
260.314	239.06
260.547	259.06
260.779	258.06
261.012	246.06
261.244	240.06
261.477	222.06
261.71	221.06
261.942	226.06
262.175	219.06
262.407	220.06
262.64	211.06
262.872	218.06
263.105	221.06
263.337	219.06
263.57	229.06
263.802	209.06
264.035	218.06
264.267	221.06
264.499	213.06
264.732	229.06
264.964	198.06
265.197	221.06
265.429	215.06
265.661	221.06
265.894	221.06
266.126	223.06
266.358	245.06
266.591	237.06
266.823	231.06
267.055	225.06
267.287	239.06
267.52	238.06
267.752	222.06
267.984	234.06
268.216	226.06
268.448	242.06
268.681	229.06
268.913	241.06
269.145	257.06
269.377	271.06
269.609	280.06
269.841	282.06
270.073	264.06
270.306	293.06
270.538	317.06
270.77	307.06
271.002	307.06
271.234	296.06
271.466	310.06
271.698	299.06
271.93	330.06
272.162	306.06
272.394	300.06
272.626	308.06
272.858	280.06
273.09	294.06
273.322	264.06
273.553	272.06
273.785	262.06
274.017	268.06
274.249	273.06
274.481	281.06
274.713	272.06
274.945	249.06
275.176	270.06
275.408	276.06
275.64	273.06
275.872	271.06
276.104	273.06
276.335	297.06
276.567	274.06
276.799	289.06
277.031	301.06
277.262	295.06
277.494	317.06
277.726	303.06
277.957	295.06
278.189	309.06
278.421	267.06
278.652	281.06
278.884	271.06
279.115	294.06
279.347	290.06
279.579	290.06
279.81	280.06
280.042	284.06
280.273	273.06
280.505	288.06
280.736	283.06
280.968	281.06
281.199	290.06
281.431	298.06
281.662	267.06
281.894	277.06
282.125	288.06
282.356	298.06
282.588	298.06
282.819	311.06
283.051	280.06
283.282	274.06
283.513	274.06
283.745	292.06
283.976	282.06
284.207	294.06
284.439	294.06
284.67	295.06
284.901	313.06
285.132	291.06
285.364	277.06
285.595	288.06
285.826	298.06
286.057	298.06
286.288	284.06
286.52	291.06
286.751	316.06
286.982	293.06
287.213	288.06
287.444	290.06
287.675	308.06
287.906	307.06
288.138	325.06
288.369	321.06
288.6	317.06
288.831	336.06
289.062	298.06
289.293	319.06
289.524	315.06
289.755	318.06
289.986	303.06
290.217	306.06
290.448	291.06
290.679	295.06
290.91	297.06
291.141	297.06
291.371	306.06
291.602	313.06
291.833	321.06
292.064	318.06
292.295	307.06
292.526	321.06
292.757	301.06
292.987	301.06
293.218	319.06
293.449	336.06
293.68	320.06
293.91	320.06
294.141	323.06
294.372	294.06
294.603	317.06
294.833	312.06
295.064	301.06
295.295	314.06
295.525	317.06
295.756	323.06
295.987	321.06
296.217	320.06
296.448	327.06
296.679	311.06
296.909	301.06
297.14	319.06
297.37	316.06
297.601	323.06
297.831	326.06
298.062	333.06
298.292	327.06
298.523	333.06
298.753	340.06
298.984	340.06
299.214	315.06
299.445	329.06
299.675	346.06
299.905	334.06
300.136	330.06
300.366	317.06
300.597	335.06
300.827	344.06
301.057	356.06
301.288	366.06
301.518	343.06
301.748	346.06
301.979	350.06
302.209	362.06
302.439	360.06
302.669	343.06
302.9	337.06
303.13	359.06
303.36	353.06
303.59	355.06
303.82	355.06
304.051	366.06
304.281	347.06
304.511	383.06
304.741	360.06
304.971	339.06
305.201	349.06
305.431	350.06
305.661	350.06
305.891	345.06
306.121	341.06
306.352	344.06
306.582	332.06
306.812	337.06
307.042	340.06
307.272	352.06
307.502	338.06
307.731	355.06
307.961	349.06
308.191	358.06
308.421	352.06
308.651	344.06
308.881	355.06
309.111	357.06
309.341	361.06
309.571	366.06
309.8	369.06
310.03	377.06
310.26	369.06
310.49	356.06
310.72	387.06
310.949	381.06
311.179	392.06
311.409	390.06
311.639	386.06
311.868	394.06
312.098	375.06
312.328	388.06
312.557	399.06
312.787	406.06
313.017	421.06
313.246	411.06
313.476	376.06
313.706	396.06
313.935	386.06
314.165	407.06
314.394	416.06
314.624	429.06
314.853	401.06
315.083	402.06
315.312	388.06
315.542	378.06
315.771	377.06
316.001	374.06
316.23	385.06
316.46	398.06
316.689	377.06
316.919	387.06
317.148	403.06
317.377	393.06
317.607	389.06
317.836	400.06
318.065	383.06
318.295	360.06
318.524	400.06
318.753	385.06
318.983	387.06
319.212	401.06
319.441	391.06
319.67	401.06
319.9	387.06
320.129	385.06
320.358	400.06
320.587	386.06
320.816	400.06
321.046	396.06
321.275	408.06
321.504	415.06
321.733	405.06
321.962	414.06
322.191	439.06
322.42	424.06
322.649	447.06
322.878	440.06
323.108	436.06
323.337	446.06
323.566	481.06
323.795	467.06
324.024	521.06
324.253	599.06
324.482	803.06
324.71	1254.06
324.939	1873.06
325.168	1596.06
325.397	826.06
325.626	582.06
325.855	521.06
326.084	481.06
326.313	481.06
326.542	460.06
326.77	498.06
326.999	595.06
327.228	780.06
327.457	1139.06
327.686	1395.06
327.914	944.06
328.143	619.06
328.372	583.06
328.6	541.06
328.829	527.06
329.058	528.06
329.287	544.06
329.515	523.06
329.744	499.06
329.972	499.06
330.201	487.06
330.43	520.06
330.658	549.06
330.887	559.06
331.115	554.06
331.344	509.06
331.572	503.06
331.801	508.06
332.03	482.06
332.258	475.06
332.486	463.06
332.715	473.06
332.943	474.06
333.172	486.06
333.4	474.06
333.629	515.06
333.857	497.06
334.085	519.06
334.314	537.06
334.542	558.06
334.771	566.06
334.999	526.06
335.227	492.06
335.455	494.06
335.684	483.06
335.912	465.06
336.14	476.06
336.369	469.06
336.597	467.06
336.825	473.06
337.053	469.06
337.281	460.06
337.51	441.06
337.738	464.06
337.966	471.06
338.194	475.06
338.422	468.06
338.65	471.06
338.878	470.06
339.106	466.06
339.334	455.06
339.562	437.06
339.79	441.06
340.018	448.06
340.246	439.06
340.474	462.06
340.702	425.06
340.93	464.06
341.158	443.06
341.386	450.06
341.614	431.06
341.842	441.06
342.07	439.06
342.298	436.06
342.526	440.06
342.754	433.06
342.981	448.06
343.209	442.06
343.437	453.06
343.665	442.06
343.893	460.06
344.12	481.06
344.348	461.06
344.576	458.06
344.804	463.06
345.031	475.06
345.259	467.06
345.487	447.06
345.714	441.06
345.942	451.06
346.17	409.06
346.397	435.06
346.625	432.06
346.853	414.06
347.08	433.06
347.308	429.06
347.535	425.06
347.763	426.06
347.99	422.06
348.218	449.06
348.445	433.06
348.673	422.06
348.9	422.06
349.128	422.06
349.355	419.06
349.583	409.06
349.81	424.06
350.037	414.06
350.265	418.06
350.492	418.06
350.72	399.06
350.947	418.06
351.174	426.06
351.402	441.06
351.629	439.06
351.856	457.06
352.083	434.06
352.311	447.06
352.538	456.06
352.765	440.06
352.992	442.06
353.22	439.06
353.447	426.06
353.674	420.06
353.901	420.06
354.128	399.06
354.355	375.06
354.583	413.06
354.81	413.06
355.037	408.06
355.264	402.06
355.491	388.06
355.718	397.06
355.945	393.06
356.172	395.06
356.399	405.06
356.626	409.06
356.853	389.06
357.08	392.06
357.307	394.06
357.534	392.06
357.761	410.06
357.988	399.06
358.215	400.06
358.441	396.06
358.668	405.06
358.895	409.06
359.122	413.06
359.349	410.06
359.576	430.06
359.802	430.06
360.029	447.06
360.256	463.06
360.483	445.06
360.709	434.06
360.936	434.06
361.163	421.06
361.39	418.06
361.616	411.06
361.843	434.06
362.07	417.06
362.296	415.06
362.523	425.06
362.749	430.06
362.976	432.06
363.203	401.06
363.429	408.06
363.656	414.06
363.882	403.06
364.109	426.06
364.335	397.06
364.562	389.06
364.788	403.06
365.015	411.06
365.241	396.06
365.468	413.06
365.694	437.06
365.92	414.06
366.147	421.06
366.373	403.06
366.599	398.06
366.826	409.06
367.052	404.06
367.278	413.06
367.505	416.06
367.731	424.06
367.957	416.06
368.184	410.06
368.41	423.06
368.636	428.06
368.862	413.06
369.089	413.06
369.315	434.06
369.541	414.06
369.767	412.06
369.993	395.06
370.219	449.06
370.445	407.06
370.672	419.06
370.898	388.06
371.124	414.06
371.35	433.06
371.576	414.06
371.802	421.06
372.028	399.06
372.254	435.06
372.48	413.06
372.706	413.06
372.932	417.06
373.158	435.06
373.384	427.06
373.61	407.06
373.835	425.06
374.061	420.06
374.287	435.06
374.513	426.06
374.739	430.06
374.965	415.06
375.191	426.06
375.416	434.06
375.642	445.06
375.868	429.06
376.094	425.06
376.319	413.06
376.545	401.06
376.771	410.06
376.997	396.06
377.222	439.06
377.448	398.06
377.674	427.06
377.899	433.06
378.125	399.06
378.35	422.06
378.576	404.06
378.802	404.06
379.027	403.06
379.253	401.06
379.478	417.06
379.704	432.06
379.929	426.06
380.155	410.06
380.38	419.06
380.606	422.06
380.831	423.06
381.057	418.06
381.282	401.06
381.507	408.06
381.733	418.06
381.958	418.06
382.184	420.06
382.409	425.06
382.634	415.06
382.86	415.06
383.085	462.06
383.31	434.06
383.535	453.06
383.761	437.06
383.986	445.06
384.211	446.06
384.436	440.06
384.662	448.06
384.887	448.06
385.112	454.06
385.337	468.06
385.562	462.06
385.787	469.06
386.013	477.06
386.238	458.06
386.463	471.06
386.688	458.06
386.913	453.06
387.138	456.06
387.363	472.06
387.588	469.06
387.813	449.06
388.038	468.06
388.263	487.06
388.488	460.06
388.713	469.06
388.938	477.06
389.163	486.06
389.387	464.06
389.612	464.06
389.837	472.06
390.062	466.06
390.287	460.06
390.512	467.06
390.736	463.06
390.961	482.06
391.186	468.06
391.411	477.06
391.636	495.06
391.86	498.06
392.085	495.06
392.31	495.06
392.534	524.06
392.759	483.06
392.984	459.06
393.208	494.06
393.433	486.06
393.658	467.06
393.882	471.06
394.107	469.06
394.331	467.06
394.556	473.06
394.78	461.06
395.005	479.06
395.229	484.06
395.454	475.06
395.678	495.06
395.903	500.06
396.127	514.06
396.352	522.06
396.576	495.06
396.801	493.06
397.025	484.06
397.249	484.06
397.474	503.06
397.698	493.06
397.922	509.06
398.147	539.06
398.371	529.06
398.595	542.06
398.82	551.06
399.044	553.06
399.268	579.06
399.492	595.06
399.717	619.06
399.941	683.06
400.165	694.06
400.389	675.06
400.613	614.06
400.837	591.06
401.062	570.06
401.286	557.06
401.51	573.06
401.734	541.06
401.958	564.06
402.182	547.06
402.406	545.06
402.63	558.06
402.854	567.06
403.078	559.06
403.302	563.06
403.526	586.06
403.75	589.06
403.974	581.06
404.198	588.06
404.422	577.06
404.645	591.06
404.869	580.06
405.093	627.06
405.317	639.06
405.541	663.06
405.765	612.06
405.988	585.06
406.212	575.06
406.436	621.06
406.66	633.06
406.883	611.06
407.107	628.06
407.331	682.06
407.555	729.06
407.778	744.06
408.002	687.06
408.226	650.06
408.449	618.06
408.673	597.06
408.896	633.06
409.12	672.06
409.344	643.06
409.567	590.06
409.791	600.06
410.014	593.06
410.238	547.06
410.461	569.06
410.685	549.06
410.908	566.06
411.132	610.06
411.355	662.06
411.578	593.06
411.802	578.06
412.025	563.06
412.249	584.06
412.472	597.06
412.695	655.06
412.919	637.06
413.142	550.06
413.365	577.06
413.589	548.06
413.812	535.06
414.035	550.06
414.258	534.06
414.482	530.06
414.705	543.06
414.928	531.06
415.151	543.06
415.374	549.06
415.597	527.06
415.821	521.06
416.044	523.06
416.267	540.06
416.49	537.06
416.713	537.06
416.936	531.06
417.159	507.06
417.382	520.06
417.605	533.06
417.828	532.06
418.051	539.06
418.274	551.06
418.497	523.06
418.72	532.06
418.943	543.06
419.166	545.06
419.389	575.06
419.611	595.06
419.834	567.06
420.057	546.06
420.28	579.06
420.503	597.06
420.726	539.06
420.948	553.06
421.171	616.06
421.394	655.06
421.617	580.06
421.839	569.06
422.062	598.06
422.285	573.06
422.507	625.06
422.73	703.06
422.953	710.06
423.175	593.06
423.398	577.06
423.621	603.06
423.843	593.06
424.066	595.06
424.288	609.06
424.511	588.06
424.733	665.06
424.956	709.06
425.178	718.06
425.401	693.06
425.623	733.06
425.846	649.06
426.068	600.06
426.291	571.06
426.513	600.06
426.735	605.06
426.958	600.06
427.18	707.06
427.402	831.06
427.625	912.06
427.847	757.06
428.069	668.06
428.292	621.06
428.514	561.06
428.736	568.06
428.958	531.06
429.181	522.06
429.403	523.06
429.625	551.06
429.847	569.06
430.069	618.06
430.292	630.06
430.514	559.06
430.736	530.06
430.958	521.06
431.18	519.06
431.402	488.06
431.624	470.06
431.846	524.06
432.068	511.06
432.29	506.06
432.512	509.06
432.734	533.06
432.956	524.06
433.178	535.06
433.4	530.06
433.622	522.06
433.844	497.06
434.066	513.06
434.287	526.06
434.509	529.06
434.731	535.06
434.953	513.06
435.175	558.06
435.397	570.06
435.618	571.06
435.84	615.06
436.062	689.06
436.284	789.06
436.505	681.06
436.727	577.06
436.949	533.06
437.17	521.06
437.392	537.06
437.614	521.06
437.835	549.06
438.057	646.06
438.278	752.06
438.5	773.06
438.721	847.06
438.943	824.06
439.165	651.06
439.386	601.06
439.608	588.06
439.829	569.06
440.05	600.06
440.272	667.06
440.493	607.06
440.715	559.06
440.936	559.06
441.158	563.06
441.379	549.06
441.6	564.06
441.822	589.06
442.043	614.06
442.264	689.06
442.486	718.06
442.707	645.06
442.928	617.06
443.149	599.06
443.371	617.06
443.592	659.06
443.813	751.06
444.034	818.06
444.255	699.06
444.476	606.06
444.698	581.06
444.919	612.06
445.14	714.06
445.361	657.06
445.582	633.06
445.803	673.06
446.024	783.06
446.245	761.06
446.466	719.06
446.687	602.06
446.908	580.06
447.129	561.06
447.35	537.06
447.571	551.06
447.792	538.06
448.013	523.06
448.234	553.06
448.455	587.06
448.675	708.06
448.896	831.06
449.117	691.06
449.338	641.06
449.559	739.06
449.779	897.06
450	669.06
450.221	568.06
450.442	510.06
450.662	523.06
450.883	501.06
451.104	514.06
451.324	501.06
451.545	495.06
451.766	461.06
451.986	467.06
452.207	467.06
452.428	469.06
452.648	489.06
452.869	479.06
453.089	494.06
453.31	499.06
453.53	493.06
453.751	477.06
453.971	456.06
454.192	482.06
454.412	457.06
454.633	457.06
454.853	458.06
455.073	456.06
455.294	505.06
455.514	575.06
455.734	563.06
455.955	463.06
456.175	455.06
456.395	445.06
456.616	448.06
456.836	457.06
457.056	445.06
457.276	447.06
457.497	455.06
457.717	471.06
457.937	466.06
458.157	462.06
458.377	474.06
458.598	523.06
458.818	543.06
459.038	589.06
459.258	622.06
459.478	545.06
459.698	521.06
459.918	509.06
460.138	527.06
460.358	523.06
460.578	520.06
460.798	534.06
461.018	533.06
461.238	532.06
461.458	553.06
461.678	537.06
461.898	523.06
462.118	527.06
462.338	563.06
462.558	570.06
462.777	583.06
462.997	610.06
463.217	619.06
463.437	622.06
463.657	586.06
463.876	594.06
464.096	573.06
464.316	571.06
464.536	581.06
464.755	568.06
464.975	577.06
465.195	588.06
465.414	629.06
465.634	564.06
465.854	534.06
466.073	529.06
466.293	515.06
466.512	503.06
466.732	477.06
466.951	508.06
467.171	489.06
467.391	504.06
467.61	502.06
467.829	502.06
468.049	491.06
468.268	496.06
468.488	483.06
468.707	495.06
468.927	494.06
469.146	484.06
469.365	482.06
469.585	483.06
469.804	491.06
470.023	497.06
470.243	503.06
470.462	489.06
470.681	515.06
470.901	511.06
471.12	501.06
471.339	509.06
471.558	513.06
471.777	518.06
471.997	495.06
472.216	479.06
472.435	514.06
472.654	531.06
472.873	490.06
473.092	493.06
473.311	499.06
473.53	494.06
473.749	495.06
473.968	529.06
474.187	628.06
474.406	634.06
474.625	550.06
474.844	511.06
475.063	510.06
475.282	490.06
475.501	506.06
475.72	482.06
475.939	497.06
476.158	509.06
476.377	531.06
476.596	515.06
476.814	521.06
477.033	545.06
477.252	514.06
477.471	523.06
477.69	557.06
477.908	554.06
478.127	557.06
478.346	565.06
478.564	567.06
478.783	554.06
479.002	575.06
479.22	589.06
479.439	590.06
479.658	569.06
479.876	582.06
480.095	606.06
480.313	613.06
480.532	625.06
480.751	624.06
480.969	610.06
481.188	664.06
481.406	670.06
481.624	654.06
481.843	599.06
482.061	585.06
482.28	578.06
482.498	544.06
482.717	534.06
482.935	586.06
483.153	594.06
483.372	568.06
483.59	588.06
483.808	588.06
484.027	576.06
484.245	582.06
484.463	569.06
484.681	593.06
484.9	577.06
485.118	592.06
485.336	607.06
485.554	609.06
485.772	587.06
485.99	605.06
486.209	603.06
486.427	587.06
486.645	608.06
486.863	594.06
487.081	612.06
487.299	609.06
487.517	607.06
487.735	602.06
487.953	641.06
488.171	616.06
488.389	617.06
488.607	628.06
488.825	614.06
489.043	616.06
489.261	626.06
489.479	623.06
489.696	645.06
489.914	627.06
490.132	660.06
490.35	639.06
490.568	620.06
490.786	641.06
491.003	665.06
491.221	658.06
491.439	715.06
491.657	714.06
491.874	706.06
492.092	695.06
492.31	715.06
492.527	695.06
492.745	713.06
492.963	704.06
493.18	703.06
493.398	698.06
493.615	731.06
493.833	708.06
494.05	714.06
494.268	706.06
494.485	725.06
494.703	739.06
494.92	730.06
495.138	722.06
495.355	720.06
495.573	737.06
495.79	738.06
496.008	754.06
496.225	739.06
496.442	759.06
496.66	735.06
496.877	701.06
497.094	744.06
497.312	765.06
497.529	759.06
497.746	773.06
497.963	777.06
498.181	810.06
498.398	830.06
498.615	839.06
498.832	844.06
499.049	885.06
499.267	907.06
499.484	929.06
499.701	970.06
499.918	1058.06
500.135	1078.06
500.352	1156.06
500.569	1179.06
500.786	1177.06
501.003	1160.06
501.22	1113.06
501.437	1069.06
501.654	993.06
501.871	994.06
502.088	954.06
502.305	905.06
502.522	870.06
502.739	829.06
502.956	830.06
503.172	807.06
503.389	784.06
503.606	763.06
503.823	797.06
504.04	781.06
504.256	740.06
504.473	741.06
504.69	765.06
504.907	755.06
505.123	726.06
505.34	704.06
505.557	718.06
505.773	704.06
505.99	695.06
506.207	702.06
506.423	710.06
506.64	695.06
506.856	654.06
507.073	663.06
507.289	658.06
507.506	673.06
507.722	660.06
507.939	658.06
508.155	680.06
508.372	661.06
508.588	653.06
508.805	668.06
509.021	655.06
509.238	657.06
509.454	665.06
509.67	658.06
509.887	650.06
510.103	623.06
510.319	647.06
510.536	707.06
510.752	1042.06
510.968	849.06
511.184	650.06
511.401	615.06
511.617	618.06
511.833	607.06
512.049	627.06
512.265	598.06
512.481	595.06
512.698	604.06
512.914	617.06
513.13	602.06
513.346	601.06
513.562	591.06
513.778	604.06
513.994	588.06
514.21	610.06
514.426	608.06
514.642	659.06
514.858	674.06
515.074	698.06
515.29	755.06
515.506	1023.06
515.721	903.06
515.937	690.06
516.153	641.06
516.369	659.06
516.585	637.06
516.801	657.06
517.016	611.06
517.232	651.06
517.448	643.06
517.664	651.06
517.879	655.06
518.095	651.06
518.311	657.06
518.527	644.06
518.742	636.06
518.958	630.06
519.173	627.06
519.389	639.06
519.605	629.06
519.82	618.06
520.036	605.06
520.251	628.06
520.467	633.06
520.682	650.06
520.898	612.06
521.113	629.06
521.329	671.06
521.544	714.06
521.76	855.06
521.975	1277.06
522.19	1230.06
522.406	814.06
522.621	648.06
522.836	593.06
523.052	589.06
523.267	567.06
523.482	561.06
523.698	561.06
523.913	553.06
524.128	560.06
524.343	551.06
524.559	527.06
524.774	528.06
524.989	538.06
525.204	530.06
525.419	539.06
525.634	536.06
525.849	511.06
526.064	523.06
526.28	507.06
526.495	525.06
526.71	507.06
526.925	497.06
527.14	499.06
527.355	502.06
527.57	491.06
527.785	511.06
527.999	496.06
528.214	515.06
528.429	496.06
528.644	510.06
528.859	520.06
529.074	511.06
529.289	538.06
529.503	575.06
529.718	586.06
529.933	541.06
530.148	527.06
530.363	506.06
530.577	501.06
530.792	497.06
531.007	490.06
531.221	510.06
531.436	490.06
531.651	483.06
531.865	477.06
532.08	478.06
532.295	485.06
532.509	479.06
532.724	484.06
532.938	475.06
533.153	491.06
533.367	482.06
533.582	471.06
533.796	479.06
534.011	502.06
534.225	476.06
534.44	488.06
534.654	491.06
534.868	491.06
535.083	490.06
535.297	473.06
535.511	455.06
535.726	474.06
535.94	497.06
536.154	490.06
536.369	467.06
536.583	471.06
536.797	480.06
537.011	470.06
537.225	458.06
537.44	440.06
537.654	462.06
537.868	460.06
538.082	467.06
538.296	481.06
538.51	475.06
538.724	468.06
538.938	457.06
539.153	448.06
539.367	479.06
539.581	467.06
539.795	479.06
540.009	463.06
540.222	472.06
540.436	451.06
540.65	467.06
540.864	482.06
541.078	467.06
541.292	471.06
541.506	461.06
541.72	450.06
541.934	460.06
542.147	451.06
542.361	461.06
542.575	462.06
542.789	460.06
543.002	458.06
543.216	448.06
543.43	464.06
543.644	459.06
543.857	449.06
544.071	481.06
544.285	481.06
544.498	447.06
544.712	468.06
544.925	459.06
545.139	473.06
545.352	475.06
545.566	457.06
545.779	456.06
545.993	479.06
546.206	470.06
546.42	474.06
546.633	486.06
546.847	470.06
547.06	451.06
547.274	454.06
547.487	463.06
547.7	458.06
547.914	449.06
548.127	451.06
548.34	458.06
548.554	436.06
548.767	462.06
548.98	450.06
549.193	444.06
549.407	463.06
549.62	460.06
549.833	453.06
550.046	430.06
550.259	443.06
550.473	466.06
550.686	459.06
550.899	465.06
551.112	448.06
551.325	448.06
551.538	446.06
551.751	430.06
551.964	419.06
552.177	446.06
552.39	433.06
552.603	454.06
552.816	473.06
553.029	438.06
553.242	470.06
553.455	487.06
553.667	463.06
553.88	484.06
554.093	459.06
554.306	456.06
554.519	481.06
554.732	447.06
554.944	471.06
555.157	442.06
555.37	457.06
555.583	435.06
555.795	419.06
556.008	430.06
556.221	429.06
556.433	407.06
556.646	416.06
556.859	410.06
557.071	415.06
557.284	407.06
557.496	417.06
557.709	425.06
557.921	420.06
558.134	407.06
558.346	403.06
558.559	409.06
558.771	418.06
558.984	411.06
559.196	414.06
559.409	417.06
559.621	399.06
559.833	413.06
560.046	391.06
560.258	422.06
560.47	421.06
560.683	413.06
560.895	403.06
561.107	392.06
561.32	399.06
561.532	415.06
561.744	416.06
561.956	401.06
562.168	400.06
562.381	416.06
562.593	411.06
562.805	433.06
563.017	414.06
563.229	385.06
563.441	411.06
563.653	421.06
563.865	410.06
564.077	418.06
564.289	421.06
564.501	408.06
564.713	395.06
564.925	412.06
565.137	453.06
565.349	439.06
565.561	459.06
565.773	453.06
565.985	466.06
566.197	489.06
566.408	504.06
566.62	492.06
566.832	511.06
567.044	525.06
567.255	543.06
567.467	537.06
567.679	551.06
567.891	557.06
568.102	558.06
568.314	551.06
568.526	522.06
568.737	510.06
568.949	479.06
569.161	442.06
569.372	441.06
569.584	437.06
569.795	434.06
570.007	391.06
570.218	445.06
570.43	452.06
570.641	407.06
570.853	401.06
571.064	394.06
571.276	409.06
571.487	382.06
571.698	379.06
571.91	379.06
572.121	386.06
572.333	389.06
572.544	371.06
572.755	363.06
572.966	353.06
573.178	346.06
573.389	368.06
573.6	358.06
573.811	353.06
574.023	360.06
574.234	359.06
574.445	345.06
574.656	336.06
574.867	361.06
575.078	368.06
575.289	347.06
575.501	347.06
575.712	344.06
575.923	342.06
576.134	355.06
576.345	344.06
576.556	332.06
576.767	333.06
576.978	348.06
577.188	346.06
577.399	323.06
577.61	317.06
577.821	332.06
578.032	328.06
578.243	381.06
578.454	492.06
578.665	385.06
578.875	337.06
579.086	325.06
579.297	319.06
579.508	317.06
579.718	311.06
579.929	312.06
580.14	327.06
580.35	299.06
580.561	314.06
580.772	332.06
580.982	316.06
581.193	317.06
581.403	331.06
581.614	298.06
581.825	312.06
582.035	301.06
582.246	310.06
582.456	318.06
582.667	328.06
582.877	306.06
583.087	293.06
583.298	325.06
583.508	316.06
583.719	313.06
583.929	321.06
584.139	309.06
584.35	301.06
584.56	305.06
584.77	319.06
584.981	289.06
585.191	309.06
585.401	319.06
585.611	314.06
585.821	299.06
586.032	319.06
586.242	293.06
586.452	306.06
586.662	323.06
586.872	297.06
587.082	305.06
587.292	308.06
587.502	292.06
587.713	298.06
587.923	311.06
588.133	289.06
588.343	308.06
588.553	310.06
588.762	309.06
588.972	311.06
589.182	294.06
589.392	304.06
589.602	301.06
589.812	302.06
590.022	292.06
590.232	322.06
590.441	295.06
590.651	309.06
590.861	294.06
591.071	309.06
591.281	297.06
591.49	294.06
591.7	303.06
591.91	309.06
592.119	320.06
592.329	313.06
592.539	323.06
592.748	338.06
592.958	326.06
593.167	319.06
593.377	324.06
593.587	342.06
593.796	330.06
594.006	351.06
594.215	337.06
594.424	331.06
594.634	335.06
594.843	341.06
595.053	335.06
595.262	312.06
595.472	319.06
595.681	321.06
595.89	288.06
596.1	289.06
596.309	311.06
596.518	287.06
596.727	286.06
596.937	306.06
597.146	293.06
597.355	289.06
597.564	280.06
597.774	277.06
597.983	278.06
598.192	274.06
598.401	275.06
598.61	263.06
598.819	278.06
599.028	295.06
599.237	277.06
599.446	245.06
599.655	255.06
599.864	295.06
600.073	285.06
600.282	262.06
600.491	271.06
600.7	259.06
600.909	257.06
601.118	268.06
601.327	270.06
601.536	246.06
601.745	252.06
601.953	268.06
602.162	249.06
602.371	265.06
602.58	243.06
602.789	265.06
602.997	265.06
603.206	245.06
603.415	259.06
603.623	238.06
603.832	274.06
604.041	262.06
604.249	258.06
604.458	242.06
604.666	251.06
604.875	247.06
605.084	252.06
605.292	250.06
605.501	259.06
605.709	247.06
605.918	255.06
606.126	255.06
606.334	269.06
606.543	261.06
606.751	232.06
606.96	258.06
607.168	222.06
607.376	245.06
607.585	232.06
607.793	248.06
608.001	245.06
608.21	243.06
608.418	228.06
608.626	234.06
608.834	239.06
609.043	256.06
609.251	249.06
609.459	254.06
609.667	259.06
609.875	253.06
610.083	240.06
610.291	246.06
610.499	255.06
610.707	237.06
610.916	265.06
611.124	244.06
611.332	257.06
611.54	251.06
611.748	261.06
611.955	260.06
612.163	241.06
612.371	258.06
612.579	244.06
612.787	250.06
612.995	243.06
613.203	238.06
613.411	229.06
613.618	230.06
613.826	247.06
614.034	259.06
614.242	257.06
614.449	234.06
614.657	234.06
614.865	238.06
615.072	243.06
615.28	256.06
615.488	221.06
615.695	245.06
615.903	252.06
616.111	237.06
616.318	255.06
616.526	250.06
616.733	234.06
616.941	253.06
617.148	232.06
617.356	237.06
617.563	244.06
617.771	241.06
617.978	233.06
618.185	224.06
618.393	231.06
618.6	221.06
618.807	228.06
619.015	253.06
619.222	217.06
619.429	253.06
619.637	245.06
619.844	217.06
620.051	245.06
620.258	220.06
620.466	227.06
620.673	225.06
620.88	227.06
621.087	225.06
621.294	226.06
621.501	226.06
621.708	224.06
621.915	236.06
622.122	229.06
622.329	209.06
622.536	229.06
622.743	230.06
622.95	223.06
623.157	230.06
623.364	216.06
623.571	221.06
623.778	239.06
623.985	222.06
624.192	242.06
624.399	219.06
624.606	224.06
624.812	232.06
625.019	216.06
625.226	209.06
625.433	211.06
625.639	232.06
625.846	210.06
626.053	211.06
626.259	213.06
626.466	211.06
626.673	196.06
626.879	210.06
627.086	189.06
627.293	207.06
627.499	216.06
627.706	218.06
627.912	211.06
628.119	211.06
628.325	213.06
628.532	229.06
628.738	200.06
628.945	214.06
629.151	215.06
629.357	201.06
629.564	216.06
629.77	221.06
629.976	208.06
630.183	211.06
630.389	199.06
630.595	202.06
630.802	210.06
631.008	194.06
631.214	187.06
631.42	199.06
631.627	192.06
631.833	195.06
632.039	190.06
632.245	192.06
632.451	198.06
632.657	198.06
632.863	193.06
633.069	195.06
633.275	199.06
633.481	197.06
633.688	195.06
633.893	190.06
634.099	191.06
634.305	190.06
634.511	197.06
634.717	190.06
634.923	157.06
635.129	175.06
635.335	178.06
635.541	195.06
635.747	178.06
635.952	187.06
636.158	188.06
636.364	187.06
636.57	196.06
636.775	197.06
636.981	189.06
637.187	198.06
637.392	173.06
637.598	178.06
637.804	179.06
638.009	197.06
638.215	191.06
638.421	191.06
638.626	183.06
638.832	182.06
639.037	175.06
639.243	178.06
639.448	159.06
639.654	191.06
639.859	176.06
640.065	167.06
640.27	167.06
640.475	177.06
640.681	186.06
640.886	181.06
641.091	178.06
641.297	169.06
641.502	177.06
641.707	175.06
641.913	157.06
642.118	157.06
642.323	180.06
642.528	182.06
642.733	166.06
642.939	179.06
643.144	170.06
643.349	145.06
643.554	149.06
643.759	180.06
643.964	172.06
644.169	190.06
644.374	178.06
644.579	164.06
644.784	165.06
644.989	178.06
645.194	169.06
645.399	166.06
645.604	162.06
645.809	163.06
646.014	182.06
646.219	170.06
646.423	164.06
646.628	176.06
646.833	163.06
647.038	181.06
647.243	153.06
647.447	176.06
647.652	171.06
647.857	180.06
648.062	173.06
648.266	160.06
648.471	180.06
648.676	189.06
648.88	180.06
649.085	168.06
649.289	164.06
649.494	157.06
649.698	185.06
649.903	175.06
650.107	177.06
650.312	166.06
650.516	160.06
650.721	168.06
650.925	155.06
651.13	162.06
651.334	151.06
651.539	131.06
651.743	153.06
651.947	152.06
652.152	158.06
652.356	145.06
652.56	158.06
652.764	139.06
652.969	139.06
653.173	134.06
653.377	146.06
653.581	145.06
653.785	131.06
653.99	146.06
654.194	128.06
654.398	133.06
654.602	138.06
654.806	139.06
655.01	154.06
655.214	151.06
655.418	142.06
655.622	135.06
655.826	150.06
656.03	154.06
656.234	147.06
656.438	132.06
656.642	137.06
656.846	127.06
657.049	128.06
657.253	121.06
657.457	118.06
657.661	107.06
657.865	116.06
658.068	110.06
658.272	111.06
658.476	104.06
658.68	109.06
658.883	102.06
659.087	97.06
659.291	110.06
659.494	106.06
659.698	98.06
659.901	87.06
660.105	108.06
660.309	91.06
660.512	95.06
660.716	111.06
660.919	86.06
661.123	95.06
661.326	95.06
661.53	90.06
661.733	86.06
661.936	101.06
662.14	102.06
662.343	86.06
662.546	74.06
662.75	87.06
662.953	93.06
663.156	74.06
663.36	76.06
663.563	87.06
663.766	75.06
663.969	85.06
664.173	65.06
664.376	91.06
664.579	80.06
664.782	79.06
664.985	85.06
665.188	83.06
665.391	81.06
665.594	94.06
665.797	83.06
666	85.06
666.203	82.06
666.406	79.06
666.609	76.06
666.812	82.06
667.015	83.06
667.218	91.06
667.421	78.06
667.624	89.06
667.827	98.06
668.03	102.06
668.232	77.06
668.435	74.06
668.638	88.06
668.841	81.06
669.043	78.06
669.246	68.06
669.449	67.06
669.651	70.06
669.854	73.06
670.057	87.06
670.259	79.06
670.462	78.06
670.665	77.06
670.867	85.06
671.07	84.06
671.272	75.06
671.475	86.06
671.677	77.06
671.88	76.06
672.082	83.06
672.284	84.06
672.487	84.06
672.689	78.06
672.892	71.06
