Data from 1976.PennyLincolnUp.Lamp.En5.5.200Scan.071719.P1.Changed Mount._HRD10591_15-59-50-861.txt Node
Date: Thu Jul 18 15:59:50 EDT 2019
User: cochatt
Spectrometer: HR+D1059
Trigger mode: 1
Integration Time (sec): 1.000000E-1
Scans to average: 1
Electric dark correction enabled: true
Nonlinearity correction enabled: false
Boxcar width: 0
XAxis mode: Wavelengths
Number of Pixels in Spectrum: 2048
>>>>>Begin Spectral Data<<<<<
223.165	-11.31
223.4	-11.31
223.635	-11.31
223.869	-16.31
224.104	-9.31
224.338	-25.31
224.573	0.69
224.808	-14.31
225.042	-4.31
225.277	-11.31
225.511	-0.31
225.746	-9.31
225.98	6.69
226.215	8.69
226.449	11.69
226.683	16.69
226.918	22.69
227.152	34.69
227.387	38.69
227.621	35.69
227.856	45.69
228.09	58.69
228.324	56.69
228.559	50.69
228.793	46.69
229.027	93.69
229.262	85.69
229.496	100.69
229.73	129.69
229.964	153.69
230.199	119.69
230.433	112.69
230.667	120.69
230.901	97.69
231.136	101.69
231.37	104.69
231.604	115.69
231.838	102.69
232.072	116.69
232.306	117.69
232.541	111.69
232.775	105.69
233.009	104.69
233.243	118.69
233.477	108.69
233.711	116.69
233.945	118.69
234.179	116.69
234.413	125.69
234.647	115.69
234.881	123.69
235.115	123.69
235.349	120.69
235.583	106.69
235.817	111.69
236.051	130.69
236.285	118.69
236.519	124.69
236.753	118.69
236.987	125.69
237.221	144.69
237.455	206.69
237.689	168.69
237.922	132.69
238.156	135.69
238.39	123.69
238.624	124.69
238.858	123.69
239.091	116.69
239.325	132.69
239.559	117.69
239.793	120.69
240.027	126.69
240.26	139.69
240.494	139.69
240.728	148.69
240.961	150.69
241.195	135.69
241.429	144.69
241.662	134.69
241.896	134.69
242.13	131.69
242.363	126.69
242.597	125.69
242.83	151.69
243.064	137.69
243.298	136.69
243.531	132.69
243.765	136.69
243.998	151.69
244.232	150.69
244.465	138.69
244.699	133.69
244.932	137.69
245.166	134.69
245.399	136.69
245.633	145.69
245.866	143.69
246.099	141.69
246.333	143.69
246.566	170.69
246.8	156.69
247.033	156.69
247.266	140.69
247.5	159.69
247.733	154.69
247.966	176.69
248.2	172.69
248.433	171.69
248.666	151.69
248.899	188.69
249.133	184.69
249.366	189.69
249.599	180.69
249.832	188.69
250.066	168.69
250.299	175.69
250.532	199.69
250.765	191.69
250.998	210.69
251.231	215.69
251.465	206.69
251.698	206.69
251.931	181.69
252.164	192.69
252.397	182.69
252.63	198.69
252.863	200.69
253.096	217.69
253.329	213.69
253.562	216.69
253.795	192.69
254.028	204.69
254.261	206.69
254.494	205.69
254.727	234.69
254.96	261.69
255.193	259.69
255.426	242.69
255.659	215.69
255.892	207.69
256.124	220.69
256.357	229.69
256.59	210.69
256.823	207.69
257.056	200.69
257.289	187.69
257.521	222.69
257.754	202.69
257.987	186.69
258.22	205.69
258.452	193.69
258.685	212.69
258.918	210.69
259.151	213.69
259.383	218.69
259.616	222.69
259.849	229.69
260.081	229.69
260.314	243.69
260.547	242.69
260.779	249.69
261.012	225.69
261.244	222.69
261.477	203.69
261.71	217.69
261.942	216.69
262.175	216.69
262.407	208.69
262.64	196.69
262.872	210.69
263.105	229.69
263.337	195.69
263.57	202.69
263.802	211.69
264.035	199.69
264.267	204.69
264.499	199.69
264.732	214.69
264.964	220.69
265.197	227.69
265.429	210.69
265.661	223.69
265.894	216.69
266.126	217.69
266.358	232.69
266.591	236.69
266.823	249.69
267.055	226.69
267.287	234.69
267.52	202.69
267.752	238.69
267.984	250.69
268.216	217.69
268.448	212.69
268.681	226.69
268.913	258.69
269.145	251.69
269.377	283.69
269.609	259.69
269.841	275.69
270.073	266.69
270.306	286.69
270.538	322.69
270.77	302.69
271.002	288.69
271.234	291.69
271.466	284.69
271.698	291.69
271.93	296.69
272.162	301.69
272.394	296.69
272.626	296.69
272.858	283.69
273.09	264.69
273.322	262.69
273.553	246.69
273.785	271.69
274.017	262.69
274.249	276.69
274.481	250.69
274.713	259.69
274.945	258.69
275.176	269.69
275.408	261.69
275.64	262.69
275.872	259.69
276.104	254.69
276.335	254.69
276.567	261.69
276.799	279.69
277.031	296.69
277.262	316.69
277.494	317.69
277.726	307.69
277.957	255.69
278.189	280.69
278.421	294.69
278.652	275.69
278.884	267.69
279.115	276.69
279.347	263.69
279.579	271.69
279.81	258.69
280.042	251.69
280.273	276.69
280.505	277.69
280.736	275.69
280.968	265.69
281.199	270.69
281.431	283.69
281.662	277.69
281.894	268.69
282.125	287.69
282.356	293.69
282.588	296.69
282.819	306.69
283.051	275.69
283.282	284.69
283.513	293.69
283.745	293.69
283.976	280.69
284.207	260.69
284.439	297.69
284.67	287.69
284.901	294.69
285.132	287.69
285.364	286.69
285.595	296.69
285.826	292.69
286.057	289.69
286.288	285.69
286.52	286.69
286.751	289.69
286.982	299.69
287.213	288.69
287.444	289.69
287.675	292.69
287.906	307.69
288.138	289.69
288.369	316.69
288.6	295.69
288.831	321.69
289.062	299.69
289.293	321.69
289.524	306.69
289.755	295.69
289.986	288.69
290.217	291.69
290.448	298.69
290.679	301.69
290.91	292.69
291.141	303.69
291.371	308.69
291.602	291.69
291.833	279.69
292.064	317.69
292.295	299.69
292.526	299.69
292.757	300.69
292.987	292.69
293.218	270.69
293.449	303.69
293.68	304.69
293.91	307.69
294.141	300.69
294.372	291.69
294.603	292.69
294.833	322.69
295.064	300.69
295.295	302.69
295.525	298.69
295.756	289.69
295.987	305.69
296.217	317.69
296.448	326.69
296.679	322.69
296.909	308.69
297.14	292.69
297.37	316.69
297.601	303.69
297.831	303.69
298.062	301.69
298.292	309.69
298.523	312.69
298.753	317.69
298.984	319.69
299.214	320.69
299.445	316.69
299.675	298.69
299.905	317.69
300.136	318.69
300.366	342.69
300.597	316.69
300.827	331.69
301.057	316.69
301.288	347.69
301.518	329.69
301.748	321.69
301.979	325.69
302.209	328.69
302.439	329.69
302.669	340.69
302.9	323.69
303.13	338.69
303.36	339.69
303.59	349.69
303.82	344.69
304.051	345.69
304.281	319.69
304.511	349.69
304.741	322.69
304.971	326.69
305.201	350.69
305.431	342.69
305.661	351.69
305.891	323.69
306.121	343.69
306.352	344.69
306.582	333.69
306.812	326.69
307.042	344.69
307.272	348.69
307.502	347.69
307.731	344.69
307.961	353.69
308.191	336.69
308.421	333.69
308.651	327.69
308.881	334.69
309.111	336.69
309.341	330.69
309.571	344.69
309.8	347.69
310.03	354.69
310.26	383.69
310.49	356.69
310.72	372.69
310.949	372.69
311.179	378.69
311.409	373.69
311.639	362.69
311.868	360.69
312.098	362.69
312.328	362.69
312.557	390.69
312.787	402.69
313.017	391.69
313.246	405.69
313.476	383.69
313.706	364.69
313.935	392.69
314.165	390.69
314.394	377.69
314.624	380.69
314.853	388.69
315.083	375.69
315.312	376.69
315.542	378.69
315.771	374.69
316.001	372.69
316.23	372.69
316.46	387.69
316.689	370.69
316.919	361.69
317.148	390.69
317.377	392.69
317.607	379.69
317.836	401.69
318.065	395.69
318.295	379.69
318.524	381.69
318.753	360.69
318.983	379.69
319.212	374.69
319.441	386.69
319.67	375.69
319.9	392.69
320.129	376.69
320.358	391.69
320.587	385.69
320.816	360.69
321.046	410.69
321.275	384.69
321.504	394.69
321.733	400.69
321.962	376.69
322.191	396.69
322.42	409.69
322.649	404.69
322.878	409.69
323.108	436.69
323.337	432.69
323.566	459.69
323.795	468.69
324.024	486.69
324.253	572.69
324.482	796.69
324.71	1158.69
324.939	1724.69
325.168	1511.69
325.397	767.69
325.626	544.69
325.855	485.69
326.084	464.69
326.313	450.69
326.542	444.69
326.77	480.69
326.999	566.69
327.228	720.69
327.457	1074.69
327.686	1338.69
327.914	876.69
328.143	598.69
328.372	531.69
328.6	522.69
328.829	496.69
329.058	498.69
329.287	507.69
329.515	470.69
329.744	461.69
329.972	468.69
330.201	493.69
330.43	483.69
330.658	507.69
330.887	565.69
331.115	522.69
331.344	486.69
331.572	459.69
331.801	456.69
332.03	449.69
332.258	439.69
332.486	456.69
332.715	452.69
332.943	436.69
333.172	456.69
333.4	458.69
333.629	468.69
333.857	458.69
334.085	474.69
334.314	509.69
334.542	500.69
334.771	500.69
334.999	520.69
335.227	471.69
335.455	476.69
335.684	455.69
335.912	462.69
336.14	435.69
336.369	455.69
336.597	442.69
336.825	438.69
337.053	429.69
337.281	450.69
337.51	422.69
337.738	468.69
337.966	451.69
338.194	437.69
338.422	440.69
338.65	441.69
338.878	445.69
339.106	449.69
339.334	418.69
339.562	438.69
339.79	431.69
340.018	428.69
340.246	420.69
340.474	403.69
340.702	405.69
340.93	439.69
341.158	435.69
341.386	438.69
341.614	436.69
341.842	438.69
342.07	420.69
342.298	422.69
342.526	435.69
342.754	445.69
342.981	426.69
343.209	399.69
343.437	421.69
343.665	438.69
343.893	455.69
344.12	470.69
344.348	459.69
344.576	425.69
344.804	423.69
345.031	440.69
345.259	453.69
345.487	446.69
345.714	426.69
345.942	435.69
346.17	419.69
346.397	405.69
346.625	407.69
346.853	432.69
347.08	410.69
347.308	420.69
347.535	427.69
347.763	418.69
347.99	399.69
348.218	433.69
348.445	435.69
348.673	415.69
348.9	404.69
349.128	400.69
349.355	419.69
349.583	394.69
349.81	386.69
350.037	414.69
350.265	402.69
350.492	407.69
350.72	397.69
350.947	399.69
351.174	422.69
351.402	430.69
351.629	408.69
351.856	407.69
352.083	387.69
352.311	416.69
352.538	405.69
352.765	422.69
352.992	412.69
353.22	402.69
353.447	398.69
353.674	407.69
353.901	414.69
354.128	384.69
354.355	388.69
354.583	403.69
354.81	394.69
355.037	398.69
355.264	387.69
355.491	399.69
355.718	396.69
355.945	406.69
356.172	380.69
356.399	383.69
356.626	399.69
356.853	396.69
357.08	390.69
357.307	381.69
357.534	384.69
357.761	388.69
357.988	394.69
358.215	412.69
358.441	408.69
358.668	398.69
358.895	398.69
359.122	394.69
359.349	396.69
359.576	414.69
359.802	416.69
360.029	427.69
360.256	449.69
360.483	422.69
360.709	409.69
360.936	410.69
361.163	414.69
361.39	401.69
361.616	415.69
361.843	384.69
362.07	414.69
362.296	417.69
362.523	426.69
362.749	399.69
362.976	414.69
363.203	403.69
363.429	414.69
363.656	389.69
363.882	398.69
364.109	402.69
364.335	379.69
364.562	398.69
364.788	395.69
365.015	406.69
365.241	376.69
365.468	410.69
365.694	421.69
365.92	400.69
366.147	392.69
366.373	412.69
366.599	394.69
366.826	405.69
367.052	414.69
367.278	400.69
367.505	400.69
367.731	388.69
367.957	404.69
368.184	391.69
368.41	407.69
368.636	421.69
368.862	416.69
369.089	420.69
369.315	394.69
369.541	396.69
369.767	409.69
369.993	383.69
370.219	408.69
370.445	388.69
370.672	408.69
370.898	408.69
371.124	412.69
371.35	410.69
371.576	409.69
371.802	410.69
372.028	396.69
372.254	403.69
372.48	408.69
372.706	416.69
372.932	405.69
373.158	420.69
373.384	450.69
373.61	418.69
373.835	393.69
374.061	402.69
374.287	423.69
374.513	406.69
374.739	407.69
374.965	413.69
375.191	436.69
375.416	425.69
375.642	418.69
375.868	409.69
376.094	421.69
376.319	394.69
376.545	414.69
376.771	404.69
376.997	368.69
377.222	385.69
377.448	398.69
377.674	394.69
377.899	382.69
378.125	410.69
378.35	399.69
378.576	409.69
378.802	383.69
379.027	423.69
379.253	405.69
379.478	392.69
379.704	405.69
379.929	384.69
380.155	407.69
380.38	400.69
380.606	405.69
380.831	382.69
381.057	413.69
381.282	380.69
381.507	399.69
381.733	418.69
381.958	414.69
382.184	399.69
382.409	408.69
382.634	418.69
382.86	423.69
383.085	420.69
383.31	407.69
383.535	427.69
383.761	454.69
383.986	407.69
384.211	402.69
384.436	439.69
384.662	432.69
384.887	446.69
385.112	468.69
385.337	448.69
385.562	474.69
385.787	442.69
386.013	443.69
386.238	462.69
386.463	461.69
386.688	456.69
386.913	448.69
387.138	441.69
387.363	457.69
387.588	447.69
387.813	446.69
388.038	461.69
388.263	459.69
388.488	451.69
388.713	451.69
388.938	444.69
389.163	464.69
389.387	456.69
389.612	450.69
389.837	427.69
390.062	442.69
390.287	455.69
390.512	438.69
390.736	454.69
390.961	454.69
391.186	460.69
391.411	475.69
391.636	475.69
391.86	487.69
392.085	461.69
392.31	469.69
392.534	455.69
392.759	471.69
392.984	473.69
393.208	448.69
393.433	487.69
393.658	467.69
393.882	453.69
394.107	456.69
394.331	455.69
394.556	464.69
394.78	468.69
395.005	472.69
395.229	459.69
395.454	466.69
395.678	464.69
395.903	494.69
396.127	494.69
396.352	511.69
396.576	480.69
396.801	463.69
397.025	467.69
397.249	480.69
397.474	490.69
397.698	498.69
397.922	507.69
398.147	500.69
398.371	539.69
398.595	520.69
398.82	499.69
399.044	554.69
399.268	564.69
399.492	605.69
399.717	620.69
399.941	642.69
400.165	660.69
400.389	651.69
400.613	585.69
400.837	541.69
401.062	520.69
401.286	528.69
401.51	545.69
401.734	520.69
401.958	545.69
402.182	533.69
402.406	541.69
402.63	548.69
402.854	541.69
403.078	567.69
403.302	540.69
403.526	556.69
403.75	539.69
403.974	554.69
404.198	541.69
404.422	544.69
404.645	536.69
404.869	543.69
405.093	567.69
405.317	615.69
405.541	640.69
405.765	622.69
405.988	566.69
406.212	554.69
406.436	562.69
406.66	599.69
406.883	569.69
407.107	606.69
407.331	663.69
407.555	715.69
407.778	729.69
408.002	656.69
408.226	602.69
408.449	580.69
408.673	590.69
408.896	614.69
409.12	657.69
409.344	642.69
409.567	585.69
409.791	562.69
410.014	540.69
410.238	569.69
410.461	520.69
410.685	554.69
410.908	566.69
411.132	588.69
411.355	617.69
411.578	608.69
411.802	554.69
412.025	537.69
412.249	556.69
412.472	569.69
412.695	602.69
412.919	588.69
413.142	582.69
413.365	537.69
413.589	532.69
413.812	522.69
414.035	518.69
414.258	506.69
414.482	524.69
414.705	523.69
414.928	536.69
415.151	532.69
415.374	538.69
415.597	520.69
415.821	536.69
416.044	493.69
416.267	542.69
416.49	516.69
416.713	526.69
416.936	505.69
417.159	502.69
417.382	514.69
417.605	504.69
417.828	521.69
418.051	542.69
418.274	540.69
418.497	515.69
418.72	512.69
418.943	516.69
419.166	540.69
419.389	557.69
419.611	555.69
419.834	555.69
420.057	559.69
420.28	557.69
420.503	526.69
420.726	545.69
420.948	545.69
421.171	600.69
421.394	596.69
421.617	573.69
421.839	538.69
422.062	542.69
422.285	559.69
422.507	611.69
422.73	673.69
422.953	647.69
423.175	589.69
423.398	557.69
423.621	545.69
423.843	567.69
424.066	597.69
424.288	563.69
424.511	576.69
424.733	631.69
424.956	711.69
425.178	668.69
425.401	674.69
425.623	678.69
425.846	591.69
426.068	584.69
426.291	548.69
426.513	557.69
426.735	598.69
426.958	598.69
427.18	675.69
427.402	809.69
427.625	873.69
427.847	746.69
428.069	655.69
428.292	604.69
428.514	531.69
428.736	527.69
428.958	533.69
429.181	501.69
429.403	524.69
429.625	526.69
429.847	552.69
430.069	615.69
430.292	620.69
430.514	544.69
430.736	516.69
430.958	524.69
431.18	488.69
431.402	494.69
431.624	492.69
431.846	479.69
432.068	486.69
432.29	504.69
432.512	490.69
432.734	510.69
432.956	520.69
433.178	514.69
433.4	508.69
433.622	485.69
433.844	500.69
434.066	493.69
434.287	483.69
434.509	515.69
434.731	515.69
434.953	518.69
435.175	544.69
435.397	564.69
435.618	544.69
435.84	568.69
436.062	661.69
436.284	772.69
436.505	629.69
436.727	583.69
436.949	540.69
437.17	532.69
437.392	507.69
437.614	526.69
437.835	568.69
438.057	632.69
438.278	702.69
438.5	727.69
438.721	807.69
438.943	784.69
439.165	628.69
439.386	566.69
439.608	558.69
439.829	564.69
440.05	576.69
440.272	610.69
440.493	577.69
440.715	550.69
440.936	527.69
441.158	525.69
441.379	521.69
441.6	541.69
441.822	549.69
442.043	605.69
442.264	645.69
442.486	692.69
442.707	606.69
442.928	559.69
443.149	566.69
443.371	582.69
443.592	604.69
443.813	733.69
444.034	794.69
444.255	652.69
444.476	613.69
444.698	594.69
444.919	581.69
445.14	712.69
445.361	619.69
445.582	616.69
445.803	653.69
446.024	751.69
446.245	743.69
446.466	663.69
446.687	568.69
446.908	543.69
447.129	511.69
447.35	528.69
447.571	523.69
447.792	503.69
448.013	525.69
448.234	516.69
448.455	575.69
448.675	660.69
448.896	806.69
449.117	653.69
449.338	602.69
449.559	742.69
449.779	856.69
450	647.69
450.221	546.69
450.442	503.69
450.662	477.69
450.883	496.69
451.104	489.69
451.324	506.69
451.545	479.69
451.766	464.69
451.986	466.69
452.207	466.69
452.428	450.69
452.648	431.69
452.869	440.69
453.089	463.69
453.31	471.69
453.53	479.69
453.751	485.69
453.971	435.69
454.192	480.69
454.412	431.69
454.633	454.69
454.853	442.69
455.073	446.69
455.294	469.69
455.514	534.69
455.734	536.69
455.955	458.69
456.175	466.69
456.395	457.69
456.616	442.69
456.836	421.69
457.056	434.69
457.276	438.69
457.497	454.69
457.717	446.69
457.937	440.69
458.157	460.69
458.377	428.69
458.598	456.69
458.818	473.69
459.038	568.69
459.258	612.69
459.478	539.69
459.698	488.69
459.918	503.69
460.138	508.69
460.358	512.69
460.578	496.69
460.798	544.69
461.018	514.69
461.238	503.69
461.458	500.69
461.678	517.69
461.898	527.69
462.118	521.69
462.338	538.69
462.558	542.69
462.777	556.69
462.997	553.69
463.217	581.69
463.437	583.69
463.657	583.69
463.876	541.69
464.096	562.69
464.316	532.69
464.536	567.69
464.755	524.69
464.975	547.69
465.195	575.69
465.414	582.69
465.634	536.69
465.854	511.69
466.073	492.69
466.293	498.69
466.512	466.69
466.732	490.69
466.951	492.69
467.171	469.69
467.391	475.69
467.61	472.69
467.829	493.69
468.049	481.69
468.268	476.69
468.488	466.69
468.707	459.69
468.927	479.69
469.146	473.69
469.365	448.69
469.585	462.69
469.804	481.69
470.023	466.69
470.243	486.69
470.462	460.69
470.681	507.69
470.901	512.69
471.12	487.69
471.339	484.69
471.558	469.69
471.777	475.69
471.997	460.69
472.216	469.69
472.435	482.69
472.654	468.69
472.873	464.69
473.092	467.69
473.311	458.69
473.53	477.69
473.749	466.69
473.968	515.69
474.187	592.69
474.406	616.69
474.625	542.69
474.844	484.69
475.063	493.69
475.282	463.69
475.501	473.69
475.72	474.69
475.939	490.69
476.158	486.69
476.377	475.69
476.596	487.69
476.814	523.69
477.033	515.69
477.252	504.69
477.471	503.69
477.69	519.69
477.908	534.69
478.127	534.69
478.346	509.69
478.564	533.69
478.783	540.69
479.002	561.69
479.22	554.69
479.439	549.69
479.658	580.69
479.876	579.69
480.095	595.69
480.313	619.69
480.532	585.69
480.751	588.69
480.969	592.69
481.188	604.69
481.406	637.69
481.624	602.69
481.843	579.69
482.061	581.69
482.28	552.69
482.498	542.69
482.717	540.69
482.935	565.69
483.153	548.69
483.372	544.69
483.59	560.69
483.808	546.69
484.027	562.69
484.245	564.69
484.463	558.69
484.681	573.69
484.9	574.69
485.118	562.69
485.336	562.69
485.554	578.69
485.772	583.69
485.99	552.69
486.209	579.69
486.427	580.69
486.645	585.69
486.863	586.69
487.081	606.69
487.299	591.69
487.517	603.69
487.735	599.69
487.953	592.69
488.171	596.69
488.389	614.69
488.607	574.69
488.825	581.69
489.043	591.69
489.261	589.69
489.479	610.69
489.696	589.69
489.914	615.69
490.132	605.69
490.35	608.69
490.568	629.69
490.786	634.69
491.003	644.69
491.221	649.69
491.439	642.69
491.657	675.69
491.874	656.69
492.092	661.69
492.31	678.69
492.527	667.69
492.745	668.69
492.963	681.69
493.18	683.69
493.398	682.69
493.615	702.69
493.833	712.69
494.05	677.69
494.268	688.69
494.485	672.69
494.703	687.69
494.92	698.69
495.138	685.69
495.355	702.69
495.573	695.69
495.79	701.69
496.008	704.69
496.225	704.69
496.442	667.69
496.66	703.69
496.877	695.69
497.094	672.69
497.312	692.69
497.529	704.69
497.746	734.69
497.963	755.69
498.181	760.69
498.398	782.69
498.615	809.69
498.832	813.69
499.049	859.69
499.267	860.69
499.484	934.69
499.701	966.69
499.918	970.69
500.135	1056.69
500.352	1118.69
500.569	1120.69
500.786	1128.69
501.003	1115.69
501.22	1075.69
501.437	1048.69
501.654	975.69
501.871	932.69
502.088	922.69
502.305	858.69
502.522	830.69
502.739	779.69
502.956	766.69
503.172	793.69
503.389	746.69
503.606	722.69
503.823	714.69
504.04	712.69
504.256	725.69
504.473	708.69
504.69	711.69
504.907	717.69
505.123	707.69
505.34	660.69
505.557	681.69
505.773	678.69
505.99	674.69
506.207	669.69
506.423	663.69
506.64	671.69
506.856	628.69
507.073	634.69
507.289	643.69
507.506	641.69
507.722	611.69
507.939	652.69
508.155	638.69
508.372	623.69
508.588	616.69
508.805	631.69
509.021	614.69
509.238	621.69
509.454	652.69
509.67	626.69
509.887	619.69
510.103	598.69
510.319	597.69
510.536	658.69
510.752	939.69
510.968	795.69
511.184	601.69
511.401	585.69
511.617	567.69
511.833	566.69
512.049	558.69
512.265	579.69
512.481	589.69
512.698	572.69
512.914	562.69
513.13	582.69
513.346	567.69
513.562	567.69
513.778	565.69
513.994	579.69
514.21	586.69
514.426	589.69
514.642	617.69
514.858	642.69
515.074	655.69
515.29	700.69
515.506	943.69
515.721	818.69
515.937	650.69
516.153	607.69
516.369	591.69
516.585	613.69
516.801	607.69
517.016	610.69
517.232	619.69
517.448	648.69
517.664	644.69
517.879	633.69
518.095	616.69
518.311	602.69
518.527	615.69
518.742	601.69
518.958	622.69
519.173	592.69
519.389	574.69
519.605	578.69
519.82	597.69
520.036	594.69
520.251	588.69
520.467	613.69
520.682	594.69
520.898	610.69
521.113	607.69
521.329	640.69
521.544	648.69
521.76	782.69
521.975	1146.69
522.19	1119.69
522.406	714.69
522.621	613.69
522.836	574.69
523.052	528.69
523.267	517.69
523.482	539.69
523.698	534.69
523.913	518.69
524.128	517.69
524.343	518.69
524.559	530.69
524.774	502.69
524.989	509.69
525.204	530.69
525.419	517.69
525.634	522.69
525.849	522.69
526.064	475.69
526.28	468.69
526.495	484.69
526.71	483.69
526.925	491.69
527.14	465.69
527.355	464.69
527.57	487.69
527.785	470.69
527.999	479.69
528.214	496.69
528.429	482.69
528.644	495.69
528.859	490.69
529.074	511.69
529.289	474.69
529.503	540.69
529.718	525.69
529.933	484.69
530.148	505.69
530.363	478.69
530.577	461.69
530.792	454.69
531.007	462.69
531.221	482.69
531.436	472.69
531.651	493.69
531.865	490.69
532.08	476.69
532.295	448.69
532.509	442.69
532.724	462.69
532.938	453.69
533.153	476.69
533.367	476.69
533.582	454.69
533.796	472.69
534.011	463.69
534.225	460.69
534.44	463.69
534.654	464.69
534.868	455.69
535.083	463.69
535.297	468.69
535.511	463.69
535.726	459.69
535.94	475.69
536.154	450.69
536.369	454.69
536.583	470.69
536.797	451.69
537.011	455.69
537.225	455.69
537.44	464.69
537.654	449.69
537.868	432.69
538.082	459.69
538.296	458.69
538.51	431.69
538.724	455.69
538.938	464.69
539.153	462.69
539.367	446.69
539.581	450.69
539.795	434.69
540.009	446.69
540.222	429.69
540.436	440.69
540.65	453.69
540.864	447.69
541.078	444.69
541.292	443.69
541.506	462.69
541.72	464.69
541.934	426.69
542.147	459.69
542.361	444.69
542.575	439.69
542.789	443.69
543.002	459.69
543.216	447.69
543.43	455.69
543.644	442.69
543.857	440.69
544.071	452.69
544.285	462.69
544.498	438.69
544.712	441.69
544.925	450.69
545.139	462.69
545.352	439.69
545.566	446.69
545.779	441.69
545.993	430.69
546.206	438.69
546.42	461.69
546.633	434.69
546.847	450.69
547.06	439.69
547.274	431.69
547.487	429.69
547.7	441.69
547.914	448.69
548.127	431.69
548.34	431.69
548.554	441.69
548.767	446.69
548.98	444.69
549.193	423.69
549.407	443.69
549.62	448.69
549.833	428.69
550.046	454.69
550.259	450.69
550.473	435.69
550.686	441.69
550.899	445.69
551.112	422.69
551.325	417.69
551.538	428.69
551.751	439.69
551.964	427.69
552.177	432.69
552.39	422.69
552.603	435.69
552.816	447.69
553.029	450.69
553.242	452.69
553.455	475.69
553.667	460.69
553.88	472.69
554.093	440.69
554.306	454.69
554.519	451.69
554.732	438.69
554.944	408.69
555.157	432.69
555.37	420.69
555.583	415.69
555.795	398.69
556.008	401.69
556.221	399.69
556.433	398.69
556.646	421.69
556.859	410.69
557.071	393.69
557.284	389.69
557.496	406.69
557.709	381.69
557.921	407.69
558.134	394.69
558.346	393.69
558.559	385.69
558.771	400.69
558.984	388.69
559.196	397.69
559.409	379.69
559.621	394.69
559.833	390.69
560.046	386.69
560.258	376.69
560.47	391.69
560.683	379.69
560.895	376.69
561.107	388.69
561.32	390.69
561.532	391.69
561.744	367.69
561.956	397.69
562.168	392.69
562.381	380.69
562.593	395.69
562.805	408.69
563.017	390.69
563.229	390.69
563.441	385.69
563.653	392.69
563.865	387.69
564.077	399.69
564.289	413.69
564.501	380.69
564.713	416.69
564.925	405.69
565.137	421.69
565.349	436.69
565.561	448.69
565.773	423.69
565.985	426.69
566.197	440.69
566.408	465.69
566.62	506.69
566.832	501.69
567.044	505.69
567.255	507.69
567.467	523.69
567.679	538.69
567.891	544.69
568.102	564.69
568.314	545.69
568.526	479.69
568.737	486.69
568.949	436.69
569.161	437.69
569.372	444.69
569.584	422.69
569.795	392.69
570.007	407.69
570.218	415.69
570.43	415.69
570.641	403.69
570.853	393.69
571.064	382.69
571.276	381.69
571.487	380.69
571.698	364.69
571.91	377.69
572.121	359.69
572.333	369.69
572.544	380.69
572.755	335.69
572.966	353.69
573.178	360.69
573.389	348.69
573.6	346.69
573.811	354.69
574.023	347.69
574.234	362.69
574.445	340.69
574.656	343.69
574.867	341.69
575.078	340.69
575.289	332.69
575.501	333.69
575.712	341.69
575.923	340.69
576.134	325.69
576.345	329.69
576.556	347.69
576.767	332.69
576.978	337.69
577.188	349.69
577.399	328.69
577.61	317.69
577.821	323.69
578.032	324.69
578.243	357.69
578.454	461.69
578.665	372.69
578.875	322.69
579.086	316.69
579.297	295.69
579.508	317.69
579.718	328.69
579.929	306.69
580.14	316.69
580.35	295.69
580.561	302.69
580.772	300.69
580.982	317.69
581.193	300.69
581.403	312.69
581.614	314.69
581.825	306.69
582.035	309.69
582.246	313.69
582.456	318.69
582.667	311.69
582.877	318.69
583.087	297.69
583.298	294.69
583.508	310.69
583.719	299.69
583.929	319.69
584.139	302.69
584.35	306.69
584.56	314.69
584.77	304.69
584.981	292.69
585.191	302.69
585.401	277.69
585.611	288.69
585.821	317.69
586.032	312.69
586.242	313.69
586.452	284.69
586.662	296.69
586.872	306.69
587.082	302.69
587.292	290.69
587.502	300.69
587.713	273.69
587.923	307.69
588.133	287.69
588.343	298.69
588.553	299.69
588.762	295.69
588.972	299.69
589.182	302.69
589.392	294.69
589.602	290.69
589.812	312.69
590.022	319.69
590.232	308.69
590.441	302.69
590.651	294.69
590.861	317.69
591.071	292.69
591.281	301.69
591.49	314.69
591.7	308.69
591.91	316.69
592.119	331.69
592.329	328.69
592.539	318.69
592.748	325.69
592.958	347.69
593.167	325.69
593.377	335.69
593.587	330.69
593.796	324.69
594.006	351.69
594.215	336.69
594.424	322.69
594.634	332.69
594.843	324.69
595.053	312.69
595.262	310.69
595.472	302.69
595.681	298.69
595.89	282.69
596.1	298.69
596.309	284.69
596.518	287.69
596.727	288.69
596.937	301.69
597.146	292.69
597.355	294.69
597.564	265.69
597.774	285.69
597.983	264.69
598.192	262.69
598.401	287.69
598.61	272.69
598.819	278.69
599.028	264.69
599.237	262.69
599.446	266.69
599.655	265.69
599.864	269.69
600.073	262.69
600.282	250.69
600.491	265.69
600.7	250.69
600.909	262.69
601.118	263.69
601.327	252.69
601.536	258.69
601.745	254.69
601.953	250.69
602.162	249.69
602.371	264.69
602.58	258.69
602.789	261.69
602.997	262.69
603.206	255.69
603.415	242.69
603.623	251.69
603.832	249.69
604.041	249.69
604.249	246.69
604.458	264.69
604.666	258.69
604.875	252.69
605.084	259.69
605.292	242.69
605.501	257.69
605.709	229.69
605.918	232.69
606.126	242.69
606.334	264.69
606.543	255.69
606.751	238.69
606.96	235.69
607.168	271.69
607.376	259.69
607.585	239.69
607.793	235.69
608.001	231.69
608.21	231.69
608.418	232.69
608.626	253.69
608.834	234.69
609.043	233.69
609.251	237.69
609.459	260.69
609.667	254.69
609.875	224.69
610.083	255.69
610.291	243.69
610.499	247.69
610.707	240.69
610.916	262.69
611.124	255.69
611.332	242.69
611.54	248.69
611.748	257.69
611.955	233.69
612.163	231.69
612.371	237.69
612.579	263.69
612.787	247.69
612.995	234.69
613.203	260.69
613.411	244.69
613.618	232.69
613.826	224.69
614.034	224.69
614.242	237.69
614.449	245.69
614.657	232.69
614.865	238.69
615.072	248.69
615.28	236.69
615.488	228.69
615.695	245.69
615.903	244.69
616.111	242.69
616.318	237.69
616.526	230.69
616.733	230.69
616.941	259.69
617.148	232.69
617.356	232.69
617.563	214.69
617.771	223.69
617.978	225.69
618.185	219.69
618.393	227.69
618.6	249.69
618.807	243.69
619.015	232.69
619.222	238.69
619.429	235.69
619.637	229.69
619.844	242.69
620.051	229.69
620.258	232.69
620.466	215.69
620.673	217.69
620.88	214.69
621.087	227.69
621.294	227.69
621.501	220.69
621.708	231.69
621.915	214.69
622.122	219.69
622.329	221.69
622.536	232.69
622.743	219.69
622.95	225.69
623.157	220.69
623.364	212.69
623.571	230.69
623.778	214.69
623.985	225.69
624.192	222.69
624.399	224.69
624.606	226.69
624.812	216.69
625.019	216.69
625.226	212.69
625.433	203.69
625.639	212.69
625.846	207.69
626.053	198.69
626.259	194.69
626.466	219.69
626.673	205.69
626.879	190.69
627.086	217.69
627.293	197.69
627.499	204.69
627.706	204.69
627.912	212.69
628.119	214.69
628.325	200.69
628.532	206.69
628.738	193.69
628.945	183.69
629.151	197.69
629.357	212.69
629.564	212.69
629.77	197.69
629.976	197.69
630.183	177.69
630.389	193.69
630.595	201.69
630.802	211.69
631.008	205.69
631.214	193.69
631.42	196.69
631.627	191.69
631.833	182.69
632.039	189.69
632.245	192.69
632.451	198.69
632.657	198.69
632.863	185.69
633.069	191.69
633.275	196.69
633.481	178.69
633.688	202.69
633.893	196.69
634.099	194.69
634.305	184.69
634.511	196.69
634.717	186.69
634.923	176.69
635.129	186.69
635.335	178.69
635.541	183.69
635.747	196.69
635.952	175.69
636.158	182.69
636.364	194.69
636.57	183.69
636.775	196.69
636.981	180.69
637.187	200.69
637.392	186.69
637.598	194.69
637.804	186.69
638.009	184.69
638.215	178.69
638.421	175.69
638.626	168.69
638.832	169.69
639.037	169.69
639.243	171.69
639.448	182.69
639.654	172.69
639.859	186.69
640.065	172.69
640.27	160.69
640.475	181.69
640.681	165.69
640.886	179.69
641.091	176.69
641.297	164.69
641.502	176.69
641.707	190.69
641.913	171.69
642.118	182.69
642.323	175.69
642.528	160.69
642.733	179.69
642.939	178.69
643.144	174.69
643.349	163.69
643.554	170.69
643.759	178.69
643.964	170.69
644.169	167.69
644.374	158.69
644.579	180.69
644.784	173.69
644.989	169.69
645.194	168.69
645.399	187.69
645.604	181.69
645.809	178.69
646.014	167.69
646.219	169.69
646.423	178.69
646.628	161.69
646.833	175.69
647.038	172.69
647.243	166.69
647.447	176.69
647.652	175.69
647.857	171.69
648.062	175.69
648.266	170.69
648.471	178.69
648.676	183.69
648.88	168.69
649.085	183.69
649.289	163.69
649.494	170.69
649.698	184.69
649.903	191.69
650.107	180.69
650.312	184.69
650.516	182.69
650.721	151.69
650.925	156.69
651.13	158.69
651.334	153.69
651.539	158.69
651.743	160.69
651.947	146.69
652.152	145.69
652.356	139.69
652.56	152.69
652.764	159.69
652.969	147.69
653.173	143.69
653.377	146.69
653.581	148.69
653.785	137.69
653.99	138.69
654.194	141.69
654.398	130.69
654.602	138.69
654.806	131.69
655.01	136.69
655.214	128.69
655.418	156.69
655.622	140.69
655.826	140.69
656.03	128.69
656.234	132.69
656.438	150.69
656.642	144.69
656.846	126.69
657.049	143.69
657.253	145.69
657.457	128.69
657.661	136.69
657.865	123.69
658.068	112.69
658.272	106.69
658.476	123.69
658.68	116.69
658.883	97.69
659.087	120.69
659.291	112.69
659.494	109.69
659.698	92.69
659.901	96.69
660.105	101.69
660.309	86.69
660.512	103.69
660.716	73.69
660.919	89.69
661.123	87.69
661.326	99.69
661.53	95.69
661.733	87.69
661.936	95.69
662.14	84.69
662.343	80.69
662.546	71.69
662.75	76.69
662.953	102.69
663.156	77.69
663.36	77.69
663.563	89.69
663.766	94.69
663.969	89.69
664.173	82.69
664.376	77.69
664.579	87.69
664.782	89.69
664.985	88.69
665.188	91.69
665.391	88.69
665.594	96.69
665.797	81.69
666	85.69
666.203	97.69
666.406	83.69
666.609	75.69
666.812	87.69
667.015	78.69
667.218	84.69
667.421	83.69
667.624	73.69
667.827	76.69
668.03	78.69
668.232	81.69
668.435	87.69
668.638	71.69
668.841	87.69
669.043	86.69
669.246	97.69
669.449	78.69
669.651	69.69
669.854	92.69
670.057	73.69
670.259	87.69
670.462	79.69
670.665	80.69
670.867	91.69
671.07	80.69
671.272	80.69
671.475	93.69
671.677	90.69
671.88	86.69
672.082	92.69
672.284	104.69
672.487	89.69
672.689	83.69
672.892	87.69
