Data from 1976.PennyLincolnUp.Lamp.En5.5.200Scan.071719.P1.Changed Mount._HRD10591_16-01-04-862.txt Node
Date: Thu Jul 18 16:01:04 EDT 2019
User: cochatt
Spectrometer: HR+D1059
Trigger mode: 1
Integration Time (sec): 1.000000E-1
Scans to average: 1
Electric dark correction enabled: true
Nonlinearity correction enabled: false
Boxcar width: 0
XAxis mode: Wavelengths
Number of Pixels in Spectrum: 2048
>>>>>Begin Spectral Data<<<<<
223.165	-17.19
223.4	-17.19
223.635	-17.19
223.869	-7.19
224.104	-16.19
224.338	-3.19
224.573	-17.19
224.808	-17.19
225.042	-4.19
225.277	1.81
225.511	-11.19
225.746	2.81
225.98	7.81
226.215	4.81
226.449	-0.19
226.683	37.81
226.918	19.81
227.152	18.81
227.387	27.81
227.621	16.81
227.856	41.81
228.09	36.81
228.324	49.81
228.559	45.81
228.793	62.81
229.027	79.81
229.262	99.81
229.496	113.81
229.73	123.81
229.964	147.81
230.199	126.81
230.433	104.81
230.667	104.81
230.901	111.81
231.136	126.81
231.37	122.81
231.604	100.81
231.838	95.81
232.072	112.81
232.306	119.81
232.541	125.81
232.775	118.81
233.009	120.81
233.243	117.81
233.477	111.81
233.711	118.81
233.945	107.81
234.179	109.81
234.413	110.81
234.647	118.81
234.881	97.81
235.115	104.81
235.349	120.81
235.583	108.81
235.817	119.81
236.051	119.81
236.285	121.81
236.519	117.81
236.753	121.81
236.987	137.81
237.221	168.81
237.455	225.81
237.689	180.81
237.922	134.81
238.156	127.81
238.39	134.81
238.624	139.81
238.858	119.81
239.091	120.81
239.325	126.81
239.559	132.81
239.793	114.81
240.027	129.81
240.26	152.81
240.494	148.81
240.728	155.81
240.961	148.81
241.195	147.81
241.429	141.81
241.662	124.81
241.896	135.81
242.13	140.81
242.363	125.81
242.597	152.81
242.83	136.81
243.064	145.81
243.298	146.81
243.531	139.81
243.765	130.81
243.998	139.81
244.232	134.81
244.465	154.81
244.699	151.81
244.932	159.81
245.166	145.81
245.399	147.81
245.633	154.81
245.866	160.81
246.099	152.81
246.333	138.81
246.566	148.81
246.8	153.81
247.033	165.81
247.266	153.81
247.5	141.81
247.733	153.81
247.966	157.81
248.2	163.81
248.433	149.81
248.666	182.81
248.899	174.81
249.133	194.81
249.366	197.81
249.599	191.81
249.832	183.81
250.066	179.81
250.299	192.81
250.532	186.81
250.765	201.81
250.998	196.81
251.231	247.81
251.465	217.81
251.698	206.81
251.931	196.81
252.164	190.81
252.397	192.81
252.63	194.81
252.863	195.81
253.096	193.81
253.329	227.81
253.562	210.81
253.795	224.81
254.028	221.81
254.261	228.81
254.494	243.81
254.727	247.81
254.96	280.81
255.193	266.81
255.426	247.81
255.659	243.81
255.892	223.81
256.124	229.81
256.357	234.81
256.59	223.81
256.823	219.81
257.056	209.81
257.289	208.81
257.521	209.81
257.754	201.81
257.987	223.81
258.22	225.81
258.452	208.81
258.685	209.81
258.918	203.81
259.151	215.81
259.383	239.81
259.616	235.81
259.849	219.81
260.081	238.81
260.314	246.81
260.547	266.81
260.779	250.81
261.012	227.81
261.244	238.81
261.477	230.81
261.71	225.81
261.942	222.81
262.175	233.81
262.407	232.81
262.64	232.81
262.872	240.81
263.105	225.81
263.337	212.81
263.57	224.81
263.802	226.81
264.035	221.81
264.267	235.81
264.499	215.81
264.732	207.81
264.964	221.81
265.197	226.81
265.429	219.81
265.661	209.81
265.894	238.81
266.126	235.81
266.358	240.81
266.591	235.81
266.823	241.81
267.055	225.81
267.287	242.81
267.52	251.81
267.752	252.81
267.984	254.81
268.216	222.81
268.448	235.81
268.681	246.81
268.913	247.81
269.145	269.81
269.377	290.81
269.609	277.81
269.841	267.81
270.073	282.81
270.306	310.81
270.538	327.81
270.77	325.81
271.002	318.81
271.234	286.81
271.466	306.81
271.698	316.81
271.93	299.81
272.162	316.81
272.394	314.81
272.626	321.81
272.858	302.81
273.09	295.81
273.322	265.81
273.553	267.81
273.785	267.81
274.017	274.81
274.249	264.81
274.481	264.81
274.713	264.81
274.945	297.81
275.176	290.81
275.408	275.81
275.64	270.81
275.872	263.81
276.104	294.81
276.335	269.81
276.567	306.81
276.799	298.81
277.031	314.81
277.262	315.81
277.494	328.81
277.726	334.81
277.957	292.81
278.189	300.81
278.421	277.81
278.652	278.81
278.884	288.81
279.115	298.81
279.347	296.81
279.579	299.81
279.81	291.81
280.042	273.81
280.273	291.81
280.505	280.81
280.736	286.81
280.968	273.81
281.199	273.81
281.431	271.81
281.662	292.81
281.894	294.81
282.125	298.81
282.356	299.81
282.588	302.81
282.819	302.81
283.051	304.81
283.282	289.81
283.513	293.81
283.745	307.81
283.976	308.81
284.207	291.81
284.439	299.81
284.67	311.81
284.901	295.81
285.132	311.81
285.364	281.81
285.595	298.81
285.826	320.81
286.057	288.81
286.288	310.81
286.52	291.81
286.751	320.81
286.982	308.81
287.213	296.81
287.444	317.81
287.675	315.81
287.906	320.81
288.138	321.81
288.369	329.81
288.6	318.81
288.831	307.81
289.062	301.81
289.293	317.81
289.524	297.81
289.755	315.81
289.986	322.81
290.217	298.81
290.448	313.81
290.679	314.81
290.91	304.81
291.141	303.81
291.371	300.81
291.602	303.81
291.833	304.81
292.064	308.81
292.295	300.81
292.526	314.81
292.757	305.81
292.987	316.81
293.218	320.81
293.449	323.81
293.68	319.81
293.91	299.81
294.141	309.81
294.372	308.81
294.603	307.81
294.833	313.81
295.064	318.81
295.295	336.81
295.525	327.81
295.756	307.81
295.987	314.81
296.217	344.81
296.448	348.81
296.679	348.81
296.909	326.81
297.14	315.81
297.37	306.81
297.601	326.81
297.831	334.81
298.062	326.81
298.292	328.81
298.523	325.81
298.753	330.81
298.984	336.81
299.214	336.81
299.445	346.81
299.675	349.81
299.905	334.81
300.136	331.81
300.366	338.81
300.597	330.81
300.827	336.81
301.057	352.81
301.288	345.81
301.518	349.81
301.748	331.81
301.979	342.81
302.209	350.81
302.439	350.81
302.669	354.81
302.9	350.81
303.13	356.81
303.36	349.81
303.59	348.81
303.82	346.81
304.051	344.81
304.281	367.81
304.511	366.81
304.741	347.81
304.971	359.81
305.201	355.81
305.431	355.81
305.661	347.81
305.891	360.81
306.121	323.81
306.352	359.81
306.582	366.81
306.812	356.81
307.042	359.81
307.272	360.81
307.502	372.81
307.731	352.81
307.961	366.81
308.191	369.81
308.421	358.81
308.651	352.81
308.881	350.81
309.111	362.81
309.341	364.81
309.571	384.81
309.8	383.81
310.03	374.81
310.26	371.81
310.49	398.81
310.72	387.81
310.949	418.81
311.179	410.81
311.409	383.81
311.639	361.81
311.868	390.81
312.098	386.81
312.328	397.81
312.557	421.81
312.787	402.81
313.017	402.81
313.246	382.81
313.476	402.81
313.706	425.81
313.935	394.81
314.165	396.81
314.394	394.81
314.624	413.81
314.853	407.81
315.083	388.81
315.312	380.81
315.542	411.81
315.771	408.81
316.001	402.81
316.23	390.81
316.46	382.81
316.689	384.81
316.919	395.81
317.148	418.81
317.377	385.81
317.607	393.81
317.836	395.81
318.065	416.81
318.295	384.81
318.524	396.81
318.753	401.81
318.983	412.81
319.212	409.81
319.441	392.81
319.67	402.81
319.9	394.81
320.129	391.81
320.358	416.81
320.587	395.81
320.816	414.81
321.046	403.81
321.275	414.81
321.504	414.81
321.733	421.81
321.962	410.81
322.191	432.81
322.42	442.81
322.649	448.81
322.878	447.81
323.108	428.81
323.337	472.81
323.566	468.81
323.795	499.81
324.024	534.81
324.253	634.81
324.482	857.81
324.71	1297.81
324.939	1909.81
325.168	1632.81
325.397	871.81
325.626	593.81
325.855	502.81
326.084	501.81
326.313	485.81
326.542	521.81
326.77	506.81
326.999	597.81
327.228	764.81
327.457	1138.81
327.686	1447.81
327.914	956.81
328.143	637.81
328.372	579.81
328.6	553.81
328.829	524.81
329.058	530.81
329.287	555.81
329.515	541.81
329.744	489.81
329.972	498.81
330.201	521.81
330.43	542.81
330.658	577.81
330.887	582.81
331.115	564.81
331.344	518.81
331.572	492.81
331.801	502.81
332.03	480.81
332.258	470.81
332.486	456.81
332.715	467.81
332.943	472.81
333.172	475.81
333.4	483.81
333.629	504.81
333.857	510.81
334.085	529.81
334.314	532.81
334.542	563.81
334.771	563.81
334.999	519.81
335.227	511.81
335.455	471.81
335.684	471.81
335.912	483.81
336.14	473.81
336.369	447.81
336.597	456.81
336.825	471.81
337.053	461.81
337.281	473.81
337.51	464.81
337.738	459.81
337.966	465.81
338.194	454.81
338.422	467.81
338.65	454.81
338.878	452.81
339.106	469.81
339.334	464.81
339.562	436.81
339.79	454.81
340.018	448.81
340.246	432.81
340.474	475.81
340.702	450.81
340.93	451.81
341.158	465.81
341.386	453.81
341.614	450.81
341.842	457.81
342.07	442.81
342.298	427.81
342.526	434.81
342.754	448.81
342.981	433.81
343.209	444.81
343.437	434.81
343.665	448.81
343.893	483.81
344.12	491.81
344.348	467.81
344.576	474.81
344.804	446.81
345.031	471.81
345.259	456.81
345.487	447.81
345.714	436.81
345.942	446.81
346.17	436.81
346.397	441.81
346.625	431.81
346.853	471.81
347.08	428.81
347.308	440.81
347.535	449.81
347.763	426.81
347.99	425.81
348.218	446.81
348.445	439.81
348.673	439.81
348.9	428.81
349.128	450.81
349.355	438.81
349.583	428.81
349.81	414.81
350.037	432.81
350.265	414.81
350.492	427.81
350.72	407.81
350.947	418.81
351.174	439.81
351.402	435.81
351.629	435.81
351.856	435.81
352.083	448.81
352.311	446.81
352.538	444.81
352.765	447.81
352.992	432.81
353.22	434.81
353.447	414.81
353.674	434.81
353.901	415.81
354.128	431.81
354.355	423.81
354.583	426.81
354.81	392.81
355.037	432.81
355.264	403.81
355.491	402.81
355.718	414.81
355.945	411.81
356.172	382.81
356.399	392.81
356.626	407.81
356.853	397.81
357.08	403.81
357.307	390.81
357.534	401.81
357.761	392.81
357.988	410.81
358.215	387.81
358.441	406.81
358.668	410.81
358.895	407.81
359.122	410.81
359.349	414.81
359.576	417.81
359.802	418.81
360.029	447.81
360.256	443.81
360.483	457.81
360.709	452.81
360.936	455.81
361.163	414.81
361.39	443.81
361.616	429.81
361.843	423.81
362.07	422.81
362.296	433.81
362.523	425.81
362.749	412.81
362.976	411.81
363.203	420.81
363.429	415.81
363.656	421.81
363.882	425.81
364.109	414.81
364.335	442.81
364.562	420.81
364.788	414.81
365.015	420.81
365.241	432.81
365.468	400.81
365.694	426.81
365.92	414.81
366.147	424.81
366.373	408.81
366.599	412.81
366.826	417.81
367.052	410.81
367.278	418.81
367.505	406.81
367.731	412.81
367.957	419.81
368.184	432.81
368.41	423.81
368.636	406.81
368.862	412.81
369.089	437.81
369.315	400.81
369.541	415.81
369.767	413.81
369.993	414.81
370.219	430.81
370.445	418.81
370.672	432.81
370.898	439.81
371.124	430.81
371.35	427.81
371.576	423.81
371.802	405.81
372.028	430.81
372.254	436.81
372.48	413.81
372.706	434.81
372.932	444.81
373.158	438.81
373.384	444.81
373.61	436.81
373.835	417.81
374.061	443.81
374.287	439.81
374.513	430.81
374.739	425.81
374.965	450.81
375.191	432.81
375.416	434.81
375.642	449.81
375.868	419.81
376.094	434.81
376.319	416.81
376.545	444.81
376.771	425.81
376.997	423.81
377.222	419.81
377.448	428.81
377.674	432.81
377.899	417.81
378.125	410.81
378.35	422.81
378.576	415.81
378.802	432.81
379.027	423.81
379.253	419.81
379.478	396.81
379.704	435.81
379.929	399.81
380.155	409.81
380.38	446.81
380.606	412.81
380.831	424.81
381.057	420.81
381.282	423.81
381.507	434.81
381.733	422.81
381.958	402.81
382.184	420.81
382.409	439.81
382.634	457.81
382.86	440.81
383.085	436.81
383.31	456.81
383.535	427.81
383.761	462.81
383.986	457.81
384.211	433.81
384.436	451.81
384.662	472.81
384.887	470.81
385.112	462.81
385.337	479.81
385.562	474.81
385.787	466.81
386.013	455.81
386.238	483.81
386.463	485.81
386.688	485.81
386.913	470.81
387.138	468.81
387.363	464.81
387.588	444.81
387.813	474.81
388.038	459.81
388.263	473.81
388.488	481.81
388.713	465.81
388.938	465.81
389.163	481.81
389.387	495.81
389.612	461.81
389.837	472.81
390.062	466.81
390.287	470.81
390.512	475.81
390.736	454.81
390.961	456.81
391.186	474.81
391.411	482.81
391.636	480.81
391.86	481.81
392.085	482.81
392.31	480.81
392.534	485.81
392.759	494.81
392.984	473.81
393.208	476.81
393.433	457.81
393.658	469.81
393.882	484.81
394.107	471.81
394.331	485.81
394.556	482.81
394.78	477.81
395.005	475.81
395.229	470.81
395.454	501.81
395.678	491.81
395.903	494.81
396.127	515.81
396.352	530.81
396.576	512.81
396.801	480.81
397.025	505.81
397.249	499.81
397.474	510.81
397.698	506.81
397.922	506.81
398.147	530.81
398.371	565.81
398.595	517.81
398.82	519.81
399.044	566.81
399.268	577.81
399.492	622.81
399.717	637.81
399.941	694.81
400.165	706.81
400.389	688.81
400.613	623.81
400.837	582.81
401.062	578.81
401.286	538.81
401.51	550.81
401.734	536.81
401.958	560.81
402.182	547.81
402.406	564.81
402.63	537.81
402.854	551.81
403.078	563.81
403.302	580.81
403.526	576.81
403.75	586.81
403.974	581.81
404.198	579.81
404.422	576.81
404.645	593.81
404.869	580.81
405.093	640.81
405.317	668.81
405.541	696.81
405.765	673.81
405.988	608.81
406.212	598.81
406.436	625.81
406.66	633.81
406.883	633.81
407.107	627.81
407.331	712.81
407.555	748.81
407.778	755.81
408.002	688.81
408.226	644.81
408.449	643.81
408.673	614.81
408.896	624.81
409.12	672.81
409.344	639.81
409.567	599.81
409.791	578.81
410.014	569.81
410.238	573.81
410.461	591.81
410.685	586.81
410.908	587.81
411.132	624.81
411.355	644.81
411.578	637.81
411.802	571.81
412.025	570.81
412.249	590.81
412.472	616.81
412.695	664.81
412.919	615.81
413.142	577.81
413.365	555.81
413.589	578.81
413.812	543.81
414.035	541.81
414.258	552.81
414.482	535.81
414.705	540.81
414.928	524.81
415.151	535.81
415.374	530.81
415.597	525.81
415.821	508.81
416.044	538.81
416.267	526.81
416.49	546.81
416.713	529.81
416.936	545.81
417.159	545.81
417.382	544.81
417.605	559.81
417.828	543.81
418.051	555.81
418.274	533.81
418.497	550.81
418.72	568.81
418.943	540.81
419.166	561.81
419.389	615.81
419.611	566.81
419.834	566.81
420.057	570.81
420.28	570.81
420.503	552.81
420.726	565.81
420.948	550.81
421.171	597.81
421.394	628.81
421.617	585.81
421.839	571.81
422.062	562.81
422.285	578.81
422.507	617.81
422.73	690.81
422.953	658.81
423.175	612.81
423.398	579.81
423.621	577.81
423.843	619.81
424.066	608.81
424.288	592.81
424.511	606.81
424.733	649.81
424.956	752.81
425.178	726.81
425.401	703.81
425.623	720.81
425.846	617.81
426.068	592.81
426.291	597.81
426.513	595.81
426.735	601.81
426.958	650.81
427.18	739.81
427.402	829.81
427.625	911.81
427.847	779.81
428.069	687.81
428.292	628.81
428.514	574.81
428.736	552.81
428.958	577.81
429.181	545.81
429.403	525.81
429.625	540.81
429.847	562.81
430.069	649.81
430.292	654.81
430.514	571.81
430.736	546.81
430.958	562.81
431.18	538.81
431.402	524.81
431.624	487.81
431.846	522.81
432.068	506.81
432.29	521.81
432.512	539.81
432.734	534.81
432.956	528.81
433.178	535.81
433.4	540.81
433.622	530.81
433.844	520.81
434.066	502.81
434.287	516.81
434.509	524.81
434.731	554.81
434.953	554.81
435.175	579.81
435.397	597.81
435.618	582.81
435.84	629.81
436.062	724.81
436.284	784.81
436.505	641.81
436.727	587.81
436.949	548.81
437.17	518.81
437.392	546.81
437.614	536.81
437.835	600.81
438.057	675.81
438.278	747.81
438.5	751.81
438.721	858.81
438.943	800.81
439.165	644.81
439.386	627.81
439.608	583.81
439.829	601.81
440.05	608.81
440.272	661.81
440.493	606.81
440.715	572.81
440.936	549.81
441.158	560.81
441.379	543.81
441.6	561.81
441.822	594.81
442.043	626.81
442.264	719.81
442.486	754.81
442.707	650.81
442.928	603.81
443.149	612.81
443.371	610.81
443.592	677.81
443.813	772.81
444.034	833.81
444.255	682.81
444.476	618.81
444.698	603.81
444.919	626.81
445.14	747.81
445.361	674.81
445.582	668.81
445.803	681.81
446.024	781.81
446.245	805.81
446.466	726.81
446.687	618.81
446.908	600.81
447.129	537.81
447.35	553.81
447.571	540.81
447.792	526.81
448.013	528.81
448.234	564.81
448.455	594.81
448.675	721.81
448.896	823.81
449.117	712.81
449.338	670.81
449.559	771.81
449.779	876.81
450	690.81
450.221	559.81
450.442	540.81
450.662	517.81
450.883	514.81
451.104	523.81
451.324	517.81
451.545	502.81
451.766	513.81
451.986	510.81
452.207	471.81
452.428	481.81
452.648	486.81
452.869	484.81
453.089	482.81
453.31	483.81
453.53	490.81
453.751	474.81
453.971	466.81
454.192	485.81
454.412	506.81
454.633	458.81
454.853	462.81
455.073	477.81
455.294	483.81
455.514	567.81
455.734	546.81
455.955	462.81
456.175	460.81
456.395	446.81
456.616	465.81
456.836	456.81
457.056	452.81
457.276	453.81
457.497	494.81
457.717	468.81
457.937	475.81
458.157	464.81
458.377	487.81
458.598	480.81
458.818	533.81
459.038	595.81
459.258	636.81
459.478	550.81
459.698	512.81
459.918	520.81
460.138	514.81
460.358	535.81
460.578	542.81
460.798	558.81
461.018	525.81
461.238	544.81
461.458	535.81
461.678	511.81
461.898	550.81
462.118	546.81
462.338	549.81
462.558	565.81
462.777	565.81
462.997	598.81
463.217	622.81
463.437	624.81
463.657	603.81
463.876	598.81
464.096	579.81
464.316	586.81
464.536	591.81
464.755	592.81
464.975	564.81
465.195	613.81
465.414	630.81
465.634	576.81
465.854	548.81
466.073	513.81
466.293	516.81
466.512	513.81
466.732	498.81
466.951	501.81
467.171	482.81
467.391	495.81
467.61	495.81
467.829	486.81
468.049	517.81
468.268	492.81
468.488	479.81
468.707	474.81
468.927	490.81
469.146	479.81
469.365	468.81
469.585	460.81
469.804	499.81
470.023	517.81
470.243	498.81
470.462	516.81
470.681	536.81
470.901	511.81
471.12	486.81
471.339	492.81
471.558	507.81
471.777	513.81
471.997	490.81
472.216	507.81
472.435	534.81
472.654	531.81
472.873	495.81
473.092	480.81
473.311	518.81
473.53	498.81
473.749	520.81
473.968	540.81
474.187	640.81
474.406	648.81
474.625	538.81
474.844	502.81
475.063	513.81
475.282	491.81
475.501	491.81
475.72	503.81
475.939	512.81
476.158	510.81
476.377	528.81
476.596	506.81
476.814	512.81
477.033	530.81
477.252	524.81
477.471	551.81
477.69	544.81
477.908	527.81
478.127	564.81
478.346	562.81
478.564	566.81
478.783	566.81
479.002	585.81
479.22	584.81
479.439	605.81
479.658	606.81
479.876	613.81
480.095	614.81
480.313	643.81
480.532	653.81
480.751	629.81
480.969	648.81
481.188	668.81
481.406	673.81
481.624	636.81
481.843	597.81
482.061	582.81
482.28	561.81
482.498	561.81
482.717	582.81
482.935	578.81
483.153	584.81
483.372	605.81
483.59	574.81
483.808	571.81
484.027	596.81
484.245	596.81
484.463	567.81
484.681	582.81
484.9	576.81
485.118	602.81
485.336	611.81
485.554	595.81
485.772	617.81
485.99	595.81
486.209	598.81
486.427	604.81
486.645	617.81
486.863	646.81
487.081	608.81
487.299	634.81
487.517	607.81
487.735	619.81
487.953	628.81
488.171	622.81
488.389	628.81
488.607	639.81
488.825	628.81
489.043	615.81
489.261	622.81
489.479	647.81
489.696	645.81
489.914	650.81
490.132	661.81
490.35	658.81
490.568	654.81
490.786	645.81
491.003	706.81
491.221	684.81
491.439	713.81
491.657	719.81
491.874	712.81
492.092	702.81
492.31	722.81
492.527	719.81
492.745	716.81
492.963	717.81
493.18	704.81
493.398	730.81
493.615	740.81
493.833	711.81
494.05	747.81
494.268	730.81
494.485	722.81
494.703	727.81
494.92	729.81
495.138	740.81
495.355	722.81
495.573	750.81
495.79	751.81
496.008	742.81
496.225	740.81
496.442	713.81
496.66	728.81
496.877	727.81
497.094	760.81
497.312	794.81
497.529	760.81
497.746	789.81
497.963	814.81
498.181	816.81
498.398	822.81
498.615	804.81
498.832	854.81
499.049	906.81
499.267	914.81
499.484	980.81
499.701	996.81
499.918	1054.81
500.135	1130.81
500.352	1184.81
500.569	1202.81
500.786	1195.81
501.003	1150.81
501.22	1113.81
501.437	1050.81
501.654	1001.81
501.871	978.81
502.088	963.81
502.305	894.81
502.522	889.81
502.739	846.81
502.956	833.81
503.172	765.81
503.389	791.81
503.606	769.81
503.823	788.81
504.04	782.81
504.256	766.81
504.473	758.81
504.69	762.81
504.907	729.81
505.123	765.81
505.34	711.81
505.557	720.81
505.773	704.81
505.99	726.81
506.207	694.81
506.423	721.81
506.64	700.81
506.856	687.81
507.073	665.81
507.289	667.81
507.506	675.81
507.722	697.81
507.939	708.81
508.155	644.81
508.372	648.81
508.588	642.81
508.805	634.81
509.021	630.81
509.238	668.81
509.454	667.81
509.67	665.81
509.887	635.81
510.103	639.81
510.319	642.81
510.536	711.81
510.752	1066.81
510.968	900.81
511.184	664.81
511.401	649.81
511.617	619.81
511.833	606.81
512.049	625.81
512.265	614.81
512.481	626.81
512.698	603.81
512.914	572.81
513.13	612.81
513.346	619.81
513.562	603.81
513.778	635.81
513.994	628.81
514.21	622.81
514.426	636.81
514.642	631.81
514.858	676.81
515.074	722.81
515.29	803.81
515.506	1083.81
515.721	934.81
515.937	695.81
516.153	666.81
516.369	644.81
516.585	641.81
516.801	640.81
517.016	636.81
517.232	645.81
517.448	692.81
517.664	668.81
517.879	662.81
518.095	654.81
518.311	660.81
518.527	632.81
518.742	650.81
518.958	602.81
519.173	602.81
519.389	655.81
519.605	616.81
519.82	610.81
520.036	619.81
520.251	631.81
520.467	645.81
520.682	637.81
520.898	646.81
521.113	636.81
521.329	686.81
521.544	739.81
521.76	878.81
521.975	1296.81
522.19	1267.81
522.406	775.81
522.621	631.81
522.836	608.81
523.052	589.81
523.267	569.81
523.482	531.81
523.698	546.81
523.913	555.81
524.128	567.81
524.343	545.81
524.559	521.81
524.774	513.81
524.989	536.81
525.204	528.81
525.419	524.81
525.634	528.81
525.849	547.81
526.064	529.81
526.28	528.81
526.495	525.81
526.71	501.81
526.925	519.81
527.14	518.81
527.355	509.81
527.57	524.81
527.785	516.81
527.999	519.81
528.214	494.81
528.429	509.81
528.644	519.81
528.859	518.81
529.074	496.81
529.289	533.81
529.503	591.81
529.718	548.81
529.933	536.81
530.148	513.81
530.363	530.81
530.577	503.81
530.792	496.81
531.007	511.81
531.221	494.81
531.436	509.81
531.651	510.81
531.865	497.81
532.08	500.81
532.295	505.81
532.509	483.81
532.724	501.81
532.938	523.81
533.153	518.81
533.367	506.81
533.582	492.81
533.796	490.81
534.011	498.81
534.225	480.81
534.44	505.81
534.654	500.81
534.868	493.81
535.083	467.81
535.297	491.81
535.511	479.81
535.726	504.81
535.94	483.81
536.154	488.81
536.369	481.81
536.583	471.81
536.797	472.81
537.011	468.81
537.225	471.81
537.44	496.81
537.654	487.81
537.868	458.81
538.082	480.81
538.296	462.81
538.51	478.81
538.724	472.81
538.938	447.81
539.153	460.81
539.367	463.81
539.581	472.81
539.795	479.81
540.009	449.81
540.222	472.81
540.436	471.81
540.65	479.81
540.864	472.81
541.078	477.81
541.292	491.81
541.506	472.81
541.72	468.81
541.934	469.81
542.147	478.81
542.361	463.81
542.575	455.81
542.789	474.81
543.002	464.81
543.216	496.81
543.43	458.81
543.644	470.81
543.857	476.81
544.071	484.81
544.285	478.81
544.498	472.81
544.712	463.81
544.925	467.81
545.139	480.81
545.352	455.81
545.566	477.81
545.779	450.81
545.993	484.81
546.206	475.81
546.42	488.81
546.633	435.81
546.847	454.81
547.06	472.81
547.274	474.81
547.487	464.81
547.7	466.81
547.914	455.81
548.127	456.81
548.34	478.81
548.554	464.81
548.767	471.81
548.98	479.81
549.193	466.81
549.407	471.81
549.62	472.81
549.833	472.81
550.046	481.81
550.259	454.81
550.473	450.81
550.686	464.81
550.899	447.81
551.112	449.81
551.325	443.81
551.538	442.81
551.751	426.81
551.964	447.81
552.177	459.81
552.39	457.81
552.603	454.81
552.816	499.81
553.029	462.81
553.242	466.81
553.455	475.81
553.667	476.81
553.88	486.81
554.093	471.81
554.306	471.81
554.519	459.81
554.732	454.81
554.944	467.81
555.157	422.81
555.37	447.81
555.583	419.81
555.795	451.81
556.008	421.81
556.221	450.81
556.433	429.81
556.646	408.81
556.859	422.81
557.071	408.81
557.284	422.81
557.496	429.81
557.709	407.81
557.921	414.81
558.134	404.81
558.346	411.81
558.559	401.81
558.771	428.81
558.984	408.81
559.196	400.81
559.409	392.81
559.621	398.81
559.833	421.81
560.046	407.81
560.258	413.81
560.47	399.81
560.683	397.81
560.895	381.81
561.107	412.81
561.32	411.81
561.532	395.81
561.744	437.81
561.956	420.81
562.168	392.81
562.381	396.81
562.593	417.81
562.805	424.81
563.017	405.81
563.229	402.81
563.441	425.81
563.653	421.81
563.865	407.81
564.077	419.81
564.289	435.81
564.501	444.81
564.713	430.81
564.925	417.81
565.137	422.81
565.349	443.81
565.561	439.81
565.773	458.81
565.985	468.81
566.197	469.81
566.408	498.81
566.62	489.81
566.832	524.81
567.044	538.81
567.255	552.81
567.467	555.81
567.679	552.81
567.891	564.81
568.102	581.81
568.314	556.81
568.526	514.81
568.737	516.81
568.949	497.81
569.161	479.81
569.372	446.81
569.584	456.81
569.795	445.81
570.007	426.81
570.218	455.81
570.43	430.81
570.641	411.81
570.853	396.81
571.064	399.81
571.276	399.81
571.487	377.81
571.698	384.81
571.91	394.81
572.121	379.81
572.333	380.81
572.544	374.81
572.755	378.81
572.966	356.81
573.178	360.81
573.389	362.81
573.6	379.81
573.811	366.81
574.023	356.81
574.234	349.81
574.445	340.81
574.656	358.81
574.867	366.81
575.078	358.81
575.289	341.81
575.501	348.81
575.712	360.81
575.923	345.81
576.134	350.81
576.345	348.81
576.556	345.81
576.767	357.81
576.978	356.81
577.188	349.81
577.399	328.81
577.61	330.81
577.821	339.81
578.032	335.81
578.243	356.81
578.454	510.81
578.665	413.81
578.875	333.81
579.086	325.81
579.297	328.81
579.508	330.81
579.718	335.81
579.929	342.81
580.14	313.81
580.35	336.81
580.561	336.81
580.772	310.81
580.982	329.81
581.193	316.81
581.403	322.81
581.614	309.81
581.825	318.81
582.035	322.81
582.246	315.81
582.456	318.81
582.667	314.81
582.877	326.81
583.087	306.81
583.298	330.81
583.508	317.81
583.719	320.81
583.929	307.81
584.139	324.81
584.35	306.81
584.56	311.81
584.77	305.81
584.981	304.81
585.191	317.81
585.401	310.81
585.611	283.81
585.821	294.81
586.032	318.81
586.242	311.81
586.452	308.81
586.662	322.81
586.872	316.81
587.082	299.81
587.292	292.81
587.502	309.81
587.713	304.81
587.923	308.81
588.133	308.81
588.343	294.81
588.553	296.81
588.762	320.81
588.972	295.81
589.182	303.81
589.392	303.81
589.602	300.81
589.812	299.81
590.022	322.81
590.232	308.81
590.441	303.81
590.651	315.81
590.861	301.81
591.071	310.81
591.281	316.81
591.49	317.81
591.7	300.81
591.91	292.81
592.119	307.81
592.329	326.81
592.539	326.81
592.748	330.81
592.958	327.81
593.167	342.81
593.377	344.81
593.587	344.81
593.796	369.81
594.006	312.81
594.215	342.81
594.424	326.81
594.634	353.81
594.843	342.81
595.053	328.81
595.262	326.81
595.472	316.81
595.681	320.81
595.89	310.81
596.1	304.81
596.309	299.81
596.518	302.81
596.727	298.81
596.937	297.81
597.146	307.81
597.355	288.81
597.564	290.81
597.774	289.81
597.983	290.81
598.192	281.81
598.401	268.81
598.61	254.81
598.819	272.81
599.028	271.81
599.237	264.81
599.446	268.81
599.655	279.81
599.864	281.81
600.073	279.81
600.282	295.81
600.491	268.81
600.7	275.81
600.909	281.81
601.118	269.81
601.327	266.81
601.536	264.81
601.745	284.81
601.953	267.81
602.162	296.81
602.371	268.81
602.58	248.81
602.789	267.81
602.997	277.81
603.206	260.81
603.415	272.81
603.623	259.81
603.832	255.81
604.041	256.81
604.249	273.81
604.458	261.81
604.666	235.81
604.875	235.81
605.084	268.81
605.292	248.81
605.501	261.81
605.709	259.81
605.918	251.81
606.126	255.81
606.334	265.81
606.543	252.81
606.751	251.81
606.96	239.81
607.168	243.81
607.376	242.81
607.585	224.81
607.793	262.81
608.001	255.81
608.21	275.81
608.418	266.81
608.626	244.81
608.834	242.81
609.043	252.81
609.251	247.81
609.459	235.81
609.667	226.81
609.875	242.81
610.083	255.81
610.291	231.81
610.499	246.81
610.707	259.81
610.916	245.81
611.124	264.81
611.332	239.81
611.54	264.81
611.748	258.81
611.955	255.81
612.163	234.81
612.371	245.81
612.579	243.81
612.787	255.81
612.995	257.81
613.203	227.81
613.411	252.81
613.618	235.81
613.826	231.81
614.034	261.81
614.242	264.81
614.449	246.81
614.657	248.81
614.865	237.81
615.072	261.81
615.28	254.81
615.488	234.81
615.695	231.81
615.903	264.81
616.111	224.81
616.318	243.81
616.526	244.81
616.733	248.81
616.941	226.81
617.148	226.81
617.356	242.81
617.563	242.81
617.771	240.81
617.978	230.81
618.185	244.81
618.393	237.81
618.6	231.81
618.807	243.81
619.015	251.81
619.222	230.81
619.429	233.81
619.637	235.81
619.844	248.81
620.051	235.81
620.258	271.81
620.466	217.81
620.673	221.81
620.88	206.81
621.087	216.81
621.294	225.81
621.501	238.81
621.708	242.81
621.915	244.81
622.122	238.81
622.329	227.81
622.536	236.81
622.743	230.81
622.95	219.81
623.157	219.81
623.364	225.81
623.571	239.81
623.778	222.81
623.985	235.81
624.192	231.81
624.399	220.81
624.606	232.81
624.812	219.81
625.019	227.81
625.226	222.81
625.433	240.81
625.639	228.81
625.846	209.81
626.053	203.81
626.259	224.81
626.466	227.81
626.673	192.81
626.879	212.81
627.086	214.81
627.293	226.81
627.499	206.81
627.706	211.81
627.912	209.81
628.119	199.81
628.325	202.81
628.532	200.81
628.738	214.81
628.945	192.81
629.151	196.81
629.357	193.81
629.564	211.81
629.77	195.81
629.976	187.81
630.183	214.81
630.389	205.81
630.595	199.81
630.802	202.81
631.008	199.81
631.214	208.81
631.42	194.81
631.627	214.81
631.833	209.81
632.039	198.81
632.245	194.81
632.451	191.81
632.657	195.81
632.863	187.81
633.069	210.81
633.275	194.81
633.481	179.81
633.688	186.81
633.893	191.81
634.099	196.81
634.305	185.81
634.511	210.81
634.717	180.81
634.923	188.81
635.129	194.81
635.335	198.81
635.541	179.81
635.747	184.81
635.952	190.81
636.158	182.81
636.364	171.81
636.57	190.81
636.775	202.81
636.981	194.81
637.187	197.81
637.392	192.81
637.598	174.81
637.804	204.81
638.009	181.81
638.215	180.81
638.421	187.81
638.626	195.81
638.832	171.81
639.037	178.81
639.243	184.81
639.448	190.81
639.654	182.81
639.859	179.81
640.065	178.81
640.27	198.81
640.475	183.81
640.681	166.81
640.886	178.81
641.091	197.81
641.297	174.81
641.502	192.81
641.707	163.81
641.913	169.81
642.118	178.81
642.323	176.81
642.528	176.81
642.733	166.81
642.939	178.81
643.144	170.81
643.349	179.81
643.554	182.81
643.759	161.81
643.964	171.81
644.169	185.81
644.374	163.81
644.579	164.81
644.784	180.81
644.989	182.81
645.194	162.81
645.399	168.81
645.604	174.81
645.809	166.81
646.014	171.81
646.219	175.81
646.423	175.81
646.628	188.81
646.833	182.81
647.038	174.81
647.243	163.81
647.447	166.81
647.652	154.81
647.857	161.81
648.062	170.81
648.266	168.81
648.471	186.81
648.676	182.81
648.88	160.81
649.085	166.81
649.289	170.81
649.494	185.81
649.698	194.81
649.903	161.81
650.107	166.81
650.312	161.81
650.516	154.81
650.721	152.81
650.925	161.81
651.13	168.81
651.334	154.81
651.539	158.81
651.743	149.81
651.947	151.81
652.152	154.81
652.356	146.81
652.56	159.81
652.764	156.81
652.969	136.81
653.173	139.81
653.377	149.81
653.581	166.81
653.785	147.81
653.99	150.81
654.194	148.81
654.398	136.81
654.602	138.81
654.806	144.81
655.01	132.81
655.214	139.81
655.418	128.81
655.622	120.81
655.826	127.81
656.03	130.81
656.234	128.81
656.438	147.81
656.642	144.81
656.846	133.81
657.049	126.81
657.253	127.81
657.457	120.81
657.661	128.81
657.865	125.81
658.068	123.81
658.272	115.81
658.476	122.81
658.68	96.81
658.883	112.81
659.087	103.81
659.291	102.81
659.494	104.81
659.698	87.81
659.901	97.81
660.105	97.81
660.309	95.81
660.512	107.81
660.716	92.81
660.919	90.81
661.123	100.81
661.326	101.81
661.53	83.81
661.733	94.81
661.936	86.81
662.14	87.81
662.343	85.81
662.546	69.81
662.75	77.81
662.953	69.81
663.156	72.81
663.36	92.81
663.563	80.81
663.766	82.81
663.969	80.81
664.173	84.81
664.376	86.81
664.579	88.81
664.782	74.81
664.985	81.81
665.188	67.81
665.391	92.81
665.594	80.81
665.797	75.81
666	104.81
666.203	74.81
666.406	71.81
666.609	68.81
666.812	71.81
667.015	83.81
667.218	73.81
667.421	76.81
667.624	82.81
667.827	93.81
668.03	88.81
668.232	78.81
668.435	76.81
668.638	90.81
668.841	76.81
669.043	81.81
669.246	68.81
669.449	70.81
669.651	81.81
669.854	86.81
670.057	79.81
670.259	75.81
670.462	85.81
670.665	95.81
670.867	88.81
671.07	67.81
671.272	69.81
671.475	72.81
671.677	71.81
671.88	81.81
672.082	76.81
672.284	72.81
672.487	63.81
672.689	78.81
672.892	67.81
