Data from 1976.PennyLincolnUp.Lamp.En5.5.200Scan.071719.P1.Changed Mount._HRD10591_16-00-13-860.txt Node
Date: Thu Jul 18 16:00:13 EDT 2019
User: cochatt
Spectrometer: HR+D1059
Trigger mode: 1
Integration Time (sec): 1.000000E-1
Scans to average: 1
Electric dark correction enabled: true
Nonlinearity correction enabled: false
Boxcar width: 0
XAxis mode: Wavelengths
Number of Pixels in Spectrum: 2048
>>>>>Begin Spectral Data<<<<<
223.165	-19.06
223.4	-19.06
223.635	-19.06
223.869	-24.06
224.104	-15.06
224.338	-13.06
224.573	-12.06
224.808	-21.06
225.042	-5.06
225.277	-13.06
225.511	13.94
225.746	10.94
225.98	11.94
226.215	13.94
226.449	21.94
226.683	18.94
226.918	8.94
227.152	21.94
227.387	21.94
227.621	23.94
227.856	47.94
228.09	42.94
228.324	41.94
228.559	60.94
228.793	57.94
229.027	87.94
229.262	95.94
229.496	119.94
229.73	136.94
229.964	143.94
230.199	113.94
230.433	104.94
230.667	104.94
230.901	110.94
231.136	105.94
231.37	107.94
231.604	127.94
231.838	105.94
232.072	107.94
232.306	105.94
232.541	112.94
232.775	119.94
233.009	118.94
233.243	109.94
233.477	127.94
233.711	111.94
233.945	123.94
234.179	99.94
234.413	123.94
234.647	123.94
234.881	125.94
235.115	128.94
235.349	123.94
235.583	125.94
235.817	130.94
236.051	122.94
236.285	117.94
236.519	132.94
236.753	124.94
236.987	150.94
237.221	176.94
237.455	227.94
237.689	180.94
237.922	131.94
238.156	107.94
238.39	129.94
238.624	127.94
238.858	120.94
239.091	128.94
239.325	124.94
239.559	122.94
239.793	125.94
240.027	137.94
240.26	150.94
240.494	147.94
240.728	155.94
240.961	129.94
241.195	139.94
241.429	150.94
241.662	137.94
241.896	124.94
242.13	131.94
242.363	133.94
242.597	153.94
242.83	113.94
243.064	143.94
243.298	137.94
243.531	140.94
243.765	140.94
243.998	145.94
244.232	138.94
244.465	155.94
244.699	162.94
244.932	147.94
245.166	148.94
245.399	154.94
245.633	144.94
245.866	145.94
246.099	145.94
246.333	161.94
246.566	154.94
246.8	153.94
247.033	159.94
247.266	151.94
247.5	175.94
247.733	176.94
247.966	166.94
248.2	163.94
248.433	183.94
248.666	177.94
248.899	174.94
249.133	198.94
249.366	205.94
249.599	171.94
249.832	183.94
250.066	185.94
250.299	186.94
250.532	191.94
250.765	189.94
250.998	211.94
251.231	208.94
251.465	198.94
251.698	194.94
251.931	196.94
252.164	178.94
252.397	192.94
252.63	201.94
252.863	214.94
253.096	214.94
253.329	217.94
253.562	215.94
253.795	214.94
254.028	233.94
254.261	214.94
254.494	228.94
254.727	241.94
254.96	263.94
255.193	267.94
255.426	248.94
255.659	231.94
255.892	230.94
256.124	216.94
256.357	232.94
256.59	222.94
256.823	229.94
257.056	202.94
257.289	219.94
257.521	208.94
257.754	209.94
257.987	207.94
258.22	185.94
258.452	206.94
258.685	209.94
258.918	195.94
259.151	197.94
259.383	218.94
259.616	215.94
259.849	217.94
260.081	221.94
260.314	239.94
260.547	250.94
260.779	241.94
261.012	235.94
261.244	235.94
261.477	219.94
261.71	217.94
261.942	226.94
262.175	230.94
262.407	228.94
262.64	209.94
262.872	205.94
263.105	222.94
263.337	203.94
263.57	230.94
263.802	217.94
264.035	229.94
264.267	210.94
264.499	177.94
264.732	229.94
264.964	215.94
265.197	210.94
265.429	227.94
265.661	211.94
265.894	219.94
266.126	222.94
266.358	221.94
266.591	228.94
266.823	223.94
267.055	232.94
267.287	215.94
267.52	241.94
267.752	233.94
267.984	247.94
268.216	231.94
268.448	224.94
268.681	229.94
268.913	246.94
269.145	261.94
269.377	275.94
269.609	289.94
269.841	263.94
270.073	250.94
270.306	289.94
270.538	299.94
270.77	307.94
271.002	304.94
271.234	275.94
271.466	263.94
271.698	296.94
271.93	311.94
272.162	301.94
272.394	319.94
272.626	298.94
272.858	291.94
273.09	292.94
273.322	270.94
273.553	248.94
273.785	275.94
274.017	283.94
274.249	274.94
274.481	279.94
274.713	265.94
274.945	286.94
275.176	263.94
275.408	270.94
275.64	266.94
275.872	267.94
276.104	264.94
276.335	270.94
276.567	279.94
276.799	288.94
277.031	308.94
277.262	335.94
277.494	330.94
277.726	302.94
277.957	291.94
278.189	288.94
278.421	286.94
278.652	272.94
278.884	267.94
279.115	264.94
279.347	266.94
279.579	269.94
279.81	290.94
280.042	296.94
280.273	279.94
280.505	281.94
280.736	262.94
280.968	288.94
281.199	298.94
281.431	298.94
281.662	299.94
281.894	266.94
282.125	284.94
282.356	284.94
282.588	298.94
282.819	294.94
283.051	283.94
283.282	292.94
283.513	301.94
283.745	282.94
283.976	308.94
284.207	301.94
284.439	309.94
284.67	280.94
284.901	271.94
285.132	275.94
285.364	267.94
285.595	271.94
285.826	282.94
286.057	296.94
286.288	273.94
286.52	274.94
286.751	293.94
286.982	299.94
287.213	303.94
287.444	286.94
287.675	290.94
287.906	316.94
288.138	322.94
288.369	299.94
288.6	324.94
288.831	313.94
289.062	319.94
289.293	307.94
289.524	311.94
289.755	305.94
289.986	315.94
290.217	313.94
290.448	291.94
290.679	304.94
290.91	313.94
291.141	311.94
291.371	297.94
291.602	299.94
291.833	303.94
292.064	307.94
292.295	283.94
292.526	309.94
292.757	304.94
292.987	318.94
293.218	293.94
293.449	306.94
293.68	307.94
293.91	311.94
294.141	308.94
294.372	324.94
294.603	305.94
294.833	304.94
295.064	300.94
295.295	293.94
295.525	306.94
295.756	308.94
295.987	312.94
296.217	322.94
296.448	331.94
296.679	332.94
296.909	315.94
297.14	308.94
297.37	331.94
297.601	314.94
297.831	325.94
298.062	323.94
298.292	315.94
298.523	317.94
298.753	322.94
298.984	325.94
299.214	321.94
299.445	320.94
299.675	329.94
299.905	324.94
300.136	337.94
300.366	312.94
300.597	329.94
300.827	310.94
301.057	341.94
301.288	349.94
301.518	341.94
301.748	341.94
301.979	338.94
302.209	342.94
302.439	329.94
302.669	316.94
302.9	354.94
303.13	361.94
303.36	318.94
303.59	357.94
303.82	352.94
304.051	340.94
304.281	328.94
304.511	349.94
304.741	314.94
304.971	330.94
305.201	334.94
305.431	328.94
305.661	347.94
305.891	341.94
306.121	339.94
306.352	356.94
306.582	347.94
306.812	351.94
307.042	354.94
307.272	336.94
307.502	355.94
307.731	343.94
307.961	342.94
308.191	337.94
308.421	335.94
308.651	351.94
308.881	336.94
309.111	347.94
309.341	353.94
309.571	348.94
309.8	369.94
310.03	360.94
310.26	369.94
310.49	348.94
310.72	373.94
310.949	401.94
311.179	384.94
311.409	375.94
311.639	386.94
311.868	367.94
312.098	379.94
312.328	397.94
312.557	406.94
312.787	391.94
313.017	395.94
313.246	385.94
313.476	380.94
313.706	375.94
313.935	365.94
314.165	383.94
314.394	397.94
314.624	395.94
314.853	396.94
315.083	382.94
315.312	380.94
315.542	367.94
315.771	371.94
316.001	349.94
316.23	393.94
316.46	375.94
316.689	380.94
316.919	389.94
317.148	387.94
317.377	397.94
317.607	395.94
317.836	377.94
318.065	387.94
318.295	375.94
318.524	398.94
318.753	385.94
318.983	392.94
319.212	369.94
319.441	373.94
319.67	381.94
319.9	379.94
320.129	385.94
320.358	411.94
320.587	389.94
320.816	398.94
321.046	375.94
321.275	399.94
321.504	397.94
321.733	407.94
321.962	396.94
322.191	414.94
322.42	404.94
322.649	452.94
322.878	423.94
323.108	439.94
323.337	456.94
323.566	466.94
323.795	487.94
324.024	540.94
324.253	588.94
324.482	815.94
324.71	1239.94
324.939	1824.94
325.168	1561.94
325.397	810.94
325.626	570.94
325.855	485.94
326.084	457.94
326.313	455.94
326.542	456.94
326.77	496.94
326.999	552.94
327.228	738.94
327.457	1146.94
327.686	1397.94
327.914	919.94
328.143	616.94
328.372	537.94
328.6	514.94
328.829	497.94
329.058	507.94
329.287	543.94
329.515	513.94
329.744	483.94
329.972	464.94
330.201	506.94
330.43	507.94
330.658	540.94
330.887	552.94
331.115	542.94
331.344	500.94
331.572	471.94
331.801	493.94
332.03	476.94
332.258	453.94
332.486	441.94
332.715	466.94
332.943	459.94
333.172	461.94
333.4	485.94
333.629	480.94
333.857	492.94
334.085	503.94
334.314	492.94
334.542	536.94
334.771	538.94
334.999	489.94
335.227	497.94
335.455	469.94
335.684	469.94
335.912	475.94
336.14	449.94
336.369	457.94
336.597	443.94
336.825	441.94
337.053	458.94
337.281	427.94
337.51	454.94
337.738	447.94
337.966	450.94
338.194	466.94
338.422	449.94
338.65	434.94
338.878	443.94
339.106	427.94
339.334	434.94
339.562	408.94
339.79	422.94
340.018	449.94
340.246	433.94
340.474	436.94
340.702	441.94
340.93	422.94
341.158	415.94
341.386	419.94
341.614	448.94
341.842	428.94
342.07	431.94
342.298	417.94
342.526	429.94
342.754	415.94
342.981	438.94
343.209	426.94
343.437	435.94
343.665	444.94
343.893	471.94
344.12	460.94
344.348	457.94
344.576	462.94
344.804	451.94
345.031	431.94
345.259	472.94
345.487	440.94
345.714	428.94
345.942	416.94
346.17	423.94
346.397	407.94
346.625	416.94
346.853	425.94
347.08	417.94
347.308	425.94
347.535	438.94
347.763	442.94
347.99	419.94
348.218	415.94
348.445	421.94
348.673	434.94
348.9	427.94
349.128	409.94
349.355	416.94
349.583	423.94
349.81	405.94
350.037	394.94
350.265	406.94
350.492	393.94
350.72	405.94
350.947	417.94
351.174	434.94
351.402	413.94
351.629	415.94
351.856	394.94
352.083	422.94
352.311	444.94
352.538	414.94
352.765	421.94
352.992	415.94
353.22	418.94
353.447	406.94
353.674	394.94
353.901	416.94
354.128	398.94
354.355	396.94
354.583	406.94
354.81	405.94
355.037	400.94
355.264	390.94
355.491	380.94
355.718	395.94
355.945	382.94
356.172	406.94
356.399	393.94
356.626	394.94
356.853	375.94
357.08	400.94
357.307	401.94
357.534	395.94
357.761	392.94
357.988	403.94
358.215	394.94
358.441	402.94
358.668	399.94
358.895	380.94
359.122	391.94
359.349	411.94
359.576	401.94
359.802	433.94
360.029	451.94
360.256	458.94
360.483	450.94
360.709	410.94
360.936	439.94
361.163	395.94
361.39	406.94
361.616	431.94
361.843	425.94
362.07	405.94
362.296	405.94
362.523	441.94
362.749	407.94
362.976	401.94
363.203	410.94
363.429	414.94
363.656	388.94
363.882	405.94
364.109	415.94
364.335	407.94
364.562	392.94
364.788	387.94
365.015	407.94
365.241	416.94
365.468	406.94
365.694	385.94
365.92	420.94
366.147	393.94
366.373	396.94
366.599	406.94
366.826	411.94
367.052	380.94
367.278	401.94
367.505	376.94
367.731	403.94
367.957	412.94
368.184	404.94
368.41	419.94
368.636	408.94
368.862	426.94
369.089	415.94
369.315	420.94
369.541	396.94
369.767	405.94
369.993	413.94
370.219	411.94
370.445	416.94
370.672	401.94
370.898	391.94
371.124	406.94
371.35	405.94
371.576	405.94
371.802	412.94
372.028	404.94
372.254	397.94
372.48	405.94
372.706	413.94
372.932	402.94
373.158	417.94
373.384	425.94
373.61	409.94
373.835	416.94
374.061	429.94
374.287	403.94
374.513	417.94
374.739	436.94
374.965	427.94
375.191	419.94
375.416	410.94
375.642	411.94
375.868	416.94
376.094	389.94
376.319	414.94
376.545	401.94
376.771	387.94
376.997	393.94
377.222	416.94
377.448	414.94
377.674	418.94
377.899	429.94
378.125	417.94
378.35	405.94
378.576	416.94
378.802	409.94
379.027	400.94
379.253	399.94
379.478	395.94
379.704	405.94
379.929	396.94
380.155	399.94
380.38	408.94
380.606	400.94
380.831	397.94
381.057	412.94
381.282	414.94
381.507	412.94
381.733	401.94
381.958	441.94
382.184	411.94
382.409	426.94
382.634	426.94
382.86	423.94
383.085	429.94
383.31	425.94
383.535	443.94
383.761	417.94
383.986	426.94
384.211	463.94
384.436	428.94
384.662	441.94
384.887	439.94
385.112	449.94
385.337	476.94
385.562	446.94
385.787	462.94
386.013	465.94
386.238	466.94
386.463	459.94
386.688	456.94
386.913	468.94
387.138	457.94
387.363	456.94
387.588	450.94
387.813	443.94
388.038	467.94
388.263	447.94
388.488	458.94
388.713	449.94
388.938	431.94
389.163	466.94
389.387	451.94
389.612	460.94
389.837	461.94
390.062	441.94
390.287	456.94
390.512	451.94
390.736	438.94
390.961	460.94
391.186	455.94
391.411	465.94
391.636	459.94
391.86	446.94
392.085	495.94
392.31	467.94
392.534	451.94
392.759	479.94
392.984	444.94
393.208	451.94
393.433	488.94
393.658	467.94
393.882	441.94
394.107	452.94
394.331	470.94
394.556	468.94
394.78	469.94
395.005	470.94
395.229	450.94
395.454	450.94
395.678	479.94
395.903	492.94
396.127	519.94
396.352	509.94
396.576	479.94
396.801	474.94
397.025	474.94
397.249	486.94
397.474	515.94
397.698	501.94
397.922	490.94
398.147	532.94
398.371	545.94
398.595	519.94
398.82	489.94
399.044	535.94
399.268	555.94
399.492	587.94
399.717	639.94
399.941	646.94
400.165	695.94
400.389	691.94
400.613	605.94
400.837	573.94
401.062	561.94
401.286	560.94
401.51	545.94
401.734	525.94
401.958	526.94
402.182	524.94
402.406	553.94
402.63	540.94
402.854	529.94
403.078	547.94
403.302	537.94
403.526	562.94
403.75	543.94
403.974	582.94
404.198	568.94
404.422	569.94
404.645	564.94
404.869	566.94
405.093	572.94
405.317	622.94
405.541	657.94
405.765	605.94
405.988	578.94
406.212	588.94
406.436	592.94
406.66	614.94
406.883	599.94
407.107	600.94
407.331	636.94
407.555	710.94
407.778	716.94
408.002	674.94
408.226	613.94
408.449	623.94
408.673	577.94
408.896	621.94
409.12	670.94
409.344	627.94
409.567	585.94
409.791	579.94
410.014	547.94
410.238	555.94
410.461	556.94
410.685	556.94
410.908	562.94
411.132	599.94
411.355	633.94
411.578	584.94
411.802	539.94
412.025	535.94
412.249	577.94
412.472	579.94
412.695	611.94
412.919	617.94
413.142	559.94
413.365	577.94
413.589	551.94
413.812	530.94
414.035	519.94
414.258	511.94
414.482	518.94
414.705	525.94
414.928	518.94
415.151	533.94
415.374	526.94
415.597	515.94
415.821	520.94
416.044	494.94
416.267	490.94
416.49	517.94
416.713	534.94
416.936	509.94
417.159	531.94
417.382	508.94
417.605	536.94
417.828	516.94
418.051	537.94
418.274	516.94
418.497	543.94
418.72	534.94
418.943	525.94
419.166	527.94
419.389	576.94
419.611	579.94
419.834	553.94
420.057	541.94
420.28	560.94
420.503	528.94
420.726	547.94
420.948	559.94
421.171	592.94
421.394	619.94
421.617	549.94
421.839	541.94
422.062	558.94
422.285	556.94
422.507	595.94
422.73	699.94
422.953	658.94
423.175	602.94
423.398	567.94
423.621	573.94
423.843	586.94
424.066	587.94
424.288	575.94
424.511	612.94
424.733	634.94
424.956	711.94
425.178	676.94
425.401	691.94
425.623	688.94
425.846	622.94
426.068	578.94
426.291	566.94
426.513	578.94
426.735	582.94
426.958	604.94
427.18	697.94
427.402	841.94
427.625	901.94
427.847	767.94
428.069	661.94
428.292	611.94
428.514	570.94
428.736	537.94
428.958	522.94
429.181	521.94
429.403	519.94
429.625	536.94
429.847	563.94
430.069	608.94
430.292	652.94
430.514	552.94
430.736	507.94
430.958	513.94
431.18	504.94
431.402	503.94
431.624	482.94
431.846	491.94
432.068	487.94
432.29	513.94
432.512	492.94
432.734	512.94
432.956	521.94
433.178	489.94
433.4	488.94
433.622	517.94
433.844	515.94
434.066	497.94
434.287	483.94
434.509	526.94
434.731	497.94
434.953	523.94
435.175	547.94
435.397	562.94
435.618	547.94
435.84	609.94
436.062	707.94
436.284	730.94
436.505	641.94
436.727	601.94
436.949	534.94
437.17	513.94
437.392	532.94
437.614	521.94
437.835	569.94
438.057	638.94
438.278	756.94
438.5	757.94
438.721	815.94
438.943	804.94
439.165	658.94
439.386	578.94
439.608	560.94
439.829	584.94
440.05	564.94
440.272	635.94
440.493	591.94
440.715	552.94
440.936	545.94
441.158	538.94
441.379	523.94
441.6	540.94
441.822	572.94
442.043	595.94
442.264	680.94
442.486	732.94
442.707	599.94
442.928	566.94
443.149	571.94
443.371	604.94
443.592	625.94
443.813	728.94
444.034	782.94
444.255	675.94
444.476	582.94
444.698	585.94
444.919	599.94
445.14	699.94
445.361	652.94
445.582	584.94
445.803	685.94
446.024	789.94
446.245	785.94
446.466	700.94
446.687	605.94
446.908	563.94
447.129	537.94
447.35	520.94
447.571	522.94
447.792	523.94
448.013	517.94
448.234	513.94
448.455	571.94
448.675	676.94
448.896	860.94
449.117	685.94
449.338	631.94
449.559	739.94
449.779	855.94
450	677.94
450.221	583.94
450.442	531.94
450.662	497.94
450.883	505.94
451.104	517.94
451.324	483.94
451.545	481.94
451.766	476.94
451.986	466.94
452.207	456.94
452.428	447.94
452.648	465.94
452.869	451.94
453.089	474.94
453.31	487.94
453.53	475.94
453.751	465.94
453.971	453.94
454.192	475.94
454.412	467.94
454.633	465.94
454.853	469.94
455.073	464.94
455.294	474.94
455.514	557.94
455.734	556.94
455.955	453.94
456.175	435.94
456.395	456.94
456.616	433.94
456.836	441.94
457.056	420.94
457.276	440.94
457.497	443.94
457.717	466.94
457.937	441.94
458.157	447.94
458.377	444.94
458.598	483.94
458.818	539.94
459.038	568.94
459.258	589.94
459.478	551.94
459.698	515.94
459.918	503.94
460.138	491.94
460.358	507.94
460.578	500.94
460.798	550.94
461.018	547.94
461.238	537.94
461.458	531.94
461.678	515.94
461.898	525.94
462.118	505.94
462.338	533.94
462.558	555.94
462.777	539.94
462.997	593.94
463.217	579.94
463.437	578.94
463.657	569.94
463.876	565.94
464.096	565.94
464.316	557.94
464.536	557.94
464.755	566.94
464.975	559.94
465.195	577.94
465.414	632.94
465.634	542.94
465.854	555.94
466.073	480.94
466.293	503.94
466.512	486.94
466.732	485.94
466.951	471.94
467.171	471.94
467.391	471.94
467.61	480.94
467.829	508.94
468.049	475.94
468.268	476.94
468.488	491.94
468.707	470.94
468.927	471.94
469.146	474.94
469.365	477.94
469.585	450.94
469.804	461.94
470.023	479.94
470.243	468.94
470.462	490.94
470.681	502.94
470.901	498.94
471.12	507.94
471.339	497.94
471.558	471.94
471.777	485.94
471.997	487.94
472.216	469.94
472.435	485.94
472.654	501.94
472.873	479.94
473.092	458.94
473.311	492.94
473.53	467.94
473.749	500.94
473.968	511.94
474.187	614.94
474.406	650.94
474.625	535.94
474.844	500.94
475.063	507.94
475.282	482.94
475.501	465.94
475.72	502.94
475.939	491.94
476.158	483.94
476.377	497.94
476.596	508.94
476.814	515.94
477.033	522.94
477.252	528.94
477.471	527.94
477.69	529.94
477.908	536.94
478.127	541.94
478.346	549.94
478.564	559.94
478.783	557.94
479.002	551.94
479.22	568.94
479.439	562.94
479.658	601.94
479.876	576.94
480.095	572.94
480.313	615.94
480.532	608.94
480.751	612.94
480.969	603.94
481.188	632.94
481.406	635.94
481.624	578.94
481.843	577.94
482.061	584.94
482.28	559.94
482.498	586.94
482.717	571.94
482.935	561.94
483.153	566.94
483.372	565.94
483.59	562.94
483.808	549.94
484.027	567.94
484.245	562.94
484.463	576.94
484.681	570.94
484.9	576.94
485.118	583.94
485.336	591.94
485.554	591.94
485.772	578.94
485.99	570.94
486.209	576.94
486.427	594.94
486.645	608.94
486.863	610.94
487.081	601.94
487.299	593.94
487.517	599.94
487.735	609.94
487.953	593.94
488.171	608.94
488.389	632.94
488.607	583.94
488.825	614.94
489.043	619.94
489.261	594.94
489.479	615.94
489.696	605.94
489.914	630.94
490.132	616.94
490.35	639.94
490.568	659.94
490.786	649.94
491.003	679.94
491.221	650.94
491.439	664.94
491.657	689.94
491.874	688.94
492.092	691.94
492.31	705.94
492.527	711.94
492.745	719.94
492.963	699.94
493.18	689.94
493.398	698.94
493.615	672.94
493.833	699.94
494.05	713.94
494.268	683.94
494.485	721.94
494.703	728.94
494.92	707.94
495.138	720.94
495.355	705.94
495.573	715.94
495.79	712.94
496.008	699.94
496.225	725.94
496.442	716.94
496.66	734.94
496.877	713.94
497.094	732.94
497.312	727.94
497.529	724.94
497.746	764.94
497.963	755.94
498.181	780.94
498.398	799.94
498.615	795.94
498.832	827.94
499.049	887.94
499.267	886.94
499.484	918.94
499.701	981.94
499.918	1008.94
500.135	1089.94
500.352	1121.94
500.569	1135.94
500.786	1140.94
501.003	1149.94
501.22	1066.94
501.437	1029.94
501.654	1007.94
501.871	963.94
502.088	932.94
502.305	851.94
502.522	840.94
502.739	835.94
502.956	777.94
503.172	795.94
503.389	755.94
503.606	748.94
503.823	743.94
504.04	725.94
504.256	729.94
504.473	713.94
504.69	712.94
504.907	722.94
505.123	726.94
505.34	695.94
505.557	701.94
505.773	683.94
505.99	698.94
506.207	665.94
506.423	668.94
506.64	689.94
506.856	675.94
507.073	647.94
507.289	671.94
507.506	678.94
507.722	644.94
507.939	660.94
508.155	656.94
508.372	635.94
508.588	606.94
508.805	637.94
509.021	608.94
509.238	619.94
509.454	624.94
509.67	649.94
509.887	645.94
510.103	635.94
510.319	623.94
510.536	659.94
510.752	1033.94
510.968	848.94
511.184	599.94
511.401	596.94
511.617	587.94
511.833	574.94
512.049	594.94
512.265	586.94
512.481	603.94
512.698	586.94
512.914	605.94
513.13	583.94
513.346	591.94
513.562	584.94
513.778	575.94
513.994	595.94
514.21	603.94
514.426	608.94
514.642	641.94
514.858	640.94
515.074	677.94
515.29	744.94
515.506	994.94
515.721	856.94
515.937	661.94
516.153	642.94
516.369	630.94
516.585	620.94
516.801	623.94
517.016	613.94
517.232	642.94
517.448	651.94
517.664	662.94
517.879	642.94
518.095	631.94
518.311	643.94
518.527	636.94
518.742	637.94
518.958	604.94
519.173	611.94
519.389	594.94
519.605	595.94
519.82	590.94
520.036	582.94
520.251	637.94
520.467	613.94
520.682	633.94
520.898	618.94
521.113	614.94
521.329	652.94
521.544	712.94
521.76	833.94
521.975	1222.94
522.19	1186.94
522.406	755.94
522.621	603.94
522.836	581.94
523.052	557.94
523.267	549.94
523.482	549.94
523.698	524.94
523.913	519.94
524.128	561.94
524.343	526.94
524.559	519.94
524.774	532.94
524.989	517.94
525.204	509.94
525.419	520.94
525.634	505.94
525.849	515.94
526.064	509.94
526.28	487.94
526.495	488.94
526.71	490.94
526.925	492.94
527.14	486.94
527.355	502.94
527.57	503.94
527.785	503.94
527.999	472.94
528.214	512.94
528.429	497.94
528.644	487.94
528.859	500.94
529.074	493.94
529.289	515.94
529.503	549.94
529.718	538.94
529.933	492.94
530.148	499.94
530.363	500.94
530.577	472.94
530.792	474.94
531.007	490.94
531.221	474.94
531.436	473.94
531.651	506.94
531.865	472.94
532.08	490.94
532.295	484.94
532.509	490.94
532.724	476.94
532.938	477.94
533.153	489.94
533.367	487.94
533.582	453.94
533.796	453.94
534.011	461.94
534.225	479.94
534.44	475.94
534.654	473.94
534.868	482.94
535.083	473.94
535.297	474.94
535.511	457.94
535.726	482.94
535.94	487.94
536.154	447.94
536.369	459.94
536.583	461.94
536.797	471.94
537.011	445.94
537.225	458.94
537.44	458.94
537.654	452.94
537.868	435.94
538.082	437.94
538.296	458.94
538.51	472.94
538.724	480.94
538.938	459.94
539.153	466.94
539.367	469.94
539.581	451.94
539.795	448.94
540.009	443.94
540.222	455.94
540.436	470.94
540.65	459.94
540.864	462.94
541.078	448.94
541.292	453.94
541.506	463.94
541.72	460.94
541.934	479.94
542.147	449.94
542.361	448.94
542.575	445.94
542.789	456.94
543.002	449.94
543.216	447.94
543.43	431.94
543.644	456.94
543.857	437.94
544.071	444.94
544.285	478.94
544.498	463.94
544.712	446.94
544.925	452.94
545.139	461.94
545.352	467.94
545.566	441.94
545.779	451.94
545.993	449.94
546.206	436.94
546.42	477.94
546.633	459.94
546.847	456.94
547.06	453.94
547.274	446.94
547.487	461.94
547.7	443.94
547.914	468.94
548.127	436.94
548.34	452.94
548.554	464.94
548.767	447.94
548.98	446.94
549.193	450.94
549.407	464.94
549.62	455.94
549.833	460.94
550.046	433.94
550.259	443.94
550.473	427.94
550.686	443.94
550.899	454.94
551.112	418.94
551.325	433.94
551.538	443.94
551.751	435.94
551.964	463.94
552.177	433.94
552.39	441.94
552.603	455.94
552.816	455.94
553.029	467.94
553.242	448.94
553.455	468.94
553.667	463.94
553.88	472.94
554.093	433.94
554.306	465.94
554.519	461.94
554.732	437.94
554.944	425.94
555.157	427.94
555.37	434.94
555.583	407.94
555.795	412.94
556.008	420.94
556.221	417.94
556.433	404.94
556.646	427.94
556.859	421.94
557.071	410.94
557.284	394.94
557.496	404.94
557.709	433.94
557.921	414.94
558.134	393.94
558.346	398.94
558.559	395.94
558.771	378.94
558.984	382.94
559.196	390.94
559.409	378.94
559.621	397.94
559.833	380.94
560.046	395.94
560.258	393.94
560.47	390.94
560.683	385.94
560.895	388.94
561.107	389.94
561.32	394.94
561.532	406.94
561.744	388.94
561.956	396.94
562.168	384.94
562.381	398.94
562.593	396.94
562.805	402.94
563.017	406.94
563.229	401.94
563.441	410.94
563.653	400.94
563.865	389.94
564.077	395.94
564.289	407.94
564.501	414.94
564.713	427.94
564.925	431.94
565.137	431.94
565.349	438.94
565.561	429.94
565.773	464.94
565.985	437.94
566.197	481.94
566.408	478.94
566.62	475.94
566.832	513.94
567.044	511.94
567.255	523.94
567.467	535.94
567.679	532.94
567.891	557.94
568.102	550.94
568.314	540.94
568.526	503.94
568.737	492.94
568.949	467.94
569.161	456.94
569.372	440.94
569.584	439.94
569.795	444.94
570.007	411.94
570.218	425.94
570.43	407.94
570.641	404.94
570.853	391.94
571.064	394.94
571.276	385.94
571.487	397.94
571.698	392.94
571.91	378.94
572.121	370.94
572.333	372.94
572.544	357.94
572.755	355.94
572.966	357.94
573.178	369.94
573.389	339.94
573.6	353.94
573.811	346.94
574.023	360.94
574.234	352.94
574.445	343.94
574.656	351.94
574.867	336.94
575.078	339.94
575.289	345.94
575.501	350.94
575.712	344.94
575.923	333.94
576.134	338.94
576.345	319.94
576.556	319.94
576.767	326.94
576.978	335.94
577.188	319.94
577.399	336.94
577.61	336.94
577.821	337.94
578.032	333.94
578.243	349.94
578.454	460.94
578.665	379.94
578.875	338.94
579.086	315.94
579.297	340.94
579.508	318.94
579.718	327.94
579.929	309.94
580.14	305.94
580.35	324.94
580.561	304.94
580.772	311.94
580.982	318.94
581.193	294.94
581.403	312.94
581.614	309.94
581.825	308.94
582.035	307.94
582.246	288.94
582.456	308.94
582.667	320.94
582.877	295.94
583.087	307.94
583.298	279.94
583.508	308.94
583.719	294.94
583.929	307.94
584.139	321.94
584.35	324.94
584.56	311.94
584.77	307.94
584.981	297.94
585.191	305.94
585.401	309.94
585.611	298.94
585.821	309.94
586.032	287.94
586.242	289.94
586.452	317.94
586.662	318.94
586.872	298.94
587.082	305.94
587.292	295.94
587.502	296.94
587.713	298.94
587.923	295.94
588.133	293.94
588.343	308.94
588.553	309.94
588.762	303.94
588.972	297.94
589.182	286.94
589.392	299.94
589.602	281.94
589.812	304.94
590.022	304.94
590.232	294.94
590.441	303.94
590.651	295.94
590.861	287.94
591.071	302.94
591.281	292.94
591.49	297.94
591.7	316.94
591.91	295.94
592.119	303.94
592.329	310.94
592.539	318.94
592.748	332.94
592.958	324.94
593.167	330.94
593.377	327.94
593.587	328.94
593.796	336.94
594.006	330.94
594.215	337.94
594.424	347.94
594.634	344.94
594.843	310.94
595.053	314.94
595.262	319.94
595.472	307.94
595.681	324.94
595.89	305.94
596.1	292.94
596.309	303.94
596.518	300.94
596.727	281.94
596.937	297.94
597.146	274.94
597.355	287.94
597.564	291.94
597.774	292.94
597.983	249.94
598.192	267.94
598.401	287.94
598.61	288.94
598.819	265.94
599.028	247.94
599.237	268.94
599.446	250.94
599.655	277.94
599.864	294.94
600.073	259.94
600.282	255.94
600.491	263.94
600.7	251.94
600.909	269.94
601.118	255.94
601.327	259.94
601.536	249.94
601.745	261.94
601.953	249.94
602.162	264.94
602.371	255.94
602.58	242.94
602.789	265.94
602.997	269.94
603.206	254.94
603.415	262.94
603.623	251.94
603.832	263.94
604.041	266.94
604.249	272.94
604.458	253.94
604.666	251.94
604.875	247.94
605.084	232.94
605.292	238.94
605.501	253.94
605.709	249.94
605.918	237.94
606.126	256.94
606.334	256.94
606.543	257.94
606.751	244.94
606.96	257.94
607.168	241.94
607.376	245.94
607.585	249.94
607.793	252.94
608.001	244.94
608.21	251.94
608.418	258.94
608.626	248.94
608.834	255.94
609.043	258.94
609.251	249.94
609.459	250.94
609.667	241.94
609.875	231.94
610.083	244.94
610.291	241.94
610.499	245.94
610.707	229.94
610.916	234.94
611.124	241.94
611.332	242.94
611.54	254.94
611.748	235.94
611.955	244.94
612.163	227.94
612.371	237.94
612.579	255.94
612.787	246.94
612.995	257.94
613.203	250.94
613.411	242.94
613.618	246.94
613.826	234.94
614.034	247.94
614.242	228.94
614.449	225.94
614.657	226.94
614.865	230.94
615.072	244.94
615.28	233.94
615.488	232.94
615.695	226.94
615.903	240.94
616.111	254.94
616.318	251.94
616.526	248.94
616.733	241.94
616.941	233.94
617.148	247.94
617.356	256.94
617.563	239.94
617.771	252.94
617.978	240.94
618.185	250.94
618.393	239.94
618.6	232.94
618.807	250.94
619.015	232.94
619.222	220.94
619.429	233.94
619.637	229.94
619.844	228.94
620.051	232.94
620.258	232.94
620.466	220.94
620.673	220.94
620.88	225.94
621.087	241.94
621.294	223.94
621.501	225.94
621.708	221.94
621.915	221.94
622.122	239.94
622.329	233.94
622.536	237.94
622.743	231.94
622.95	226.94
623.157	221.94
623.364	239.94
623.571	231.94
623.778	237.94
623.985	219.94
624.192	210.94
624.399	221.94
624.606	216.94
624.812	220.94
625.019	226.94
625.226	212.94
625.433	210.94
625.639	201.94
625.846	215.94
626.053	210.94
626.259	221.94
626.466	200.94
626.673	214.94
626.879	201.94
627.086	199.94
627.293	210.94
627.499	201.94
627.706	214.94
627.912	216.94
628.119	199.94
628.325	219.94
628.532	217.94
628.738	204.94
628.945	203.94
629.151	192.94
629.357	212.94
629.564	189.94
629.77	188.94
629.976	189.94
630.183	205.94
630.389	197.94
630.595	186.94
630.802	188.94
631.008	185.94
631.214	212.94
631.42	207.94
631.627	195.94
631.833	189.94
632.039	199.94
632.245	186.94
632.451	187.94
632.657	188.94
632.863	188.94
633.069	192.94
633.275	195.94
633.481	177.94
633.688	181.94
633.893	185.94
634.099	185.94
634.305	182.94
634.511	175.94
634.717	176.94
634.923	174.94
635.129	168.94
635.335	173.94
635.541	182.94
635.747	198.94
635.952	197.94
636.158	202.94
636.364	177.94
636.57	188.94
636.775	185.94
636.981	192.94
637.187	183.94
637.392	171.94
637.598	170.94
637.804	183.94
638.009	192.94
638.215	178.94
638.421	179.94
638.626	175.94
638.832	180.94
639.037	201.94
639.243	180.94
639.448	179.94
639.654	179.94
639.859	184.94
640.065	178.94
640.27	177.94
640.475	170.94
640.681	165.94
640.886	168.94
641.091	169.94
641.297	176.94
641.502	172.94
641.707	165.94
641.913	170.94
642.118	167.94
642.323	173.94
642.528	172.94
642.733	176.94
642.939	165.94
643.144	169.94
643.349	177.94
643.554	170.94
643.759	164.94
643.964	167.94
644.169	162.94
644.374	172.94
644.579	159.94
644.784	163.94
644.989	163.94
645.194	160.94
645.399	175.94
645.604	168.94
645.809	168.94
646.014	163.94
646.219	182.94
646.423	169.94
646.628	175.94
646.833	173.94
647.038	150.94
647.243	171.94
647.447	184.94
647.652	173.94
647.857	179.94
648.062	173.94
648.266	163.94
648.471	182.94
648.676	160.94
648.88	156.94
649.085	171.94
649.289	159.94
649.494	182.94
649.698	186.94
649.903	181.94
650.107	175.94
650.312	175.94
650.516	165.94
650.721	153.94
650.925	159.94
651.13	156.94
651.334	156.94
651.539	158.94
651.743	144.94
651.947	148.94
652.152	149.94
652.356	135.94
652.56	146.94
652.764	147.94
652.969	136.94
653.173	162.94
653.377	141.94
653.581	145.94
653.785	132.94
653.99	147.94
654.194	153.94
654.398	137.94
654.602	135.94
654.806	150.94
655.01	162.94
655.214	139.94
655.418	144.94
655.622	129.94
655.826	147.94
656.03	146.94
656.234	148.94
656.438	144.94
656.642	137.94
656.846	135.94
657.049	139.94
657.253	125.94
657.457	130.94
657.661	120.94
657.865	124.94
658.068	103.94
658.272	105.94
658.476	105.94
658.68	120.94
658.883	112.94
659.087	100.94
659.291	99.94
659.494	103.94
659.698	102.94
659.901	103.94
660.105	86.94
660.309	88.94
660.512	84.94
660.716	90.94
660.919	88.94
661.123	89.94
661.326	94.94
661.53	91.94
661.733	99.94
661.936	99.94
662.14	86.94
662.343	89.94
662.546	89.94
662.75	89.94
662.953	88.94
663.156	82.94
663.36	91.94
663.563	78.94
663.766	77.94
663.969	90.94
664.173	76.94
664.376	80.94
664.579	74.94
664.782	78.94
664.985	84.94
665.188	74.94
665.391	77.94
665.594	91.94
665.797	71.94
666	83.94
666.203	79.94
666.406	76.94
666.609	87.94
666.812	79.94
667.015	77.94
667.218	94.94
667.421	82.94
667.624	70.94
667.827	81.94
668.03	84.94
668.232	85.94
668.435	88.94
668.638	81.94
668.841	89.94
669.043	75.94
669.246	84.94
669.449	78.94
669.651	82.94
669.854	67.94
670.057	71.94
670.259	77.94
670.462	72.94
670.665	84.94
670.867	85.94
671.07	80.94
671.272	71.94
671.475	83.94
671.677	81.94
671.88	82.94
672.082	92.94
672.284	68.94
672.487	80.94
672.689	65.94
672.892	71.94
