Data from 1976.PennyLincolnUp.Lamp.En5.5.200Scan.071719.P1.Changed Mount._HRD10591_16-00-48-860.txt Node
Date: Thu Jul 18 16:00:48 EDT 2019
User: cochatt
Spectrometer: HR+D1059
Trigger mode: 1
Integration Time (sec): 1.000000E-1
Scans to average: 1
Electric dark correction enabled: true
Nonlinearity correction enabled: false
Boxcar width: 0
XAxis mode: Wavelengths
Number of Pixels in Spectrum: 2048
>>>>>Begin Spectral Data<<<<<
223.165	-28.12
223.4	-28.12
223.635	-28.12
223.869	-11.12
224.104	2.88
224.338	-12.12
224.573	-16.12
224.808	-16.12
225.042	-24.12
225.277	-6.12
225.511	-13.12
225.746	4.88
225.98	20.88
226.215	2.88
226.449	20.88
226.683	22.88
226.918	29.88
227.152	21.88
227.387	35.88
227.621	37.88
227.856	43.88
228.09	43.88
228.324	58.88
228.559	58.88
228.793	65.88
229.027	85.88
229.262	108.88
229.496	118.88
229.73	134.88
229.964	156.88
230.199	127.88
230.433	117.88
230.667	120.88
230.901	101.88
231.136	116.88
231.37	106.88
231.604	110.88
231.838	107.88
232.072	115.88
232.306	106.88
232.541	126.88
232.775	116.88
233.009	121.88
233.243	103.88
233.477	109.88
233.711	126.88
233.945	126.88
234.179	125.88
234.413	128.88
234.647	106.88
234.881	118.88
235.115	123.88
235.349	103.88
235.583	131.88
235.817	122.88
236.051	143.88
236.285	129.88
236.519	128.88
236.753	132.88
236.987	148.88
237.221	177.88
237.455	223.88
237.689	192.88
237.922	144.88
238.156	130.88
238.39	145.88
238.624	132.88
238.858	131.88
239.091	125.88
239.325	136.88
239.559	138.88
239.793	114.88
240.027	132.88
240.26	150.88
240.494	162.88
240.728	163.88
240.961	164.88
241.195	152.88
241.429	140.88
241.662	137.88
241.896	134.88
242.13	147.88
242.363	128.88
242.597	138.88
242.83	141.88
243.064	132.88
243.298	142.88
243.531	151.88
243.765	141.88
243.998	153.88
244.232	164.88
244.465	162.88
244.699	154.88
244.932	143.88
245.166	141.88
245.399	148.88
245.633	174.88
245.866	144.88
246.099	170.88
246.333	162.88
246.566	154.88
246.8	149.88
247.033	164.88
247.266	148.88
247.5	167.88
247.733	155.88
247.966	185.88
248.2	179.88
248.433	187.88
248.666	182.88
248.899	189.88
249.133	220.88
249.366	218.88
249.599	220.88
249.832	175.88
250.066	188.88
250.299	203.88
250.532	189.88
250.765	199.88
250.998	228.88
251.231	244.88
251.465	226.88
251.698	203.88
251.931	209.88
252.164	224.88
252.397	201.88
252.63	222.88
252.863	214.88
253.096	206.88
253.329	229.88
253.562	233.88
253.795	228.88
254.028	225.88
254.261	213.88
254.494	236.88
254.727	270.88
254.96	288.88
255.193	278.88
255.426	266.88
255.659	231.88
255.892	235.88
256.124	226.88
256.357	242.88
256.59	231.88
256.823	232.88
257.056	210.88
257.289	229.88
257.521	234.88
257.754	221.88
257.987	223.88
258.22	227.88
258.452	216.88
258.685	223.88
258.918	224.88
259.151	242.88
259.383	225.88
259.616	231.88
259.849	249.88
260.081	258.88
260.314	256.88
260.547	273.88
260.779	269.88
261.012	244.88
261.244	232.88
261.477	234.88
261.71	242.88
261.942	234.88
262.175	253.88
262.407	229.88
262.64	228.88
262.872	216.88
263.105	250.88
263.337	228.88
263.57	221.88
263.802	235.88
264.035	227.88
264.267	245.88
264.499	221.88
264.732	240.88
264.964	244.88
265.197	224.88
265.429	222.88
265.661	221.88
265.894	234.88
266.126	259.88
266.358	232.88
266.591	218.88
266.823	254.88
267.055	248.88
267.287	243.88
267.52	254.88
267.752	234.88
267.984	245.88
268.216	260.88
268.448	253.88
268.681	252.88
268.913	254.88
269.145	287.88
269.377	285.88
269.609	285.88
269.841	295.88
270.073	291.88
270.306	311.88
270.538	336.88
270.77	334.88
271.002	332.88
271.234	299.88
271.466	307.88
271.698	314.88
271.93	344.88
272.162	341.88
272.394	326.88
272.626	327.88
272.858	313.88
273.09	280.88
273.322	306.88
273.553	281.88
273.785	278.88
274.017	282.88
274.249	294.88
274.481	287.88
274.713	275.88
274.945	283.88
275.176	267.88
275.408	301.88
275.64	280.88
275.872	269.88
276.104	287.88
276.335	286.88
276.567	298.88
276.799	295.88
277.031	324.88
277.262	324.88
277.494	341.88
277.726	320.88
277.957	293.88
278.189	301.88
278.421	306.88
278.652	310.88
278.884	286.88
279.115	283.88
279.347	297.88
279.579	304.88
279.81	291.88
280.042	284.88
280.273	286.88
280.505	298.88
280.736	287.88
280.968	301.88
281.199	282.88
281.431	275.88
281.662	291.88
281.894	310.88
282.125	301.88
282.356	304.88
282.588	323.88
282.819	318.88
283.051	284.88
283.282	295.88
283.513	314.88
283.745	292.88
283.976	309.88
284.207	315.88
284.439	303.88
284.67	291.88
284.901	294.88
285.132	301.88
285.364	291.88
285.595	312.88
285.826	299.88
286.057	299.88
286.288	306.88
286.52	322.88
286.751	315.88
286.982	315.88
287.213	315.88
287.444	310.88
287.675	306.88
287.906	319.88
288.138	333.88
288.369	330.88
288.6	342.88
288.831	331.88
289.062	317.88
289.293	332.88
289.524	323.88
289.755	344.88
289.986	314.88
290.217	300.88
290.448	320.88
290.679	334.88
290.91	303.88
291.141	321.88
291.371	320.88
291.602	316.88
291.833	332.88
292.064	326.88
292.295	319.88
292.526	320.88
292.757	335.88
292.987	318.88
293.218	311.88
293.449	332.88
293.68	323.88
293.91	326.88
294.141	326.88
294.372	342.88
294.603	321.88
294.833	314.88
295.064	340.88
295.295	323.88
295.525	326.88
295.756	314.88
295.987	332.88
296.217	343.88
296.448	370.88
296.679	358.88
296.909	324.88
297.14	349.88
297.37	325.88
297.601	324.88
297.831	332.88
298.062	343.88
298.292	334.88
298.523	320.88
298.753	328.88
298.984	341.88
299.214	347.88
299.445	330.88
299.675	346.88
299.905	350.88
300.136	357.88
300.366	335.88
300.597	326.88
300.827	347.88
301.057	344.88
301.288	370.88
301.518	361.88
301.748	347.88
301.979	366.88
302.209	347.88
302.439	374.88
302.669	361.88
302.9	355.88
303.13	379.88
303.36	369.88
303.59	365.88
303.82	361.88
304.051	370.88
304.281	349.88
304.511	362.88
304.741	377.88
304.971	360.88
305.201	362.88
305.431	346.88
305.661	359.88
305.891	364.88
306.121	362.88
306.352	367.88
306.582	354.88
306.812	365.88
307.042	364.88
307.272	372.88
307.502	361.88
307.731	362.88
307.961	370.88
308.191	376.88
308.421	357.88
308.651	365.88
308.881	364.88
309.111	378.88
309.341	367.88
309.571	392.88
309.8	402.88
310.03	384.88
310.26	377.88
310.49	398.88
310.72	399.88
310.949	403.88
311.179	401.88
311.409	391.88
311.639	394.88
311.868	409.88
312.098	388.88
312.328	405.88
312.557	410.88
312.787	422.88
313.017	436.88
313.246	427.88
313.476	421.88
313.706	406.88
313.935	410.88
314.165	400.88
314.394	428.88
314.624	441.88
314.853	429.88
315.083	404.88
315.312	400.88
315.542	387.88
315.771	410.88
316.001	382.88
316.23	380.88
316.46	383.88
316.689	403.88
316.919	400.88
317.148	405.88
317.377	422.88
317.607	407.88
317.836	410.88
318.065	421.88
318.295	410.88
318.524	412.88
318.753	408.88
318.983	401.88
319.212	382.88
319.441	417.88
319.67	430.88
319.9	405.88
320.129	401.88
320.358	395.88
320.587	404.88
320.816	412.88
321.046	425.88
321.275	420.88
321.504	399.88
321.733	409.88
321.962	429.88
322.191	434.88
322.42	447.88
322.649	451.88
322.878	479.88
323.108	475.88
323.337	469.88
323.566	510.88
323.795	510.88
324.024	560.88
324.253	643.88
324.482	873.88
324.71	1360.88
324.939	1991.88
325.168	1735.88
325.397	868.88
325.626	605.88
325.855	528.88
326.084	519.88
326.313	484.88
326.542	475.88
326.77	522.88
326.999	628.88
327.228	834.88
327.457	1263.88
327.686	1514.88
327.914	1015.88
328.143	649.88
328.372	613.88
328.6	569.88
328.829	530.88
329.058	545.88
329.287	548.88
329.515	542.88
329.744	528.88
329.972	518.88
330.201	534.88
330.43	557.88
330.658	578.88
330.887	609.88
331.115	572.88
331.344	545.88
331.572	516.88
331.801	508.88
332.03	533.88
332.258	477.88
332.486	503.88
332.715	482.88
332.943	479.88
333.172	524.88
333.4	512.88
333.629	507.88
333.857	518.88
334.085	536.88
334.314	522.88
334.542	572.88
334.771	578.88
334.999	543.88
335.227	522.88
335.455	511.88
335.684	522.88
335.912	507.88
336.14	493.88
336.369	484.88
336.597	491.88
336.825	479.88
337.053	487.88
337.281	502.88
337.51	482.88
337.738	477.88
337.966	480.88
338.194	470.88
338.422	480.88
338.65	470.88
338.878	456.88
339.106	443.88
339.334	474.88
339.562	484.88
339.79	458.88
340.018	465.88
340.246	454.88
340.474	467.88
340.702	460.88
340.93	466.88
341.158	444.88
341.386	447.88
341.614	464.88
341.842	453.88
342.07	452.88
342.298	455.88
342.526	454.88
342.754	457.88
342.981	438.88
343.209	445.88
343.437	470.88
343.665	490.88
343.893	460.88
344.12	495.88
344.348	480.88
344.576	473.88
344.804	482.88
345.031	496.88
345.259	477.88
345.487	465.88
345.714	452.88
345.942	457.88
346.17	455.88
346.397	440.88
346.625	437.88
346.853	438.88
347.08	438.88
347.308	441.88
347.535	463.88
347.763	453.88
347.99	461.88
348.218	450.88
348.445	465.88
348.673	450.88
348.9	444.88
349.128	453.88
349.355	421.88
349.583	452.88
349.81	444.88
350.037	430.88
350.265	436.88
350.492	436.88
350.72	422.88
350.947	441.88
351.174	448.88
351.402	451.88
351.629	452.88
351.856	458.88
352.083	450.88
352.311	461.88
352.538	444.88
352.765	462.88
352.992	459.88
353.22	442.88
353.447	433.88
353.674	435.88
353.901	437.88
354.128	403.88
354.355	417.88
354.583	410.88
354.81	400.88
355.037	427.88
355.264	410.88
355.491	434.88
355.718	412.88
355.945	418.88
356.172	413.88
356.399	413.88
356.626	420.88
356.853	412.88
357.08	420.88
357.307	431.88
357.534	426.88
357.761	406.88
357.988	410.88
358.215	426.88
358.441	421.88
358.668	430.88
358.895	443.88
359.122	434.88
359.349	419.88
359.576	457.88
359.802	453.88
360.029	474.88
360.256	506.88
360.483	474.88
360.709	460.88
360.936	420.88
361.163	437.88
361.39	449.88
361.616	434.88
361.843	443.88
362.07	445.88
362.296	426.88
362.523	438.88
362.749	443.88
362.976	437.88
363.203	424.88
363.429	436.88
363.656	418.88
363.882	433.88
364.109	427.88
364.335	417.88
364.562	434.88
364.788	419.88
365.015	414.88
365.241	412.88
365.468	435.88
365.694	441.88
365.92	421.88
366.147	439.88
366.373	403.88
366.599	419.88
366.826	417.88
367.052	430.88
367.278	417.88
367.505	409.88
367.731	430.88
367.957	442.88
368.184	423.88
368.41	427.88
368.636	442.88
368.862	446.88
369.089	445.88
369.315	426.88
369.541	420.88
369.767	455.88
369.993	441.88
370.219	436.88
370.445	426.88
370.672	410.88
370.898	401.88
371.124	430.88
371.35	432.88
371.576	436.88
371.802	431.88
372.028	436.88
372.254	426.88
372.48	429.88
372.706	438.88
372.932	445.88
373.158	442.88
373.384	428.88
373.61	451.88
373.835	451.88
374.061	426.88
374.287	454.88
374.513	453.88
374.739	443.88
374.965	440.88
375.191	418.88
375.416	473.88
375.642	444.88
375.868	456.88
376.094	414.88
376.319	431.88
376.545	434.88
376.771	426.88
376.997	422.88
377.222	434.88
377.448	458.88
377.674	440.88
377.899	444.88
378.125	434.88
378.35	421.88
378.576	426.88
378.802	417.88
379.027	428.88
379.253	422.88
379.478	419.88
379.704	428.88
379.929	441.88
380.155	423.88
380.38	441.88
380.606	439.88
380.831	431.88
381.057	439.88
381.282	411.88
381.507	419.88
381.733	439.88
381.958	442.88
382.184	432.88
382.409	446.88
382.634	457.88
382.86	431.88
383.085	455.88
383.31	460.88
383.535	446.88
383.761	452.88
383.986	460.88
384.211	466.88
384.436	444.88
384.662	455.88
384.887	465.88
385.112	468.88
385.337	482.88
385.562	475.88
385.787	472.88
386.013	502.88
386.238	498.88
386.463	512.88
386.688	475.88
386.913	459.88
387.138	467.88
387.363	478.88
387.588	490.88
387.813	492.88
388.038	483.88
388.263	474.88
388.488	486.88
388.713	488.88
388.938	486.88
389.163	476.88
389.387	477.88
389.612	467.88
389.837	474.88
390.062	469.88
390.287	472.88
390.512	450.88
390.736	466.88
390.961	497.88
391.186	490.88
391.411	485.88
391.636	512.88
391.86	505.88
392.085	506.88
392.31	529.88
392.534	499.88
392.759	491.88
392.984	494.88
393.208	484.88
393.433	489.88
393.658	477.88
393.882	480.88
394.107	480.88
394.331	473.88
394.556	477.88
394.78	484.88
395.005	478.88
395.229	466.88
395.454	484.88
395.678	513.88
395.903	500.88
396.127	521.88
396.352	527.88
396.576	514.88
396.801	487.88
397.025	503.88
397.249	492.88
397.474	494.88
397.698	521.88
397.922	545.88
398.147	540.88
398.371	546.88
398.595	554.88
398.82	553.88
399.044	586.88
399.268	587.88
399.492	651.88
399.717	679.88
399.941	719.88
400.165	719.88
400.389	700.88
400.613	621.88
400.837	600.88
401.062	547.88
401.286	563.88
401.51	591.88
401.734	549.88
401.958	562.88
402.182	562.88
402.406	576.88
402.63	574.88
402.854	572.88
403.078	573.88
403.302	595.88
403.526	578.88
403.75	594.88
403.974	594.88
404.198	607.88
404.422	588.88
404.645	596.88
404.869	592.88
405.093	614.88
405.317	668.88
405.541	703.88
405.765	651.88
405.988	632.88
406.212	630.88
406.436	659.88
406.66	639.88
406.883	615.88
407.107	651.88
407.331	696.88
407.555	749.88
407.778	771.88
408.002	702.88
408.226	658.88
408.449	633.88
408.673	637.88
408.896	662.88
409.12	695.88
409.344	673.88
409.567	612.88
409.791	606.88
410.014	574.88
410.238	569.88
410.461	606.88
410.685	598.88
410.908	596.88
411.132	615.88
411.355	642.88
411.578	611.88
411.802	591.88
412.025	583.88
412.249	604.88
412.472	598.88
412.695	636.88
412.919	640.88
413.142	584.88
413.365	568.88
413.589	567.88
413.812	553.88
414.035	548.88
414.258	556.88
414.482	547.88
414.705	541.88
414.928	542.88
415.151	528.88
415.374	563.88
415.597	554.88
415.821	537.88
416.044	542.88
416.267	552.88
416.49	541.88
416.713	537.88
416.936	544.88
417.159	540.88
417.382	565.88
417.605	550.88
417.828	569.88
418.051	571.88
418.274	560.88
418.497	562.88
418.72	564.88
418.943	537.88
419.166	564.88
419.389	602.88
419.611	625.88
419.834	592.88
420.057	580.88
420.28	562.88
420.503	574.88
420.726	569.88
420.948	583.88
421.171	627.88
421.394	628.88
421.617	587.88
421.839	589.88
422.062	584.88
422.285	588.88
422.507	653.88
422.73	739.88
422.953	687.88
423.175	630.88
423.398	582.88
423.621	610.88
423.843	613.88
424.066	632.88
424.288	608.88
424.511	620.88
424.733	694.88
424.956	779.88
425.178	739.88
425.401	717.88
425.623	734.88
425.846	658.88
426.068	596.88
426.291	590.88
426.513	616.88
426.735	590.88
426.958	624.88
427.18	719.88
427.402	869.88
427.625	939.88
427.847	811.88
428.069	718.88
428.292	619.88
428.514	582.88
428.736	557.88
428.958	563.88
429.181	527.88
429.403	552.88
429.625	549.88
429.847	582.88
430.069	670.88
430.292	671.88
430.514	583.88
430.736	519.88
430.958	522.88
431.18	546.88
431.402	525.88
431.624	514.88
431.846	530.88
432.068	547.88
432.29	534.88
432.512	512.88
432.734	535.88
432.956	533.88
433.178	547.88
433.4	559.88
433.622	532.88
433.844	542.88
434.066	536.88
434.287	540.88
434.509	547.88
434.731	559.88
434.953	559.88
435.175	569.88
435.397	595.88
435.618	588.88
435.84	651.88
436.062	722.88
436.284	781.88
436.505	664.88
436.727	621.88
436.949	575.88
437.17	534.88
437.392	562.88
437.614	585.88
437.835	602.88
438.057	673.88
438.278	798.88
438.5	810.88
438.721	886.88
438.943	867.88
439.165	660.88
439.386	610.88
439.608	603.88
439.829	598.88
440.05	618.88
440.272	653.88
440.493	628.88
440.715	572.88
440.936	594.88
441.158	544.88
441.379	556.88
441.6	591.88
441.822	600.88
442.043	630.88
442.264	720.88
442.486	766.88
442.707	661.88
442.928	628.88
443.149	621.88
443.371	638.88
443.592	668.88
443.813	785.88
444.034	845.88
444.255	732.88
444.476	627.88
444.698	648.88
444.919	617.88
445.14	756.88
445.361	686.88
445.582	653.88
445.803	715.88
446.024	796.88
446.245	804.88
446.466	726.88
446.687	623.88
446.908	598.88
447.129	566.88
447.35	556.88
447.571	574.88
447.792	550.88
448.013	536.88
448.234	554.88
448.455	600.88
448.675	728.88
448.896	861.88
449.117	702.88
449.338	670.88
449.559	764.88
449.779	887.88
450	710.88
450.221	605.88
450.442	559.88
450.662	539.88
450.883	546.88
451.104	545.88
451.324	515.88
451.545	523.88
451.766	503.88
451.986	489.88
452.207	503.88
452.428	482.88
452.648	491.88
452.869	474.88
453.089	489.88
453.31	500.88
453.53	510.88
453.751	488.88
453.971	488.88
454.192	522.88
454.412	515.88
454.633	501.88
454.853	474.88
455.073	491.88
455.294	510.88
455.514	570.88
455.734	558.88
455.955	487.88
456.175	480.88
456.395	470.88
456.616	466.88
456.836	465.88
457.056	471.88
457.276	436.88
457.497	466.88
457.717	457.88
457.937	497.88
458.157	474.88
458.377	466.88
458.598	489.88
458.818	538.88
459.038	634.88
459.258	642.88
459.478	568.88
459.698	532.88
459.918	527.88
460.138	543.88
460.358	543.88
460.578	568.88
460.798	554.88
461.018	553.88
461.238	542.88
461.458	557.88
461.678	552.88
461.898	557.88
462.118	557.88
462.338	552.88
462.558	568.88
462.777	575.88
462.997	604.88
463.217	622.88
463.437	615.88
463.657	603.88
463.876	581.88
464.096	613.88
464.316	599.88
464.536	604.88
464.755	572.88
464.975	581.88
465.195	606.88
465.414	619.88
465.634	580.88
465.854	568.88
466.073	555.88
466.293	517.88
466.512	501.88
466.732	494.88
466.951	496.88
467.171	537.88
467.391	528.88
467.61	508.88
467.829	508.88
468.049	508.88
468.268	495.88
468.488	464.88
468.707	489.88
468.927	505.88
469.146	470.88
469.365	488.88
469.585	506.88
469.804	520.88
470.023	508.88
470.243	515.88
470.462	540.88
470.681	543.88
470.901	516.88
471.12	502.88
471.339	528.88
471.558	527.88
471.777	522.88
471.997	494.88
472.216	502.88
472.435	515.88
472.654	532.88
472.873	519.88
473.092	514.88
473.311	502.88
473.53	498.88
473.749	502.88
473.968	556.88
474.187	662.88
474.406	691.88
474.625	584.88
474.844	510.88
475.063	524.88
475.282	498.88
475.501	532.88
475.72	533.88
475.939	514.88
476.158	522.88
476.377	533.88
476.596	547.88
476.814	522.88
477.033	544.88
477.252	528.88
477.471	550.88
477.69	570.88
477.908	555.88
478.127	574.88
478.346	554.88
478.564	568.88
478.783	573.88
479.002	569.88
479.22	567.88
479.439	587.88
479.658	618.88
479.876	613.88
480.095	615.88
480.313	644.88
480.532	640.88
480.751	626.88
480.969	640.88
481.188	659.88
481.406	689.88
481.624	640.88
481.843	621.88
482.061	614.88
482.28	601.88
482.498	603.88
482.717	593.88
482.935	585.88
483.153	583.88
483.372	564.88
483.59	592.88
483.808	602.88
484.027	579.88
484.245	586.88
484.463	601.88
484.681	595.88
484.9	595.88
485.118	624.88
485.336	610.88
485.554	620.88
485.772	606.88
485.99	629.88
486.209	618.88
486.427	607.88
486.645	617.88
486.863	622.88
487.081	643.88
487.299	645.88
487.517	639.88
487.735	648.88
487.953	632.88
488.171	635.88
488.389	634.88
488.607	626.88
488.825	641.88
489.043	629.88
489.261	627.88
489.479	647.88
489.696	634.88
489.914	666.88
490.132	656.88
490.35	659.88
490.568	653.88
490.786	681.88
491.003	685.88
491.221	680.88
491.439	684.88
491.657	704.88
491.874	714.88
492.092	741.88
492.31	729.88
492.527	723.88
492.745	740.88
492.963	726.88
493.18	726.88
493.398	738.88
493.615	719.88
493.833	755.88
494.05	762.88
494.268	768.88
494.485	765.88
494.703	732.88
494.92	730.88
495.138	741.88
495.355	772.88
495.573	768.88
495.79	744.88
496.008	776.88
496.225	749.88
496.442	773.88
496.66	750.88
496.877	740.88
497.094	755.88
497.312	777.88
497.529	780.88
497.746	778.88
497.963	794.88
498.181	831.88
498.398	822.88
498.615	862.88
498.832	895.88
499.049	896.88
499.267	947.88
499.484	950.88
499.701	998.88
499.918	1069.88
500.135	1111.88
500.352	1185.88
500.569	1224.88
500.786	1210.88
501.003	1215.88
501.22	1168.88
501.437	1055.88
501.654	1028.88
501.871	1019.88
502.088	955.88
502.305	920.88
502.522	898.88
502.739	853.88
502.956	838.88
503.172	805.88
503.389	792.88
503.606	789.88
503.823	795.88
504.04	793.88
504.256	791.88
504.473	774.88
504.69	793.88
504.907	776.88
505.123	713.88
505.34	739.88
505.557	743.88
505.773	717.88
505.99	717.88
506.207	702.88
506.423	729.88
506.64	726.88
506.856	684.88
507.073	668.88
507.289	706.88
507.506	692.88
507.722	686.88
507.939	695.88
508.155	707.88
508.372	666.88
508.588	650.88
508.805	663.88
509.021	680.88
509.238	697.88
509.454	714.88
509.67	663.88
509.887	680.88
510.103	655.88
510.319	650.88
510.536	718.88
510.752	1098.88
510.968	908.88
511.184	653.88
511.401	644.88
511.617	633.88
511.833	639.88
512.049	627.88
512.265	611.88
512.481	632.88
512.698	607.88
512.914	623.88
513.13	604.88
513.346	630.88
513.562	601.88
513.778	623.88
513.994	643.88
514.21	635.88
514.426	643.88
514.642	665.88
514.858	696.88
515.074	724.88
515.29	810.88
515.506	1135.88
515.721	975.88
515.937	742.88
516.153	681.88
516.369	657.88
516.585	648.88
516.801	660.88
517.016	672.88
517.232	660.88
517.448	669.88
517.664	696.88
517.879	652.88
518.095	682.88
518.311	675.88
518.527	659.88
518.742	654.88
518.958	671.88
519.173	645.88
519.389	662.88
519.605	617.88
519.82	632.88
520.036	616.88
520.251	647.88
520.467	651.88
520.682	658.88
520.898	657.88
521.113	652.88
521.329	678.88
521.544	739.88
521.76	929.88
521.975	1379.88
522.19	1343.88
522.406	826.88
522.621	676.88
522.836	620.88
523.052	600.88
523.267	582.88
523.482	540.88
523.698	567.88
523.913	576.88
524.128	566.88
524.343	549.88
524.559	570.88
524.774	519.88
524.989	549.88
525.204	568.88
525.419	534.88
525.634	510.88
525.849	515.88
526.064	546.88
526.28	521.88
526.495	529.88
526.71	510.88
526.925	529.88
527.14	526.88
527.355	533.88
527.57	522.88
527.785	504.88
527.999	522.88
528.214	546.88
528.429	519.88
528.644	510.88
528.859	529.88
529.074	522.88
529.289	533.88
529.503	602.88
529.718	587.88
529.933	540.88
530.148	545.88
530.363	544.88
530.577	507.88
530.792	523.88
531.007	508.88
531.221	527.88
531.436	498.88
531.651	511.88
531.865	495.88
532.08	502.88
532.295	500.88
532.509	520.88
532.724	490.88
532.938	494.88
533.153	486.88
533.367	467.88
533.582	499.88
533.796	508.88
534.011	503.88
534.225	500.88
534.44	467.88
534.654	468.88
534.868	496.88
535.083	494.88
535.297	488.88
535.511	494.88
535.726	507.88
535.94	499.88
536.154	504.88
536.369	507.88
536.583	478.88
536.797	482.88
537.011	469.88
537.225	459.88
537.44	462.88
537.654	464.88
537.868	472.88
538.082	493.88
538.296	496.88
538.51	485.88
538.724	469.88
538.938	511.88
539.153	487.88
539.367	491.88
539.581	486.88
539.795	492.88
540.009	474.88
540.222	477.88
540.436	477.88
540.65	490.88
540.864	474.88
541.078	498.88
541.292	474.88
541.506	472.88
541.72	476.88
541.934	491.88
542.147	470.88
542.361	493.88
542.575	466.88
542.789	473.88
543.002	444.88
543.216	494.88
543.43	479.88
543.644	463.88
543.857	479.88
544.071	474.88
544.285	466.88
544.498	461.88
544.712	492.88
544.925	482.88
545.139	485.88
545.352	482.88
545.566	469.88
545.779	490.88
545.993	462.88
546.206	483.88
546.42	478.88
546.633	473.88
546.847	495.88
547.06	468.88
547.274	466.88
547.487	467.88
547.7	459.88
547.914	468.88
548.127	470.88
548.34	474.88
548.554	476.88
548.767	479.88
548.98	464.88
549.193	491.88
549.407	452.88
549.62	462.88
549.833	466.88
550.046	470.88
550.259	441.88
550.473	458.88
550.686	432.88
550.899	468.88
551.112	473.88
551.325	457.88
551.538	460.88
551.751	460.88
551.964	452.88
552.177	461.88
552.39	441.88
552.603	470.88
552.816	458.88
553.029	474.88
553.242	469.88
553.455	466.88
553.667	466.88
553.88	494.88
554.093	482.88
554.306	492.88
554.519	450.88
554.732	467.88
554.944	457.88
555.157	452.88
555.37	460.88
555.583	423.88
555.795	435.88
556.008	444.88
556.221	450.88
556.433	431.88
556.646	432.88
556.859	418.88
557.071	411.88
557.284	419.88
557.496	428.88
557.709	430.88
557.921	423.88
558.134	407.88
558.346	429.88
558.559	423.88
558.771	411.88
558.984	412.88
559.196	394.88
559.409	406.88
559.621	392.88
559.833	403.88
560.046	400.88
560.258	404.88
560.47	404.88
560.683	405.88
560.895	408.88
561.107	420.88
561.32	421.88
561.532	415.88
561.744	412.88
561.956	411.88
562.168	419.88
562.381	423.88
562.593	421.88
562.805	416.88
563.017	419.88
563.229	412.88
563.441	427.88
563.653	433.88
563.865	409.88
564.077	431.88
564.289	421.88
564.501	431.88
564.713	427.88
564.925	443.88
565.137	435.88
565.349	449.88
565.561	458.88
565.773	468.88
565.985	488.88
566.197	496.88
566.408	498.88
566.62	506.88
566.832	519.88
567.044	544.88
567.255	552.88
567.467	543.88
567.679	554.88
567.891	597.88
568.102	571.88
568.314	542.88
568.526	547.88
568.737	534.88
568.949	510.88
569.161	471.88
569.372	460.88
569.584	449.88
569.795	436.88
570.007	446.88
570.218	448.88
570.43	449.88
570.641	416.88
570.853	408.88
571.064	425.88
571.276	390.88
571.487	388.88
571.698	408.88
571.91	400.88
572.121	390.88
572.333	388.88
572.544	374.88
572.755	370.88
572.966	385.88
573.178	370.88
573.389	378.88
573.6	357.88
573.811	365.88
574.023	375.88
574.234	372.88
574.445	343.88
574.656	355.88
574.867	369.88
575.078	361.88
575.289	363.88
575.501	347.88
575.712	349.88
575.923	344.88
576.134	363.88
576.345	360.88
576.556	355.88
576.767	357.88
576.978	363.88
577.188	346.88
577.399	340.88
577.61	341.88
577.821	358.88
578.032	349.88
578.243	379.88
578.454	516.88
578.665	417.88
578.875	352.88
579.086	370.88
579.297	343.88
579.508	326.88
579.718	332.88
579.929	326.88
580.14	331.88
580.35	323.88
580.561	322.88
580.772	331.88
580.982	342.88
581.193	336.88
581.403	315.88
581.614	330.88
581.825	344.88
582.035	334.88
582.246	318.88
582.456	317.88
582.667	330.88
582.877	309.88
583.087	310.88
583.298	317.88
583.508	327.88
583.719	321.88
583.929	328.88
584.139	302.88
584.35	307.88
584.56	315.88
584.77	328.88
584.981	312.88
585.191	311.88
585.401	315.88
585.611	316.88
585.821	313.88
586.032	317.88
586.242	304.88
586.452	298.88
586.662	295.88
586.872	310.88
587.082	308.88
587.292	317.88
587.502	314.88
587.713	323.88
587.923	297.88
588.133	298.88
588.343	296.88
588.553	316.88
588.762	310.88
588.972	295.88
589.182	314.88
589.392	311.88
589.602	319.88
589.812	293.88
590.022	317.88
590.232	310.88
590.441	294.88
590.651	312.88
590.861	319.88
591.071	315.88
591.281	339.88
591.49	327.88
591.7	305.88
591.91	342.88
592.119	314.88
592.329	334.88
592.539	335.88
592.748	324.88
592.958	336.88
593.167	344.88
593.377	352.88
593.587	340.88
593.796	364.88
594.006	349.88
594.215	327.88
594.424	339.88
594.634	347.88
594.843	341.88
595.053	331.88
595.262	334.88
595.472	323.88
595.681	327.88
595.89	319.88
596.1	320.88
596.309	302.88
596.518	302.88
596.727	294.88
596.937	307.88
597.146	318.88
597.355	297.88
597.564	280.88
597.774	292.88
597.983	282.88
598.192	290.88
598.401	303.88
598.61	282.88
598.819	284.88
599.028	276.88
599.237	263.88
599.446	268.88
599.655	275.88
599.864	271.88
600.073	283.88
600.282	296.88
600.491	271.88
600.7	273.88
600.909	294.88
601.118	280.88
601.327	279.88
601.536	277.88
601.745	294.88
601.953	278.88
602.162	283.88
602.371	272.88
602.58	267.88
602.789	278.88
602.997	254.88
603.206	275.88
603.415	250.88
603.623	266.88
603.832	260.88
604.041	266.88
604.249	274.88
604.458	259.88
604.666	247.88
604.875	249.88
605.084	257.88
605.292	249.88
605.501	266.88
605.709	270.88
605.918	261.88
606.126	242.88
606.334	254.88
606.543	266.88
606.751	246.88
606.96	253.88
607.168	250.88
607.376	239.88
607.585	268.88
607.793	278.88
608.001	260.88
608.21	236.88
608.418	247.88
608.626	246.88
608.834	266.88
609.043	244.88
609.251	263.88
609.459	255.88
609.667	252.88
609.875	261.88
610.083	264.88
610.291	260.88
610.499	253.88
610.707	275.88
610.916	251.88
611.124	258.88
611.332	256.88
611.54	273.88
611.748	262.88
611.955	250.88
612.163	248.88
612.371	234.88
612.579	247.88
612.787	235.88
612.995	239.88
613.203	259.88
613.411	240.88
613.618	245.88
613.826	253.88
614.034	266.88
614.242	262.88
614.449	233.88
614.657	263.88
614.865	247.88
615.072	248.88
615.28	251.88
615.488	228.88
615.695	252.88
615.903	258.88
616.111	270.88
616.318	259.88
616.526	272.88
616.733	261.88
616.941	260.88
617.148	254.88
617.356	259.88
617.563	247.88
617.771	258.88
617.978	246.88
618.185	255.88
618.393	250.88
618.6	248.88
618.807	251.88
619.015	240.88
619.222	238.88
619.429	254.88
619.637	252.88
619.844	242.88
620.051	263.88
620.258	239.88
620.466	240.88
620.673	235.88
620.88	222.88
621.087	219.88
621.294	237.88
621.501	237.88
621.708	219.88
621.915	234.88
622.122	227.88
622.329	232.88
622.536	237.88
622.743	230.88
622.95	233.88
623.157	233.88
623.364	205.88
623.571	216.88
623.778	225.88
623.985	222.88
624.192	235.88
624.399	228.88
624.606	231.88
624.812	224.88
625.019	215.88
625.226	236.88
625.433	242.88
625.639	217.88
625.846	227.88
626.053	205.88
626.259	198.88
626.466	225.88
626.673	197.88
626.879	213.88
627.086	220.88
627.293	221.88
627.499	214.88
627.706	211.88
627.912	208.88
628.119	212.88
628.325	214.88
628.532	210.88
628.738	221.88
628.945	216.88
629.151	201.88
629.357	211.88
629.564	209.88
629.77	202.88
629.976	200.88
630.183	221.88
630.389	209.88
630.595	202.88
630.802	203.88
631.008	203.88
631.214	221.88
631.42	197.88
631.627	194.88
631.833	183.88
632.039	186.88
632.245	215.88
632.451	200.88
632.657	191.88
632.863	197.88
633.069	204.88
633.275	205.88
633.481	202.88
633.688	189.88
633.893	209.88
634.099	188.88
634.305	190.88
634.511	178.88
634.717	196.88
634.923	178.88
635.129	200.88
635.335	189.88
635.541	191.88
635.747	194.88
635.952	194.88
636.158	190.88
636.364	208.88
636.57	203.88
636.775	197.88
636.981	184.88
637.187	205.88
637.392	175.88
637.598	174.88
637.804	191.88
638.009	190.88
638.215	203.88
638.421	185.88
638.626	193.88
638.832	187.88
639.037	184.88
639.243	181.88
639.448	196.88
639.654	184.88
639.859	190.88
640.065	184.88
640.27	185.88
640.475	192.88
640.681	169.88
640.886	190.88
641.091	178.88
641.297	187.88
641.502	192.88
641.707	174.88
641.913	176.88
642.118	182.88
642.323	169.88
642.528	184.88
642.733	178.88
642.939	194.88
643.144	176.88
643.349	163.88
643.554	189.88
643.759	165.88
643.964	162.88
644.169	169.88
644.374	176.88
644.579	175.88
644.784	168.88
644.989	178.88
645.194	180.88
645.399	180.88
645.604	164.88
645.809	177.88
646.014	189.88
646.219	162.88
646.423	172.88
646.628	183.88
646.833	178.88
647.038	175.88
647.243	192.88
647.447	165.88
647.652	178.88
647.857	188.88
648.062	188.88
648.266	167.88
648.471	178.88
648.676	188.88
648.88	186.88
649.085	185.88
649.289	187.88
649.494	180.88
649.698	180.88
649.903	188.88
650.107	187.88
650.312	171.88
650.516	175.88
650.721	157.88
650.925	185.88
651.13	162.88
651.334	164.88
651.539	155.88
651.743	167.88
651.947	159.88
652.152	150.88
652.356	164.88
652.56	159.88
652.764	154.88
652.969	150.88
653.173	137.88
653.377	159.88
653.581	142.88
653.785	153.88
653.99	136.88
654.194	147.88
654.398	140.88
654.602	132.88
654.806	156.88
655.01	150.88
655.214	155.88
655.418	131.88
655.622	143.88
655.826	142.88
656.03	138.88
656.234	142.88
656.438	149.88
656.642	148.88
656.846	140.88
657.049	108.88
657.253	128.88
657.457	121.88
657.661	118.88
657.865	128.88
658.068	108.88
658.272	126.88
658.476	122.88
658.68	121.88
658.883	102.88
659.087	105.88
659.291	106.88
659.494	111.88
659.698	103.88
659.901	103.88
660.105	97.88
660.309	96.88
660.512	90.88
660.716	89.88
660.919	105.88
661.123	98.88
661.326	93.88
661.53	79.88
661.733	101.88
661.936	96.88
662.14	81.88
662.343	79.88
662.546	98.88
662.75	92.88
662.953	80.88
663.156	90.88
663.36	80.88
663.563	86.88
663.766	83.88
663.969	88.88
664.173	92.88
664.376	83.88
664.579	84.88
664.782	88.88
664.985	94.88
665.188	90.88
665.391	90.88
665.594	87.88
665.797	93.88
666	77.88
666.203	78.88
666.406	82.88
666.609	78.88
666.812	80.88
667.015	75.88
667.218	68.88
667.421	85.88
667.624	91.88
667.827	77.88
668.03	78.88
668.232	79.88
668.435	84.88
668.638	85.88
668.841	94.88
669.043	78.88
669.246	74.88
669.449	94.88
669.651	77.88
669.854	83.88
670.057	94.88
670.259	80.88
670.462	79.88
670.665	80.88
670.867	69.88
671.07	99.88
671.272	96.88
671.475	83.88
671.677	86.88
671.88	84.88
672.082	71.88
672.284	82.88
672.487	78.88
672.689	87.88
672.892	82.88
