Data from 1976.PennyLincolnUp.Lamp.En5.5.200Scan.071719.P1.Changed Mount._HRD10591_16-02-04-862.txt Node
Date: Thu Jul 18 16:02:04 EDT 2019
User: cochatt
Spectrometer: HR+D1059
Trigger mode: 1
Integration Time (sec): 1.000000E-1
Scans to average: 1
Electric dark correction enabled: true
Nonlinearity correction enabled: false
Boxcar width: 0
XAxis mode: Wavelengths
Number of Pixels in Spectrum: 2048
>>>>>Begin Spectral Data<<<<<
223.165	-12.5
223.4	-12.5
223.635	-12.5
223.869	-17.5
224.104	-23.5
224.338	-13.5
224.573	-5.5
224.808	-12.5
225.042	-13.5
225.277	4.5
225.511	-5.5
225.746	0.5
225.98	3.5
226.215	8.5
226.449	23.5
226.683	19.5
226.918	22.5
227.152	21.5
227.387	39.5
227.621	34.5
227.856	41.5
228.09	50.5
228.324	39.5
228.559	60.5
228.793	63.5
229.027	101.5
229.262	102.5
229.496	110.5
229.73	144.5
229.964	156.5
230.199	108.5
230.433	124.5
230.667	106.5
230.901	130.5
231.136	125.5
231.37	120.5
231.604	114.5
231.838	114.5
232.072	74.5
232.306	103.5
232.541	131.5
232.775	125.5
233.009	120.5
233.243	108.5
233.477	114.5
233.711	116.5
233.945	121.5
234.179	140.5
234.413	118.5
234.647	117.5
234.881	127.5
235.115	142.5
235.349	126.5
235.583	131.5
235.817	108.5
236.051	129.5
236.285	131.5
236.519	135.5
236.753	125.5
236.987	141.5
237.221	203.5
237.455	244.5
237.689	188.5
237.922	169.5
238.156	138.5
238.39	134.5
238.624	140.5
238.858	126.5
239.091	132.5
239.325	138.5
239.559	138.5
239.793	144.5
240.027	130.5
240.26	142.5
240.494	178.5
240.728	161.5
240.961	167.5
241.195	163.5
241.429	157.5
241.662	146.5
241.896	130.5
242.13	139.5
242.363	153.5
242.597	136.5
242.83	145.5
243.064	143.5
243.298	156.5
243.531	148.5
243.765	144.5
243.998	160.5
244.232	160.5
244.465	173.5
244.699	151.5
244.932	156.5
245.166	154.5
245.399	152.5
245.633	155.5
245.866	178.5
246.099	159.5
246.333	146.5
246.566	156.5
246.8	162.5
247.033	165.5
247.266	181.5
247.5	178.5
247.733	187.5
247.966	179.5
248.2	168.5
248.433	188.5
248.666	175.5
248.899	188.5
249.133	208.5
249.366	204.5
249.599	210.5
249.832	178.5
250.066	197.5
250.299	201.5
250.532	226.5
250.765	211.5
250.998	239.5
251.231	244.5
251.465	218.5
251.698	211.5
251.931	210.5
252.164	198.5
252.397	203.5
252.63	210.5
252.863	213.5
253.096	231.5
253.329	236.5
253.562	238.5
253.795	234.5
254.028	227.5
254.261	224.5
254.494	232.5
254.727	268.5
254.96	302.5
255.193	287.5
255.426	258.5
255.659	251.5
255.892	258.5
256.124	235.5
256.357	245.5
256.59	245.5
256.823	243.5
257.056	217.5
257.289	228.5
257.521	226.5
257.754	218.5
257.987	215.5
258.22	216.5
258.452	216.5
258.685	232.5
258.918	227.5
259.151	216.5
259.383	228.5
259.616	238.5
259.849	240.5
260.081	256.5
260.314	283.5
260.547	302.5
260.779	270.5
261.012	262.5
261.244	264.5
261.477	229.5
261.71	229.5
261.942	242.5
262.175	235.5
262.407	247.5
262.64	242.5
262.872	235.5
263.105	238.5
263.337	228.5
263.57	220.5
263.802	224.5
264.035	226.5
264.267	242.5
264.499	235.5
264.732	214.5
264.964	243.5
265.197	232.5
265.429	227.5
265.661	226.5
265.894	249.5
266.126	250.5
266.358	238.5
266.591	248.5
266.823	258.5
267.055	248.5
267.287	254.5
267.52	253.5
267.752	243.5
267.984	253.5
268.216	266.5
268.448	255.5
268.681	259.5
268.913	246.5
269.145	280.5
269.377	297.5
269.609	316.5
269.841	312.5
270.073	313.5
270.306	306.5
270.538	334.5
270.77	334.5
271.002	323.5
271.234	315.5
271.466	319.5
271.698	328.5
271.93	349.5
272.162	339.5
272.394	331.5
272.626	342.5
272.858	321.5
273.09	304.5
273.322	301.5
273.553	295.5
273.785	300.5
274.017	300.5
274.249	301.5
274.481	309.5
274.713	294.5
274.945	277.5
275.176	297.5
275.408	292.5
275.64	295.5
275.872	276.5
276.104	292.5
276.335	279.5
276.567	297.5
276.799	300.5
277.031	317.5
277.262	344.5
277.494	348.5
277.726	336.5
277.957	314.5
278.189	323.5
278.421	306.5
278.652	309.5
278.884	299.5
279.115	292.5
279.347	295.5
279.579	311.5
279.81	319.5
280.042	295.5
280.273	297.5
280.505	302.5
280.736	300.5
280.968	289.5
281.199	300.5
281.431	291.5
281.662	313.5
281.894	300.5
282.125	300.5
282.356	334.5
282.588	348.5
282.819	327.5
283.051	300.5
283.282	308.5
283.513	298.5
283.745	287.5
283.976	314.5
284.207	320.5
284.439	306.5
284.67	319.5
284.901	307.5
285.132	331.5
285.364	299.5
285.595	317.5
285.826	323.5
286.057	340.5
286.288	322.5
286.52	328.5
286.751	326.5
286.982	332.5
287.213	312.5
287.444	321.5
287.675	331.5
287.906	339.5
288.138	324.5
288.369	331.5
288.6	360.5
288.831	327.5
289.062	339.5
289.293	339.5
289.524	316.5
289.755	332.5
289.986	325.5
290.217	324.5
290.448	347.5
290.679	318.5
290.91	323.5
291.141	348.5
291.371	325.5
291.602	335.5
291.833	346.5
292.064	320.5
292.295	323.5
292.526	327.5
292.757	331.5
292.987	328.5
293.218	330.5
293.449	339.5
293.68	326.5
293.91	364.5
294.141	335.5
294.372	343.5
294.603	342.5
294.833	323.5
295.064	353.5
295.295	335.5
295.525	351.5
295.756	346.5
295.987	342.5
296.217	349.5
296.448	358.5
296.679	359.5
296.909	350.5
297.14	342.5
297.37	346.5
297.601	355.5
297.831	335.5
298.062	341.5
298.292	344.5
298.523	340.5
298.753	355.5
298.984	335.5
299.214	340.5
299.445	339.5
299.675	356.5
299.905	359.5
300.136	342.5
300.366	340.5
300.597	339.5
300.827	363.5
301.057	348.5
301.288	365.5
301.518	380.5
301.748	376.5
301.979	375.5
302.209	375.5
302.439	384.5
302.669	377.5
302.9	358.5
303.13	386.5
303.36	355.5
303.59	370.5
303.82	384.5
304.051	358.5
304.281	370.5
304.511	386.5
304.741	365.5
304.971	363.5
305.201	359.5
305.431	345.5
305.661	366.5
305.891	360.5
306.121	355.5
306.352	364.5
306.582	380.5
306.812	374.5
307.042	383.5
307.272	367.5
307.502	365.5
307.731	356.5
307.961	373.5
308.191	374.5
308.421	350.5
308.651	358.5
308.881	363.5
309.111	377.5
309.341	388.5
309.571	378.5
309.8	400.5
310.03	394.5
310.26	410.5
310.49	413.5
310.72	412.5
310.949	413.5
311.179	424.5
311.409	421.5
311.639	426.5
311.868	413.5
312.098	424.5
312.328	398.5
312.557	429.5
312.787	419.5
313.017	422.5
313.246	419.5
313.476	417.5
313.706	415.5
313.935	445.5
314.165	443.5
314.394	442.5
314.624	439.5
314.853	416.5
315.083	424.5
315.312	422.5
315.542	407.5
315.771	403.5
316.001	414.5
316.23	425.5
316.46	418.5
316.689	418.5
316.919	419.5
317.148	427.5
317.377	428.5
317.607	419.5
317.836	400.5
318.065	420.5
318.295	399.5
318.524	408.5
318.753	434.5
318.983	414.5
319.212	411.5
319.441	407.5
319.67	423.5
319.9	423.5
320.129	396.5
320.358	415.5
320.587	423.5
320.816	448.5
321.046	427.5
321.275	430.5
321.504	436.5
321.733	448.5
321.962	435.5
322.191	444.5
322.42	465.5
322.649	472.5
322.878	480.5
323.108	475.5
323.337	495.5
323.566	519.5
323.795	548.5
324.024	566.5
324.253	673.5
324.482	952.5
324.71	1477.5
324.939	2198.5
325.168	1875.5
325.397	954.5
325.626	668.5
325.855	557.5
326.084	520.5
326.313	519.5
326.542	537.5
326.77	560.5
326.999	661.5
327.228	853.5
327.457	1316.5
327.686	1618.5
327.914	1059.5
328.143	716.5
328.372	654.5
328.6	617.5
328.829	601.5
329.058	581.5
329.287	591.5
329.515	556.5
329.744	529.5
329.972	549.5
330.201	568.5
330.43	602.5
330.658	636.5
330.887	608.5
331.115	612.5
331.344	556.5
331.572	526.5
331.801	517.5
332.03	514.5
332.258	526.5
332.486	508.5
332.715	479.5
332.943	489.5
333.172	510.5
333.4	514.5
333.629	520.5
333.857	530.5
334.085	554.5
334.314	548.5
334.542	599.5
334.771	604.5
334.999	550.5
335.227	533.5
335.455	519.5
335.684	527.5
335.912	514.5
336.14	490.5
336.369	491.5
336.597	521.5
336.825	491.5
337.053	504.5
337.281	500.5
337.51	483.5
337.738	485.5
337.966	464.5
338.194	491.5
338.422	491.5
338.65	472.5
338.878	479.5
339.106	488.5
339.334	500.5
339.562	499.5
339.79	493.5
340.018	487.5
340.246	459.5
340.474	455.5
340.702	455.5
340.93	476.5
341.158	481.5
341.386	466.5
341.614	469.5
341.842	486.5
342.07	454.5
342.298	473.5
342.526	469.5
342.754	468.5
342.981	466.5
343.209	486.5
343.437	465.5
343.665	488.5
343.893	483.5
344.12	499.5
344.348	500.5
344.576	504.5
344.804	491.5
345.031	489.5
345.259	503.5
345.487	472.5
345.714	461.5
345.942	467.5
346.17	446.5
346.397	438.5
346.625	457.5
346.853	473.5
347.08	469.5
347.308	456.5
347.535	469.5
347.763	466.5
347.99	461.5
348.218	465.5
348.445	480.5
348.673	446.5
348.9	448.5
349.128	445.5
349.355	455.5
349.583	452.5
349.81	449.5
350.037	437.5
350.265	468.5
350.492	448.5
350.72	438.5
350.947	434.5
351.174	448.5
351.402	463.5
351.629	450.5
351.856	467.5
352.083	460.5
352.311	464.5
352.538	450.5
352.765	456.5
352.992	452.5
353.22	458.5
353.447	442.5
353.674	435.5
353.901	436.5
354.128	397.5
354.355	424.5
354.583	426.5
354.81	427.5
355.037	426.5
355.264	420.5
355.491	423.5
355.718	420.5
355.945	430.5
356.172	440.5
356.399	415.5
356.626	424.5
356.853	437.5
357.08	437.5
357.307	428.5
357.534	426.5
357.761	458.5
357.988	426.5
358.215	426.5
358.441	424.5
358.668	423.5
358.895	419.5
359.122	431.5
359.349	440.5
359.576	453.5
359.802	454.5
360.029	522.5
360.256	483.5
360.483	492.5
360.709	464.5
360.936	452.5
361.163	436.5
361.39	461.5
361.616	452.5
361.843	440.5
362.07	443.5
362.296	442.5
362.523	436.5
362.749	453.5
362.976	451.5
363.203	447.5
363.429	417.5
363.656	439.5
363.882	442.5
364.109	418.5
364.335	425.5
364.562	444.5
364.788	436.5
365.015	425.5
365.241	438.5
365.468	428.5
365.694	436.5
365.92	453.5
366.147	442.5
366.373	432.5
366.599	456.5
366.826	429.5
367.052	435.5
367.278	426.5
367.505	434.5
367.731	430.5
367.957	406.5
368.184	420.5
368.41	444.5
368.636	443.5
368.862	460.5
369.089	439.5
369.315	464.5
369.541	445.5
369.767	440.5
369.993	446.5
370.219	450.5
370.445	438.5
370.672	426.5
370.898	444.5
371.124	435.5
371.35	448.5
371.576	414.5
371.802	493.5
372.028	446.5
372.254	429.5
372.48	423.5
372.706	426.5
372.932	441.5
373.158	424.5
373.384	434.5
373.61	438.5
373.835	445.5
374.061	431.5
374.287	444.5
374.513	436.5
374.739	460.5
374.965	448.5
375.191	471.5
375.416	464.5
375.642	458.5
375.868	437.5
376.094	430.5
376.319	430.5
376.545	459.5
376.771	446.5
376.997	456.5
377.222	429.5
377.448	453.5
377.674	440.5
377.899	443.5
378.125	438.5
378.35	429.5
378.576	447.5
378.802	434.5
379.027	428.5
379.253	444.5
379.478	448.5
379.704	418.5
379.929	450.5
380.155	419.5
380.38	444.5
380.606	456.5
380.831	442.5
381.057	447.5
381.282	435.5
381.507	453.5
381.733	456.5
381.958	454.5
382.184	450.5
382.409	432.5
382.634	462.5
382.86	438.5
383.085	451.5
383.31	435.5
383.535	442.5
383.761	441.5
383.986	458.5
384.211	464.5
384.436	472.5
384.662	444.5
384.887	451.5
385.112	470.5
385.337	445.5
385.562	470.5
385.787	489.5
386.013	515.5
386.238	493.5
386.463	495.5
386.688	511.5
386.913	491.5
387.138	496.5
387.363	494.5
387.588	491.5
387.813	492.5
388.038	476.5
388.263	485.5
388.488	478.5
388.713	502.5
388.938	488.5
389.163	488.5
389.387	490.5
389.612	468.5
389.837	506.5
390.062	490.5
390.287	493.5
390.512	492.5
390.736	479.5
390.961	485.5
391.186	510.5
391.411	505.5
391.636	512.5
391.86	512.5
392.085	505.5
392.31	504.5
392.534	508.5
392.759	493.5
392.984	518.5
393.208	495.5
393.433	482.5
393.658	483.5
393.882	495.5
394.107	487.5
394.331	513.5
394.556	474.5
394.78	484.5
395.005	518.5
395.229	508.5
395.454	517.5
395.678	533.5
395.903	536.5
396.127	553.5
396.352	538.5
396.576	503.5
396.801	516.5
397.025	505.5
397.249	522.5
397.474	521.5
397.698	546.5
397.922	536.5
398.147	544.5
398.371	572.5
398.595	552.5
398.82	575.5
399.044	588.5
399.268	601.5
399.492	644.5
399.717	685.5
399.941	744.5
400.165	718.5
400.389	707.5
400.613	662.5
400.837	614.5
401.062	601.5
401.286	598.5
401.51	577.5
401.734	558.5
401.958	604.5
402.182	604.5
402.406	596.5
402.63	605.5
402.854	589.5
403.078	599.5
403.302	582.5
403.526	607.5
403.75	592.5
403.974	606.5
404.198	577.5
404.422	584.5
404.645	623.5
404.869	614.5
405.093	647.5
405.317	676.5
405.541	712.5
405.765	680.5
405.988	637.5
406.212	628.5
406.436	668.5
406.66	639.5
406.883	641.5
407.107	704.5
407.331	723.5
407.555	792.5
407.778	777.5
408.002	725.5
408.226	657.5
408.449	640.5
408.673	658.5
408.896	687.5
409.12	732.5
409.344	674.5
409.567	638.5
409.791	611.5
410.014	597.5
410.238	580.5
410.461	584.5
410.685	597.5
410.908	639.5
411.132	642.5
411.355	676.5
411.578	651.5
411.802	574.5
412.025	598.5
412.249	604.5
412.472	610.5
412.695	666.5
412.919	666.5
413.142	595.5
413.365	591.5
413.589	600.5
413.812	580.5
414.035	592.5
414.258	585.5
414.482	559.5
414.705	562.5
414.928	574.5
415.151	560.5
415.374	556.5
415.597	540.5
415.821	559.5
416.044	560.5
416.267	568.5
416.49	562.5
416.713	577.5
416.936	546.5
417.159	554.5
417.382	571.5
417.605	573.5
417.828	583.5
418.051	592.5
418.274	574.5
418.497	558.5
418.72	578.5
418.943	546.5
419.166	597.5
419.389	620.5
419.611	614.5
419.834	582.5
420.057	591.5
420.28	587.5
420.503	581.5
420.726	579.5
420.948	605.5
421.171	637.5
421.394	681.5
421.617	611.5
421.839	572.5
422.062	580.5
422.285	605.5
422.507	674.5
422.73	750.5
422.953	698.5
423.175	634.5
423.398	627.5
423.621	608.5
423.843	642.5
424.066	645.5
424.288	629.5
424.511	656.5
424.733	706.5
424.956	784.5
425.178	767.5
425.401	754.5
425.623	794.5
425.846	682.5
426.068	637.5
426.291	620.5
426.513	638.5
426.735	626.5
426.958	665.5
427.18	729.5
427.402	882.5
427.625	986.5
427.847	871.5
428.069	728.5
428.292	664.5
428.514	630.5
428.736	603.5
428.958	572.5
429.181	581.5
429.403	571.5
429.625	574.5
429.847	608.5
430.069	681.5
430.292	662.5
430.514	571.5
430.736	568.5
430.958	548.5
431.18	548.5
431.402	548.5
431.624	533.5
431.846	524.5
432.068	530.5
432.29	546.5
432.512	549.5
432.734	563.5
432.956	559.5
433.178	557.5
433.4	584.5
433.622	560.5
433.844	565.5
434.066	536.5
434.287	526.5
434.509	560.5
434.731	579.5
434.953	578.5
435.175	592.5
435.397	613.5
435.618	614.5
435.84	640.5
436.062	756.5
436.284	828.5
436.505	715.5
436.727	659.5
436.949	596.5
437.17	591.5
437.392	577.5
437.614	582.5
437.835	603.5
438.057	706.5
438.278	802.5
438.5	807.5
438.721	879.5
438.943	883.5
439.165	678.5
439.386	630.5
439.608	635.5
439.829	640.5
440.05	647.5
440.272	682.5
440.493	620.5
440.715	610.5
440.936	598.5
441.158	583.5
441.379	591.5
441.6	605.5
441.822	613.5
442.043	652.5
442.264	738.5
442.486	797.5
442.707	687.5
442.928	628.5
443.149	622.5
443.371	686.5
443.592	713.5
443.813	814.5
444.034	892.5
444.255	720.5
444.476	655.5
444.698	638.5
444.919	639.5
445.14	758.5
445.361	687.5
445.582	663.5
445.803	714.5
446.024	820.5
446.245	862.5
446.466	788.5
446.687	659.5
446.908	632.5
447.129	572.5
447.35	568.5
447.571	563.5
447.792	550.5
448.013	574.5
448.234	593.5
448.455	634.5
448.675	748.5
448.896	896.5
449.117	755.5
449.338	700.5
449.559	812.5
449.779	935.5
450	736.5
450.221	614.5
450.442	564.5
450.662	541.5
450.883	567.5
451.104	550.5
451.324	523.5
451.545	529.5
451.766	543.5
451.986	511.5
452.207	494.5
452.428	506.5
452.648	506.5
452.869	500.5
453.089	520.5
453.31	509.5
453.53	505.5
453.751	488.5
453.971	482.5
454.192	518.5
454.412	514.5
454.633	513.5
454.853	498.5
455.073	490.5
455.294	526.5
455.514	587.5
455.734	591.5
455.955	517.5
456.175	497.5
456.395	479.5
456.616	448.5
456.836	489.5
457.056	477.5
457.276	462.5
457.497	472.5
457.717	472.5
457.937	476.5
458.157	508.5
458.377	516.5
458.598	512.5
458.818	575.5
459.038	637.5
459.258	674.5
459.478	580.5
459.698	547.5
459.918	559.5
460.138	541.5
460.358	554.5
460.578	559.5
460.798	556.5
461.018	556.5
461.238	562.5
461.458	558.5
461.678	546.5
461.898	562.5
462.118	570.5
462.338	564.5
462.558	563.5
462.777	599.5
462.997	623.5
463.217	632.5
463.437	652.5
463.657	638.5
463.876	600.5
464.096	609.5
464.316	605.5
464.536	622.5
464.755	605.5
464.975	614.5
465.195	626.5
465.414	666.5
465.634	583.5
465.854	582.5
466.073	580.5
466.293	544.5
466.512	518.5
466.732	498.5
466.951	507.5
467.171	491.5
467.391	516.5
467.61	520.5
467.829	529.5
468.049	506.5
468.268	522.5
468.488	500.5
468.707	504.5
468.927	501.5
469.146	506.5
469.365	510.5
469.585	513.5
469.804	516.5
470.023	527.5
470.243	516.5
470.462	528.5
470.681	527.5
470.901	547.5
471.12	531.5
471.339	516.5
471.558	539.5
471.777	538.5
471.997	540.5
472.216	529.5
472.435	554.5
472.654	543.5
472.873	509.5
473.092	505.5
473.311	512.5
473.53	528.5
473.749	528.5
473.968	567.5
474.187	662.5
474.406	694.5
474.625	569.5
474.844	541.5
475.063	514.5
475.282	514.5
475.501	526.5
475.72	537.5
475.939	555.5
476.158	524.5
476.377	531.5
476.596	521.5
476.814	543.5
477.033	576.5
477.252	527.5
477.471	579.5
477.69	548.5
477.908	566.5
478.127	585.5
478.346	586.5
478.564	592.5
478.783	575.5
479.002	603.5
479.22	598.5
479.439	610.5
479.658	632.5
479.876	634.5
480.095	627.5
480.313	714.5
480.532	664.5
480.751	656.5
480.969	642.5
481.188	691.5
481.406	724.5
481.624	662.5
481.843	632.5
482.061	614.5
482.28	628.5
482.498	636.5
482.717	596.5
482.935	601.5
483.153	590.5
483.372	592.5
483.59	614.5
483.808	615.5
484.027	585.5
484.245	610.5
484.463	634.5
484.681	639.5
484.9	617.5
485.118	622.5
485.336	616.5
485.554	624.5
485.772	612.5
485.99	639.5
486.209	623.5
486.427	617.5
486.645	637.5
486.863	654.5
487.081	675.5
487.299	656.5
487.517	638.5
487.735	653.5
487.953	657.5
488.171	626.5
488.389	681.5
488.607	652.5
488.825	657.5
489.043	642.5
489.261	656.5
489.479	671.5
489.696	668.5
489.914	669.5
490.132	672.5
490.35	671.5
490.568	678.5
490.786	690.5
491.003	702.5
491.221	709.5
491.439	743.5
491.657	715.5
491.874	733.5
492.092	732.5
492.31	744.5
492.527	721.5
492.745	735.5
492.963	744.5
493.18	775.5
493.398	768.5
493.615	759.5
493.833	757.5
494.05	772.5
494.268	782.5
494.485	777.5
494.703	805.5
494.92	776.5
495.138	775.5
495.355	762.5
495.573	781.5
495.79	805.5
496.008	804.5
496.225	794.5
496.442	784.5
496.66	787.5
496.877	766.5
497.094	792.5
497.312	819.5
497.529	814.5
497.746	824.5
497.963	809.5
498.181	854.5
498.398	854.5
498.615	871.5
498.832	913.5
499.049	930.5
499.267	960.5
499.484	986.5
499.701	1033.5
499.918	1089.5
500.135	1128.5
500.352	1213.5
500.569	1236.5
500.786	1252.5
501.003	1243.5
501.22	1156.5
501.437	1092.5
501.654	1063.5
501.871	1028.5
502.088	996.5
502.305	940.5
502.522	921.5
502.739	899.5
502.956	856.5
503.172	839.5
503.389	820.5
503.606	851.5
503.823	832.5
504.04	796.5
504.256	827.5
504.473	793.5
504.69	795.5
504.907	812.5
505.123	766.5
505.34	722.5
505.557	745.5
505.773	742.5
505.99	731.5
506.207	746.5
506.423	709.5
506.64	728.5
506.856	728.5
507.073	701.5
507.289	712.5
507.506	692.5
507.722	715.5
507.939	715.5
508.155	677.5
508.372	687.5
508.588	681.5
508.805	678.5
509.021	685.5
509.238	677.5
509.454	710.5
509.67	687.5
509.887	678.5
510.103	690.5
510.319	696.5
510.536	767.5
510.752	1134.5
510.968	958.5
511.184	696.5
511.401	664.5
511.617	637.5
511.833	618.5
512.049	630.5
512.265	642.5
512.481	656.5
512.698	640.5
512.914	635.5
513.13	629.5
513.346	659.5
513.562	640.5
513.778	633.5
513.994	647.5
514.21	629.5
514.426	684.5
514.642	687.5
514.858	719.5
515.074	723.5
515.29	836.5
515.506	1146.5
515.721	972.5
515.937	729.5
516.153	684.5
516.369	693.5
516.585	659.5
516.801	687.5
517.016	665.5
517.232	685.5
517.448	706.5
517.664	708.5
517.879	708.5
518.095	705.5
518.311	675.5
518.527	698.5
518.742	687.5
518.958	656.5
519.173	644.5
519.389	665.5
519.605	638.5
519.82	644.5
520.036	644.5
520.251	673.5
520.467	707.5
520.682	679.5
520.898	690.5
521.113	692.5
521.329	732.5
521.544	789.5
521.76	948.5
521.975	1444.5
522.19	1412.5
522.406	865.5
522.621	694.5
522.836	641.5
523.052	602.5
523.267	606.5
523.482	599.5
523.698	585.5
523.913	573.5
524.128	566.5
524.343	556.5
524.559	575.5
524.774	562.5
524.989	542.5
525.204	557.5
525.419	538.5
525.634	548.5
525.849	565.5
526.064	550.5
526.28	523.5
526.495	522.5
526.71	531.5
526.925	536.5
527.14	558.5
527.355	532.5
527.57	520.5
527.785	528.5
527.999	517.5
528.214	534.5
528.429	535.5
528.644	518.5
528.859	528.5
529.074	562.5
529.289	564.5
529.503	607.5
529.718	587.5
529.933	552.5
530.148	550.5
530.363	534.5
530.577	531.5
530.792	519.5
531.007	540.5
531.221	512.5
531.436	502.5
531.651	525.5
531.865	494.5
532.08	502.5
532.295	532.5
532.509	515.5
532.724	509.5
532.938	516.5
533.153	525.5
533.367	528.5
533.582	531.5
533.796	485.5
534.011	523.5
534.225	526.5
534.44	508.5
534.654	517.5
534.868	493.5
535.083	488.5
535.297	511.5
535.511	503.5
535.726	518.5
535.94	514.5
536.154	487.5
536.369	463.5
536.583	495.5
536.797	501.5
537.011	475.5
537.225	491.5
537.44	491.5
537.654	480.5
537.868	469.5
538.082	500.5
538.296	491.5
538.51	491.5
538.724	502.5
538.938	476.5
539.153	491.5
539.367	480.5
539.581	518.5
539.795	481.5
540.009	480.5
540.222	485.5
540.436	486.5
540.65	470.5
540.864	490.5
541.078	509.5
541.292	490.5
541.506	507.5
541.72	494.5
541.934	498.5
542.147	497.5
542.361	498.5
542.575	486.5
542.789	504.5
543.002	487.5
543.216	514.5
543.43	506.5
543.644	488.5
543.857	502.5
544.071	495.5
544.285	471.5
544.498	494.5
544.712	483.5
544.925	485.5
545.139	503.5
545.352	488.5
545.566	469.5
545.779	474.5
545.993	472.5
546.206	479.5
546.42	484.5
546.633	476.5
546.847	476.5
547.06	490.5
547.274	472.5
547.487	489.5
547.7	498.5
547.914	477.5
548.127	480.5
548.34	464.5
548.554	463.5
548.767	483.5
548.98	472.5
549.193	484.5
549.407	476.5
549.62	468.5
549.833	475.5
550.046	469.5
550.259	475.5
550.473	474.5
550.686	465.5
550.899	454.5
551.112	475.5
551.325	454.5
551.538	460.5
551.751	460.5
551.964	447.5
552.177	472.5
552.39	447.5
552.603	483.5
552.816	489.5
553.029	473.5
553.242	476.5
553.455	502.5
553.667	512.5
553.88	520.5
554.093	501.5
554.306	472.5
554.519	478.5
554.732	481.5
554.944	450.5
555.157	464.5
555.37	467.5
555.583	462.5
555.795	440.5
556.008	451.5
556.221	452.5
556.433	414.5
556.646	448.5
556.859	430.5
557.071	431.5
557.284	421.5
557.496	430.5
557.709	434.5
557.921	430.5
558.134	424.5
558.346	437.5
558.559	410.5
558.771	422.5
558.984	412.5
559.196	420.5
559.409	397.5
559.621	418.5
559.833	418.5
560.046	428.5
560.258	427.5
560.47	399.5
560.683	427.5
560.895	414.5
561.107	400.5
561.32	405.5
561.532	412.5
561.744	405.5
561.956	430.5
562.168	439.5
562.381	436.5
562.593	411.5
562.805	431.5
563.017	427.5
563.229	431.5
563.441	431.5
563.653	436.5
563.865	420.5
564.077	438.5
564.289	439.5
564.501	459.5
564.713	445.5
564.925	442.5
565.137	445.5
565.349	449.5
565.561	469.5
565.773	467.5
565.985	484.5
566.197	493.5
566.408	527.5
566.62	537.5
566.832	553.5
567.044	556.5
567.255	528.5
567.467	567.5
567.679	571.5
567.891	589.5
568.102	602.5
568.314	601.5
568.526	531.5
568.737	500.5
568.949	489.5
569.161	461.5
569.372	455.5
569.584	457.5
569.795	447.5
570.007	451.5
570.218	473.5
570.43	476.5
570.641	426.5
570.853	420.5
571.064	417.5
571.276	428.5
571.487	413.5
571.698	395.5
571.91	404.5
572.121	399.5
572.333	378.5
572.544	389.5
572.755	372.5
572.966	402.5
573.178	375.5
573.389	393.5
573.6	382.5
573.811	379.5
574.023	362.5
574.234	376.5
574.445	354.5
574.656	378.5
574.867	366.5
575.078	371.5
575.289	382.5
575.501	375.5
575.712	363.5
575.923	347.5
576.134	343.5
576.345	350.5
576.556	338.5
576.767	350.5
576.978	362.5
577.188	355.5
577.399	360.5
577.61	344.5
577.821	350.5
578.032	337.5
578.243	360.5
578.454	536.5
578.665	409.5
578.875	352.5
579.086	354.5
579.297	341.5
579.508	318.5
579.718	324.5
579.929	325.5
580.14	349.5
580.35	333.5
580.561	339.5
580.772	341.5
580.982	331.5
581.193	318.5
581.403	336.5
581.614	328.5
581.825	325.5
582.035	323.5
582.246	319.5
582.456	315.5
582.667	318.5
582.877	305.5
583.087	314.5
583.298	337.5
583.508	330.5
583.719	334.5
583.929	332.5
584.139	338.5
584.35	324.5
584.56	326.5
584.77	328.5
584.981	315.5
585.191	327.5
585.401	300.5
585.611	322.5
585.821	317.5
586.032	307.5
586.242	328.5
586.452	315.5
586.662	327.5
586.872	335.5
587.082	319.5
587.292	328.5
587.502	312.5
587.713	318.5
587.923	314.5
588.133	314.5
588.343	322.5
588.553	324.5
588.762	298.5
588.972	325.5
589.182	327.5
589.392	298.5
589.602	330.5
589.812	315.5
590.022	322.5
590.232	321.5
590.441	324.5
590.651	330.5
590.861	309.5
591.071	315.5
591.281	324.5
591.49	327.5
591.7	316.5
591.91	315.5
592.119	315.5
592.329	336.5
592.539	343.5
592.748	339.5
592.958	333.5
593.167	352.5
593.377	332.5
593.587	354.5
593.796	338.5
594.006	344.5
594.215	364.5
594.424	353.5
594.634	366.5
594.843	319.5
595.053	331.5
595.262	349.5
595.472	317.5
595.681	329.5
595.89	331.5
596.1	316.5
596.309	301.5
596.518	295.5
596.727	304.5
596.937	318.5
597.146	293.5
597.355	296.5
597.564	287.5
597.774	303.5
597.983	283.5
598.192	280.5
598.401	302.5
598.61	308.5
598.819	297.5
599.028	310.5
599.237	283.5
599.446	298.5
599.655	290.5
599.864	272.5
600.073	262.5
600.282	282.5
600.491	282.5
600.7	286.5
600.909	279.5
601.118	279.5
601.327	291.5
601.536	279.5
601.745	262.5
601.953	292.5
602.162	301.5
602.371	282.5
602.58	276.5
602.789	268.5
602.997	277.5
603.206	268.5
603.415	266.5
603.623	254.5
603.832	279.5
604.041	254.5
604.249	262.5
604.458	263.5
604.666	269.5
604.875	276.5
605.084	256.5
605.292	271.5
605.501	272.5
605.709	262.5
605.918	254.5
606.126	282.5
606.334	271.5
606.543	249.5
606.751	280.5
606.96	249.5
607.168	278.5
607.376	273.5
607.585	261.5
607.793	259.5
608.001	261.5
608.21	261.5
608.418	249.5
608.626	256.5
608.834	252.5
609.043	274.5
609.251	276.5
609.459	243.5
609.667	261.5
609.875	249.5
610.083	254.5
610.291	248.5
610.499	271.5
610.707	270.5
610.916	264.5
611.124	271.5
611.332	266.5
611.54	269.5
611.748	279.5
611.955	270.5
612.163	264.5
612.371	264.5
612.579	239.5
612.787	253.5
612.995	254.5
613.203	258.5
613.411	262.5
613.618	255.5
613.826	268.5
614.034	235.5
614.242	260.5
614.449	266.5
614.657	258.5
614.865	251.5
615.072	258.5
615.28	248.5
615.488	237.5
615.695	264.5
615.903	255.5
616.111	258.5
616.318	264.5
616.526	259.5
616.733	274.5
616.941	235.5
617.148	233.5
617.356	252.5
617.563	258.5
617.771	250.5
617.978	227.5
618.185	237.5
618.393	230.5
618.6	245.5
618.807	252.5
619.015	254.5
619.222	247.5
619.429	249.5
619.637	256.5
619.844	245.5
620.051	229.5
620.258	251.5
620.466	238.5
620.673	235.5
620.88	235.5
621.087	239.5
621.294	239.5
621.501	231.5
621.708	256.5
621.915	235.5
622.122	232.5
622.329	244.5
622.536	250.5
622.743	234.5
622.95	258.5
623.157	221.5
623.364	231.5
623.571	232.5
623.778	213.5
623.985	239.5
624.192	240.5
624.399	231.5
624.606	236.5
624.812	201.5
625.019	242.5
625.226	221.5
625.433	224.5
625.639	220.5
625.846	222.5
626.053	226.5
626.259	216.5
626.466	231.5
626.673	215.5
626.879	222.5
627.086	226.5
627.293	227.5
627.499	221.5
627.706	219.5
627.912	223.5
628.119	221.5
628.325	216.5
628.532	219.5
628.738	214.5
628.945	199.5
629.151	217.5
629.357	213.5
629.564	230.5
629.77	212.5
629.976	209.5
630.183	206.5
630.389	212.5
630.595	195.5
630.802	203.5
631.008	190.5
631.214	214.5
631.42	200.5
631.627	219.5
631.833	200.5
632.039	198.5
632.245	197.5
632.451	200.5
632.657	199.5
632.863	216.5
633.069	204.5
633.275	196.5
633.481	218.5
633.688	200.5
633.893	214.5
634.099	201.5
634.305	213.5
634.511	202.5
634.717	199.5
634.923	195.5
635.129	188.5
635.335	163.5
635.541	194.5
635.747	193.5
635.952	192.5
636.158	200.5
636.364	206.5
636.57	205.5
636.775	205.5
636.981	200.5
637.187	196.5
637.392	201.5
637.598	193.5
637.804	198.5
638.009	193.5
638.215	187.5
638.421	195.5
638.626	191.5
638.832	184.5
639.037	181.5
639.243	176.5
639.448	196.5
639.654	175.5
639.859	199.5
640.065	184.5
640.27	202.5
640.475	195.5
640.681	162.5
640.886	162.5
641.091	178.5
641.297	179.5
641.502	185.5
641.707	192.5
641.913	171.5
642.118	197.5
642.323	194.5
642.528	183.5
642.733	170.5
642.939	166.5
643.144	169.5
643.349	175.5
643.554	169.5
643.759	159.5
643.964	174.5
644.169	188.5
644.374	189.5
644.579	170.5
644.784	168.5
644.989	189.5
645.194	186.5
645.399	174.5
645.604	164.5
645.809	178.5
646.014	189.5
646.219	191.5
646.423	169.5
646.628	165.5
646.833	173.5
647.038	188.5
647.243	184.5
647.447	183.5
647.652	183.5
647.857	167.5
648.062	190.5
648.266	180.5
648.471	182.5
648.676	173.5
648.88	166.5
649.085	171.5
649.289	156.5
649.494	189.5
649.698	184.5
649.903	205.5
650.107	186.5
650.312	182.5
650.516	186.5
650.721	171.5
650.925	157.5
651.13	154.5
651.334	144.5
651.539	169.5
651.743	159.5
651.947	153.5
652.152	164.5
652.356	157.5
652.56	156.5
652.764	163.5
652.969	161.5
653.173	156.5
653.377	143.5
653.581	135.5
653.785	135.5
653.99	158.5
654.194	143.5
654.398	158.5
654.602	150.5
654.806	138.5
655.01	154.5
655.214	154.5
655.418	145.5
655.622	143.5
655.826	142.5
656.03	150.5
656.234	144.5
656.438	140.5
656.642	153.5
656.846	154.5
657.049	144.5
657.253	129.5
657.457	134.5
657.661	115.5
657.865	127.5
658.068	133.5
658.272	114.5
658.476	117.5
658.68	114.5
658.883	107.5
659.087	109.5
659.291	111.5
659.494	100.5
659.698	102.5
659.901	115.5
660.105	101.5
660.309	99.5
660.512	104.5
660.716	104.5
660.919	97.5
661.123	96.5
661.326	86.5
661.53	100.5
661.733	103.5
661.936	76.5
662.14	95.5
662.343	94.5
662.546	88.5
662.75	84.5
662.953	78.5
663.156	92.5
663.36	80.5
663.563	84.5
663.766	89.5
663.969	86.5
664.173	73.5
664.376	73.5
664.579	80.5
664.782	90.5
664.985	87.5
665.188	101.5
665.391	87.5
665.594	80.5
665.797	94.5
666	81.5
666.203	90.5
666.406	79.5
666.609	85.5
666.812	86.5
667.015	92.5
667.218	77.5
667.421	100.5
667.624	81.5
667.827	93.5
668.03	80.5
668.232	86.5
668.435	78.5
668.638	91.5
668.841	87.5
669.043	81.5
669.246	86.5
669.449	73.5
669.651	80.5
669.854	78.5
670.057	62.5
670.259	76.5
670.462	77.5
670.665	79.5
670.867	86.5
671.07	86.5
671.272	88.5
671.475	88.5
671.677	88.5
671.88	85.5
672.082	73.5
672.284	87.5
672.487	90.5
672.689	83.5
672.892	98.5
