Data from 1976.PennyLincolnUp.Lamp.En5.5.200Scan.071719.P1.Changed Mount._HRD10591_16-01-30-861.txt Node
Date: Thu Jul 18 16:01:30 EDT 2019
User: cochatt
Spectrometer: HR+D1059
Trigger mode: 1
Integration Time (sec): 1.000000E-1
Scans to average: 1
Electric dark correction enabled: true
Nonlinearity correction enabled: false
Boxcar width: 0
XAxis mode: Wavelengths
Number of Pixels in Spectrum: 2048
>>>>>Begin Spectral Data<<<<<
223.165	-24.94
223.4	-24.94
223.635	-24.94
223.869	-17.94
224.104	-12.94
224.338	-8.94
224.573	-2.94
224.808	-2.94
225.042	-11.94
225.277	-2.94
225.511	-5.94
225.746	4.06
225.98	11.06
226.215	11.06
226.449	13.06
226.683	13.06
226.918	18.06
227.152	21.06
227.387	34.06
227.621	38.06
227.856	52.06
228.09	43.06
228.324	43.06
228.559	69.06
228.793	77.06
229.027	79.06
229.262	113.06
229.496	107.06
229.73	117.06
229.964	156.06
230.199	126.06
230.433	110.06
230.667	116.06
230.901	99.06
231.136	110.06
231.37	118.06
231.604	95.06
231.838	127.06
232.072	113.06
232.306	129.06
232.541	107.06
232.775	113.06
233.009	121.06
233.243	113.06
233.477	117.06
233.711	108.06
233.945	114.06
234.179	113.06
234.413	121.06
234.647	109.06
234.881	116.06
235.115	121.06
235.349	130.06
235.583	122.06
235.817	115.06
236.051	120.06
236.285	121.06
236.519	120.06
236.753	119.06
236.987	118.06
237.221	175.06
237.455	234.06
237.689	191.06
237.922	149.06
238.156	132.06
238.39	120.06
238.624	140.06
238.858	126.06
239.091	131.06
239.325	127.06
239.559	131.06
239.793	125.06
240.027	133.06
240.26	143.06
240.494	156.06
240.728	143.06
240.961	164.06
241.195	145.06
241.429	142.06
241.662	149.06
241.896	137.06
242.13	143.06
242.363	139.06
242.597	140.06
242.83	146.06
243.064	141.06
243.298	138.06
243.531	134.06
243.765	152.06
243.998	149.06
244.232	154.06
244.465	146.06
244.699	155.06
244.932	165.06
245.166	145.06
245.399	154.06
245.633	149.06
245.866	152.06
246.099	145.06
246.333	161.06
246.566	152.06
246.8	169.06
247.033	158.06
247.266	148.06
247.5	158.06
247.733	161.06
247.966	179.06
248.2	182.06
248.433	178.06
248.666	173.06
248.899	178.06
249.133	197.06
249.366	192.06
249.599	188.06
249.832	181.06
250.066	185.06
250.299	184.06
250.532	202.06
250.765	197.06
250.998	221.06
251.231	239.06
251.465	200.06
251.698	204.06
251.931	192.06
252.164	192.06
252.397	187.06
252.63	197.06
252.863	213.06
253.096	225.06
253.329	222.06
253.562	232.06
253.795	197.06
254.028	204.06
254.261	214.06
254.494	232.06
254.727	260.06
254.96	259.06
255.193	272.06
255.426	250.06
255.659	237.06
255.892	234.06
256.124	241.06
256.357	234.06
256.59	237.06
256.823	215.06
257.056	222.06
257.289	225.06
257.521	219.06
257.754	199.06
257.987	212.06
258.22	225.06
258.452	212.06
258.685	215.06
258.918	217.06
259.151	229.06
259.383	244.06
259.616	229.06
259.849	226.06
260.081	247.06
260.314	245.06
260.547	262.06
260.779	257.06
261.012	255.06
261.244	225.06
261.477	222.06
261.71	228.06
261.942	209.06
262.175	236.06
262.407	247.06
262.64	223.06
262.872	235.06
263.105	217.06
263.337	233.06
263.57	223.06
263.802	213.06
264.035	237.06
264.267	222.06
264.499	216.06
264.732	222.06
264.964	212.06
265.197	229.06
265.429	220.06
265.661	212.06
265.894	213.06
266.126	221.06
266.358	227.06
266.591	228.06
266.823	241.06
267.055	239.06
267.287	263.06
267.52	241.06
267.752	255.06
267.984	237.06
268.216	235.06
268.448	262.06
268.681	246.06
268.913	251.06
269.145	267.06
269.377	292.06
269.609	289.06
269.841	269.06
270.073	277.06
270.306	297.06
270.538	317.06
270.77	324.06
271.002	314.06
271.234	296.06
271.466	300.06
271.698	335.06
271.93	323.06
272.162	329.06
272.394	323.06
272.626	311.06
272.858	292.06
273.09	300.06
273.322	303.06
273.553	282.06
273.785	277.06
274.017	283.06
274.249	275.06
274.481	274.06
274.713	281.06
274.945	280.06
275.176	286.06
275.408	279.06
275.64	285.06
275.872	290.06
276.104	260.06
276.335	269.06
276.567	262.06
276.799	312.06
277.031	315.06
277.262	323.06
277.494	339.06
277.726	316.06
277.957	295.06
278.189	309.06
278.421	294.06
278.652	283.06
278.884	292.06
279.115	269.06
279.347	283.06
279.579	292.06
279.81	286.06
280.042	268.06
280.273	277.06
280.505	298.06
280.736	305.06
280.968	285.06
281.199	266.06
281.431	318.06
281.662	280.06
281.894	282.06
282.125	301.06
282.356	307.06
282.588	317.06
282.819	339.06
283.051	287.06
283.282	290.06
283.513	306.06
283.745	284.06
283.976	299.06
284.207	285.06
284.439	295.06
284.67	298.06
284.901	302.06
285.132	293.06
285.364	292.06
285.595	292.06
285.826	303.06
286.057	299.06
286.288	298.06
286.52	305.06
286.751	319.06
286.982	313.06
287.213	294.06
287.444	296.06
287.675	320.06
287.906	322.06
288.138	338.06
288.369	312.06
288.6	319.06
288.831	318.06
289.062	326.06
289.293	321.06
289.524	310.06
289.755	317.06
289.986	321.06
290.217	312.06
290.448	305.06
290.679	301.06
290.91	311.06
291.141	316.06
291.371	323.06
291.602	331.06
291.833	329.06
292.064	319.06
292.295	323.06
292.526	306.06
292.757	318.06
292.987	306.06
293.218	299.06
293.449	325.06
293.68	305.06
293.91	317.06
294.141	324.06
294.372	299.06
294.603	311.06
294.833	305.06
295.064	315.06
295.295	326.06
295.525	315.06
295.756	311.06
295.987	322.06
296.217	341.06
296.448	358.06
296.679	321.06
296.909	331.06
297.14	330.06
297.37	322.06
297.601	326.06
297.831	317.06
298.062	313.06
298.292	341.06
298.523	332.06
298.753	323.06
298.984	331.06
299.214	326.06
299.445	319.06
299.675	328.06
299.905	332.06
300.136	317.06
300.366	332.06
300.597	322.06
300.827	320.06
301.057	362.06
301.288	349.06
301.518	350.06
301.748	328.06
301.979	341.06
302.209	342.06
302.439	339.06
302.669	361.06
302.9	339.06
303.13	337.06
303.36	344.06
303.59	369.06
303.82	373.06
304.051	346.06
304.281	347.06
304.511	356.06
304.741	361.06
304.971	337.06
305.201	347.06
305.431	364.06
305.661	347.06
305.891	352.06
306.121	347.06
306.352	365.06
306.582	374.06
306.812	360.06
307.042	349.06
307.272	349.06
307.502	335.06
307.731	344.06
307.961	353.06
308.191	374.06
308.421	359.06
308.651	356.06
308.881	343.06
309.111	363.06
309.341	386.06
309.571	363.06
309.8	381.06
310.03	381.06
310.26	386.06
310.49	378.06
310.72	411.06
310.949	417.06
311.179	407.06
311.409	378.06
311.639	385.06
311.868	378.06
312.098	395.06
312.328	401.06
312.557	410.06
312.787	425.06
313.017	426.06
313.246	389.06
313.476	377.06
313.706	399.06
313.935	399.06
314.165	397.06
314.394	411.06
314.624	410.06
314.853	416.06
315.083	385.06
315.312	396.06
315.542	413.06
315.771	384.06
316.001	380.06
316.23	396.06
316.46	408.06
316.689	410.06
316.919	397.06
317.148	397.06
317.377	402.06
317.607	389.06
317.836	396.06
318.065	373.06
318.295	402.06
318.524	381.06
318.753	391.06
318.983	418.06
319.212	403.06
319.441	414.06
319.67	415.06
319.9	400.06
320.129	395.06
320.358	395.06
320.587	400.06
320.816	411.06
321.046	407.06
321.275	407.06
321.504	421.06
321.733	408.06
321.962	422.06
322.191	433.06
322.42	427.06
322.649	433.06
322.878	451.06
323.108	458.06
323.337	497.06
323.566	501.06
323.795	504.06
324.024	557.06
324.253	643.06
324.482	879.06
324.71	1351.06
324.939	1973.06
325.168	1708.06
325.397	861.06
325.626	622.06
325.855	542.06
326.084	490.06
326.313	505.06
326.542	526.06
326.77	525.06
326.999	608.06
327.228	831.06
327.457	1218.06
327.686	1484.06
327.914	1009.06
328.143	659.06
328.372	604.06
328.6	571.06
328.829	535.06
329.058	541.06
329.287	566.06
329.515	534.06
329.744	514.06
329.972	506.06
330.201	528.06
330.43	543.06
330.658	571.06
330.887	585.06
331.115	541.06
331.344	517.06
331.572	482.06
331.801	505.06
332.03	502.06
332.258	473.06
332.486	481.06
332.715	476.06
332.943	491.06
333.172	486.06
333.4	516.06
333.629	494.06
333.857	512.06
334.085	510.06
334.314	542.06
334.542	540.06
334.771	580.06
334.999	522.06
335.227	522.06
335.455	495.06
335.684	478.06
335.912	470.06
336.14	466.06
336.369	478.06
336.597	475.06
336.825	484.06
337.053	473.06
337.281	464.06
337.51	468.06
337.738	469.06
337.966	462.06
338.194	459.06
338.422	441.06
338.65	464.06
338.878	450.06
339.106	443.06
339.334	450.06
339.562	456.06
339.79	462.06
340.018	460.06
340.246	450.06
340.474	456.06
340.702	459.06
340.93	462.06
341.158	464.06
341.386	447.06
341.614	444.06
341.842	441.06
342.07	444.06
342.298	434.06
342.526	430.06
342.754	424.06
342.981	438.06
343.209	444.06
343.437	430.06
343.665	465.06
343.893	478.06
344.12	486.06
344.348	484.06
344.576	458.06
344.804	464.06
345.031	478.06
345.259	476.06
345.487	476.06
345.714	450.06
345.942	430.06
346.17	422.06
346.397	436.06
346.625	430.06
346.853	413.06
347.08	424.06
347.308	419.06
347.535	412.06
347.763	435.06
347.99	439.06
348.218	446.06
348.445	452.06
348.673	433.06
348.9	434.06
349.128	441.06
349.355	433.06
349.583	414.06
349.81	429.06
350.037	413.06
350.265	413.06
350.492	405.06
350.72	420.06
350.947	404.06
351.174	432.06
351.402	448.06
351.629	433.06
351.856	415.06
352.083	419.06
352.311	428.06
352.538	407.06
352.765	447.06
352.992	417.06
353.22	436.06
353.447	444.06
353.674	426.06
353.901	421.06
354.128	414.06
354.355	407.06
354.583	435.06
354.81	417.06
355.037	418.06
355.264	420.06
355.491	396.06
355.718	406.06
355.945	387.06
356.172	410.06
356.399	416.06
356.626	389.06
356.853	414.06
357.08	412.06
357.307	418.06
357.534	401.06
357.761	412.06
357.988	420.06
358.215	406.06
358.441	419.06
358.668	400.06
358.895	401.06
359.122	415.06
359.349	387.06
359.576	427.06
359.802	439.06
360.029	479.06
360.256	485.06
360.483	449.06
360.709	409.06
360.936	424.06
361.163	432.06
361.39	440.06
361.616	411.06
361.843	439.06
362.07	423.06
362.296	441.06
362.523	427.06
362.749	427.06
362.976	418.06
363.203	430.06
363.429	408.06
363.656	428.06
363.882	419.06
364.109	407.06
364.335	404.06
364.562	417.06
364.788	411.06
365.015	417.06
365.241	401.06
365.468	431.06
365.694	427.06
365.92	406.06
366.147	414.06
366.373	414.06
366.599	414.06
366.826	407.06
367.052	417.06
367.278	391.06
367.505	423.06
367.731	406.06
367.957	429.06
368.184	420.06
368.41	431.06
368.636	433.06
368.862	421.06
369.089	424.06
369.315	407.06
369.541	399.06
369.767	408.06
369.993	413.06
370.219	414.06
370.445	433.06
370.672	435.06
370.898	420.06
371.124	434.06
371.35	440.06
371.576	438.06
371.802	414.06
372.028	425.06
372.254	417.06
372.48	436.06
372.706	416.06
372.932	427.06
373.158	412.06
373.384	420.06
373.61	418.06
373.835	405.06
374.061	428.06
374.287	431.06
374.513	443.06
374.739	427.06
374.965	456.06
375.191	430.06
375.416	412.06
375.642	415.06
375.868	421.06
376.094	420.06
376.319	437.06
376.545	424.06
376.771	423.06
376.997	435.06
377.222	435.06
377.448	414.06
377.674	427.06
377.899	438.06
378.125	409.06
378.35	412.06
378.576	412.06
378.802	389.06
379.027	426.06
379.253	439.06
379.478	427.06
379.704	437.06
379.929	414.06
380.155	430.06
380.38	415.06
380.606	412.06
380.831	405.06
381.057	427.06
381.282	421.06
381.507	412.06
381.733	414.06
381.958	427.06
382.184	410.06
382.409	422.06
382.634	426.06
382.86	436.06
383.085	440.06
383.31	441.06
383.535	448.06
383.761	440.06
383.986	447.06
384.211	457.06
384.436	447.06
384.662	484.06
384.887	471.06
385.112	473.06
385.337	463.06
385.562	447.06
385.787	472.06
386.013	459.06
386.238	495.06
386.463	462.06
386.688	487.06
386.913	462.06
387.138	481.06
387.363	470.06
387.588	463.06
387.813	462.06
388.038	451.06
388.263	466.06
388.488	481.06
388.713	467.06
388.938	453.06
389.163	451.06
389.387	467.06
389.612	464.06
389.837	465.06
390.062	442.06
390.287	455.06
390.512	460.06
390.736	457.06
390.961	452.06
391.186	470.06
391.411	494.06
391.636	473.06
391.86	501.06
392.085	494.06
392.31	502.06
392.534	479.06
392.759	473.06
392.984	477.06
393.208	499.06
393.433	491.06
393.658	468.06
393.882	495.06
394.107	466.06
394.331	469.06
394.556	469.06
394.78	478.06
395.005	506.06
395.229	475.06
395.454	486.06
395.678	506.06
395.903	497.06
396.127	509.06
396.352	507.06
396.576	519.06
396.801	483.06
397.025	475.06
397.249	488.06
397.474	491.06
397.698	502.06
397.922	491.06
398.147	511.06
398.371	578.06
398.595	525.06
398.82	534.06
399.044	545.06
399.268	594.06
399.492	635.06
399.717	665.06
399.941	699.06
400.165	724.06
400.389	673.06
400.613	627.06
400.837	575.06
401.062	558.06
401.286	549.06
401.51	582.06
401.734	554.06
401.958	539.06
402.182	552.06
402.406	564.06
402.63	549.06
402.854	567.06
403.078	572.06
403.302	568.06
403.526	578.06
403.75	589.06
403.974	586.06
404.198	577.06
404.422	590.06
404.645	589.06
404.869	583.06
405.093	611.06
405.317	646.06
405.541	680.06
405.765	632.06
405.988	589.06
406.212	604.06
406.436	635.06
406.66	643.06
406.883	619.06
407.107	625.06
407.331	683.06
407.555	762.06
407.778	742.06
408.002	699.06
408.226	630.06
408.449	623.06
408.673	639.06
408.896	673.06
409.12	703.06
409.344	661.06
409.567	590.06
409.791	596.06
410.014	562.06
410.238	561.06
410.461	578.06
410.685	567.06
410.908	592.06
411.132	623.06
411.355	653.06
411.578	640.06
411.802	585.06
412.025	563.06
412.249	554.06
412.472	590.06
412.695	639.06
412.919	633.06
413.142	582.06
413.365	545.06
413.589	567.06
413.812	538.06
414.035	557.06
414.258	533.06
414.482	525.06
414.705	542.06
414.928	525.06
415.151	537.06
415.374	516.06
415.597	556.06
415.821	543.06
416.044	539.06
416.267	544.06
416.49	508.06
416.713	547.06
416.936	562.06
417.159	516.06
417.382	542.06
417.605	554.06
417.828	537.06
418.051	583.06
418.274	561.06
418.497	525.06
418.72	570.06
418.943	541.06
419.166	551.06
419.389	603.06
419.611	597.06
419.834	571.06
420.057	576.06
420.28	577.06
420.503	575.06
420.726	577.06
420.948	557.06
421.171	595.06
421.394	645.06
421.617	563.06
421.839	555.06
422.062	544.06
422.285	597.06
422.507	612.06
422.73	705.06
422.953	687.06
423.175	616.06
423.398	587.06
423.621	582.06
423.843	623.06
424.066	619.06
424.288	607.06
424.511	614.06
424.733	679.06
424.956	765.06
425.178	701.06
425.401	698.06
425.623	716.06
425.846	651.06
426.068	598.06
426.291	573.06
426.513	585.06
426.735	607.06
426.958	657.06
427.18	708.06
427.402	847.06
427.625	929.06
427.847	747.06
428.069	697.06
428.292	625.06
428.514	581.06
428.736	545.06
428.958	531.06
429.181	553.06
429.403	506.06
429.625	569.06
429.847	568.06
430.069	652.06
430.292	650.06
430.514	558.06
430.736	539.06
430.958	519.06
431.18	520.06
431.402	511.06
431.624	518.06
431.846	507.06
432.068	499.06
432.29	521.06
432.512	520.06
432.734	516.06
432.956	521.06
433.178	531.06
433.4	521.06
433.622	521.06
433.844	511.06
434.066	506.06
434.287	505.06
434.509	484.06
434.731	548.06
434.953	543.06
435.175	553.06
435.397	568.06
435.618	586.06
435.84	621.06
436.062	713.06
436.284	783.06
436.505	654.06
436.727	563.06
436.949	557.06
437.17	541.06
437.392	553.06
437.614	561.06
437.835	577.06
438.057	669.06
438.278	757.06
438.5	759.06
438.721	837.06
438.943	830.06
439.165	647.06
439.386	599.06
439.608	593.06
439.829	582.06
440.05	608.06
440.272	638.06
440.493	615.06
440.715	562.06
440.936	541.06
441.158	565.06
441.379	550.06
441.6	585.06
441.822	579.06
442.043	617.06
442.264	709.06
442.486	755.06
442.707	639.06
442.928	616.06
443.149	623.06
443.371	650.06
443.592	648.06
443.813	744.06
444.034	799.06
444.255	683.06
444.476	614.06
444.698	617.06
444.919	614.06
445.14	716.06
445.361	653.06
445.582	628.06
445.803	687.06
446.024	786.06
446.245	797.06
446.466	721.06
446.687	600.06
446.908	590.06
447.129	540.06
447.35	553.06
447.571	545.06
447.792	519.06
448.013	530.06
448.234	555.06
448.455	639.06
448.675	695.06
448.896	813.06
449.117	704.06
449.338	658.06
449.559	747.06
449.779	873.06
450	687.06
450.221	591.06
450.442	545.06
450.662	522.06
450.883	523.06
451.104	549.06
451.324	519.06
451.545	510.06
451.766	501.06
451.986	491.06
452.207	478.06
452.428	470.06
452.648	472.06
452.869	478.06
453.089	478.06
453.31	497.06
453.53	497.06
453.751	468.06
453.971	465.06
454.192	474.06
454.412	472.06
454.633	486.06
454.853	483.06
455.073	481.06
455.294	490.06
455.514	574.06
455.734	558.06
455.955	472.06
456.175	465.06
456.395	438.06
456.616	460.06
456.836	442.06
457.056	442.06
457.276	443.06
457.497	451.06
457.717	460.06
457.937	461.06
458.157	450.06
458.377	483.06
458.598	486.06
458.818	511.06
459.038	573.06
459.258	613.06
459.478	570.06
459.698	517.06
459.918	505.06
460.138	531.06
460.358	512.06
460.578	531.06
460.798	543.06
461.018	539.06
461.238	516.06
461.458	537.06
461.678	521.06
461.898	526.06
462.118	537.06
462.338	547.06
462.558	559.06
462.777	571.06
462.997	595.06
463.217	613.06
463.437	610.06
463.657	574.06
463.876	587.06
464.096	611.06
464.316	595.06
464.536	591.06
464.755	581.06
464.975	566.06
465.195	631.06
465.414	643.06
465.634	590.06
465.854	555.06
466.073	528.06
466.293	509.06
466.512	499.06
466.732	497.06
466.951	493.06
467.171	482.06
467.391	497.06
467.61	515.06
467.829	519.06
468.049	502.06
468.268	506.06
468.488	498.06
468.707	471.06
468.927	478.06
469.146	475.06
469.365	484.06
469.585	496.06
469.804	510.06
470.023	519.06
470.243	519.06
470.462	512.06
470.681	526.06
470.901	492.06
471.12	501.06
471.339	509.06
471.558	501.06
471.777	517.06
471.997	491.06
472.216	506.06
472.435	540.06
472.654	516.06
472.873	501.06
473.092	513.06
473.311	487.06
473.53	493.06
473.749	509.06
473.968	543.06
474.187	661.06
474.406	659.06
474.625	558.06
474.844	502.06
475.063	512.06
475.282	519.06
475.501	506.06
475.72	505.06
475.939	511.06
476.158	521.06
476.377	512.06
476.596	522.06
476.814	530.06
477.033	535.06
477.252	545.06
477.471	511.06
477.69	514.06
477.908	534.06
478.127	558.06
478.346	554.06
478.564	558.06
478.783	546.06
479.002	586.06
479.22	603.06
479.439	596.06
479.658	591.06
479.876	603.06
480.095	610.06
480.313	635.06
480.532	641.06
480.751	631.06
480.969	627.06
481.188	661.06
481.406	686.06
481.624	627.06
481.843	612.06
482.061	581.06
482.28	584.06
482.498	569.06
482.717	573.06
482.935	568.06
483.153	588.06
483.372	569.06
483.59	585.06
483.808	568.06
484.027	571.06
484.245	569.06
484.463	571.06
484.681	599.06
484.9	616.06
485.118	603.06
485.336	592.06
485.554	598.06
485.772	597.06
485.99	595.06
486.209	605.06
486.427	579.06
486.645	599.06
486.863	625.06
487.081	592.06
487.299	633.06
487.517	629.06
487.735	643.06
487.953	604.06
488.171	633.06
488.389	627.06
488.607	635.06
488.825	593.06
489.043	623.06
489.261	626.06
489.479	633.06
489.696	631.06
489.914	622.06
490.132	644.06
490.35	653.06
490.568	633.06
490.786	661.06
491.003	678.06
491.221	670.06
491.439	702.06
491.657	695.06
491.874	724.06
492.092	706.06
492.31	710.06
492.527	709.06
492.745	707.06
492.963	713.06
493.18	722.06
493.398	714.06
493.615	748.06
493.833	728.06
494.05	740.06
494.268	733.06
494.485	724.06
494.703	718.06
494.92	758.06
495.138	721.06
495.355	751.06
495.573	747.06
495.79	711.06
496.008	731.06
496.225	731.06
496.442	723.06
496.66	753.06
496.877	725.06
497.094	767.06
497.312	762.06
497.529	763.06
497.746	767.06
497.963	787.06
498.181	815.06
498.398	821.06
498.615	847.06
498.832	831.06
499.049	902.06
499.267	913.06
499.484	954.06
499.701	993.06
499.918	1047.06
500.135	1111.06
500.352	1171.06
500.569	1194.06
500.786	1168.06
501.003	1147.06
501.22	1109.06
501.437	1062.06
501.654	1028.06
501.871	1019.06
502.088	945.06
502.305	887.06
502.522	874.06
502.739	805.06
502.956	813.06
503.172	786.06
503.389	774.06
503.606	775.06
503.823	768.06
504.04	756.06
504.256	734.06
504.473	734.06
504.69	751.06
504.907	739.06
505.123	734.06
505.34	701.06
505.557	697.06
505.773	714.06
505.99	705.06
506.207	697.06
506.423	691.06
506.64	695.06
506.856	685.06
507.073	667.06
507.289	687.06
507.506	680.06
507.722	680.06
507.939	679.06
508.155	668.06
508.372	641.06
508.588	645.06
508.805	638.06
509.021	636.06
509.238	617.06
509.454	647.06
509.67	651.06
509.887	654.06
510.103	632.06
510.319	638.06
510.536	695.06
510.752	1046.06
510.968	899.06
511.184	675.06
511.401	611.06
511.617	646.06
511.833	603.06
512.049	609.06
512.265	633.06
512.481	615.06
512.698	589.06
512.914	606.06
513.13	605.06
513.346	610.06
513.562	594.06
513.778	611.06
513.994	627.06
514.21	637.06
514.426	608.06
514.642	678.06
514.858	681.06
515.074	690.06
515.29	817.06
515.506	1067.06
515.721	933.06
515.937	703.06
516.153	674.06
516.369	664.06
516.585	650.06
516.801	628.06
517.016	661.06
517.232	634.06
517.448	659.06
517.664	665.06
517.879	638.06
518.095	665.06
518.311	654.06
518.527	645.06
518.742	633.06
518.958	636.06
519.173	609.06
519.389	615.06
519.605	629.06
519.82	613.06
520.036	621.06
520.251	637.06
520.467	630.06
520.682	647.06
520.898	653.06
521.113	684.06
521.329	670.06
521.544	719.06
521.76	893.06
521.975	1350.06
522.19	1302.06
522.406	793.06
522.621	673.06
522.836	626.06
523.052	575.06
523.267	573.06
523.482	551.06
523.698	572.06
523.913	549.06
524.128	588.06
524.343	544.06
524.559	532.06
524.774	527.06
524.989	530.06
525.204	518.06
525.419	518.06
525.634	531.06
525.849	507.06
526.064	534.06
526.28	517.06
526.495	526.06
526.71	500.06
526.925	514.06
527.14	514.06
527.355	520.06
527.57	507.06
527.785	507.06
527.999	510.06
528.214	520.06
528.429	497.06
528.644	515.06
528.859	502.06
529.074	519.06
529.289	522.06
529.503	574.06
529.718	567.06
529.933	541.06
530.148	521.06
530.363	526.06
530.577	496.06
530.792	520.06
531.007	500.06
531.221	510.06
531.436	499.06
531.651	495.06
531.865	499.06
532.08	485.06
532.295	487.06
532.509	503.06
532.724	485.06
532.938	476.06
533.153	494.06
533.367	508.06
533.582	498.06
533.796	492.06
534.011	483.06
534.225	466.06
534.44	486.06
534.654	514.06
534.868	492.06
535.083	473.06
535.297	465.06
535.511	491.06
535.726	514.06
535.94	503.06
536.154	475.06
536.369	508.06
536.583	471.06
536.797	462.06
537.011	478.06
537.225	459.06
537.44	470.06
537.654	467.06
537.868	467.06
538.082	454.06
538.296	467.06
538.51	466.06
538.724	480.06
538.938	449.06
539.153	482.06
539.367	470.06
539.581	499.06
539.795	496.06
540.009	452.06
540.222	458.06
540.436	451.06
540.65	453.06
540.864	480.06
541.078	492.06
541.292	490.06
541.506	479.06
541.72	498.06
541.934	469.06
542.147	458.06
542.361	482.06
542.575	469.06
542.789	435.06
543.002	447.06
543.216	484.06
543.43	469.06
543.644	487.06
543.857	481.06
544.071	461.06
544.285	480.06
544.498	476.06
544.712	460.06
544.925	464.06
545.139	458.06
545.352	470.06
545.566	472.06
545.779	459.06
545.993	473.06
546.206	479.06
546.42	471.06
546.633	455.06
546.847	464.06
547.06	475.06
547.274	442.06
547.487	471.06
547.7	472.06
547.914	465.06
548.127	483.06
548.34	458.06
548.554	477.06
548.767	450.06
548.98	451.06
549.193	440.06
549.407	443.06
549.62	451.06
549.833	434.06
550.046	443.06
550.259	466.06
550.473	441.06
550.686	459.06
550.899	460.06
551.112	453.06
551.325	436.06
551.538	435.06
551.751	457.06
551.964	436.06
552.177	447.06
552.39	452.06
552.603	461.06
552.816	465.06
553.029	474.06
553.242	455.06
553.455	474.06
553.667	463.06
553.88	478.06
554.093	461.06
554.306	469.06
554.519	464.06
554.732	457.06
554.944	440.06
555.157	442.06
555.37	439.06
555.583	441.06
555.795	435.06
556.008	415.06
556.221	421.06
556.433	408.06
556.646	419.06
556.859	421.06
557.071	401.06
557.284	412.06
557.496	421.06
557.709	395.06
557.921	415.06
558.134	396.06
558.346	398.06
558.559	405.06
558.771	421.06
558.984	396.06
559.196	393.06
559.409	406.06
559.621	409.06
559.833	406.06
560.046	385.06
560.258	375.06
560.47	391.06
560.683	415.06
560.895	391.06
561.107	404.06
561.32	392.06
561.532	417.06
561.744	407.06
561.956	417.06
562.168	414.06
562.381	401.06
562.593	398.06
562.805	417.06
563.017	412.06
563.229	405.06
563.441	412.06
563.653	410.06
563.865	410.06
564.077	397.06
564.289	412.06
564.501	411.06
564.713	411.06
564.925	420.06
565.137	440.06
565.349	458.06
565.561	459.06
565.773	448.06
565.985	455.06
566.197	476.06
566.408	495.06
566.62	536.06
566.832	515.06
567.044	499.06
567.255	515.06
567.467	554.06
567.679	556.06
567.891	580.06
568.102	585.06
568.314	521.06
568.526	531.06
568.737	511.06
568.949	509.06
569.161	460.06
569.372	449.06
569.584	451.06
569.795	438.06
570.007	422.06
570.218	452.06
570.43	441.06
570.641	419.06
570.853	408.06
571.064	404.06
571.276	412.06
571.487	391.06
571.698	393.06
571.91	382.06
572.121	393.06
572.333	377.06
572.544	373.06
572.755	378.06
572.966	386.06
573.178	366.06
573.389	381.06
573.6	339.06
573.811	339.06
574.023	361.06
574.234	345.06
574.445	354.06
574.656	337.06
574.867	354.06
575.078	337.06
575.289	344.06
575.501	348.06
575.712	354.06
575.923	357.06
576.134	342.06
576.345	349.06
576.556	355.06
576.767	348.06
576.978	329.06
577.188	340.06
577.399	332.06
577.61	325.06
577.821	339.06
578.032	339.06
578.243	365.06
578.454	493.06
578.665	419.06
578.875	343.06
579.086	321.06
579.297	315.06
579.508	330.06
579.718	336.06
579.929	335.06
580.14	322.06
580.35	309.06
580.561	321.06
580.772	314.06
580.982	319.06
581.193	324.06
581.403	319.06
581.614	339.06
581.825	317.06
582.035	295.06
582.246	328.06
582.456	309.06
582.667	318.06
582.877	319.06
583.087	312.06
583.298	301.06
583.508	316.06
583.719	334.06
583.929	325.06
584.139	300.06
584.35	300.06
584.56	309.06
584.77	308.06
584.981	324.06
585.191	304.06
585.401	311.06
585.611	319.06
585.821	303.06
586.032	316.06
586.242	311.06
586.452	302.06
586.662	326.06
586.872	305.06
587.082	324.06
587.292	303.06
587.502	304.06
587.713	303.06
587.923	307.06
588.133	300.06
588.343	293.06
588.553	298.06
588.762	286.06
588.972	287.06
589.182	293.06
589.392	299.06
589.602	306.06
589.812	307.06
590.022	293.06
590.232	302.06
590.441	322.06
590.651	282.06
590.861	312.06
591.071	320.06
591.281	307.06
591.49	315.06
591.7	312.06
591.91	331.06
592.119	315.06
592.329	306.06
592.539	295.06
592.748	348.06
592.958	332.06
593.167	342.06
593.377	333.06
593.587	336.06
593.796	344.06
594.006	340.06
594.215	344.06
594.424	324.06
594.634	317.06
594.843	324.06
595.053	323.06
595.262	337.06
595.472	297.06
595.681	280.06
595.89	310.06
596.1	292.06
596.309	286.06
596.518	293.06
596.727	306.06
596.937	296.06
597.146	298.06
597.355	296.06
597.564	292.06
597.774	285.06
597.983	279.06
598.192	293.06
598.401	272.06
598.61	275.06
598.819	268.06
599.028	279.06
599.237	266.06
599.446	267.06
599.655	280.06
599.864	291.06
600.073	276.06
600.282	255.06
600.491	282.06
600.7	274.06
600.909	263.06
601.118	271.06
601.327	247.06
601.536	268.06
601.745	285.06
601.953	265.06
602.162	282.06
602.371	268.06
602.58	257.06
602.789	273.06
602.997	262.06
603.206	263.06
603.415	270.06
603.623	272.06
603.832	271.06
604.041	250.06
604.249	257.06
604.458	257.06
604.666	236.06
604.875	247.06
605.084	255.06
605.292	259.06
605.501	254.06
605.709	259.06
605.918	261.06
606.126	264.06
606.334	263.06
606.543	241.06
606.751	249.06
606.96	240.06
607.168	264.06
607.376	250.06
607.585	241.06
607.793	247.06
608.001	257.06
608.21	242.06
608.418	243.06
608.626	245.06
608.834	250.06
609.043	246.06
609.251	265.06
609.459	246.06
609.667	257.06
609.875	244.06
610.083	245.06
610.291	254.06
610.499	255.06
610.707	263.06
610.916	263.06
611.124	258.06
611.332	262.06
611.54	254.06
611.748	247.06
611.955	253.06
612.163	268.06
612.371	249.06
612.579	249.06
612.787	243.06
612.995	253.06
613.203	235.06
613.411	236.06
613.618	252.06
613.826	227.06
614.034	241.06
614.242	238.06
614.449	233.06
614.657	230.06
614.865	235.06
615.072	244.06
615.28	249.06
615.488	261.06
615.695	248.06
615.903	237.06
616.111	242.06
616.318	259.06
616.526	244.06
616.733	255.06
616.941	243.06
617.148	236.06
617.356	268.06
617.563	239.06
617.771	250.06
617.978	229.06
618.185	234.06
618.393	246.06
618.6	236.06
618.807	229.06
619.015	250.06
619.222	230.06
619.429	231.06
619.637	239.06
619.844	226.06
620.051	243.06
620.258	227.06
620.466	222.06
620.673	225.06
620.88	225.06
621.087	218.06
621.294	226.06
621.501	242.06
621.708	234.06
621.915	222.06
622.122	218.06
622.329	222.06
622.536	230.06
622.743	237.06
622.95	230.06
623.157	217.06
623.364	228.06
623.571	243.06
623.778	239.06
623.985	209.06
624.192	202.06
624.399	218.06
624.606	228.06
624.812	233.06
625.019	223.06
625.226	217.06
625.433	231.06
625.639	230.06
625.846	214.06
626.053	214.06
626.259	209.06
626.466	221.06
626.673	231.06
626.879	214.06
627.086	223.06
627.293	230.06
627.499	223.06
627.706	225.06
627.912	206.06
628.119	212.06
628.325	209.06
628.532	218.06
628.738	213.06
628.945	205.06
629.151	205.06
629.357	203.06
629.564	193.06
629.77	207.06
629.976	189.06
630.183	200.06
630.389	211.06
630.595	193.06
630.802	206.06
631.008	213.06
631.214	181.06
631.42	214.06
631.627	203.06
631.833	204.06
632.039	193.06
632.245	189.06
632.451	187.06
632.657	196.06
632.863	207.06
633.069	211.06
633.275	192.06
633.481	215.06
633.688	187.06
633.893	199.06
634.099	178.06
634.305	179.06
634.511	174.06
634.717	182.06
634.923	164.06
635.129	195.06
635.335	186.06
635.541	187.06
635.747	167.06
635.952	179.06
636.158	195.06
636.364	196.06
636.57	201.06
636.775	188.06
636.981	190.06
637.187	195.06
637.392	177.06
637.598	202.06
637.804	196.06
638.009	186.06
638.215	184.06
638.421	187.06
638.626	187.06
638.832	169.06
639.037	184.06
639.243	181.06
639.448	206.06
639.654	195.06
639.859	169.06
640.065	174.06
640.27	191.06
640.475	186.06
640.681	178.06
640.886	167.06
641.091	187.06
641.297	179.06
641.502	180.06
641.707	177.06
641.913	174.06
642.118	176.06
642.323	169.06
642.528	178.06
642.733	179.06
642.939	164.06
643.144	157.06
643.349	171.06
643.554	173.06
643.759	171.06
643.964	181.06
644.169	169.06
644.374	181.06
644.579	179.06
644.784	166.06
644.989	169.06
645.194	162.06
645.399	179.06
645.604	173.06
645.809	185.06
646.014	170.06
646.219	167.06
646.423	169.06
646.628	173.06
646.833	172.06
647.038	183.06
647.243	179.06
647.447	175.06
647.652	163.06
647.857	172.06
648.062	169.06
648.266	181.06
648.471	165.06
648.676	181.06
648.88	181.06
649.085	177.06
649.289	187.06
649.494	189.06
649.698	200.06
649.903	199.06
650.107	183.06
650.312	175.06
650.516	165.06
650.721	164.06
650.925	148.06
651.13	162.06
651.334	165.06
651.539	151.06
651.743	156.06
651.947	150.06
652.152	152.06
652.356	144.06
652.56	146.06
652.764	149.06
652.969	152.06
653.173	156.06
653.377	144.06
653.581	147.06
653.785	143.06
653.99	156.06
654.194	146.06
654.398	141.06
654.602	152.06
654.806	142.06
655.01	161.06
655.214	138.06
655.418	136.06
655.622	143.06
655.826	139.06
656.03	128.06
656.234	141.06
656.438	133.06
656.642	149.06
656.846	143.06
657.049	141.06
657.253	129.06
657.457	123.06
657.661	115.06
657.865	110.06
658.068	121.06
658.272	124.06
658.476	120.06
658.68	107.06
658.883	101.06
659.087	103.06
659.291	105.06
659.494	107.06
659.698	89.06
659.901	104.06
660.105	94.06
660.309	94.06
660.512	100.06
660.716	98.06
660.919	86.06
661.123	102.06
661.326	91.06
661.53	93.06
661.733	88.06
661.936	82.06
662.14	81.06
662.343	79.06
662.546	92.06
662.75	80.06
662.953	90.06
663.156	72.06
663.36	70.06
663.563	93.06
663.766	95.06
663.969	89.06
664.173	70.06
664.376	84.06
664.579	73.06
664.782	76.06
664.985	87.06
665.188	71.06
665.391	87.06
665.594	86.06
665.797	73.06
666	90.06
666.203	90.06
666.406	89.06
666.609	75.06
666.812	83.06
667.015	84.06
667.218	77.06
667.421	76.06
667.624	69.06
667.827	77.06
668.03	76.06
668.232	78.06
668.435	90.06
668.638	55.06
668.841	84.06
669.043	78.06
669.246	86.06
669.449	74.06
669.651	61.06
669.854	86.06
670.057	82.06
670.259	69.06
670.462	78.06
670.665	69.06
670.867	70.06
671.07	93.06
671.272	80.06
671.475	86.06
671.677	85.06
671.88	87.06
672.082	85.06
672.284	84.06
672.487	90.06
672.689	76.06
672.892	81.06
