Data from 1976.PennyLincolnUp.Lamp.En5.5.200Scan.071719.P1.Changed Mount._HRD10591_16-00-45-860.txt Node
Date: Thu Jul 18 16:00:45 EDT 2019
User: cochatt
Spectrometer: HR+D1059
Trigger mode: 1
Integration Time (sec): 1.000000E-1
Scans to average: 1
Electric dark correction enabled: true
Nonlinearity correction enabled: false
Boxcar width: 0
XAxis mode: Wavelengths
Number of Pixels in Spectrum: 2048
>>>>>Begin Spectral Data<<<<<
223.165	-12.31
223.4	-12.31
223.635	-12.31
223.869	-5.31
224.104	-15.31
224.338	-16.31
224.573	-7.31
224.808	3.69
225.042	-11.31
225.277	-11.31
225.511	1.69
225.746	6.69
225.98	4.69
226.215	6.69
226.449	9.69
226.683	13.69
226.918	21.69
227.152	10.69
227.387	33.69
227.621	33.69
227.856	55.69
228.09	47.69
228.324	57.69
228.559	40.69
228.793	55.69
229.027	103.69
229.262	97.69
229.496	111.69
229.73	135.69
229.964	150.69
230.199	128.69
230.433	106.69
230.667	122.69
230.901	122.69
231.136	128.69
231.37	114.69
231.604	121.69
231.838	96.69
232.072	118.69
232.306	110.69
232.541	106.69
232.775	117.69
233.009	119.69
233.243	135.69
233.477	128.69
233.711	103.69
233.945	111.69
234.179	119.69
234.413	125.69
234.647	111.69
234.881	111.69
235.115	108.69
235.349	109.69
235.583	129.69
235.817	119.69
236.051	125.69
236.285	141.69
236.519	116.69
236.753	136.69
236.987	151.69
237.221	176.69
237.455	229.69
237.689	175.69
237.922	153.69
238.156	146.69
238.39	143.69
238.624	132.69
238.858	133.69
239.091	129.69
239.325	119.69
239.559	119.69
239.793	140.69
240.027	127.69
240.26	151.69
240.494	150.69
240.728	144.69
240.961	155.69
241.195	144.69
241.429	137.69
241.662	137.69
241.896	148.69
242.13	140.69
242.363	142.69
242.597	154.69
242.83	133.69
243.064	145.69
243.298	155.69
243.531	155.69
243.765	139.69
243.998	152.69
244.232	154.69
244.465	144.69
244.699	165.69
244.932	159.69
245.166	147.69
245.399	162.69
245.633	160.69
245.866	149.69
246.099	169.69
246.333	147.69
246.566	156.69
246.8	162.69
247.033	166.69
247.266	162.69
247.5	159.69
247.733	167.69
247.966	183.69
248.2	172.69
248.433	191.69
248.666	183.69
248.899	196.69
249.133	201.69
249.366	207.69
249.599	201.69
249.832	185.69
250.066	194.69
250.299	181.69
250.532	193.69
250.765	221.69
250.998	215.69
251.231	235.69
251.465	219.69
251.698	203.69
251.931	211.69
252.164	211.69
252.397	205.69
252.63	207.69
252.863	211.69
253.096	217.69
253.329	218.69
253.562	240.69
253.795	213.69
254.028	243.69
254.261	218.69
254.494	227.69
254.727	255.69
254.96	287.69
255.193	279.69
255.426	260.69
255.659	229.69
255.892	234.69
256.124	221.69
256.357	236.69
256.59	241.69
256.823	216.69
257.056	224.69
257.289	224.69
257.521	209.69
257.754	210.69
257.987	222.69
258.22	211.69
258.452	225.69
258.685	219.69
258.918	229.69
259.151	219.69
259.383	227.69
259.616	230.69
259.849	238.69
260.081	233.69
260.314	260.69
260.547	281.69
260.779	259.69
261.012	239.69
261.244	225.69
261.477	237.69
261.71	241.69
261.942	240.69
262.175	221.69
262.407	239.69
262.64	232.69
262.872	226.69
263.105	260.69
263.337	228.69
263.57	220.69
263.802	228.69
264.035	212.69
264.267	239.69
264.499	216.69
264.732	238.69
264.964	241.69
265.197	223.69
265.429	224.69
265.661	237.69
265.894	242.69
266.126	231.69
266.358	234.69
266.591	245.69
266.823	238.69
267.055	237.69
267.287	249.69
267.52	230.69
267.752	236.69
267.984	240.69
268.216	250.69
268.448	230.69
268.681	236.69
268.913	272.69
269.145	271.69
269.377	301.69
269.609	273.69
269.841	283.69
270.073	291.69
270.306	322.69
270.538	319.69
270.77	311.69
271.002	312.69
271.234	296.69
271.466	311.69
271.698	322.69
271.93	329.69
272.162	329.69
272.394	341.69
272.626	349.69
272.858	296.69
273.09	292.69
273.322	289.69
273.553	290.69
273.785	267.69
274.017	294.69
274.249	279.69
274.481	293.69
274.713	279.69
274.945	276.69
275.176	305.69
275.408	287.69
275.64	284.69
275.872	283.69
276.104	293.69
276.335	278.69
276.567	300.69
276.799	297.69
277.031	321.69
277.262	326.69
277.494	333.69
277.726	323.69
277.957	314.69
278.189	297.69
278.421	293.69
278.652	287.69
278.884	275.69
279.115	280.69
279.347	284.69
279.579	295.69
279.81	283.69
280.042	291.69
280.273	288.69
280.505	299.69
280.736	285.69
280.968	288.69
281.199	277.69
281.431	293.69
281.662	286.69
281.894	316.69
282.125	296.69
282.356	319.69
282.588	336.69
282.819	329.69
283.051	304.69
283.282	296.69
283.513	301.69
283.745	291.69
283.976	298.69
284.207	299.69
284.439	328.69
284.67	314.69
284.901	308.69
285.132	305.69
285.364	319.69
285.595	333.69
285.826	312.69
286.057	317.69
286.288	292.69
286.52	317.69
286.751	303.69
286.982	299.69
287.213	317.69
287.444	306.69
287.675	318.69
287.906	332.69
288.138	337.69
288.369	345.69
288.6	336.69
288.831	328.69
289.062	335.69
289.293	317.69
289.524	323.69
289.755	307.69
289.986	327.69
290.217	323.69
290.448	317.69
290.679	334.69
290.91	315.69
291.141	300.69
291.371	319.69
291.602	338.69
291.833	323.69
292.064	317.69
292.295	326.69
292.526	320.69
292.757	303.69
292.987	327.69
293.218	328.69
293.449	320.69
293.68	337.69
293.91	302.69
294.141	347.69
294.372	325.69
294.603	328.69
294.833	328.69
295.064	322.69
295.295	321.69
295.525	329.69
295.756	325.69
295.987	327.69
296.217	363.69
296.448	346.69
296.679	342.69
296.909	337.69
297.14	333.69
297.37	330.69
297.601	333.69
297.831	328.69
298.062	328.69
298.292	333.69
298.523	350.69
298.753	334.69
298.984	350.69
299.214	332.69
299.445	335.69
299.675	348.69
299.905	350.69
300.136	342.69
300.366	353.69
300.597	346.69
300.827	341.69
301.057	361.69
301.288	354.69
301.518	353.69
301.748	353.69
301.979	341.69
302.209	362.69
302.439	351.69
302.669	350.69
302.9	371.69
303.13	351.69
303.36	379.69
303.59	360.69
303.82	369.69
304.051	356.69
304.281	355.69
304.511	372.69
304.741	368.69
304.971	351.69
305.201	365.69
305.431	383.69
305.661	350.69
305.891	338.69
306.121	347.69
306.352	355.69
306.582	358.69
306.812	372.69
307.042	365.69
307.272	357.69
307.502	355.69
307.731	372.69
307.961	355.69
308.191	368.69
308.421	393.69
308.651	398.69
308.881	376.69
309.111	383.69
309.341	364.69
309.571	375.69
309.8	368.69
310.03	376.69
310.26	402.69
310.49	388.69
310.72	421.69
310.949	424.69
311.179	392.69
311.409	402.69
311.639	388.69
311.868	395.69
312.098	398.69
312.328	404.69
312.557	419.69
312.787	435.69
313.017	419.69
313.246	407.69
313.476	411.69
313.706	405.69
313.935	397.69
314.165	420.69
314.394	426.69
314.624	427.69
314.853	398.69
315.083	409.69
315.312	429.69
315.542	409.69
315.771	395.69
316.001	400.69
316.23	393.69
316.46	408.69
316.689	413.69
316.919	410.69
317.148	396.69
317.377	419.69
317.607	424.69
317.836	400.69
318.065	408.69
318.295	392.69
318.524	397.69
318.753	385.69
318.983	394.69
319.212	413.69
319.441	416.69
319.67	426.69
319.9	415.69
320.129	406.69
320.358	411.69
320.587	423.69
320.816	415.69
321.046	415.69
321.275	438.69
321.504	421.69
321.733	428.69
321.962	429.69
322.191	435.69
322.42	461.69
322.649	448.69
322.878	466.69
323.108	462.69
323.337	505.69
323.566	509.69
323.795	507.69
324.024	557.69
324.253	663.69
324.482	878.69
324.71	1339.69
324.939	1919.69
325.168	1679.69
325.397	864.69
325.626	620.69
325.855	551.69
326.084	503.69
326.313	516.69
326.542	505.69
326.77	547.69
326.999	636.69
327.228	819.69
327.457	1171.69
327.686	1470.69
327.914	994.69
328.143	702.69
328.372	620.69
328.6	569.69
328.829	576.69
329.058	549.69
329.287	554.69
329.515	559.69
329.744	534.69
329.972	512.69
330.201	512.69
330.43	554.69
330.658	554.69
330.887	610.69
331.115	570.69
331.344	516.69
331.572	518.69
331.801	499.69
332.03	515.69
332.258	497.69
332.486	496.69
332.715	479.69
332.943	486.69
333.172	503.69
333.4	497.69
333.629	536.69
333.857	517.69
334.085	549.69
334.314	535.69
334.542	572.69
334.771	588.69
334.999	535.69
335.227	519.69
335.455	499.69
335.684	506.69
335.912	503.69
336.14	500.69
336.369	505.69
336.597	492.69
336.825	477.69
337.053	492.69
337.281	475.69
337.51	488.69
337.738	485.69
337.966	465.69
338.194	476.69
338.422	490.69
338.65	479.69
338.878	476.69
339.106	477.69
339.334	455.69
339.562	450.69
339.79	469.69
340.018	461.69
340.246	460.69
340.474	457.69
340.702	472.69
340.93	467.69
341.158	452.69
341.386	464.69
341.614	459.69
341.842	471.69
342.07	451.69
342.298	461.69
342.526	448.69
342.754	445.69
342.981	452.69
343.209	447.69
343.437	462.69
343.665	482.69
343.893	496.69
344.12	503.69
344.348	505.69
344.576	479.69
344.804	479.69
345.031	491.69
345.259	492.69
345.487	471.69
345.714	451.69
345.942	449.69
346.17	430.69
346.397	455.69
346.625	453.69
346.853	427.69
347.08	431.69
347.308	443.69
347.535	449.69
347.763	452.69
347.99	440.69
348.218	477.69
348.445	455.69
348.673	449.69
348.9	428.69
349.128	424.69
349.355	424.69
349.583	431.69
349.81	455.69
350.037	446.69
350.265	431.69
350.492	424.69
350.72	444.69
350.947	433.69
351.174	452.69
351.402	448.69
351.629	445.69
351.856	436.69
352.083	453.69
352.311	454.69
352.538	439.69
352.765	478.69
352.992	464.69
353.22	436.69
353.447	426.69
353.674	447.69
353.901	423.69
354.128	437.69
354.355	432.69
354.583	417.69
354.81	411.69
355.037	407.69
355.264	426.69
355.491	410.69
355.718	430.69
355.945	438.69
356.172	431.69
356.399	411.69
356.626	398.69
356.853	435.69
357.08	420.69
357.307	409.69
357.534	413.69
357.761	415.69
357.988	435.69
358.215	412.69
358.441	433.69
358.668	405.69
358.895	433.69
359.122	429.69
359.349	441.69
359.576	453.69
359.802	444.69
360.029	439.69
360.256	468.69
360.483	456.69
360.709	437.69
360.936	459.69
361.163	471.69
361.39	447.69
361.616	448.69
361.843	447.69
362.07	456.69
362.296	439.69
362.523	450.69
362.749	445.69
362.976	438.69
363.203	437.69
363.429	438.69
363.656	436.69
363.882	424.69
364.109	419.69
364.335	413.69
364.562	435.69
364.788	423.69
365.015	438.69
365.241	436.69
365.468	415.69
365.694	428.69
365.92	407.69
366.147	448.69
366.373	422.69
366.599	429.69
366.826	423.69
367.052	432.69
367.278	423.69
367.505	440.69
367.731	425.69
367.957	428.69
368.184	423.69
368.41	445.69
368.636	465.69
368.862	439.69
369.089	448.69
369.315	437.69
369.541	419.69
369.767	429.69
369.993	431.69
370.219	441.69
370.445	447.69
370.672	433.69
370.898	432.69
371.124	421.69
371.35	436.69
371.576	421.69
371.802	435.69
372.028	442.69
372.254	443.69
372.48	456.69
372.706	444.69
372.932	436.69
373.158	452.69
373.384	422.69
373.61	441.69
373.835	427.69
374.061	455.69
374.287	459.69
374.513	439.69
374.739	437.69
374.965	454.69
375.191	436.69
375.416	453.69
375.642	439.69
375.868	437.69
376.094	426.69
376.319	423.69
376.545	430.69
376.771	421.69
376.997	429.69
377.222	430.69
377.448	429.69
377.674	437.69
377.899	433.69
378.125	453.69
378.35	445.69
378.576	432.69
378.802	424.69
379.027	452.69
379.253	440.69
379.478	418.69
379.704	417.69
379.929	423.69
380.155	431.69
380.38	430.69
380.606	443.69
380.831	423.69
381.057	423.69
381.282	437.69
381.507	437.69
381.733	442.69
381.958	431.69
382.184	413.69
382.409	454.69
382.634	455.69
382.86	449.69
383.085	457.69
383.31	452.69
383.535	437.69
383.761	457.69
383.986	476.69
384.211	455.69
384.436	455.69
384.662	472.69
384.887	489.69
385.112	474.69
385.337	499.69
385.562	492.69
385.787	471.69
386.013	466.69
386.238	507.69
386.463	500.69
386.688	480.69
386.913	480.69
387.138	478.69
387.363	490.69
387.588	491.69
387.813	505.69
388.038	472.69
388.263	487.69
388.488	467.69
388.713	475.69
388.938	475.69
389.163	477.69
389.387	471.69
389.612	482.69
389.837	470.69
390.062	469.69
390.287	488.69
390.512	464.69
390.736	474.69
390.961	477.69
391.186	484.69
391.411	485.69
391.636	481.69
391.86	516.69
392.085	515.69
392.31	500.69
392.534	513.69
392.759	507.69
392.984	485.69
393.208	487.69
393.433	493.69
393.658	485.69
393.882	488.69
394.107	471.69
394.331	494.69
394.556	518.69
394.78	512.69
395.005	501.69
395.229	501.69
395.454	503.69
395.678	523.69
395.903	520.69
396.127	548.69
396.352	552.69
396.576	518.69
396.801	518.69
397.025	506.69
397.249	489.69
397.474	520.69
397.698	557.69
397.922	519.69
398.147	539.69
398.371	571.69
398.595	547.69
398.82	543.69
399.044	569.69
399.268	619.69
399.492	641.69
399.717	681.69
399.941	715.69
400.165	736.69
400.389	702.69
400.613	643.69
400.837	607.69
401.062	594.69
401.286	563.69
401.51	574.69
401.734	553.69
401.958	553.69
402.182	551.69
402.406	565.69
402.63	572.69
402.854	566.69
403.078	583.69
403.302	607.69
403.526	596.69
403.75	594.69
403.974	597.69
404.198	594.69
404.422	589.69
404.645	593.69
404.869	620.69
405.093	629.69
405.317	693.69
405.541	711.69
405.765	653.69
405.988	646.69
406.212	615.69
406.436	628.69
406.66	643.69
406.883	653.69
407.107	660.69
407.331	730.69
407.555	729.69
407.778	756.69
408.002	711.69
408.226	631.69
408.449	645.69
408.673	642.69
408.896	657.69
409.12	695.69
409.344	665.69
409.567	619.69
409.791	607.69
410.014	598.69
410.238	584.69
410.461	582.69
410.685	595.69
410.908	616.69
411.132	617.69
411.355	671.69
411.578	628.69
411.802	601.69
412.025	579.69
412.249	578.69
412.472	614.69
412.695	654.69
412.919	631.69
413.142	589.69
413.365	554.69
413.589	563.69
413.812	563.69
414.035	558.69
414.258	571.69
414.482	551.69
414.705	544.69
414.928	541.69
415.151	539.69
415.374	552.69
415.597	540.69
415.821	537.69
416.044	563.69
416.267	575.69
416.49	532.69
416.713	535.69
416.936	538.69
417.159	552.69
417.382	565.69
417.605	557.69
417.828	570.69
418.051	589.69
418.274	580.69
418.497	563.69
418.72	565.69
418.943	556.69
419.166	600.69
419.389	612.69
419.611	604.69
419.834	598.69
420.057	600.69
420.28	587.69
420.503	567.69
420.726	569.69
420.948	561.69
421.171	621.69
421.394	657.69
421.617	600.69
421.839	565.69
422.062	567.69
422.285	575.69
422.507	647.69
422.73	712.69
422.953	699.69
423.175	606.69
423.398	589.69
423.621	586.69
423.843	632.69
424.066	614.69
424.288	607.69
424.511	616.69
424.733	681.69
424.956	758.69
425.178	720.69
425.401	750.69
425.623	784.69
425.846	616.69
426.068	611.69
426.291	607.69
426.513	610.69
426.735	608.69
426.958	650.69
427.18	754.69
427.402	861.69
427.625	920.69
427.847	790.69
428.069	697.69
428.292	623.69
428.514	595.69
428.736	574.69
428.958	558.69
429.181	567.69
429.403	571.69
429.625	553.69
429.847	603.69
430.069	659.69
430.292	663.69
430.514	585.69
430.736	548.69
430.958	554.69
431.18	552.69
431.402	546.69
431.624	527.69
431.846	526.69
432.068	528.69
432.29	539.69
432.512	533.69
432.734	546.69
432.956	545.69
433.178	553.69
433.4	561.69
433.622	548.69
433.844	533.69
434.066	554.69
434.287	528.69
434.509	555.69
434.731	559.69
434.953	556.69
435.175	573.69
435.397	614.69
435.618	615.69
435.84	631.69
436.062	749.69
436.284	803.69
436.505	677.69
436.727	618.69
436.949	582.69
437.17	560.69
437.392	559.69
437.614	556.69
437.835	588.69
438.057	692.69
438.278	780.69
438.5	784.69
438.721	848.69
438.943	835.69
439.165	647.69
439.386	617.69
439.608	605.69
439.829	593.69
440.05	615.69
440.272	634.69
440.493	625.69
440.715	606.69
440.936	575.69
441.158	561.69
441.379	572.69
441.6	583.69
441.822	607.69
442.043	678.69
442.264	733.69
442.486	772.69
442.707	667.69
442.928	613.69
443.149	631.69
443.371	637.69
443.592	675.69
443.813	760.69
444.034	855.69
444.255	705.69
444.476	655.69
444.698	627.69
444.919	618.69
445.14	736.69
445.361	708.69
445.582	622.69
445.803	704.69
446.024	808.69
446.245	801.69
446.466	741.69
446.687	620.69
446.908	614.69
447.129	558.69
447.35	569.69
447.571	549.69
447.792	550.69
448.013	527.69
448.234	550.69
448.455	602.69
448.675	739.69
448.896	845.69
449.117	705.69
449.338	648.69
449.559	789.69
449.779	899.69
450	704.69
450.221	579.69
450.442	573.69
450.662	525.69
450.883	521.69
451.104	559.69
451.324	532.69
451.545	510.69
451.766	499.69
451.986	493.69
452.207	479.69
452.428	495.69
452.648	470.69
452.869	502.69
453.089	488.69
453.31	514.69
453.53	476.69
453.751	482.69
453.971	501.69
454.192	489.69
454.412	500.69
454.633	488.69
454.853	503.69
455.073	487.69
455.294	497.69
455.514	582.69
455.734	565.69
455.955	488.69
456.175	481.69
456.395	458.69
456.616	452.69
456.836	459.69
457.056	455.69
457.276	459.69
457.497	474.69
457.717	464.69
457.937	476.69
458.157	496.69
458.377	479.69
458.598	520.69
458.818	522.69
459.038	600.69
459.258	631.69
459.478	545.69
459.698	532.69
459.918	529.69
460.138	533.69
460.358	551.69
460.578	551.69
460.798	543.69
461.018	551.69
461.238	555.69
461.458	551.69
461.678	558.69
461.898	559.69
462.118	561.69
462.338	579.69
462.558	572.69
462.777	600.69
462.997	631.69
463.217	627.69
463.437	643.69
463.657	617.69
463.876	610.69
464.096	628.69
464.316	599.69
464.536	598.69
464.755	608.69
464.975	587.69
465.195	599.69
465.414	641.69
465.634	594.69
465.854	541.69
466.073	558.69
466.293	545.69
466.512	530.69
466.732	521.69
466.951	498.69
467.171	524.69
467.391	520.69
467.61	540.69
467.829	520.69
468.049	495.69
468.268	507.69
468.488	501.69
468.707	495.69
468.927	495.69
469.146	480.69
469.365	526.69
469.585	513.69
469.804	496.69
470.023	519.69
470.243	525.69
470.462	528.69
470.681	523.69
470.901	551.69
471.12	517.69
471.339	513.69
471.558	521.69
471.777	530.69
471.997	525.69
472.216	519.69
472.435	522.69
472.654	531.69
472.873	505.69
473.092	506.69
473.311	517.69
473.53	501.69
473.749	535.69
473.968	571.69
474.187	641.69
474.406	645.69
474.625	553.69
474.844	531.69
475.063	503.69
475.282	501.69
475.501	508.69
475.72	539.69
475.939	535.69
476.158	537.69
476.377	528.69
476.596	519.69
476.814	540.69
477.033	545.69
477.252	556.69
477.471	545.69
477.69	557.69
477.908	560.69
478.127	565.69
478.346	568.69
478.564	584.69
478.783	589.69
479.002	570.69
479.22	610.69
479.439	601.69
479.658	620.69
479.876	621.69
480.095	637.69
480.313	651.69
480.532	656.69
480.751	632.69
480.969	617.69
481.188	675.69
481.406	707.69
481.624	619.69
481.843	602.69
482.061	614.69
482.28	609.69
482.498	603.69
482.717	599.69
482.935	591.69
483.153	597.69
483.372	604.69
483.59	617.69
483.808	610.69
484.027	587.69
484.245	599.69
484.463	617.69
484.681	613.69
484.9	609.69
485.118	625.69
485.336	611.69
485.554	623.69
485.772	628.69
485.99	604.69
486.209	607.69
486.427	609.69
486.645	599.69
486.863	631.69
487.081	631.69
487.299	646.69
487.517	629.69
487.735	643.69
487.953	638.69
488.171	627.69
488.389	637.69
488.607	636.69
488.825	661.69
489.043	637.69
489.261	637.69
489.479	644.69
489.696	653.69
489.914	648.69
490.132	648.69
490.35	648.69
490.568	677.69
490.786	687.69
491.003	703.69
491.221	688.69
491.439	692.69
491.657	702.69
491.874	728.69
492.092	728.69
492.31	725.69
492.527	734.69
492.745	717.69
492.963	732.69
493.18	726.69
493.398	743.69
493.615	742.69
493.833	719.69
494.05	729.69
494.268	749.69
494.485	755.69
494.703	745.69
494.92	743.69
495.138	741.69
495.355	751.69
495.573	769.69
495.79	741.69
496.008	755.69
496.225	758.69
496.442	775.69
496.66	749.69
496.877	781.69
497.094	764.69
497.312	743.69
497.529	779.69
497.746	789.69
497.963	817.69
498.181	841.69
498.398	839.69
498.615	865.69
498.832	878.69
499.049	909.69
499.267	948.69
499.484	977.69
499.701	1009.69
499.918	1063.69
500.135	1119.69
500.352	1205.69
500.569	1223.69
500.786	1219.69
501.003	1227.69
501.22	1128.69
501.437	1076.69
501.654	1054.69
501.871	1031.69
502.088	988.69
502.305	923.69
502.522	897.69
502.739	851.69
502.956	853.69
503.172	813.69
503.389	805.69
503.606	794.69
503.823	781.69
504.04	798.69
504.256	779.69
504.473	779.69
504.69	764.69
504.907	748.69
505.123	740.69
505.34	740.69
505.557	728.69
505.773	718.69
505.99	735.69
506.207	743.69
506.423	720.69
506.64	692.69
506.856	697.69
507.073	710.69
507.289	679.69
507.506	698.69
507.722	700.69
507.939	695.69
508.155	688.69
508.372	651.69
508.588	641.69
508.805	671.69
509.021	645.69
509.238	702.69
509.454	675.69
509.67	667.69
509.887	670.69
510.103	643.69
510.319	665.69
510.536	726.69
510.752	1094.69
510.968	899.69
511.184	651.69
511.401	656.69
511.617	592.69
511.833	652.69
512.049	632.69
512.265	622.69
512.481	606.69
512.698	624.69
512.914	621.69
513.13	629.69
513.346	602.69
513.562	619.69
513.778	613.69
513.994	639.69
514.21	647.69
514.426	632.69
514.642	684.69
514.858	694.69
515.074	713.69
515.29	805.69
515.506	1085.69
515.721	927.69
515.937	721.69
516.153	672.69
516.369	661.69
516.585	673.69
516.801	659.69
517.016	662.69
517.232	684.69
517.448	661.69
517.664	671.69
517.879	671.69
518.095	684.69
518.311	678.69
518.527	683.69
518.742	672.69
518.958	640.69
519.173	613.69
519.389	651.69
519.605	637.69
519.82	635.69
520.036	631.69
520.251	647.69
520.467	667.69
520.682	663.69
520.898	649.69
521.113	685.69
521.329	701.69
521.544	732.69
521.76	877.69
521.975	1328.69
522.19	1306.69
522.406	820.69
522.621	680.69
522.836	631.69
523.052	612.69
523.267	571.69
523.482	603.69
523.698	551.69
523.913	586.69
524.128	590.69
524.343	537.69
524.559	568.69
524.774	553.69
524.989	537.69
525.204	560.69
525.419	566.69
525.634	547.69
525.849	544.69
526.064	545.69
526.28	558.69
526.495	527.69
526.71	535.69
526.925	521.69
527.14	518.69
527.355	522.69
527.57	536.69
527.785	517.69
527.999	505.69
528.214	508.69
528.429	531.69
528.644	554.69
528.859	527.69
529.074	556.69
529.289	551.69
529.503	588.69
529.718	571.69
529.933	555.69
530.148	536.69
530.363	519.69
530.577	525.69
530.792	515.69
531.007	505.69
531.221	503.69
531.436	504.69
531.651	519.69
531.865	512.69
532.08	517.69
532.295	507.69
532.509	496.69
532.724	507.69
532.938	525.69
533.153	482.69
533.367	493.69
533.582	513.69
533.796	507.69
534.011	516.69
534.225	496.69
534.44	504.69
534.654	508.69
534.868	496.69
535.083	508.69
535.297	485.69
535.511	488.69
535.726	517.69
535.94	525.69
536.154	495.69
536.369	499.69
536.583	478.69
536.797	496.69
537.011	490.69
537.225	479.69
537.44	481.69
537.654	484.69
537.868	475.69
538.082	463.69
538.296	489.69
538.51	478.69
538.724	487.69
538.938	477.69
539.153	473.69
539.367	479.69
539.581	491.69
539.795	492.69
540.009	479.69
540.222	477.69
540.436	460.69
540.65	490.69
540.864	484.69
541.078	488.69
541.292	496.69
541.506	471.69
541.72	473.69
541.934	491.69
542.147	487.69
542.361	474.69
542.575	495.69
542.789	483.69
543.002	472.69
543.216	472.69
543.43	492.69
543.644	507.69
543.857	487.69
544.071	467.69
544.285	481.69
544.498	483.69
544.712	477.69
544.925	484.69
545.139	494.69
545.352	489.69
545.566	461.69
545.779	475.69
545.993	500.69
546.206	501.69
546.42	496.69
546.633	477.69
546.847	468.69
547.06	466.69
547.274	458.69
547.487	478.69
547.7	478.69
547.914	471.69
548.127	476.69
548.34	471.69
548.554	478.69
548.767	470.69
548.98	484.69
549.193	466.69
549.407	490.69
549.62	445.69
549.833	467.69
550.046	482.69
550.259	470.69
550.473	445.69
550.686	488.69
550.899	462.69
551.112	482.69
551.325	449.69
551.538	443.69
551.751	471.69
551.964	481.69
552.177	450.69
552.39	480.69
552.603	492.69
552.816	486.69
553.029	475.69
553.242	489.69
553.455	497.69
553.667	504.69
553.88	483.69
554.093	474.69
554.306	475.69
554.519	464.69
554.732	474.69
554.944	470.69
555.157	463.69
555.37	449.69
555.583	461.69
555.795	445.69
556.008	431.69
556.221	441.69
556.433	423.69
556.646	449.69
556.859	415.69
557.071	420.69
557.284	421.69
557.496	427.69
557.709	420.69
557.921	424.69
558.134	413.69
558.346	421.69
558.559	413.69
558.771	422.69
558.984	413.69
559.196	432.69
559.409	395.69
559.621	416.69
559.833	413.69
560.046	422.69
560.258	406.69
560.47	413.69
560.683	418.69
560.895	410.69
561.107	416.69
561.32	403.69
561.532	415.69
561.744	396.69
561.956	427.69
562.168	411.69
562.381	392.69
562.593	398.69
562.805	426.69
563.017	406.69
563.229	419.69
563.441	416.69
563.653	434.69
563.865	431.69
564.077	418.69
564.289	429.69
564.501	443.69
564.713	437.69
564.925	447.69
565.137	463.69
565.349	455.69
565.561	461.69
565.773	489.69
565.985	485.69
566.197	494.69
566.408	516.69
566.62	521.69
566.832	538.69
567.044	546.69
567.255	549.69
567.467	561.69
567.679	569.69
567.891	603.69
568.102	593.69
568.314	587.69
568.526	544.69
568.737	541.69
568.949	524.69
569.161	479.69
569.372	463.69
569.584	451.69
569.795	440.69
570.007	429.69
570.218	442.69
570.43	446.69
570.641	439.69
570.853	407.69
571.064	425.69
571.276	432.69
571.487	418.69
571.698	402.69
571.91	411.69
572.121	396.69
572.333	395.69
572.544	363.69
572.755	365.69
572.966	374.69
573.178	375.69
573.389	369.69
573.6	363.69
573.811	362.69
574.023	362.69
574.234	356.69
574.445	353.69
574.656	344.69
574.867	363.69
575.078	368.69
575.289	366.69
575.501	343.69
575.712	365.69
575.923	360.69
576.134	351.69
576.345	353.69
576.556	356.69
576.767	348.69
576.978	329.69
577.188	336.69
577.399	358.69
577.61	353.69
577.821	356.69
578.032	357.69
578.243	373.69
578.454	531.69
578.665	401.69
578.875	332.69
579.086	347.69
579.297	331.69
579.508	356.69
579.718	336.69
579.929	329.69
580.14	337.69
580.35	320.69
580.561	335.69
580.772	343.69
580.982	328.69
581.193	334.69
581.403	321.69
581.614	324.69
581.825	339.69
582.035	329.69
582.246	318.69
582.456	337.69
582.667	337.69
582.877	312.69
583.087	317.69
583.298	320.69
583.508	341.69
583.719	335.69
583.929	330.69
584.139	330.69
584.35	323.69
584.56	323.69
584.77	318.69
584.981	314.69
585.191	324.69
585.401	318.69
585.611	323.69
585.821	331.69
586.032	327.69
586.242	329.69
586.452	329.69
586.662	294.69
586.872	312.69
587.082	327.69
587.292	333.69
587.502	311.69
587.713	312.69
587.923	326.69
588.133	337.69
588.343	308.69
588.553	317.69
588.762	311.69
588.972	287.69
589.182	327.69
589.392	330.69
589.602	310.69
589.812	318.69
590.022	322.69
590.232	332.69
590.441	319.69
590.651	322.69
590.861	303.69
591.071	310.69
591.281	317.69
591.49	308.69
591.7	329.69
591.91	337.69
592.119	325.69
592.329	332.69
592.539	335.69
592.748	334.69
592.958	366.69
593.167	331.69
593.377	343.69
593.587	341.69
593.796	355.69
594.006	371.69
594.215	339.69
594.424	343.69
594.634	335.69
594.843	349.69
595.053	330.69
595.262	323.69
595.472	329.69
595.681	311.69
595.89	327.69
596.1	317.69
596.309	303.69
596.518	314.69
596.727	310.69
596.937	308.69
597.146	298.69
597.355	311.69
597.564	285.69
597.774	318.69
597.983	287.69
598.192	306.69
598.401	286.69
598.61	280.69
598.819	286.69
599.028	301.69
599.237	284.69
599.446	264.69
599.655	285.69
599.864	283.69
600.073	263.69
600.282	276.69
600.491	277.69
600.7	292.69
600.909	274.69
601.118	267.69
601.327	274.69
601.536	279.69
601.745	283.69
601.953	291.69
602.162	284.69
602.371	274.69
602.58	280.69
602.789	281.69
602.997	286.69
603.206	270.69
603.415	271.69
603.623	264.69
603.832	259.69
604.041	259.69
604.249	268.69
604.458	276.69
604.666	246.69
604.875	251.69
605.084	249.69
605.292	258.69
605.501	267.69
605.709	281.69
605.918	255.69
606.126	266.69
606.334	267.69
606.543	263.69
606.751	261.69
606.96	267.69
607.168	248.69
607.376	265.69
607.585	252.69
607.793	268.69
608.001	246.69
608.21	249.69
608.418	249.69
608.626	253.69
608.834	251.69
609.043	257.69
609.251	246.69
609.459	260.69
609.667	268.69
609.875	245.69
610.083	244.69
610.291	249.69
610.499	254.69
610.707	254.69
610.916	272.69
611.124	257.69
611.332	270.69
611.54	270.69
611.748	260.69
611.955	255.69
612.163	262.69
612.371	244.69
612.579	236.69
612.787	243.69
612.995	250.69
613.203	277.69
613.411	265.69
613.618	254.69
613.826	244.69
614.034	256.69
614.242	235.69
614.449	253.69
614.657	244.69
614.865	250.69
615.072	262.69
615.28	245.69
615.488	260.69
615.695	251.69
615.903	239.69
616.111	242.69
616.318	249.69
616.526	261.69
616.733	262.69
616.941	238.69
617.148	262.69
617.356	239.69
617.563	248.69
617.771	272.69
617.978	261.69
618.185	252.69
618.393	228.69
618.6	255.69
618.807	235.69
619.015	250.69
619.222	247.69
619.429	237.69
619.637	259.69
619.844	259.69
620.051	244.69
620.258	240.69
620.466	246.69
620.673	247.69
620.88	244.69
621.087	243.69
621.294	239.69
621.501	245.69
621.708	236.69
621.915	229.69
622.122	234.69
622.329	247.69
622.536	243.69
622.743	241.69
622.95	232.69
623.157	236.69
623.364	244.69
623.571	234.69
623.778	221.69
623.985	241.69
624.192	230.69
624.399	217.69
624.606	216.69
624.812	219.69
625.019	220.69
625.226	224.69
625.433	228.69
625.639	223.69
625.846	230.69
626.053	225.69
626.259	223.69
626.466	225.69
626.673	216.69
626.879	201.69
627.086	220.69
627.293	222.69
627.499	209.69
627.706	208.69
627.912	199.69
628.119	214.69
628.325	226.69
628.532	227.69
628.738	205.69
628.945	215.69
629.151	223.69
629.357	207.69
629.564	209.69
629.77	212.69
629.976	221.69
630.183	202.69
630.389	216.69
630.595	215.69
630.802	196.69
631.008	208.69
631.214	212.69
631.42	210.69
631.627	199.69
631.833	209.69
632.039	203.69
632.245	202.69
632.451	192.69
632.657	197.69
632.863	188.69
633.069	183.69
633.275	204.69
633.481	200.69
633.688	208.69
633.893	191.69
634.099	200.69
634.305	191.69
634.511	216.69
634.717	193.69
634.923	184.69
635.129	196.69
635.335	204.69
635.541	203.69
635.747	209.69
635.952	203.69
636.158	192.69
636.364	187.69
636.57	200.69
636.775	195.69
636.981	199.69
637.187	193.69
637.392	200.69
637.598	193.69
637.804	196.69
638.009	190.69
638.215	193.69
638.421	188.69
638.626	185.69
638.832	191.69
639.037	186.69
639.243	183.69
639.448	183.69
639.654	199.69
639.859	198.69
640.065	179.69
640.27	197.69
640.475	183.69
640.681	189.69
640.886	184.69
641.091	184.69
641.297	187.69
641.502	174.69
641.707	181.69
641.913	183.69
642.118	181.69
642.323	189.69
642.528	171.69
642.733	189.69
642.939	184.69
643.144	163.69
643.349	176.69
643.554	193.69
643.759	172.69
643.964	174.69
644.169	185.69
644.374	175.69
644.579	183.69
644.784	190.69
644.989	187.69
645.194	192.69
645.399	166.69
645.604	186.69
645.809	187.69
646.014	175.69
646.219	172.69
646.423	171.69
646.628	175.69
646.833	183.69
647.038	171.69
647.243	174.69
647.447	190.69
647.652	191.69
647.857	179.69
648.062	181.69
648.266	199.69
648.471	180.69
648.676	197.69
648.88	191.69
649.085	178.69
649.289	171.69
649.494	184.69
649.698	202.69
649.903	204.69
650.107	192.69
650.312	160.69
650.516	169.69
650.721	180.69
650.925	175.69
651.13	170.69
651.334	171.69
651.539	156.69
651.743	165.69
651.947	170.69
652.152	168.69
652.356	147.69
652.56	161.69
652.764	140.69
652.969	155.69
653.173	156.69
653.377	173.69
653.581	160.69
653.785	127.69
653.99	145.69
654.194	146.69
654.398	139.69
654.602	135.69
654.806	144.69
655.01	157.69
655.214	158.69
655.418	135.69
655.622	155.69
655.826	142.69
656.03	155.69
656.234	155.69
656.438	163.69
656.642	160.69
656.846	127.69
657.049	134.69
657.253	129.69
657.457	121.69
657.661	135.69
657.865	126.69
658.068	129.69
658.272	119.69
658.476	123.69
658.68	119.69
658.883	104.69
659.087	112.69
659.291	102.69
659.494	119.69
659.698	89.69
659.901	93.69
660.105	91.69
660.309	102.69
660.512	116.69
660.716	106.69
660.919	95.69
661.123	115.69
661.326	98.69
661.53	101.69
661.733	97.69
661.936	100.69
662.14	89.69
662.343	85.69
662.546	85.69
662.75	89.69
662.953	94.69
663.156	93.69
663.36	99.69
663.563	96.69
663.766	76.69
663.969	93.69
664.173	80.69
664.376	99.69
664.579	82.69
664.782	90.69
664.985	93.69
665.188	85.69
665.391	80.69
665.594	81.69
665.797	86.69
666	87.69
666.203	88.69
666.406	86.69
666.609	74.69
666.812	95.69
667.015	86.69
667.218	84.69
667.421	79.69
667.624	67.69
667.827	79.69
668.03	76.69
668.232	94.69
668.435	96.69
668.638	85.69
668.841	94.69
669.043	67.69
669.246	79.69
669.449	82.69
669.651	71.69
669.854	89.69
670.057	89.69
670.259	77.69
670.462	75.69
670.665	93.69
670.867	82.69
671.07	84.69
671.272	87.69
671.475	93.69
671.677	79.69
671.88	84.69
672.082	73.69
672.284	87.69
672.487	79.69
672.689	77.69
672.892	88.69
