Data from 1976.PennyLincolnUp.Lamp.En5.5.200Scan.071719.P1.Changed Mount._HRD10591_16-00-31-860.txt Node
Date: Thu Jul 18 16:00:31 EDT 2019
User: cochatt
Spectrometer: HR+D1059
Trigger mode: 1
Integration Time (sec): 1.000000E-1
Scans to average: 1
Electric dark correction enabled: true
Nonlinearity correction enabled: false
Boxcar width: 0
XAxis mode: Wavelengths
Number of Pixels in Spectrum: 2048
>>>>>Begin Spectral Data<<<<<
223.165	-20.62
223.4	-20.62
223.635	-20.62
223.869	-29.62
224.104	-16.62
224.338	-11.62
224.573	-9.62
224.808	-21.62
225.042	-10.62
225.277	0.38
225.511	-8.62
225.746	6.38
225.98	11.38
226.215	28.38
226.449	18.38
226.683	11.38
226.918	20.38
227.152	32.38
227.387	35.38
227.621	38.38
227.856	41.38
228.09	44.38
228.324	42.38
228.559	58.38
228.793	64.38
229.027	97.38
229.262	110.38
229.496	112.38
229.73	128.38
229.964	138.38
230.199	130.38
230.433	118.38
230.667	113.38
230.901	100.38
231.136	119.38
231.37	109.38
231.604	116.38
231.838	102.38
232.072	115.38
232.306	116.38
232.541	121.38
232.775	114.38
233.009	119.38
233.243	123.38
233.477	107.38
233.711	112.38
233.945	124.38
234.179	126.38
234.413	119.38
234.647	124.38
234.881	104.38
235.115	107.38
235.349	123.38
235.583	122.38
235.817	126.38
236.051	128.38
236.285	130.38
236.519	130.38
236.753	134.38
236.987	149.38
237.221	160.38
237.455	208.38
237.689	182.38
237.922	138.38
238.156	128.38
238.39	122.38
238.624	129.38
238.858	124.38
239.091	121.38
239.325	138.38
239.559	128.38
239.793	124.38
240.027	121.38
240.26	134.38
240.494	146.38
240.728	156.38
240.961	162.38
241.195	146.38
241.429	125.38
241.662	129.38
241.896	142.38
242.13	143.38
242.363	132.38
242.597	129.38
242.83	120.38
243.064	120.38
243.298	130.38
243.531	141.38
243.765	148.38
243.998	153.38
244.232	130.38
244.465	140.38
244.699	151.38
244.932	141.38
245.166	148.38
245.399	150.38
245.633	157.38
245.866	147.38
246.099	147.38
246.333	136.38
246.566	139.38
246.8	152.38
247.033	160.38
247.266	158.38
247.5	161.38
247.733	164.38
247.966	182.38
248.2	172.38
248.433	162.38
248.666	179.38
248.899	164.38
249.133	190.38
249.366	197.38
249.599	198.38
249.832	180.38
250.066	192.38
250.299	165.38
250.532	210.38
250.765	196.38
250.998	210.38
251.231	222.38
251.465	209.38
251.698	206.38
251.931	204.38
252.164	194.38
252.397	190.38
252.63	197.38
252.863	190.38
253.096	219.38
253.329	224.38
253.562	216.38
253.795	218.38
254.028	216.38
254.261	211.38
254.494	220.38
254.727	229.38
254.96	278.38
255.193	268.38
255.426	259.38
255.659	227.38
255.892	229.38
256.124	225.38
256.357	246.38
256.59	220.38
256.823	218.38
257.056	209.38
257.289	200.38
257.521	190.38
257.754	217.38
257.987	205.38
258.22	208.38
258.452	211.38
258.685	197.38
258.918	206.38
259.151	205.38
259.383	216.38
259.616	216.38
259.849	226.38
260.081	229.38
260.314	252.38
260.547	256.38
260.779	246.38
261.012	243.38
261.244	228.38
261.477	245.38
261.71	216.38
261.942	226.38
262.175	237.38
262.407	218.38
262.64	206.38
262.872	220.38
263.105	215.38
263.337	221.38
263.57	228.38
263.802	215.38
264.035	216.38
264.267	230.38
264.499	209.38
264.732	227.38
264.964	214.38
265.197	233.38
265.429	221.38
265.661	219.38
265.894	224.38
266.126	234.38
266.358	217.38
266.591	226.38
266.823	231.38
267.055	224.38
267.287	243.38
267.52	244.38
267.752	242.38
267.984	240.38
268.216	232.38
268.448	226.38
268.681	235.38
268.913	241.38
269.145	270.38
269.377	284.38
269.609	280.38
269.841	291.38
270.073	286.38
270.306	295.38
270.538	312.38
270.77	317.38
271.002	298.38
271.234	288.38
271.466	309.38
271.698	297.38
271.93	325.38
272.162	328.38
272.394	329.38
272.626	319.38
272.858	299.38
273.09	284.38
273.322	295.38
273.553	281.38
273.785	278.38
274.017	282.38
274.249	262.38
274.481	281.38
274.713	284.38
274.945	291.38
275.176	284.38
275.408	271.38
275.64	278.38
275.872	278.38
276.104	266.38
276.335	261.38
276.567	291.38
276.799	299.38
277.031	315.38
277.262	314.38
277.494	298.38
277.726	313.38
277.957	289.38
278.189	276.38
278.421	283.38
278.652	282.38
278.884	275.38
279.115	280.38
279.347	278.38
279.579	269.38
279.81	296.38
280.042	267.38
280.273	283.38
280.505	270.38
280.736	283.38
280.968	284.38
281.199	274.38
281.431	290.38
281.662	279.38
281.894	276.38
282.125	273.38
282.356	290.38
282.588	328.38
282.819	296.38
283.051	285.38
283.282	292.38
283.513	301.38
283.745	284.38
283.976	290.38
284.207	277.38
284.439	301.38
284.67	299.38
284.901	310.38
285.132	292.38
285.364	293.38
285.595	283.38
285.826	288.38
286.057	299.38
286.288	286.38
286.52	310.38
286.751	301.38
286.982	295.38
287.213	321.38
287.444	314.38
287.675	304.38
287.906	342.38
288.138	320.38
288.369	329.38
288.6	317.38
288.831	304.38
289.062	317.38
289.293	328.38
289.524	310.38
289.755	301.38
289.986	305.38
290.217	314.38
290.448	328.38
290.679	306.38
290.91	301.38
291.141	302.38
291.371	319.38
291.602	309.38
291.833	325.38
292.064	303.38
292.295	298.38
292.526	312.38
292.757	308.38
292.987	328.38
293.218	317.38
293.449	313.38
293.68	320.38
293.91	323.38
294.141	310.38
294.372	305.38
294.603	307.38
294.833	304.38
295.064	325.38
295.295	306.38
295.525	316.38
295.756	321.38
295.987	325.38
296.217	334.38
296.448	338.38
296.679	328.38
296.909	328.38
297.14	310.38
297.37	312.38
297.601	338.38
297.831	304.38
298.062	322.38
298.292	321.38
298.523	324.38
298.753	325.38
298.984	326.38
299.214	330.38
299.445	308.38
299.675	333.38
299.905	336.38
300.136	344.38
300.366	331.38
300.597	322.38
300.827	333.38
301.057	344.38
301.288	356.38
301.518	355.38
301.748	355.38
301.979	350.38
302.209	350.38
302.439	344.38
302.669	346.38
302.9	362.38
303.13	372.38
303.36	376.38
303.59	335.38
303.82	364.38
304.051	353.38
304.281	340.38
304.511	363.38
304.741	338.38
304.971	324.38
305.201	351.38
305.431	340.38
305.661	339.38
305.891	349.38
306.121	341.38
306.352	353.38
306.582	357.38
306.812	365.38
307.042	351.38
307.272	344.38
307.502	344.38
307.731	362.38
307.961	346.38
308.191	345.38
308.421	364.38
308.651	351.38
308.881	336.38
309.111	345.38
309.341	371.38
309.571	366.38
309.8	366.38
310.03	389.38
310.26	384.38
310.49	356.38
310.72	386.38
310.949	388.38
311.179	391.38
311.409	380.38
311.639	392.38
311.868	390.38
312.098	391.38
312.328	395.38
312.557	390.38
312.787	389.38
313.017	391.38
313.246	402.38
313.476	394.38
313.706	392.38
313.935	377.38
314.165	397.38
314.394	414.38
314.624	414.38
314.853	388.38
315.083	393.38
315.312	374.38
315.542	399.38
315.771	388.38
316.001	365.38
316.23	380.38
316.46	390.38
316.689	402.38
316.919	405.38
317.148	398.38
317.377	403.38
317.607	396.38
317.836	399.38
318.065	396.38
318.295	392.38
318.524	377.38
318.753	374.38
318.983	392.38
319.212	372.38
319.441	398.38
319.67	404.38
319.9	395.38
320.129	399.38
320.358	386.38
320.587	400.38
320.816	399.38
321.046	422.38
321.275	421.38
321.504	411.38
321.733	414.38
321.962	429.38
322.191	425.38
322.42	438.38
322.649	429.38
322.878	455.38
323.108	452.38
323.337	465.38
323.566	479.38
323.795	486.38
324.024	530.38
324.253	629.38
324.482	825.38
324.71	1234.38
324.939	1825.38
325.168	1614.38
325.397	818.38
325.626	606.38
325.855	525.38
326.084	477.38
326.313	485.38
326.542	486.38
326.77	520.38
326.999	618.38
327.228	799.38
327.457	1129.38
327.686	1386.38
327.914	958.38
328.143	644.38
328.372	570.38
328.6	540.38
328.829	534.38
329.058	523.38
329.287	546.38
329.515	536.38
329.744	497.38
329.972	479.38
330.201	516.38
330.43	522.38
330.658	564.38
330.887	575.38
331.115	555.38
331.344	486.38
331.572	480.38
331.801	496.38
332.03	523.38
332.258	485.38
332.486	465.38
332.715	482.38
332.943	467.38
333.172	503.38
333.4	477.38
333.629	513.38
333.857	493.38
334.085	510.38
334.314	505.38
334.542	554.38
334.771	560.38
334.999	505.38
335.227	507.38
335.455	490.38
335.684	473.38
335.912	443.38
336.14	474.38
336.369	454.38
336.597	500.38
336.825	490.38
337.053	461.38
337.281	467.38
337.51	453.38
337.738	454.38
337.966	457.38
338.194	474.38
338.422	460.38
338.65	448.38
338.878	442.38
339.106	426.38
339.334	461.38
339.562	445.38
339.79	441.38
340.018	440.38
340.246	445.38
340.474	457.38
340.702	442.38
340.93	422.38
341.158	451.38
341.386	446.38
341.614	444.38
341.842	440.38
342.07	428.38
342.298	429.38
342.526	428.38
342.754	442.38
342.981	427.38
343.209	427.38
343.437	411.38
343.665	450.38
343.893	475.38
344.12	478.38
344.348	478.38
344.576	465.38
344.804	446.38
345.031	440.38
345.259	451.38
345.487	469.38
345.714	460.38
345.942	429.38
346.17	435.38
346.397	427.38
346.625	425.38
346.853	429.38
347.08	430.38
347.308	436.38
347.535	429.38
347.763	444.38
347.99	429.38
348.218	442.38
348.445	461.38
348.673	418.38
348.9	425.38
349.128	392.38
349.355	414.38
349.583	423.38
349.81	440.38
350.037	420.38
350.265	406.38
350.492	404.38
350.72	426.38
350.947	422.38
351.174	447.38
351.402	416.38
351.629	411.38
351.856	426.38
352.083	428.38
352.311	438.38
352.538	443.38
352.765	438.38
352.992	433.38
353.22	417.38
353.447	432.38
353.674	435.38
353.901	416.38
354.128	410.38
354.355	399.38
354.583	410.38
354.81	411.38
355.037	406.38
355.264	400.38
355.491	403.38
355.718	381.38
355.945	385.38
356.172	390.38
356.399	403.38
356.626	387.38
356.853	401.38
357.08	408.38
357.307	414.38
357.534	389.38
357.761	399.38
357.988	417.38
358.215	406.38
358.441	401.38
358.668	396.38
358.895	416.38
359.122	403.38
359.349	414.38
359.576	435.38
359.802	451.38
360.029	450.38
360.256	459.38
360.483	459.38
360.709	422.38
360.936	444.38
361.163	434.38
361.39	412.38
361.616	411.38
361.843	421.38
362.07	422.38
362.296	434.38
362.523	413.38
362.749	422.38
362.976	406.38
363.203	428.38
363.429	432.38
363.656	393.38
363.882	410.38
364.109	429.38
364.335	420.38
364.562	403.38
364.788	410.38
365.015	415.38
365.241	404.38
365.468	418.38
365.694	417.38
365.92	426.38
366.147	413.38
366.373	431.38
366.599	417.38
366.826	424.38
367.052	420.38
367.278	412.38
367.505	408.38
367.731	404.38
367.957	399.38
368.184	418.38
368.41	419.38
368.636	410.38
368.862	444.38
369.089	408.38
369.315	417.38
369.541	392.38
369.767	438.38
369.993	428.38
370.219	404.38
370.445	439.38
370.672	413.38
370.898	425.38
371.124	434.38
371.35	423.38
371.576	413.38
371.802	419.38
372.028	422.38
372.254	412.38
372.48	421.38
372.706	425.38
372.932	442.38
373.158	424.38
373.384	411.38
373.61	428.38
373.835	440.38
374.061	423.38
374.287	429.38
374.513	423.38
374.739	445.38
374.965	443.38
375.191	451.38
375.416	424.38
375.642	444.38
375.868	418.38
376.094	421.38
376.319	429.38
376.545	411.38
376.771	435.38
376.997	423.38
377.222	420.38
377.448	415.38
377.674	422.38
377.899	432.38
378.125	404.38
378.35	424.38
378.576	427.38
378.802	405.38
379.027	404.38
379.253	435.38
379.478	425.38
379.704	419.38
379.929	417.38
380.155	422.38
380.38	425.38
380.606	417.38
380.831	427.38
381.057	435.38
381.282	435.38
381.507	416.38
381.733	420.38
381.958	417.38
382.184	419.38
382.409	426.38
382.634	422.38
382.86	441.38
383.085	430.38
383.31	434.38
383.535	448.38
383.761	438.38
383.986	450.38
384.211	452.38
384.436	423.38
384.662	460.38
384.887	463.38
385.112	444.38
385.337	459.38
385.562	440.38
385.787	484.38
386.013	477.38
386.238	472.38
386.463	485.38
386.688	472.38
386.913	458.38
387.138	488.38
387.363	442.38
387.588	477.38
387.813	466.38
388.038	482.38
388.263	454.38
388.488	471.38
388.713	492.38
388.938	446.38
389.163	454.38
389.387	463.38
389.612	448.38
389.837	484.38
390.062	451.38
390.287	467.38
390.512	465.38
390.736	464.38
390.961	461.38
391.186	468.38
391.411	477.38
391.636	488.38
391.86	491.38
392.085	505.38
392.31	499.38
392.534	491.38
392.759	494.38
392.984	484.38
393.208	479.38
393.433	485.38
393.658	488.38
393.882	470.38
394.107	451.38
394.331	461.38
394.556	485.38
394.78	488.38
395.005	484.38
395.229	495.38
395.454	502.38
395.678	516.38
395.903	508.38
396.127	517.38
396.352	512.38
396.576	497.38
396.801	491.38
397.025	496.38
397.249	504.38
397.474	524.38
397.698	504.38
397.922	515.38
398.147	521.38
398.371	525.38
398.595	551.38
398.82	535.38
399.044	577.38
399.268	598.38
399.492	632.38
399.717	641.38
399.941	676.38
400.165	689.38
400.389	697.38
400.613	610.38
400.837	578.38
401.062	577.38
401.286	542.38
401.51	536.38
401.734	553.38
401.958	531.38
402.182	564.38
402.406	542.38
402.63	530.38
402.854	542.38
403.078	547.38
403.302	557.38
403.526	555.38
403.75	565.38
403.974	581.38
404.198	588.38
404.422	548.38
404.645	588.38
404.869	587.38
405.093	613.38
405.317	651.38
405.541	703.38
405.765	640.38
405.988	613.38
406.212	603.38
406.436	613.38
406.66	640.38
406.883	621.38
407.107	630.38
407.331	646.38
407.555	725.38
407.778	722.38
408.002	691.38
408.226	618.38
408.449	634.38
408.673	619.38
408.896	636.38
409.12	694.38
409.344	659.38
409.567	601.38
409.791	592.38
410.014	560.38
410.238	572.38
410.461	589.38
410.685	573.38
410.908	562.38
411.132	602.38
411.355	647.38
411.578	620.38
411.802	568.38
412.025	565.38
412.249	566.38
412.472	605.38
412.695	626.38
412.919	644.38
413.142	602.38
413.365	547.38
413.589	561.38
413.812	539.38
414.035	524.38
414.258	525.38
414.482	526.38
414.705	516.38
414.928	531.38
415.151	529.38
415.374	529.38
415.597	518.38
415.821	541.38
416.044	539.38
416.267	542.38
416.49	526.38
416.713	524.38
416.936	555.38
417.159	552.38
417.382	509.38
417.605	522.38
417.828	538.38
418.051	542.38
418.274	546.38
418.497	508.38
418.72	565.38
418.943	534.38
419.166	553.38
419.389	597.38
419.611	590.38
419.834	577.38
420.057	565.38
420.28	565.38
420.503	540.38
420.726	556.38
420.948	569.38
421.171	619.38
421.394	646.38
421.617	590.38
421.839	541.38
422.062	562.38
422.285	578.38
422.507	613.38
422.73	700.38
422.953	668.38
423.175	612.38
423.398	592.38
423.621	566.38
423.843	592.38
424.066	616.38
424.288	616.38
424.511	624.38
424.733	661.38
424.956	733.38
425.178	710.38
425.401	698.38
425.623	716.38
425.846	617.38
426.068	587.38
426.291	588.38
426.513	593.38
426.735	608.38
426.958	615.38
427.18	691.38
427.402	836.38
427.625	885.38
427.847	786.38
428.069	694.38
428.292	605.38
428.514	601.38
428.736	547.38
428.958	550.38
429.181	547.38
429.403	537.38
429.625	544.38
429.847	546.38
430.069	654.38
430.292	634.38
430.514	582.38
430.736	521.38
430.958	530.38
431.18	507.38
431.402	506.38
431.624	497.38
431.846	502.38
432.068	523.38
432.29	531.38
432.512	497.38
432.734	528.38
432.956	524.38
433.178	534.38
433.4	523.38
433.622	526.38
433.844	502.38
434.066	519.38
434.287	516.38
434.509	547.38
434.731	553.38
434.953	557.38
435.175	558.38
435.397	583.38
435.618	585.38
435.84	628.38
436.062	712.38
436.284	764.38
436.505	665.38
436.727	571.38
436.949	557.38
437.17	553.38
437.392	528.38
437.614	552.38
437.835	571.38
438.057	651.38
438.278	786.38
438.5	736.38
438.721	842.38
438.943	794.38
439.165	633.38
439.386	589.38
439.608	581.38
439.829	578.38
440.05	584.38
440.272	624.38
440.493	600.38
440.715	546.38
440.936	554.38
441.158	561.38
441.379	554.38
441.6	557.38
441.822	579.38
442.043	632.38
442.264	712.38
442.486	753.38
442.707	632.38
442.928	585.38
443.149	600.38
443.371	621.38
443.592	650.38
443.813	754.38
444.034	813.38
444.255	679.38
444.476	607.38
444.698	600.38
444.919	610.38
445.14	720.38
445.361	679.38
445.582	648.38
445.803	666.38
446.024	751.38
446.245	782.38
446.466	724.38
446.687	630.38
446.908	568.38
447.129	540.38
447.35	543.38
447.571	541.38
447.792	512.38
448.013	534.38
448.234	560.38
448.455	572.38
448.675	697.38
448.896	813.38
449.117	700.38
449.338	660.38
449.559	736.38
449.779	866.38
450	691.38
450.221	574.38
450.442	533.38
450.662	526.38
450.883	504.38
451.104	529.38
451.324	514.38
451.545	511.38
451.766	512.38
451.986	476.38
452.207	461.38
452.428	471.38
452.648	482.38
452.869	486.38
453.089	498.38
453.31	512.38
453.53	475.38
453.751	473.38
453.971	462.38
454.192	493.38
454.412	482.38
454.633	445.38
454.853	480.38
455.073	471.38
455.294	501.38
455.514	553.38
455.734	545.38
455.955	467.38
456.175	472.38
456.395	453.38
456.616	459.38
456.836	457.38
457.056	460.38
457.276	450.38
457.497	450.38
457.717	439.38
457.937	444.38
458.157	449.38
458.377	465.38
458.598	474.38
458.818	531.38
459.038	594.38
459.258	640.38
459.478	560.38
459.698	528.38
459.918	510.38
460.138	497.38
460.358	530.38
460.578	531.38
460.798	537.38
461.018	556.38
461.238	548.38
461.458	538.38
461.678	526.38
461.898	536.38
462.118	547.38
462.338	572.38
462.558	557.38
462.777	602.38
462.997	602.38
463.217	633.38
463.437	638.38
463.657	592.38
463.876	589.38
464.096	590.38
464.316	590.38
464.536	581.38
464.755	600.38
464.975	573.38
465.195	609.38
465.414	629.38
465.634	587.38
465.854	565.38
466.073	556.38
466.293	512.38
466.512	481.38
466.732	484.38
466.951	496.38
467.171	499.38
467.391	516.38
467.61	523.38
467.829	487.38
468.049	529.38
468.268	500.38
468.488	465.38
468.707	477.38
468.927	476.38
469.146	462.38
469.365	486.38
469.585	454.38
469.804	481.38
470.023	512.38
470.243	501.38
470.462	513.38
470.681	524.38
470.901	507.38
471.12	486.38
471.339	521.38
471.558	499.38
471.777	506.38
471.997	507.38
472.216	509.38
472.435	501.38
472.654	506.38
472.873	489.38
473.092	470.38
473.311	498.38
473.53	514.38
473.749	508.38
473.968	530.38
474.187	633.38
474.406	657.38
474.625	547.38
474.844	516.38
475.063	529.38
475.282	502.38
475.501	510.38
475.72	504.38
475.939	498.38
476.158	536.38
476.377	502.38
476.596	526.38
476.814	500.38
477.033	532.38
477.252	538.38
477.471	528.38
477.69	534.38
477.908	528.38
478.127	569.38
478.346	560.38
478.564	557.38
478.783	569.38
479.002	579.38
479.22	578.38
479.439	609.38
479.658	600.38
479.876	607.38
480.095	595.38
480.313	644.38
480.532	632.38
480.751	616.38
480.969	608.38
481.188	683.38
481.406	684.38
481.624	602.38
481.843	592.38
482.061	562.38
482.28	600.38
482.498	586.38
482.717	593.38
482.935	578.38
483.153	573.38
483.372	593.38
483.59	588.38
483.808	588.38
484.027	597.38
484.245	565.38
484.463	570.38
484.681	574.38
484.9	598.38
485.118	603.38
485.336	618.38
485.554	604.38
485.772	601.38
485.99	582.38
486.209	604.38
486.427	600.38
486.645	590.38
486.863	619.38
487.081	636.38
487.299	624.38
487.517	616.38
487.735	616.38
487.953	615.38
488.171	630.38
488.389	602.38
488.607	614.38
488.825	608.38
489.043	634.38
489.261	627.38
489.479	641.38
489.696	641.38
489.914	636.38
490.132	624.38
490.35	642.38
490.568	646.38
490.786	646.38
491.003	651.38
491.221	675.38
491.439	677.38
491.657	712.38
491.874	692.38
492.092	700.38
492.31	725.38
492.527	728.38
492.745	704.38
492.963	723.38
493.18	713.38
493.398	715.38
493.615	727.38
493.833	712.38
494.05	712.38
494.268	737.38
494.485	713.38
494.703	757.38
494.92	728.38
495.138	741.38
495.355	733.38
495.573	738.38
495.79	743.38
496.008	736.38
496.225	738.38
496.442	739.38
496.66	752.38
496.877	725.38
497.094	731.38
497.312	772.38
497.529	755.38
497.746	774.38
497.963	770.38
498.181	807.38
498.398	798.38
498.615	858.38
498.832	858.38
499.049	887.38
499.267	910.38
499.484	956.38
499.701	985.38
499.918	1051.38
500.135	1101.38
500.352	1166.38
500.569	1188.38
500.786	1178.38
501.003	1159.38
501.22	1113.38
501.437	1056.38
501.654	1038.38
501.871	990.38
502.088	956.38
502.305	906.38
502.522	854.38
502.739	851.38
502.956	834.38
503.172	788.38
503.389	782.38
503.606	775.38
503.823	770.38
504.04	778.38
504.256	737.38
504.473	770.38
504.69	756.38
504.907	737.38
505.123	715.38
505.34	728.38
505.557	704.38
505.773	708.38
505.99	688.38
506.207	668.38
506.423	682.38
506.64	669.38
506.856	682.38
507.073	674.38
507.289	657.38
507.506	653.38
507.722	662.38
507.939	688.38
508.155	682.38
508.372	630.38
508.588	620.38
508.805	645.38
509.021	636.38
509.238	656.38
509.454	668.38
509.67	648.38
509.887	630.38
510.103	629.38
510.319	624.38
510.536	742.38
510.752	1038.38
510.968	868.38
511.184	630.38
511.401	618.38
511.617	630.38
511.833	606.38
512.049	594.38
512.265	586.38
512.481	616.38
512.698	598.38
512.914	609.38
513.13	619.38
513.346	595.38
513.562	597.38
513.778	594.38
513.994	608.38
514.21	595.38
514.426	616.38
514.642	649.38
514.858	662.38
515.074	690.38
515.29	757.38
515.506	1053.38
515.721	907.38
515.937	664.38
516.153	648.38
516.369	646.38
516.585	636.38
516.801	636.38
517.016	632.38
517.232	654.38
517.448	639.38
517.664	642.38
517.879	637.38
518.095	639.38
518.311	668.38
518.527	658.38
518.742	627.38
518.958	614.38
519.173	613.38
519.389	619.38
519.605	609.38
519.82	598.38
520.036	624.38
520.251	628.38
520.467	639.38
520.682	627.38
520.898	662.38
521.113	640.38
521.329	661.38
521.544	732.38
521.76	869.38
521.975	1278.38
522.19	1251.38
522.406	768.38
522.621	638.38
522.836	605.38
523.052	612.38
523.267	579.38
523.482	554.38
523.698	532.38
523.913	554.38
524.128	535.38
524.343	536.38
524.559	530.38
524.774	530.38
524.989	539.38
525.204	538.38
525.419	531.38
525.634	541.38
525.849	534.38
526.064	520.38
526.28	510.38
526.495	517.38
526.71	506.38
526.925	506.38
527.14	499.38
527.355	501.38
527.57	515.38
527.785	519.38
527.999	505.38
528.214	506.38
528.429	497.38
528.644	516.38
528.859	508.38
529.074	524.38
529.289	517.38
529.503	560.38
529.718	545.38
529.933	533.38
530.148	513.38
530.363	510.38
530.577	470.38
530.792	498.38
531.007	508.38
531.221	502.38
531.436	494.38
531.651	490.38
531.865	475.38
532.08	477.38
532.295	500.38
532.509	499.38
532.724	493.38
532.938	495.38
533.153	493.38
533.367	482.38
533.582	498.38
533.796	496.38
534.011	498.38
534.225	489.38
534.44	477.38
534.654	511.38
534.868	481.38
535.083	482.38
535.297	502.38
535.511	486.38
535.726	503.38
535.94	501.38
536.154	486.38
536.369	462.38
536.583	467.38
536.797	472.38
537.011	492.38
537.225	450.38
537.44	461.38
537.654	454.38
537.868	448.38
538.082	456.38
538.296	447.38
538.51	463.38
538.724	477.38
538.938	468.38
539.153	476.38
539.367	492.38
539.581	468.38
539.795	461.38
540.009	460.38
540.222	430.38
540.436	450.38
540.65	485.38
540.864	461.38
541.078	475.38
541.292	449.38
541.506	468.38
541.72	460.38
541.934	470.38
542.147	478.38
542.361	469.38
542.575	459.38
542.789	478.38
543.002	457.38
543.216	475.38
543.43	480.38
543.644	456.38
543.857	469.38
544.071	472.38
544.285	449.38
544.498	475.38
544.712	453.38
544.925	463.38
545.139	459.38
545.352	473.38
545.566	451.38
545.779	466.38
545.993	459.38
546.206	465.38
546.42	441.38
546.633	445.38
546.847	437.38
547.06	458.38
547.274	479.38
547.487	432.38
547.7	445.38
547.914	442.38
548.127	454.38
548.34	468.38
548.554	451.38
548.767	475.38
548.98	468.38
549.193	449.38
549.407	460.38
549.62	482.38
549.833	448.38
550.046	428.38
550.259	455.38
550.473	468.38
550.686	442.38
550.899	446.38
551.112	435.38
551.325	456.38
551.538	453.38
551.751	449.38
551.964	453.38
552.177	442.38
552.39	475.38
552.603	457.38
552.816	472.38
553.029	458.38
553.242	450.38
553.455	473.38
553.667	484.38
553.88	470.38
554.093	478.38
554.306	460.38
554.519	462.38
554.732	452.38
554.944	445.38
555.157	447.38
555.37	440.38
555.583	444.38
555.795	446.38
556.008	424.38
556.221	436.38
556.433	412.38
556.646	398.38
556.859	420.38
557.071	416.38
557.284	426.38
557.496	396.38
557.709	399.38
557.921	416.38
558.134	411.38
558.346	400.38
558.559	401.38
558.771	417.38
558.984	378.38
559.196	392.38
559.409	379.38
559.621	414.38
559.833	409.38
560.046	408.38
560.258	407.38
560.47	402.38
560.683	386.38
560.895	390.38
561.107	408.38
561.32	404.38
561.532	389.38
561.744	391.38
561.956	395.38
562.168	406.38
562.381	395.38
562.593	404.38
562.805	390.38
563.017	395.38
563.229	412.38
563.441	395.38
563.653	394.38
563.865	416.38
564.077	416.38
564.289	433.38
564.501	427.38
564.713	422.38
564.925	435.38
565.137	432.38
565.349	456.38
565.561	464.38
565.773	459.38
565.985	449.38
566.197	451.38
566.408	503.38
566.62	519.38
566.832	540.38
567.044	533.38
567.255	526.38
567.467	560.38
567.679	568.38
567.891	566.38
568.102	560.38
568.314	539.38
568.526	528.38
568.737	495.38
568.949	467.38
569.161	457.38
569.372	442.38
569.584	443.38
569.795	436.38
570.007	413.38
570.218	450.38
570.43	455.38
570.641	416.38
570.853	408.38
571.064	410.38
571.276	381.38
571.487	416.38
571.698	378.38
571.91	403.38
572.121	399.38
572.333	394.38
572.544	388.38
572.755	350.38
572.966	357.38
573.178	368.38
573.389	360.38
573.6	349.38
573.811	369.38
574.023	356.38
574.234	353.38
574.445	344.38
574.656	358.38
574.867	362.38
575.078	339.38
575.289	335.38
575.501	347.38
575.712	350.38
575.923	353.38
576.134	369.38
576.345	341.38
576.556	347.38
576.767	334.38
576.978	342.38
577.188	350.38
577.399	333.38
577.61	331.38
577.821	370.38
578.032	344.38
578.243	355.38
578.454	484.38
578.665	392.38
578.875	347.38
579.086	338.38
579.297	325.38
579.508	308.38
579.718	346.38
579.929	334.38
580.14	326.38
580.35	326.38
580.561	323.38
580.772	323.38
580.982	334.38
581.193	341.38
581.403	327.38
581.614	322.38
581.825	314.38
582.035	310.38
582.246	294.38
582.456	310.38
582.667	319.38
582.877	314.38
583.087	323.38
583.298	286.38
583.508	314.38
583.719	311.38
583.929	313.38
584.139	333.38
584.35	305.38
584.56	315.38
584.77	307.38
584.981	304.38
585.191	314.38
585.401	296.38
585.611	307.38
585.821	336.38
586.032	291.38
586.242	309.38
586.452	304.38
586.662	309.38
586.872	315.38
587.082	295.38
587.292	304.38
587.502	309.38
587.713	306.38
587.923	296.38
588.133	287.38
588.343	289.38
588.553	304.38
588.762	314.38
588.972	299.38
589.182	289.38
589.392	292.38
589.602	315.38
589.812	312.38
590.022	313.38
590.232	305.38
590.441	294.38
590.651	299.38
590.861	305.38
591.071	308.38
591.281	304.38
591.49	300.38
591.7	315.38
591.91	327.38
592.119	323.38
592.329	313.38
592.539	316.38
592.748	326.38
592.958	322.38
593.167	331.38
593.377	356.38
593.587	348.38
593.796	323.38
594.006	322.38
594.215	338.38
594.424	335.38
594.634	340.38
594.843	303.38
595.053	325.38
595.262	301.38
595.472	299.38
595.681	318.38
595.89	324.38
596.1	281.38
596.309	308.38
596.518	315.38
596.727	315.38
596.937	291.38
597.146	292.38
597.355	294.38
597.564	286.38
597.774	281.38
597.983	293.38
598.192	280.38
598.401	282.38
598.61	257.38
598.819	267.38
599.028	264.38
599.237	270.38
599.446	266.38
599.655	270.38
599.864	266.38
600.073	276.38
600.282	276.38
600.491	265.38
600.7	262.38
600.909	278.38
601.118	274.38
601.327	267.38
601.536	253.38
601.745	270.38
601.953	260.38
602.162	249.38
602.371	256.38
602.58	272.38
602.789	248.38
602.997	261.38
603.206	273.38
603.415	270.38
603.623	263.38
603.832	257.38
604.041	244.38
604.249	236.38
604.458	246.38
604.666	262.38
604.875	264.38
605.084	250.38
605.292	235.38
605.501	252.38
605.709	258.38
605.918	261.38
606.126	256.38
606.334	253.38
606.543	266.38
606.751	246.38
606.96	262.38
607.168	224.38
607.376	260.38
607.585	267.38
607.793	254.38
608.001	258.38
608.21	254.38
608.418	236.38
608.626	255.38
608.834	249.38
609.043	252.38
609.251	257.38
609.459	244.38
609.667	260.38
609.875	235.38
610.083	244.38
610.291	246.38
610.499	234.38
610.707	270.38
610.916	245.38
611.124	255.38
611.332	257.38
611.54	262.38
611.748	256.38
611.955	244.38
612.163	262.38
612.371	254.38
612.579	244.38
612.787	256.38
612.995	248.38
613.203	252.38
613.411	249.38
613.618	248.38
613.826	248.38
614.034	240.38
614.242	241.38
614.449	250.38
614.657	248.38
614.865	231.38
615.072	232.38
615.28	240.38
615.488	236.38
615.695	242.38
615.903	253.38
616.111	245.38
616.318	226.38
616.526	258.38
616.733	245.38
616.941	225.38
617.148	224.38
617.356	245.38
617.563	258.38
617.771	250.38
617.978	229.38
618.185	240.38
618.393	223.38
618.6	242.38
618.807	237.38
619.015	244.38
619.222	228.38
619.429	231.38
619.637	237.38
619.844	225.38
620.051	224.38
620.258	237.38
620.466	211.38
620.673	224.38
620.88	236.38
621.087	234.38
621.294	227.38
621.501	217.38
621.708	229.38
621.915	241.38
622.122	250.38
622.329	236.38
622.536	217.38
622.743	214.38
622.95	225.38
623.157	228.38
623.364	219.38
623.571	237.38
623.778	213.38
623.985	241.38
624.192	235.38
624.399	235.38
624.606	226.38
624.812	221.38
625.019	227.38
625.226	215.38
625.433	234.38
625.639	195.38
625.846	205.38
626.053	224.38
626.259	215.38
626.466	222.38
626.673	210.38
626.879	210.38
627.086	221.38
627.293	227.38
627.499	209.38
627.706	207.38
627.912	208.38
628.119	213.38
628.325	219.38
628.532	209.38
628.738	207.38
628.945	206.38
629.151	205.38
629.357	185.38
629.564	213.38
629.77	215.38
629.976	203.38
630.183	204.38
630.389	210.38
630.595	210.38
630.802	190.38
631.008	198.38
631.214	208.38
631.42	200.38
631.627	194.38
631.833	197.38
632.039	199.38
632.245	199.38
632.451	205.38
632.657	203.38
632.863	197.38
633.069	189.38
633.275	200.38
633.481	194.38
633.688	209.38
633.893	192.38
634.099	190.38
634.305	189.38
634.511	187.38
634.717	201.38
634.923	194.38
635.129	182.38
635.335	187.38
635.541	183.38
635.747	206.38
635.952	182.38
636.158	191.38
636.364	185.38
636.57	181.38
636.775	188.38
636.981	186.38
637.187	171.38
637.392	180.38
637.598	171.38
637.804	186.38
638.009	188.38
638.215	184.38
638.421	189.38
638.626	162.38
638.832	180.38
639.037	181.38
639.243	188.38
639.448	196.38
639.654	195.38
639.859	197.38
640.065	188.38
640.27	174.38
640.475	183.38
640.681	180.38
640.886	182.38
641.091	177.38
641.297	185.38
641.502	169.38
641.707	161.38
641.913	174.38
642.118	182.38
642.323	167.38
642.528	181.38
642.733	162.38
642.939	158.38
643.144	183.38
643.349	179.38
643.554	150.38
643.759	168.38
643.964	177.38
644.169	172.38
644.374	167.38
644.579	179.38
644.784	176.38
644.989	165.38
645.194	166.38
645.399	173.38
645.604	166.38
645.809	153.38
646.014	162.38
646.219	168.38
646.423	170.38
646.628	183.38
646.833	168.38
647.038	170.38
647.243	184.38
647.447	163.38
647.652	170.38
647.857	167.38
648.062	166.38
648.266	178.38
648.471	185.38
648.676	172.38
648.88	183.38
649.085	186.38
649.289	182.38
649.494	173.38
649.698	176.38
649.903	172.38
650.107	176.38
650.312	179.38
650.516	159.38
650.721	162.38
650.925	165.38
651.13	150.38
651.334	153.38
651.539	162.38
651.743	158.38
651.947	151.38
652.152	168.38
652.356	144.38
652.56	147.38
652.764	153.38
652.969	146.38
653.173	146.38
653.377	157.38
653.581	144.38
653.785	146.38
653.99	147.38
654.194	149.38
654.398	135.38
654.602	138.38
654.806	148.38
655.01	150.38
655.214	145.38
655.418	136.38
655.622	144.38
655.826	132.38
656.03	140.38
656.234	139.38
656.438	152.38
656.642	143.38
656.846	139.38
657.049	127.38
657.253	127.38
657.457	126.38
657.661	130.38
657.865	123.38
658.068	120.38
658.272	118.38
658.476	122.38
658.68	109.38
658.883	109.38
659.087	111.38
659.291	116.38
659.494	104.38
659.698	91.38
659.901	104.38
660.105	101.38
660.309	103.38
660.512	112.38
660.716	94.38
660.919	98.38
661.123	83.38
661.326	90.38
661.53	96.38
661.733	87.38
661.936	82.38
662.14	86.38
662.343	79.38
662.546	75.38
662.75	81.38
662.953	88.38
663.156	76.38
663.36	68.38
663.563	83.38
663.766	76.38
663.969	80.38
664.173	85.38
664.376	94.38
664.579	81.38
664.782	93.38
664.985	85.38
665.188	87.38
665.391	77.38
665.594	72.38
665.797	77.38
666	78.38
666.203	78.38
666.406	71.38
666.609	87.38
666.812	79.38
667.015	85.38
667.218	84.38
667.421	77.38
667.624	60.38
667.827	88.38
668.03	82.38
668.232	82.38
668.435	87.38
668.638	90.38
668.841	93.38
669.043	75.38
669.246	79.38
669.449	103.38
669.651	81.38
669.854	76.38
670.057	90.38
670.259	91.38
670.462	84.38
670.665	85.38
670.867	82.38
671.07	87.38
671.272	83.38
671.475	76.38
671.677	81.38
671.88	61.38
672.082	72.38
672.284	68.38
672.487	80.38
672.689	86.38
672.892	75.38
