Data from 1976.PennyLincolnUp.Lamp.En5.5.200Scan.071719.P1.Changed Mount._HRD10591_16-02-02-863.txt Node
Date: Thu Jul 18 16:02:02 EDT 2019
User: cochatt
Spectrometer: HR+D1059
Trigger mode: 1
Integration Time (sec): 1.000000E-1
Scans to average: 1
Electric dark correction enabled: true
Nonlinearity correction enabled: false
Boxcar width: 0
XAxis mode: Wavelengths
Number of Pixels in Spectrum: 2048
>>>>>Begin Spectral Data<<<<<
223.165	-18.12
223.4	-18.12
223.635	-18.12
223.869	-19.12
224.104	-13.12
224.338	-11.12
224.573	-10.12
224.808	-3.12
225.042	3.88
225.277	-10.12
225.511	-8.12
225.746	-5.12
225.98	8.88
226.215	8.88
226.449	7.88
226.683	20.88
226.918	21.88
227.152	25.88
227.387	22.88
227.621	45.88
227.856	40.88
228.09	46.88
228.324	40.88
228.559	55.88
228.793	61.88
229.027	101.88
229.262	98.88
229.496	117.88
229.73	140.88
229.964	154.88
230.199	116.88
230.433	114.88
230.667	97.88
230.901	116.88
231.136	123.88
231.37	118.88
231.604	118.88
231.838	109.88
232.072	114.88
232.306	122.88
232.541	113.88
232.775	122.88
233.009	124.88
233.243	112.88
233.477	109.88
233.711	119.88
233.945	120.88
234.179	108.88
234.413	126.88
234.647	113.88
234.881	128.88
235.115	116.88
235.349	128.88
235.583	121.88
235.817	118.88
236.051	126.88
236.285	114.88
236.519	125.88
236.753	122.88
236.987	133.88
237.221	165.88
237.455	230.88
237.689	177.88
237.922	135.88
238.156	130.88
238.39	134.88
238.624	134.88
238.858	123.88
239.091	134.88
239.325	126.88
239.559	139.88
239.793	132.88
240.027	132.88
240.26	125.88
240.494	154.88
240.728	146.88
240.961	143.88
241.195	145.88
241.429	153.88
241.662	127.88
241.896	138.88
242.13	140.88
242.363	137.88
242.597	133.88
242.83	158.88
243.064	145.88
243.298	133.88
243.531	136.88
243.765	152.88
243.998	154.88
244.232	149.88
244.465	153.88
244.699	136.88
244.932	146.88
245.166	143.88
245.399	151.88
245.633	147.88
245.866	140.88
246.099	156.88
246.333	156.88
246.566	154.88
246.8	158.88
247.033	158.88
247.266	171.88
247.5	169.88
247.733	169.88
247.966	172.88
248.2	204.88
248.433	162.88
248.666	179.88
248.899	185.88
249.133	205.88
249.366	202.88
249.599	205.88
249.832	193.88
250.066	182.88
250.299	186.88
250.532	207.88
250.765	203.88
250.998	211.88
251.231	236.88
251.465	222.88
251.698	197.88
251.931	198.88
252.164	190.88
252.397	209.88
252.63	212.88
252.863	202.88
253.096	215.88
253.329	230.88
253.562	229.88
253.795	229.88
254.028	240.88
254.261	227.88
254.494	242.88
254.727	283.88
254.96	282.88
255.193	268.88
255.426	248.88
255.659	251.88
255.892	229.88
256.124	235.88
256.357	243.88
256.59	233.88
256.823	228.88
257.056	221.88
257.289	210.88
257.521	221.88
257.754	228.88
257.987	215.88
258.22	210.88
258.452	212.88
258.685	203.88
258.918	220.88
259.151	225.88
259.383	235.88
259.616	247.88
259.849	225.88
260.081	265.88
260.314	262.88
260.547	264.88
260.779	267.88
261.012	263.88
261.244	246.88
261.477	232.88
261.71	234.88
261.942	262.88
262.175	237.88
262.407	246.88
262.64	221.88
262.872	219.88
263.105	223.88
263.337	228.88
263.57	225.88
263.802	227.88
264.035	224.88
264.267	225.88
264.499	206.88
264.732	237.88
264.964	231.88
265.197	223.88
265.429	241.88
265.661	240.88
265.894	231.88
266.126	238.88
266.358	233.88
266.591	237.88
266.823	244.88
267.055	247.88
267.287	235.88
267.52	226.88
267.752	261.88
267.984	237.88
268.216	238.88
268.448	252.88
268.681	275.88
268.913	283.88
269.145	267.88
269.377	300.88
269.609	282.88
269.841	277.88
270.073	293.88
270.306	299.88
270.538	324.88
270.77	364.88
271.002	335.88
271.234	322.88
271.466	330.88
271.698	334.88
271.93	328.88
272.162	339.88
272.394	346.88
272.626	319.88
272.858	316.88
273.09	312.88
273.322	299.88
273.553	290.88
273.785	307.88
274.017	281.88
274.249	287.88
274.481	273.88
274.713	266.88
274.945	271.88
275.176	280.88
275.408	280.88
275.64	289.88
275.872	295.88
276.104	270.88
276.335	283.88
276.567	306.88
276.799	319.88
277.031	337.88
277.262	339.88
277.494	343.88
277.726	323.88
277.957	315.88
278.189	296.88
278.421	298.88
278.652	283.88
278.884	307.88
279.115	274.88
279.347	284.88
279.579	278.88
279.81	316.88
280.042	272.88
280.273	293.88
280.505	298.88
280.736	300.88
280.968	300.88
281.199	287.88
281.431	318.88
281.662	295.88
281.894	283.88
282.125	286.88
282.356	322.88
282.588	331.88
282.819	334.88
283.051	313.88
283.282	308.88
283.513	301.88
283.745	300.88
283.976	288.88
284.207	307.88
284.439	317.88
284.67	319.88
284.901	325.88
285.132	315.88
285.364	292.88
285.595	302.88
285.826	285.88
286.057	316.88
286.288	306.88
286.52	306.88
286.751	313.88
286.982	331.88
287.213	312.88
287.444	289.88
287.675	317.88
287.906	334.88
288.138	320.88
288.369	331.88
288.6	332.88
288.831	321.88
289.062	326.88
289.293	321.88
289.524	323.88
289.755	321.88
289.986	328.88
290.217	324.88
290.448	317.88
290.679	328.88
290.91	326.88
291.141	319.88
291.371	325.88
291.602	311.88
291.833	302.88
292.064	328.88
292.295	329.88
292.526	321.88
292.757	314.88
292.987	324.88
293.218	317.88
293.449	309.88
293.68	305.88
293.91	308.88
294.141	331.88
294.372	318.88
294.603	322.88
294.833	328.88
295.064	325.88
295.295	333.88
295.525	346.88
295.756	322.88
295.987	325.88
296.217	340.88
296.448	349.88
296.679	358.88
296.909	323.88
297.14	333.88
297.37	349.88
297.601	326.88
297.831	329.88
298.062	361.88
298.292	345.88
298.523	307.88
298.753	340.88
298.984	324.88
299.214	353.88
299.445	341.88
299.675	334.88
299.905	323.88
300.136	342.88
300.366	354.88
300.597	340.88
300.827	356.88
301.057	360.88
301.288	368.88
301.518	378.88
301.748	370.88
301.979	378.88
302.209	354.88
302.439	386.88
302.669	355.88
302.9	376.88
303.13	351.88
303.36	359.88
303.59	362.88
303.82	361.88
304.051	371.88
304.281	361.88
304.511	361.88
304.741	368.88
304.971	377.88
305.201	361.88
305.431	351.88
305.661	354.88
305.891	381.88
306.121	358.88
306.352	362.88
306.582	377.88
306.812	366.88
307.042	386.88
307.272	370.88
307.502	390.88
307.731	372.88
307.961	370.88
308.191	372.88
308.421	377.88
308.651	371.88
308.881	336.88
309.111	386.88
309.341	384.88
309.571	378.88
309.8	398.88
310.03	395.88
310.26	394.88
310.49	408.88
310.72	404.88
310.949	441.88
311.179	432.88
311.409	417.88
311.639	430.88
311.868	389.88
312.098	408.88
312.328	412.88
312.557	426.88
312.787	438.88
313.017	453.88
313.246	428.88
313.476	405.88
313.706	406.88
313.935	403.88
314.165	427.88
314.394	439.88
314.624	432.88
314.853	404.88
315.083	427.88
315.312	437.88
315.542	416.88
315.771	392.88
316.001	403.88
316.23	403.88
316.46	396.88
316.689	385.88
316.919	414.88
317.148	423.88
317.377	434.88
317.607	426.88
317.836	424.88
318.065	415.88
318.295	402.88
318.524	392.88
318.753	410.88
318.983	411.88
319.212	397.88
319.441	404.88
319.67	400.88
319.9	412.88
320.129	378.88
320.358	402.88
320.587	424.88
320.816	400.88
321.046	421.88
321.275	428.88
321.504	408.88
321.733	426.88
321.962	430.88
322.191	444.88
322.42	459.88
322.649	454.88
322.878	462.88
323.108	470.88
323.337	491.88
323.566	502.88
323.795	556.88
324.024	554.88
324.253	641.88
324.482	894.88
324.71	1414.88
324.939	2050.88
325.168	1830.88
325.397	903.88
325.626	637.88
325.855	566.88
326.084	542.88
326.313	501.88
326.542	492.88
326.77	538.88
326.999	626.88
327.228	853.88
327.457	1251.88
327.686	1542.88
327.914	1061.88
328.143	700.88
328.372	613.88
328.6	572.88
328.829	578.88
329.058	580.88
329.287	599.88
329.515	568.88
329.744	518.88
329.972	514.88
330.201	540.88
330.43	580.88
330.658	611.88
330.887	629.88
331.115	583.88
331.344	552.88
331.572	529.88
331.801	505.88
332.03	529.88
332.258	521.88
332.486	508.88
332.715	467.88
332.943	495.88
333.172	481.88
333.4	501.88
333.629	510.88
333.857	519.88
334.085	538.88
334.314	551.88
334.542	591.88
334.771	595.88
334.999	561.88
335.227	516.88
335.455	504.88
335.684	493.88
335.912	491.88
336.14	504.88
336.369	484.88
336.597	500.88
336.825	486.88
337.053	477.88
337.281	489.88
337.51	498.88
337.738	489.88
337.966	483.88
338.194	494.88
338.422	479.88
338.65	482.88
338.878	477.88
339.106	498.88
339.334	467.88
339.562	469.88
339.79	446.88
340.018	471.88
340.246	462.88
340.474	460.88
340.702	470.88
340.93	477.88
341.158	459.88
341.386	465.88
341.614	468.88
341.842	481.88
342.07	445.88
342.298	441.88
342.526	453.88
342.754	456.88
342.981	461.88
343.209	484.88
343.437	457.88
343.665	459.88
343.893	472.88
344.12	494.88
344.348	482.88
344.576	498.88
344.804	498.88
345.031	486.88
345.259	491.88
345.487	473.88
345.714	452.88
345.942	445.88
346.17	443.88
346.397	418.88
346.625	450.88
346.853	440.88
347.08	447.88
347.308	442.88
347.535	448.88
347.763	451.88
347.99	470.88
348.218	467.88
348.445	466.88
348.673	467.88
348.9	443.88
349.128	436.88
349.355	454.88
349.583	442.88
349.81	432.88
350.037	427.88
350.265	418.88
350.492	441.88
350.72	446.88
350.947	448.88
351.174	453.88
351.402	430.88
351.629	446.88
351.856	432.88
352.083	436.88
352.311	442.88
352.538	463.88
352.765	457.88
352.992	461.88
353.22	452.88
353.447	459.88
353.674	436.88
353.901	439.88
354.128	421.88
354.355	434.88
354.583	420.88
354.81	429.88
355.037	433.88
355.264	436.88
355.491	413.88
355.718	410.88
355.945	424.88
356.172	428.88
356.399	434.88
356.626	434.88
356.853	414.88
357.08	412.88
357.307	415.88
357.534	418.88
357.761	427.88
357.988	429.88
358.215	427.88
358.441	424.88
358.668	420.88
358.895	433.88
359.122	422.88
359.349	425.88
359.576	450.88
359.802	466.88
360.029	484.88
360.256	505.88
360.483	496.88
360.709	440.88
360.936	453.88
361.163	444.88
361.39	456.88
361.616	433.88
361.843	442.88
362.07	438.88
362.296	454.88
362.523	448.88
362.749	433.88
362.976	437.88
363.203	435.88
363.429	419.88
363.656	440.88
363.882	432.88
364.109	437.88
364.335	412.88
364.562	438.88
364.788	452.88
365.015	426.88
365.241	434.88
365.468	453.88
365.694	424.88
365.92	436.88
366.147	446.88
366.373	430.88
366.599	439.88
366.826	418.88
367.052	436.88
367.278	416.88
367.505	412.88
367.731	423.88
367.957	410.88
368.184	440.88
368.41	446.88
368.636	427.88
368.862	449.88
369.089	423.88
369.315	427.88
369.541	428.88
369.767	436.88
369.993	431.88
370.219	419.88
370.445	444.88
370.672	439.88
370.898	417.88
371.124	432.88
371.35	443.88
371.576	453.88
371.802	441.88
372.028	451.88
372.254	432.88
372.48	447.88
372.706	429.88
372.932	451.88
373.158	438.88
373.384	434.88
373.61	436.88
373.835	462.88
374.061	455.88
374.287	460.88
374.513	462.88
374.739	444.88
374.965	458.88
375.191	453.88
375.416	443.88
375.642	439.88
375.868	440.88
376.094	428.88
376.319	397.88
376.545	433.88
376.771	435.88
376.997	408.88
377.222	455.88
377.448	443.88
377.674	429.88
377.899	436.88
378.125	440.88
378.35	431.88
378.576	432.88
378.802	433.88
379.027	432.88
379.253	418.88
379.478	425.88
379.704	437.88
379.929	437.88
380.155	440.88
380.38	442.88
380.606	436.88
380.831	436.88
381.057	451.88
381.282	428.88
381.507	432.88
381.733	436.88
381.958	466.88
382.184	443.88
382.409	462.88
382.634	451.88
382.86	461.88
383.085	454.88
383.31	442.88
383.535	453.88
383.761	446.88
383.986	456.88
384.211	462.88
384.436	474.88
384.662	481.88
384.887	481.88
385.112	474.88
385.337	486.88
385.562	498.88
385.787	477.88
386.013	478.88
386.238	485.88
386.463	502.88
386.688	492.88
386.913	468.88
387.138	484.88
387.363	479.88
387.588	486.88
387.813	481.88
388.038	485.88
388.263	475.88
388.488	482.88
388.713	472.88
388.938	511.88
389.163	512.88
389.387	493.88
389.612	477.88
389.837	475.88
390.062	500.88
390.287	492.88
390.512	469.88
390.736	484.88
390.961	487.88
391.186	472.88
391.411	497.88
391.636	511.88
391.86	486.88
392.085	490.88
392.31	482.88
392.534	506.88
392.759	508.88
392.984	493.88
393.208	496.88
393.433	491.88
393.658	458.88
393.882	467.88
394.107	488.88
394.331	503.88
394.556	516.88
394.78	492.88
395.005	508.88
395.229	498.88
395.454	511.88
395.678	509.88
395.903	520.88
396.127	516.88
396.352	528.88
396.576	512.88
396.801	479.88
397.025	527.88
397.249	526.88
397.474	523.88
397.698	532.88
397.922	524.88
398.147	547.88
398.371	538.88
398.595	541.88
398.82	563.88
399.044	582.88
399.268	610.88
399.492	648.88
399.717	667.88
399.941	713.88
400.165	729.88
400.389	722.88
400.613	673.88
400.837	606.88
401.062	589.88
401.286	597.88
401.51	578.88
401.734	549.88
401.958	567.88
402.182	594.88
402.406	586.88
402.63	574.88
402.854	579.88
403.078	597.88
403.302	569.88
403.526	582.88
403.75	611.88
403.974	568.88
404.198	595.88
404.422	602.88
404.645	589.88
404.869	618.88
405.093	616.88
405.317	679.88
405.541	715.88
405.765	664.88
405.988	630.88
406.212	631.88
406.436	641.88
406.66	654.88
406.883	624.88
407.107	652.88
407.331	715.88
407.555	773.88
407.778	797.88
408.002	716.88
408.226	652.88
408.449	652.88
408.673	624.88
408.896	664.88
409.12	710.88
409.344	664.88
409.567	626.88
409.791	605.88
410.014	594.88
410.238	603.88
410.461	609.88
410.685	611.88
410.908	608.88
411.132	625.88
411.355	684.88
411.578	617.88
411.802	607.88
412.025	588.88
412.249	589.88
412.472	613.88
412.695	682.88
412.919	640.88
413.142	606.88
413.365	576.88
413.589	564.88
413.812	566.88
414.035	561.88
414.258	571.88
414.482	538.88
414.705	549.88
414.928	564.88
415.151	541.88
415.374	577.88
415.597	560.88
415.821	537.88
416.044	565.88
416.267	535.88
416.49	555.88
416.713	546.88
416.936	558.88
417.159	546.88
417.382	560.88
417.605	556.88
417.828	580.88
418.051	588.88
418.274	575.88
418.497	568.88
418.72	557.88
418.943	560.88
419.166	582.88
419.389	622.88
419.611	625.88
419.834	586.88
420.057	598.88
420.28	616.88
420.503	575.88
420.726	595.88
420.948	611.88
421.171	636.88
421.394	682.88
421.617	598.88
421.839	584.88
422.062	558.88
422.285	577.88
422.507	670.88
422.73	732.88
422.953	717.88
423.175	613.88
423.398	615.88
423.621	596.88
423.843	617.88
424.066	640.88
424.288	630.88
424.511	651.88
424.733	691.88
424.956	772.88
425.178	724.88
425.401	740.88
425.623	745.88
425.846	657.88
426.068	612.88
426.291	585.88
426.513	582.88
426.735	598.88
426.958	640.88
427.18	740.88
427.402	864.88
427.625	947.88
427.847	807.88
428.069	713.88
428.292	660.88
428.514	580.88
428.736	590.88
428.958	579.88
429.181	547.88
429.403	552.88
429.625	571.88
429.847	597.88
430.069	663.88
430.292	645.88
430.514	577.88
430.736	582.88
430.958	571.88
431.18	542.88
431.402	530.88
431.624	529.88
431.846	544.88
432.068	528.88
432.29	547.88
432.512	540.88
432.734	547.88
432.956	563.88
433.178	554.88
433.4	539.88
433.622	545.88
433.844	556.88
434.066	560.88
434.287	536.88
434.509	540.88
434.731	569.88
434.953	573.88
435.175	571.88
435.397	606.88
435.618	625.88
435.84	642.88
436.062	741.88
436.284	808.88
436.505	658.88
436.727	601.88
436.949	580.88
437.17	566.88
437.392	565.88
437.614	579.88
437.835	589.88
438.057	690.88
438.278	779.88
438.5	777.88
438.721	881.88
438.943	832.88
439.165	679.88
439.386	635.88
439.608	624.88
439.829	583.88
440.05	632.88
440.272	683.88
440.493	631.88
440.715	588.88
440.936	600.88
441.158	539.88
441.379	577.88
441.6	589.88
441.822	612.88
442.043	625.88
442.264	706.88
442.486	792.88
442.707	688.88
442.928	634.88
443.149	616.88
443.371	642.88
443.592	708.88
443.813	800.88
444.034	853.88
444.255	718.88
444.476	669.88
444.698	637.88
444.919	658.88
445.14	775.88
445.361	669.88
445.582	660.88
445.803	688.88
446.024	830.88
446.245	828.88
446.466	753.88
446.687	655.88
446.908	612.88
447.129	566.88
447.35	549.88
447.571	560.88
447.792	554.88
448.013	540.88
448.234	576.88
448.455	627.88
448.675	735.88
448.896	867.88
449.117	718.88
449.338	675.88
449.559	822.88
449.779	894.88
450	710.88
450.221	617.88
450.442	568.88
450.662	534.88
450.883	541.88
451.104	571.88
451.324	545.88
451.545	530.88
451.766	496.88
451.986	517.88
452.207	492.88
452.428	497.88
452.648	500.88
452.869	498.88
453.089	500.88
453.31	527.88
453.53	506.88
453.751	499.88
453.971	523.88
454.192	504.88
454.412	508.88
454.633	478.88
454.853	496.88
455.073	489.88
455.294	535.88
455.514	554.88
455.734	577.88
455.955	504.88
456.175	476.88
456.395	466.88
456.616	457.88
456.836	489.88
457.056	488.88
457.276	444.88
457.497	452.88
457.717	448.88
457.937	471.88
458.157	470.88
458.377	481.88
458.598	499.88
458.818	556.88
459.038	638.88
459.258	682.88
459.478	585.88
459.698	538.88
459.918	546.88
460.138	543.88
460.358	535.88
460.578	541.88
460.798	563.88
461.018	568.88
461.238	561.88
461.458	538.88
461.678	539.88
461.898	565.88
462.118	562.88
462.338	589.88
462.558	592.88
462.777	584.88
462.997	624.88
463.217	638.88
463.437	631.88
463.657	633.88
463.876	597.88
464.096	604.88
464.316	610.88
464.536	616.88
464.755	599.88
464.975	587.88
465.195	590.88
465.414	662.88
465.634	606.88
465.854	548.88
466.073	563.88
466.293	513.88
466.512	522.88
466.732	504.88
466.951	515.88
467.171	508.88
467.391	499.88
467.61	513.88
467.829	525.88
468.049	525.88
468.268	509.88
468.488	517.88
468.707	504.88
468.927	487.88
469.146	503.88
469.365	490.88
469.585	498.88
469.804	503.88
470.023	540.88
470.243	506.88
470.462	515.88
470.681	543.88
470.901	532.88
471.12	543.88
471.339	524.88
471.558	529.88
471.777	542.88
471.997	518.88
472.216	510.88
472.435	547.88
472.654	539.88
472.873	538.88
473.092	522.88
473.311	499.88
473.53	483.88
473.749	506.88
473.968	564.88
474.187	657.88
474.406	698.88
474.625	563.88
474.844	520.88
475.063	529.88
475.282	520.88
475.501	525.88
475.72	525.88
475.939	541.88
476.158	530.88
476.377	524.88
476.596	539.88
476.814	541.88
477.033	546.88
477.252	542.88
477.471	550.88
477.69	538.88
477.908	569.88
478.127	564.88
478.346	555.88
478.564	587.88
478.783	599.88
479.002	582.88
479.22	597.88
479.439	612.88
479.658	628.88
479.876	619.88
480.095	621.88
480.313	661.88
480.532	676.88
480.751	642.88
480.969	659.88
481.188	674.88
481.406	708.88
481.624	636.88
481.843	623.88
482.061	615.88
482.28	598.88
482.498	589.88
482.717	587.88
482.935	603.88
483.153	618.88
483.372	599.88
483.59	597.88
483.808	602.88
484.027	597.88
484.245	610.88
484.463	586.88
484.681	591.88
484.9	620.88
485.118	609.88
485.336	624.88
485.554	616.88
485.772	637.88
485.99	618.88
486.209	636.88
486.427	634.88
486.645	633.88
486.863	629.88
487.081	660.88
487.299	648.88
487.517	628.88
487.735	634.88
487.953	635.88
488.171	646.88
488.389	647.88
488.607	655.88
488.825	652.88
489.043	633.88
489.261	668.88
489.479	647.88
489.696	629.88
489.914	650.88
490.132	674.88
490.35	672.88
490.568	668.88
490.786	673.88
491.003	683.88
491.221	722.88
491.439	729.88
491.657	741.88
491.874	734.88
492.092	709.88
492.31	761.88
492.527	744.88
492.745	732.88
492.963	766.88
493.18	761.88
493.398	737.88
493.615	764.88
493.833	767.88
494.05	766.88
494.268	763.88
494.485	752.88
494.703	749.88
494.92	746.88
495.138	748.88
495.355	758.88
495.573	755.88
495.79	779.88
496.008	801.88
496.225	766.88
496.442	761.88
496.66	768.88
496.877	754.88
497.094	794.88
497.312	780.88
497.529	800.88
497.746	789.88
497.963	792.88
498.181	852.88
498.398	835.88
498.615	858.88
498.832	924.88
499.049	943.88
499.267	941.88
499.484	954.88
499.701	1029.88
499.918	1090.88
500.135	1130.88
500.352	1201.88
500.569	1220.88
500.786	1205.88
501.003	1180.88
501.22	1140.88
501.437	1077.88
501.654	1054.88
501.871	1009.88
502.088	972.88
502.305	964.88
502.522	905.88
502.739	874.88
502.956	830.88
503.172	831.88
503.389	819.88
503.606	826.88
503.823	785.88
504.04	816.88
504.256	749.88
504.473	797.88
504.69	782.88
504.907	788.88
505.123	768.88
505.34	750.88
505.557	721.88
505.773	740.88
505.99	732.88
506.207	721.88
506.423	736.88
506.64	715.88
506.856	702.88
507.073	713.88
507.289	732.88
507.506	724.88
507.722	682.88
507.939	692.88
508.155	674.88
508.372	700.88
508.588	685.88
508.805	679.88
509.021	674.88
509.238	663.88
509.454	696.88
509.67	661.88
509.887	685.88
510.103	654.88
510.319	667.88
510.536	759.88
510.752	1085.88
510.968	936.88
511.184	682.88
511.401	643.88
511.617	652.88
511.833	648.88
512.049	632.88
512.265	633.88
512.481	627.88
512.698	628.88
512.914	651.88
513.13	625.88
513.346	632.88
513.562	631.88
513.778	632.88
513.994	645.88
514.21	654.88
514.426	667.88
514.642	674.88
514.858	714.88
515.074	737.88
515.29	825.88
515.506	1141.88
515.721	965.88
515.937	755.88
516.153	689.88
516.369	688.88
516.585	668.88
516.801	675.88
517.016	660.88
517.232	637.88
517.448	684.88
517.664	719.88
517.879	680.88
518.095	704.88
518.311	669.88
518.527	659.88
518.742	664.88
518.958	646.88
519.173	652.88
519.389	631.88
519.605	638.88
519.82	649.88
520.036	666.88
520.251	663.88
520.467	657.88
520.682	675.88
520.898	660.88
521.113	679.88
521.329	716.88
521.544	805.88
521.76	904.88
521.975	1389.88
522.19	1356.88
522.406	849.88
522.621	696.88
522.836	627.88
523.052	598.88
523.267	606.88
523.482	564.88
523.698	594.88
523.913	574.88
524.128	615.88
524.343	573.88
524.559	567.88
524.774	560.88
524.989	546.88
525.204	545.88
525.419	564.88
525.634	545.88
525.849	532.88
526.064	527.88
526.28	518.88
526.495	526.88
526.71	510.88
526.925	538.88
527.14	519.88
527.355	506.88
527.57	527.88
527.785	527.88
527.999	524.88
528.214	504.88
528.429	520.88
528.644	526.88
528.859	536.88
529.074	558.88
529.289	538.88
529.503	594.88
529.718	596.88
529.933	548.88
530.148	550.88
530.363	516.88
530.577	525.88
530.792	513.88
531.007	523.88
531.221	537.88
531.436	514.88
531.651	501.88
531.865	494.88
532.08	491.88
532.295	519.88
532.509	527.88
532.724	497.88
532.938	508.88
533.153	487.88
533.367	525.88
533.582	493.88
533.796	522.88
534.011	512.88
534.225	509.88
534.44	526.88
534.654	533.88
534.868	487.88
535.083	510.88
535.297	501.88
535.511	482.88
535.726	516.88
535.94	518.88
536.154	502.88
536.369	498.88
536.583	480.88
536.797	479.88
537.011	502.88
537.225	475.88
537.44	487.88
537.654	499.88
537.868	512.88
538.082	486.88
538.296	483.88
538.51	488.88
538.724	495.88
538.938	477.88
539.153	469.88
539.367	507.88
539.581	490.88
539.795	491.88
540.009	490.88
540.222	460.88
540.436	497.88
540.65	482.88
540.864	481.88
541.078	489.88
541.292	488.88
541.506	482.88
541.72	493.88
541.934	484.88
542.147	474.88
542.361	492.88
542.575	472.88
542.789	474.88
543.002	483.88
543.216	498.88
543.43	490.88
543.644	462.88
543.857	489.88
544.071	493.88
544.285	473.88
544.498	480.88
544.712	480.88
544.925	497.88
545.139	476.88
545.352	475.88
545.566	492.88
545.779	484.88
545.993	473.88
546.206	488.88
546.42	458.88
546.633	470.88
546.847	484.88
547.06	454.88
547.274	483.88
547.487	468.88
547.7	485.88
547.914	480.88
548.127	461.88
548.34	468.88
548.554	453.88
548.767	466.88
548.98	467.88
549.193	453.88
549.407	474.88
549.62	476.88
549.833	456.88
550.046	455.88
550.259	455.88
550.473	478.88
550.686	488.88
550.899	482.88
551.112	444.88
551.325	462.88
551.538	472.88
551.751	469.88
551.964	472.88
552.177	469.88
552.39	477.88
552.603	481.88
552.816	473.88
553.029	496.88
553.242	485.88
553.455	480.88
553.667	480.88
553.88	485.88
554.093	490.88
554.306	474.88
554.519	477.88
554.732	464.88
554.944	472.88
555.157	469.88
555.37	458.88
555.583	425.88
555.795	438.88
556.008	430.88
556.221	440.88
556.433	421.88
556.646	417.88
556.859	421.88
557.071	433.88
557.284	420.88
557.496	422.88
557.709	416.88
557.921	404.88
558.134	417.88
558.346	443.88
558.559	425.88
558.771	419.88
558.984	436.88
559.196	412.88
559.409	416.88
559.621	408.88
559.833	413.88
560.046	392.88
560.258	404.88
560.47	423.88
560.683	410.88
560.895	416.88
561.107	393.88
561.32	408.88
561.532	421.88
561.744	424.88
561.956	413.88
562.168	416.88
562.381	408.88
562.593	408.88
562.805	423.88
563.017	417.88
563.229	418.88
563.441	417.88
563.653	422.88
563.865	425.88
564.077	446.88
564.289	414.88
564.501	429.88
564.713	418.88
564.925	454.88
565.137	462.88
565.349	455.88
565.561	459.88
565.773	456.88
565.985	480.88
566.197	478.88
566.408	510.88
566.62	533.88
566.832	550.88
567.044	552.88
567.255	561.88
567.467	555.88
567.679	574.88
567.891	603.88
568.102	582.88
568.314	557.88
568.526	539.88
568.737	535.88
568.949	510.88
569.161	478.88
569.372	465.88
569.584	438.88
569.795	460.88
570.007	449.88
570.218	458.88
570.43	438.88
570.641	441.88
570.853	431.88
571.064	429.88
571.276	403.88
571.487	413.88
571.698	410.88
571.91	376.88
572.121	398.88
572.333	390.88
572.544	383.88
572.755	385.88
572.966	372.88
573.178	378.88
573.389	368.88
573.6	360.88
573.811	388.88
574.023	352.88
574.234	359.88
574.445	361.88
574.656	364.88
574.867	382.88
575.078	384.88
575.289	365.88
575.501	357.88
575.712	347.88
575.923	352.88
576.134	355.88
576.345	373.88
576.556	360.88
576.767	345.88
576.978	345.88
577.188	333.88
577.399	344.88
577.61	344.88
577.821	331.88
578.032	350.88
578.243	381.88
578.454	531.88
578.665	418.88
578.875	334.88
579.086	351.88
579.297	329.88
579.508	343.88
579.718	341.88
579.929	322.88
580.14	334.88
580.35	331.88
580.561	342.88
580.772	324.88
580.982	323.88
581.193	330.88
581.403	329.88
581.614	315.88
581.825	325.88
582.035	329.88
582.246	302.88
582.456	313.88
582.667	327.88
582.877	321.88
583.087	331.88
583.298	318.88
583.508	316.88
583.719	319.88
583.929	313.88
584.139	328.88
584.35	316.88
584.56	312.88
584.77	326.88
584.981	335.88
585.191	321.88
585.401	294.88
585.611	306.88
585.821	317.88
586.032	330.88
586.242	304.88
586.452	300.88
586.662	304.88
586.872	298.88
587.082	299.88
587.292	299.88
587.502	311.88
587.713	309.88
587.923	312.88
588.133	285.88
588.343	316.88
588.553	308.88
588.762	321.88
588.972	331.88
589.182	308.88
589.392	304.88
589.602	323.88
589.812	305.88
590.022	329.88
590.232	312.88
590.441	321.88
590.651	313.88
590.861	306.88
591.071	312.88
591.281	316.88
591.49	307.88
591.7	301.88
591.91	301.88
592.119	325.88
592.329	350.88
592.539	331.88
592.748	340.88
592.958	336.88
593.167	341.88
593.377	349.88
593.587	365.88
593.796	351.88
594.006	332.88
594.215	339.88
594.424	344.88
594.634	321.88
594.843	339.88
595.053	322.88
595.262	327.88
595.472	312.88
595.681	310.88
595.89	313.88
596.1	296.88
596.309	293.88
596.518	300.88
596.727	296.88
596.937	301.88
597.146	310.88
597.355	292.88
597.564	283.88
597.774	302.88
597.983	301.88
598.192	297.88
598.401	294.88
598.61	298.88
598.819	284.88
599.028	291.88
599.237	281.88
599.446	283.88
599.655	281.88
599.864	278.88
600.073	278.88
600.282	283.88
600.491	276.88
600.7	286.88
600.909	280.88
601.118	275.88
601.327	292.88
601.536	271.88
601.745	280.88
601.953	271.88
602.162	283.88
602.371	274.88
602.58	264.88
602.789	269.88
602.997	273.88
603.206	268.88
603.415	263.88
603.623	256.88
603.832	275.88
604.041	265.88
604.249	258.88
604.458	268.88
604.666	265.88
604.875	265.88
605.084	265.88
605.292	268.88
605.501	272.88
605.709	245.88
605.918	275.88
606.126	256.88
606.334	250.88
606.543	264.88
606.751	235.88
606.96	246.88
607.168	255.88
607.376	244.88
607.585	259.88
607.793	262.88
608.001	264.88
608.21	260.88
608.418	265.88
608.626	236.88
608.834	246.88
609.043	267.88
609.251	254.88
609.459	266.88
609.667	264.88
609.875	261.88
610.083	245.88
610.291	255.88
610.499	241.88
610.707	280.88
610.916	250.88
611.124	257.88
611.332	251.88
611.54	262.88
611.748	265.88
611.955	257.88
612.163	268.88
612.371	252.88
612.579	250.88
612.787	256.88
612.995	237.88
613.203	248.88
613.411	242.88
613.618	238.88
613.826	231.88
614.034	251.88
614.242	247.88
614.449	241.88
614.657	262.88
614.865	241.88
615.072	260.88
615.28	255.88
615.488	248.88
615.695	251.88
615.903	235.88
616.111	261.88
616.318	247.88
616.526	244.88
616.733	262.88
616.941	263.88
617.148	232.88
617.356	244.88
617.563	259.88
617.771	245.88
617.978	235.88
618.185	266.88
618.393	249.88
618.6	237.88
618.807	238.88
619.015	252.88
619.222	225.88
619.429	243.88
619.637	253.88
619.844	244.88
620.051	234.88
620.258	239.88
620.466	228.88
620.673	228.88
620.88	237.88
621.087	240.88
621.294	245.88
621.501	240.88
621.708	237.88
621.915	236.88
622.122	235.88
622.329	251.88
622.536	244.88
622.743	239.88
622.95	227.88
623.157	230.88
623.364	241.88
623.571	222.88
623.778	225.88
623.985	213.88
624.192	241.88
624.399	218.88
624.606	230.88
624.812	232.88
625.019	228.88
625.226	240.88
625.433	240.88
625.639	230.88
625.846	216.88
626.053	235.88
626.259	210.88
626.466	205.88
626.673	203.88
626.879	209.88
627.086	222.88
627.293	231.88
627.499	215.88
627.706	224.88
627.912	214.88
628.119	213.88
628.325	219.88
628.532	222.88
628.738	205.88
628.945	223.88
629.151	228.88
629.357	208.88
629.564	210.88
629.77	212.88
629.976	201.88
630.183	206.88
630.389	209.88
630.595	203.88
630.802	226.88
631.008	204.88
631.214	190.88
631.42	204.88
631.627	218.88
631.833	194.88
632.039	210.88
632.245	198.88
632.451	207.88
632.657	192.88
632.863	206.88
633.069	199.88
633.275	204.88
633.481	187.88
633.688	190.88
633.893	216.88
634.099	201.88
634.305	195.88
634.511	194.88
634.717	204.88
634.923	189.88
635.129	193.88
635.335	188.88
635.541	183.88
635.747	184.88
635.952	192.88
636.158	181.88
636.364	211.88
636.57	174.88
636.775	189.88
636.981	195.88
637.187	181.88
637.392	194.88
637.598	200.88
637.804	194.88
638.009	195.88
638.215	169.88
638.421	186.88
638.626	180.88
638.832	189.88
639.037	204.88
639.243	191.88
639.448	169.88
639.654	190.88
639.859	184.88
640.065	172.88
640.27	180.88
640.475	188.88
640.681	192.88
640.886	196.88
641.091	173.88
641.297	188.88
641.502	192.88
641.707	185.88
641.913	180.88
642.118	179.88
642.323	185.88
642.528	187.88
642.733	184.88
642.939	166.88
643.144	192.88
643.349	174.88
643.554	176.88
643.759	167.88
643.964	176.88
644.169	171.88
644.374	164.88
644.579	173.88
644.784	170.88
644.989	175.88
645.194	173.88
645.399	166.88
645.604	172.88
645.809	182.88
646.014	162.88
646.219	174.88
646.423	175.88
646.628	169.88
646.833	166.88
647.038	187.88
647.243	168.88
647.447	177.88
647.652	199.88
647.857	178.88
648.062	176.88
648.266	172.88
648.471	187.88
648.676	173.88
648.88	184.88
649.085	180.88
649.289	179.88
649.494	172.88
649.698	195.88
649.903	189.88
650.107	179.88
650.312	180.88
650.516	190.88
650.721	171.88
650.925	160.88
651.13	165.88
651.334	165.88
651.539	150.88
651.743	176.88
651.947	153.88
652.152	157.88
652.356	162.88
652.56	149.88
652.764	140.88
652.969	162.88
653.173	160.88
653.377	138.88
653.581	142.88
653.785	152.88
653.99	133.88
654.194	152.88
654.398	135.88
654.602	138.88
654.806	150.88
655.01	148.88
655.214	138.88
655.418	156.88
655.622	132.88
655.826	136.88
656.03	141.88
656.234	162.88
656.438	142.88
656.642	136.88
656.846	151.88
657.049	148.88
657.253	125.88
657.457	123.88
657.661	121.88
657.865	117.88
658.068	124.88
658.272	109.88
658.476	109.88
658.68	121.88
658.883	104.88
659.087	105.88
659.291	106.88
659.494	103.88
659.698	103.88
659.901	88.88
660.105	90.88
660.309	104.88
660.512	86.88
660.716	85.88
660.919	94.88
661.123	112.88
661.326	88.88
661.53	97.88
661.733	106.88
661.936	92.88
662.14	92.88
662.343	90.88
662.546	77.88
662.75	101.88
662.953	98.88
663.156	94.88
663.36	90.88
663.563	86.88
663.766	89.88
663.969	79.88
664.173	91.88
664.376	89.88
664.579	99.88
664.782	87.88
664.985	80.88
665.188	87.88
665.391	94.88
665.594	81.88
665.797	77.88
666	80.88
666.203	86.88
666.406	70.88
666.609	74.88
666.812	93.88
667.015	89.88
667.218	96.88
667.421	84.88
667.624	88.88
667.827	79.88
668.03	95.88
668.232	97.88
668.435	86.88
668.638	83.88
668.841	83.88
669.043	81.88
669.246	93.88
669.449	69.88
669.651	68.88
669.854	77.88
670.057	99.88
670.259	80.88
670.462	88.88
670.665	89.88
670.867	90.88
671.07	91.88
671.272	92.88
671.475	80.88
671.677	78.88
671.88	77.88
672.082	89.88
672.284	84.88
672.487	87.88
672.689	85.88
672.892	84.88
