Data from 1976.PennyLincolnUp.Lamp.En5.5.200Scan.071719.P1.Changed Mount._HRD10591_16-02-24-862.txt Node
Date: Thu Jul 18 16:02:24 EDT 2019
User: cochatt
Spectrometer: HR+D1059
Trigger mode: 1
Integration Time (sec): 1.000000E-1
Scans to average: 1
Electric dark correction enabled: true
Nonlinearity correction enabled: false
Boxcar width: 0
XAxis mode: Wavelengths
Number of Pixels in Spectrum: 2048
>>>>>Begin Spectral Data<<<<<
223.165	-9.44
223.4	-9.44
223.635	-9.44
223.869	-29.44
224.104	-22.44
224.338	-5.44
224.573	-15.44
224.808	-22.44
225.042	-9.44
225.277	-15.44
225.511	1.56
225.746	5.56
225.98	20.56
226.215	12.56
226.449	7.56
226.683	22.56
226.918	25.56
227.152	33.56
227.387	53.56
227.621	44.56
227.856	40.56
228.09	45.56
228.324	39.56
228.559	38.56
228.793	71.56
229.027	100.56
229.262	85.56
229.496	112.56
229.73	124.56
229.964	156.56
230.199	152.56
230.433	123.56
230.667	96.56
230.901	96.56
231.136	118.56
231.37	120.56
231.604	126.56
231.838	103.56
232.072	109.56
232.306	122.56
232.541	108.56
232.775	124.56
233.009	126.56
233.243	106.56
233.477	112.56
233.711	116.56
233.945	127.56
234.179	125.56
234.413	128.56
234.647	122.56
234.881	130.56
235.115	123.56
235.349	132.56
235.583	118.56
235.817	126.56
236.051	127.56
236.285	128.56
236.519	131.56
236.753	136.56
236.987	160.56
237.221	183.56
237.455	229.56
237.689	199.56
237.922	137.56
238.156	135.56
238.39	142.56
238.624	123.56
238.858	118.56
239.091	122.56
239.325	129.56
239.559	136.56
239.793	141.56
240.027	133.56
240.26	156.56
240.494	174.56
240.728	155.56
240.961	162.56
241.195	156.56
241.429	140.56
241.662	137.56
241.896	134.56
242.13	134.56
242.363	145.56
242.597	135.56
242.83	142.56
243.064	135.56
243.298	154.56
243.531	156.56
243.765	141.56
243.998	154.56
244.232	151.56
244.465	158.56
244.699	154.56
244.932	160.56
245.166	159.56
245.399	146.56
245.633	172.56
245.866	152.56
246.099	170.56
246.333	158.56
246.566	164.56
246.8	146.56
247.033	153.56
247.266	167.56
247.5	174.56
247.733	173.56
247.966	188.56
248.2	178.56
248.433	172.56
248.666	171.56
248.899	195.56
249.133	232.56
249.366	219.56
249.599	209.56
249.832	199.56
250.066	195.56
250.299	179.56
250.532	206.56
250.765	207.56
250.998	228.56
251.231	242.56
251.465	243.56
251.698	217.56
251.931	204.56
252.164	196.56
252.397	203.56
252.63	223.56
252.863	220.56
253.096	214.56
253.329	239.56
253.562	231.56
253.795	241.56
254.028	228.56
254.261	229.56
254.494	220.56
254.727	266.56
254.96	296.56
255.193	301.56
255.426	276.56
255.659	271.56
255.892	239.56
256.124	236.56
256.357	250.56
256.59	254.56
256.823	221.56
257.056	236.56
257.289	224.56
257.521	218.56
257.754	209.56
257.987	227.56
258.22	219.56
258.452	198.56
258.685	215.56
258.918	215.56
259.151	225.56
259.383	234.56
259.616	231.56
259.849	240.56
260.081	241.56
260.314	277.56
260.547	276.56
260.779	262.56
261.012	244.56
261.244	247.56
261.477	228.56
261.71	227.56
261.942	241.56
262.175	244.56
262.407	230.56
262.64	244.56
262.872	233.56
263.105	217.56
263.337	228.56
263.57	222.56
263.802	243.56
264.035	225.56
264.267	228.56
264.499	226.56
264.732	224.56
264.964	225.56
265.197	240.56
265.429	249.56
265.661	233.56
265.894	222.56
266.126	242.56
266.358	231.56
266.591	238.56
266.823	232.56
267.055	246.56
267.287	254.56
267.52	245.56
267.752	235.56
267.984	249.56
268.216	252.56
268.448	239.56
268.681	265.56
268.913	271.56
269.145	286.56
269.377	292.56
269.609	298.56
269.841	302.56
270.073	293.56
270.306	310.56
270.538	336.56
270.77	339.56
271.002	326.56
271.234	310.56
271.466	302.56
271.698	315.56
271.93	324.56
272.162	341.56
272.394	313.56
272.626	328.56
272.858	311.56
273.09	305.56
273.322	286.56
273.553	292.56
273.785	309.56
274.017	299.56
274.249	271.56
274.481	271.56
274.713	273.56
274.945	300.56
275.176	301.56
275.408	303.56
275.64	283.56
275.872	290.56
276.104	279.56
276.335	282.56
276.567	284.56
276.799	296.56
277.031	337.56
277.262	337.56
277.494	339.56
277.726	319.56
277.957	311.56
278.189	313.56
278.421	294.56
278.652	292.56
278.884	302.56
279.115	301.56
279.347	303.56
279.579	292.56
279.81	292.56
280.042	298.56
280.273	299.56
280.505	281.56
280.736	316.56
280.968	303.56
281.199	293.56
281.431	296.56
281.662	301.56
281.894	317.56
282.125	311.56
282.356	315.56
282.588	334.56
282.819	335.56
283.051	327.56
283.282	308.56
283.513	316.56
283.745	323.56
283.976	296.56
284.207	318.56
284.439	311.56
284.67	317.56
284.901	293.56
285.132	313.56
285.364	309.56
285.595	325.56
285.826	295.56
286.057	304.56
286.288	311.56
286.52	304.56
286.751	299.56
286.982	336.56
287.213	327.56
287.444	332.56
287.675	326.56
287.906	335.56
288.138	334.56
288.369	334.56
288.6	351.56
288.831	332.56
289.062	348.56
289.293	345.56
289.524	328.56
289.755	313.56
289.986	325.56
290.217	334.56
290.448	328.56
290.679	313.56
290.91	315.56
291.141	323.56
291.371	304.56
291.602	337.56
291.833	304.56
292.064	310.56
292.295	321.56
292.526	343.56
292.757	328.56
292.987	317.56
293.218	317.56
293.449	321.56
293.68	323.56
293.91	336.56
294.141	326.56
294.372	312.56
294.603	343.56
294.833	334.56
295.064	321.56
295.295	335.56
295.525	328.56
295.756	344.56
295.987	327.56
296.217	353.56
296.448	357.56
296.679	341.56
296.909	332.56
297.14	336.56
297.37	349.56
297.601	357.56
297.831	337.56
298.062	340.56
298.292	334.56
298.523	351.56
298.753	339.56
298.984	345.56
299.214	366.56
299.445	356.56
299.675	345.56
299.905	353.56
300.136	343.56
300.366	335.56
300.597	331.56
300.827	374.56
301.057	353.56
301.288	358.56
301.518	363.56
301.748	362.56
301.979	357.56
302.209	341.56
302.439	385.56
302.669	362.56
302.9	351.56
303.13	339.56
303.36	351.56
303.59	357.56
303.82	374.56
304.051	373.56
304.281	382.56
304.511	371.56
304.741	380.56
304.971	359.56
305.201	368.56
305.431	383.56
305.661	374.56
305.891	363.56
306.121	345.56
306.352	377.56
306.582	361.56
306.812	387.56
307.042	357.56
307.272	362.56
307.502	365.56
307.731	366.56
307.961	376.56
308.191	338.56
308.421	383.56
308.651	375.56
308.881	353.56
309.111	385.56
309.341	387.56
309.571	381.56
309.8	401.56
310.03	403.56
310.26	396.56
310.49	395.56
310.72	402.56
310.949	415.56
311.179	432.56
311.409	395.56
311.639	391.56
311.868	409.56
312.098	410.56
312.328	438.56
312.557	439.56
312.787	442.56
313.017	427.56
313.246	425.56
313.476	401.56
313.706	404.56
313.935	413.56
314.165	413.56
314.394	444.56
314.624	454.56
314.853	414.56
315.083	423.56
315.312	395.56
315.542	399.56
315.771	392.56
316.001	405.56
316.23	376.56
316.46	408.56
316.689	413.56
316.919	414.56
317.148	423.56
317.377	426.56
317.607	424.56
317.836	405.56
318.065	411.56
318.295	413.56
318.524	416.56
318.753	417.56
318.983	395.56
319.212	400.56
319.441	395.56
319.67	421.56
319.9	426.56
320.129	415.56
320.358	428.56
320.587	401.56
320.816	424.56
321.046	431.56
321.275	444.56
321.504	417.56
321.733	428.56
321.962	436.56
322.191	450.56
322.42	455.56
322.649	480.56
322.878	480.56
323.108	460.56
323.337	491.56
323.566	513.56
323.795	548.56
324.024	573.56
324.253	656.56
324.482	911.56
324.71	1444.56
324.939	2138.56
325.168	1835.56
325.397	940.56
325.626	640.56
325.855	569.56
326.084	522.56
326.313	503.56
326.542	519.56
326.77	568.56
326.999	654.56
327.228	866.56
327.457	1287.56
327.686	1636.56
327.914	1075.56
328.143	693.56
328.372	620.56
328.6	587.56
328.829	559.56
329.058	549.56
329.287	601.56
329.515	574.56
329.744	552.56
329.972	534.56
330.201	541.56
330.43	574.56
330.658	604.56
330.887	624.56
331.115	612.56
331.344	546.56
331.572	540.56
331.801	509.56
332.03	531.56
332.258	512.56
332.486	492.56
332.715	522.56
332.943	476.56
333.172	493.56
333.4	510.56
333.629	528.56
333.857	523.56
334.085	544.56
334.314	547.56
334.542	588.56
334.771	576.56
334.999	563.56
335.227	539.56
335.455	504.56
335.684	504.56
335.912	517.56
336.14	486.56
336.369	486.56
336.597	496.56
336.825	503.56
337.053	505.56
337.281	480.56
337.51	475.56
337.738	486.56
337.966	471.56
338.194	487.56
338.422	484.56
338.65	480.56
338.878	480.56
339.106	480.56
339.334	472.56
339.562	481.56
339.79	456.56
340.018	464.56
340.246	475.56
340.474	465.56
340.702	497.56
340.93	460.56
341.158	459.56
341.386	454.56
341.614	468.56
341.842	461.56
342.07	459.56
342.298	454.56
342.526	460.56
342.754	457.56
342.981	468.56
343.209	443.56
343.437	458.56
343.665	466.56
343.893	472.56
344.12	470.56
344.348	504.56
344.576	465.56
344.804	488.56
345.031	468.56
345.259	494.56
345.487	473.56
345.714	481.56
345.942	469.56
346.17	469.56
346.397	461.56
346.625	462.56
346.853	467.56
347.08	448.56
347.308	455.56
347.535	444.56
347.763	463.56
347.99	479.56
348.218	457.56
348.445	466.56
348.673	457.56
348.9	455.56
349.128	448.56
349.355	436.56
349.583	431.56
349.81	449.56
350.037	436.56
350.265	432.56
350.492	466.56
350.72	435.56
350.947	439.56
351.174	458.56
351.402	441.56
351.629	460.56
351.856	446.56
352.083	453.56
352.311	443.56
352.538	464.56
352.765	464.56
352.992	434.56
353.22	459.56
353.447	445.56
353.674	463.56
353.901	431.56
354.128	451.56
354.355	426.56
354.583	421.56
354.81	435.56
355.037	427.56
355.264	439.56
355.491	431.56
355.718	429.56
355.945	432.56
356.172	426.56
356.399	420.56
356.626	442.56
356.853	441.56
357.08	415.56
357.307	428.56
357.534	424.56
357.761	419.56
357.988	429.56
358.215	421.56
358.441	430.56
358.668	423.56
358.895	419.56
359.122	422.56
359.349	445.56
359.576	425.56
359.802	452.56
360.029	478.56
360.256	485.56
360.483	461.56
360.709	451.56
360.936	471.56
361.163	446.56
361.39	418.56
361.616	458.56
361.843	452.56
362.07	477.56
362.296	419.56
362.523	432.56
362.749	449.56
362.976	441.56
363.203	432.56
363.429	433.56
363.656	438.56
363.882	419.56
364.109	429.56
364.335	424.56
364.562	438.56
364.788	449.56
365.015	421.56
365.241	432.56
365.468	425.56
365.694	448.56
365.92	441.56
366.147	454.56
366.373	443.56
366.599	447.56
366.826	435.56
367.052	410.56
367.278	437.56
367.505	413.56
367.731	448.56
367.957	425.56
368.184	447.56
368.41	459.56
368.636	444.56
368.862	444.56
369.089	435.56
369.315	424.56
369.541	451.56
369.767	437.56
369.993	454.56
370.219	436.56
370.445	425.56
370.672	437.56
370.898	419.56
371.124	448.56
371.35	424.56
371.576	479.56
371.802	445.56
372.028	407.56
372.254	437.56
372.48	431.56
372.706	433.56
372.932	435.56
373.158	429.56
373.384	453.56
373.61	446.56
373.835	423.56
374.061	436.56
374.287	436.56
374.513	448.56
374.739	445.56
374.965	438.56
375.191	451.56
375.416	460.56
375.642	442.56
375.868	445.56
376.094	447.56
376.319	444.56
376.545	439.56
376.771	443.56
376.997	419.56
377.222	426.56
377.448	448.56
377.674	427.56
377.899	430.56
378.125	441.56
378.35	441.56
378.576	432.56
378.802	445.56
379.027	431.56
379.253	457.56
379.478	414.56
379.704	406.56
379.929	423.56
380.155	425.56
380.38	433.56
380.606	423.56
380.831	460.56
381.057	444.56
381.282	439.56
381.507	446.56
381.733	457.56
381.958	455.56
382.184	452.56
382.409	442.56
382.634	451.56
382.86	432.56
383.085	457.56
383.31	425.56
383.535	448.56
383.761	447.56
383.986	438.56
384.211	483.56
384.436	455.56
384.662	477.56
384.887	479.56
385.112	488.56
385.337	463.56
385.562	471.56
385.787	468.56
386.013	473.56
386.238	496.56
386.463	492.56
386.688	463.56
386.913	486.56
387.138	470.56
387.363	495.56
387.588	494.56
387.813	492.56
388.038	478.56
388.263	470.56
388.488	471.56
388.713	491.56
388.938	490.56
389.163	487.56
389.387	477.56
389.612	488.56
389.837	472.56
390.062	474.56
390.287	507.56
390.512	486.56
390.736	492.56
390.961	473.56
391.186	500.56
391.411	485.56
391.636	491.56
391.86	481.56
392.085	499.56
392.31	495.56
392.534	509.56
392.759	496.56
392.984	500.56
393.208	490.56
393.433	492.56
393.658	487.56
393.882	489.56
394.107	479.56
394.331	483.56
394.556	511.56
394.78	506.56
395.005	505.56
395.229	482.56
395.454	508.56
395.678	524.56
395.903	532.56
396.127	558.56
396.352	540.56
396.576	522.56
396.801	502.56
397.025	506.56
397.249	503.56
397.474	525.56
397.698	520.56
397.922	531.56
398.147	548.56
398.371	571.56
398.595	547.56
398.82	557.56
399.044	571.56
399.268	596.56
399.492	633.56
399.717	707.56
399.941	724.56
400.165	726.56
400.389	701.56
400.613	642.56
400.837	609.56
401.062	569.56
401.286	567.56
401.51	547.56
401.734	569.56
401.958	574.56
402.182	551.56
402.406	569.56
402.63	580.56
402.854	573.56
403.078	577.56
403.302	588.56
403.526	609.56
403.75	595.56
403.974	600.56
404.198	575.56
404.422	598.56
404.645	610.56
404.869	604.56
405.093	654.56
405.317	682.56
405.541	717.56
405.765	627.56
405.988	612.56
406.212	601.56
406.436	671.56
406.66	643.56
406.883	644.56
407.107	668.56
407.331	691.56
407.555	796.56
407.778	743.56
408.002	699.56
408.226	635.56
408.449	666.56
408.673	625.56
408.896	663.56
409.12	719.56
409.344	672.56
409.567	614.56
409.791	598.56
410.014	592.56
410.238	596.56
410.461	597.56
410.685	612.56
410.908	598.56
411.132	639.56
411.355	657.56
411.578	649.56
411.802	585.56
412.025	578.56
412.249	608.56
412.472	603.56
412.695	689.56
412.919	621.56
413.142	612.56
413.365	563.56
413.589	573.56
413.812	564.56
414.035	551.56
414.258	532.56
414.482	548.56
414.705	571.56
414.928	533.56
415.151	557.56
415.374	534.56
415.597	560.56
415.821	564.56
416.044	541.56
416.267	551.56
416.49	567.56
416.713	549.56
416.936	558.56
417.159	537.56
417.382	563.56
417.605	570.56
417.828	564.56
418.051	588.56
418.274	564.56
418.497	555.56
418.72	584.56
418.943	565.56
419.166	585.56
419.389	620.56
419.611	591.56
419.834	564.56
420.057	583.56
420.28	562.56
420.503	560.56
420.726	565.56
420.948	592.56
421.171	599.56
421.394	643.56
421.617	585.56
421.839	587.56
422.062	581.56
422.285	599.56
422.507	609.56
422.73	751.56
422.953	713.56
423.175	624.56
423.398	611.56
423.621	604.56
423.843	612.56
424.066	630.56
424.288	607.56
424.511	649.56
424.733	681.56
424.956	797.56
425.178	747.56
425.401	726.56
425.623	771.56
425.846	633.56
426.068	622.56
426.291	589.56
426.513	589.56
426.735	614.56
426.958	655.56
427.18	739.56
427.402	863.56
427.625	962.56
427.847	820.56
428.069	735.56
428.292	634.56
428.514	583.56
428.736	569.56
428.958	567.56
429.181	564.56
429.403	562.56
429.625	554.56
429.847	600.56
430.069	651.56
430.292	691.56
430.514	577.56
430.736	582.56
430.958	548.56
431.18	519.56
431.402	555.56
431.624	518.56
431.846	536.56
432.068	518.56
432.29	565.56
432.512	535.56
432.734	549.56
432.956	537.56
433.178	560.56
433.4	558.56
433.622	547.56
433.844	548.56
434.066	540.56
434.287	540.56
434.509	555.56
434.731	570.56
434.953	568.56
435.175	579.56
435.397	615.56
435.618	610.56
435.84	651.56
436.062	726.56
436.284	829.56
436.505	684.56
436.727	609.56
436.949	575.56
437.17	591.56
437.392	568.56
437.614	563.56
437.835	574.56
438.057	681.56
438.278	813.56
438.5	806.56
438.721	883.56
438.943	844.56
439.165	657.56
439.386	625.56
439.608	623.56
439.829	614.56
440.05	623.56
440.272	671.56
440.493	647.56
440.715	602.56
440.936	585.56
441.158	567.56
441.379	571.56
441.6	606.56
441.822	599.56
442.043	622.56
442.264	731.56
442.486	777.56
442.707	653.56
442.928	629.56
443.149	641.56
443.371	653.56
443.592	713.56
443.813	802.56
444.034	887.56
444.255	724.56
444.476	653.56
444.698	653.56
444.919	621.56
445.14	729.56
445.361	691.56
445.582	638.56
445.803	725.56
446.024	832.56
446.245	853.56
446.466	763.56
446.687	631.56
446.908	606.56
447.129	589.56
447.35	564.56
447.571	562.56
447.792	536.56
448.013	554.56
448.234	571.56
448.455	627.56
448.675	743.56
448.896	871.56
449.117	744.56
449.338	696.56
449.559	793.56
449.779	903.56
450	727.56
450.221	610.56
450.442	550.56
450.662	548.56
450.883	544.56
451.104	539.56
451.324	529.56
451.545	523.56
451.766	518.56
451.986	513.56
452.207	476.56
452.428	483.56
452.648	511.56
452.869	507.56
453.089	505.56
453.31	501.56
453.53	508.56
453.751	501.56
453.971	516.56
454.192	507.56
454.412	510.56
454.633	490.56
454.853	484.56
455.073	479.56
455.294	525.56
455.514	565.56
455.734	541.56
455.955	497.56
456.175	470.56
456.395	471.56
456.616	464.56
456.836	481.56
457.056	474.56
457.276	462.56
457.497	473.56
457.717	464.56
457.937	465.56
458.157	483.56
458.377	488.56
458.598	483.56
458.818	535.56
459.038	633.56
459.258	648.56
459.478	576.56
459.698	547.56
459.918	535.56
460.138	515.56
460.358	535.56
460.578	550.56
460.798	537.56
461.018	558.56
461.238	550.56
461.458	552.56
461.678	548.56
461.898	571.56
462.118	549.56
462.338	565.56
462.558	582.56
462.777	598.56
462.997	602.56
463.217	635.56
463.437	635.56
463.657	604.56
463.876	609.56
464.096	603.56
464.316	593.56
464.536	615.56
464.755	592.56
464.975	604.56
465.195	615.56
465.414	676.56
465.634	608.56
465.854	543.56
466.073	556.56
466.293	527.56
466.512	524.56
466.732	512.56
466.951	500.56
467.171	503.56
467.391	516.56
467.61	527.56
467.829	533.56
468.049	515.56
468.268	512.56
468.488	506.56
468.707	500.56
468.927	502.56
469.146	476.56
469.365	503.56
469.585	479.56
469.804	513.56
470.023	532.56
470.243	511.56
470.462	533.56
470.681	545.56
470.901	523.56
471.12	535.56
471.339	527.56
471.558	520.56
471.777	519.56
471.997	493.56
472.216	526.56
472.435	544.56
472.654	531.56
472.873	537.56
473.092	506.56
473.311	509.56
473.53	517.56
473.749	529.56
473.968	539.56
474.187	665.56
474.406	673.56
474.625	565.56
474.844	549.56
475.063	517.56
475.282	511.56
475.501	521.56
475.72	524.56
475.939	523.56
476.158	516.56
476.377	533.56
476.596	529.56
476.814	537.56
477.033	558.56
477.252	533.56
477.471	533.56
477.69	558.56
477.908	544.56
478.127	552.56
478.346	564.56
478.564	570.56
478.783	578.56
479.002	597.56
479.22	597.56
479.439	611.56
479.658	628.56
479.876	617.56
480.095	643.56
480.313	669.56
480.532	657.56
480.751	638.56
480.969	635.56
481.188	672.56
481.406	704.56
481.624	631.56
481.843	620.56
482.061	608.56
482.28	598.56
482.498	605.56
482.717	585.56
482.935	583.56
483.153	589.56
483.372	605.56
483.59	604.56
483.808	618.56
484.027	597.56
484.245	621.56
484.463	602.56
484.681	619.56
484.9	609.56
485.118	615.56
485.336	597.56
485.554	624.56
485.772	605.56
485.99	627.56
486.209	651.56
486.427	625.56
486.645	637.56
486.863	651.56
487.081	647.56
487.299	639.56
487.517	643.56
487.735	640.56
487.953	627.56
488.171	651.56
488.389	639.56
488.607	640.56
488.825	653.56
489.043	657.56
489.261	653.56
489.479	653.56
489.696	657.56
489.914	667.56
490.132	671.56
490.35	671.56
490.568	681.56
490.786	673.56
491.003	699.56
491.221	718.56
491.439	724.56
491.657	716.56
491.874	725.56
492.092	711.56
492.31	740.56
492.527	737.56
492.745	733.56
492.963	750.56
493.18	759.56
493.398	736.56
493.615	757.56
493.833	780.56
494.05	756.56
494.268	730.56
494.485	746.56
494.703	756.56
494.92	745.56
495.138	739.56
495.355	777.56
495.573	765.56
495.79	756.56
496.008	769.56
496.225	749.56
496.442	749.56
496.66	759.56
496.877	788.56
497.094	771.56
497.312	797.56
497.529	784.56
497.746	817.56
497.963	834.56
498.181	857.56
498.398	848.56
498.615	891.56
498.832	885.56
499.049	917.56
499.267	940.56
499.484	960.56
499.701	1032.56
499.918	1075.56
500.135	1081.56
500.352	1196.56
500.569	1199.56
500.786	1210.56
501.003	1183.56
501.22	1132.56
501.437	1083.56
501.654	1019.56
501.871	1006.56
502.088	975.56
502.305	924.56
502.522	917.56
502.739	876.56
502.956	867.56
503.172	822.56
503.389	793.56
503.606	792.56
503.823	789.56
504.04	789.56
504.256	780.56
504.473	784.56
504.69	815.56
504.907	766.56
505.123	746.56
505.34	756.56
505.557	721.56
505.773	752.56
505.99	759.56
506.207	715.56
506.423	718.56
506.64	691.56
506.856	716.56
507.073	732.56
507.289	685.56
507.506	688.56
507.722	696.56
507.939	718.56
508.155	672.56
508.372	691.56
508.588	671.56
508.805	671.56
509.021	694.56
509.238	685.56
509.454	687.56
509.67	679.56
509.887	649.56
510.103	650.56
510.319	662.56
510.536	746.56
510.752	1090.56
510.968	935.56
511.184	677.56
511.401	653.56
511.617	662.56
511.833	657.56
512.049	641.56
512.265	624.56
512.481	629.56
512.698	623.56
512.914	616.56
513.13	627.56
513.346	637.56
513.562	635.56
513.778	622.56
513.994	653.56
514.21	641.56
514.426	674.56
514.642	698.56
514.858	707.56
515.074	708.56
515.29	833.56
515.506	1115.56
515.721	972.56
515.937	764.56
516.153	669.56
516.369	656.56
516.585	686.56
516.801	674.56
517.016	663.56
517.232	677.56
517.448	681.56
517.664	707.56
517.879	685.56
518.095	678.56
518.311	671.56
518.527	672.56
518.742	687.56
518.958	646.56
519.173	657.56
519.389	643.56
519.605	630.56
519.82	632.56
520.036	643.56
520.251	627.56
520.467	675.56
520.682	674.56
520.898	704.56
521.113	687.56
521.329	716.56
521.544	775.56
521.76	935.56
521.975	1407.56
522.19	1379.56
522.406	833.56
522.621	679.56
522.836	609.56
523.052	611.56
523.267	589.56
523.482	567.56
523.698	582.56
523.913	593.56
524.128	588.56
524.343	558.56
524.559	556.56
524.774	556.56
524.989	555.56
525.204	557.56
525.419	546.56
525.634	522.56
525.849	541.56
526.064	523.56
526.28	527.56
526.495	534.56
526.71	534.56
526.925	535.56
527.14	537.56
527.355	526.56
527.57	512.56
527.785	511.56
527.999	495.56
528.214	517.56
528.429	523.56
528.644	542.56
528.859	539.56
529.074	534.56
529.289	537.56
529.503	619.56
529.718	577.56
529.933	535.56
530.148	539.56
530.363	544.56
530.577	533.56
530.792	507.56
531.007	533.56
531.221	529.56
531.436	529.56
531.651	518.56
531.865	521.56
532.08	491.56
532.295	480.56
532.509	511.56
532.724	503.56
532.938	503.56
533.153	492.56
533.367	501.56
533.582	469.56
533.796	508.56
534.011	501.56
534.225	490.56
534.44	499.56
534.654	507.56
534.868	499.56
535.083	485.56
535.297	511.56
535.511	503.56
535.726	540.56
535.94	513.56
536.154	519.56
536.369	501.56
536.583	483.56
536.797	466.56
537.011	491.56
537.225	503.56
537.44	476.56
537.654	481.56
537.868	496.56
538.082	481.56
538.296	506.56
538.51	477.56
538.724	493.56
538.938	499.56
539.153	470.56
539.367	502.56
539.581	499.56
539.795	460.56
540.009	483.56
540.222	495.56
540.436	473.56
540.65	478.56
540.864	486.56
541.078	486.56
541.292	490.56
541.506	486.56
541.72	490.56
541.934	489.56
542.147	498.56
542.361	473.56
542.575	475.56
542.789	478.56
543.002	484.56
543.216	483.56
543.43	487.56
543.644	489.56
543.857	489.56
544.071	500.56
544.285	499.56
544.498	461.56
544.712	469.56
544.925	490.56
545.139	465.56
545.352	480.56
545.566	455.56
545.779	471.56
545.993	482.56
546.206	488.56
546.42	472.56
546.633	467.56
546.847	485.56
547.06	471.56
547.274	460.56
547.487	476.56
547.7	469.56
547.914	475.56
548.127	471.56
548.34	476.56
548.554	472.56
548.767	470.56
548.98	479.56
549.193	472.56
549.407	479.56
549.62	489.56
549.833	478.56
550.046	502.56
550.259	483.56
550.473	465.56
550.686	467.56
550.899	485.56
551.112	453.56
551.325	471.56
551.538	464.56
551.751	455.56
551.964	462.56
552.177	470.56
552.39	472.56
552.603	464.56
552.816	470.56
553.029	485.56
553.242	471.56
553.455	484.56
553.667	479.56
553.88	506.56
554.093	472.56
554.306	480.56
554.519	464.56
554.732	461.56
554.944	459.56
555.157	454.56
555.37	451.56
555.583	452.56
555.795	441.56
556.008	432.56
556.221	448.56
556.433	420.56
556.646	431.56
556.859	425.56
557.071	437.56
557.284	417.56
557.496	416.56
557.709	435.56
557.921	435.56
558.134	414.56
558.346	408.56
558.559	422.56
558.771	431.56
558.984	402.56
559.196	425.56
559.409	410.56
559.621	420.56
559.833	437.56
560.046	424.56
560.258	413.56
560.47	414.56
560.683	384.56
560.895	407.56
561.107	423.56
561.32	410.56
561.532	426.56
561.744	407.56
561.956	445.56
562.168	405.56
562.381	428.56
562.593	402.56
562.805	420.56
563.017	398.56
563.229	428.56
563.441	407.56
563.653	422.56
563.865	417.56
564.077	432.56
564.289	411.56
564.501	424.56
564.713	443.56
564.925	445.56
565.137	444.56
565.349	449.56
565.561	454.56
565.773	471.56
565.985	460.56
566.197	525.56
566.408	501.56
566.62	529.56
566.832	540.56
567.044	547.56
567.255	549.56
567.467	566.56
567.679	568.56
567.891	574.56
568.102	589.56
568.314	565.56
568.526	542.56
568.737	531.56
568.949	499.56
569.161	463.56
569.372	480.56
569.584	435.56
569.795	443.56
570.007	454.56
570.218	479.56
570.43	439.56
570.641	424.56
570.853	426.56
571.064	431.56
571.276	400.56
571.487	400.56
571.698	393.56
571.91	398.56
572.121	391.56
572.333	398.56
572.544	383.56
572.755	377.56
572.966	379.56
573.178	358.56
573.389	385.56
573.6	366.56
573.811	366.56
574.023	346.56
574.234	349.56
574.445	359.56
574.656	364.56
574.867	341.56
575.078	359.56
575.289	355.56
575.501	378.56
575.712	365.56
575.923	366.56
576.134	352.56
576.345	343.56
576.556	355.56
576.767	351.56
576.978	331.56
577.188	342.56
577.399	337.56
577.61	347.56
577.821	335.56
578.032	357.56
578.243	358.56
578.454	519.56
578.665	428.56
578.875	350.56
579.086	323.56
579.297	333.56
579.508	360.56
579.718	341.56
579.929	310.56
580.14	315.56
580.35	340.56
580.561	349.56
580.772	321.56
580.982	331.56
581.193	333.56
581.403	321.56
581.614	333.56
581.825	331.56
582.035	340.56
582.246	335.56
582.456	313.56
582.667	314.56
582.877	335.56
583.087	333.56
583.298	328.56
583.508	328.56
583.719	296.56
583.929	336.56
584.139	314.56
584.35	319.56
584.56	315.56
584.77	335.56
584.981	335.56
585.191	333.56
585.401	327.56
585.611	325.56
585.821	330.56
586.032	318.56
586.242	326.56
586.452	320.56
586.662	329.56
586.872	320.56
587.082	311.56
587.292	309.56
587.502	318.56
587.713	328.56
587.923	298.56
588.133	311.56
588.343	320.56
588.553	292.56
588.762	337.56
588.972	302.56
589.182	319.56
589.392	304.56
589.602	323.56
589.812	323.56
590.022	355.56
590.232	315.56
590.441	310.56
590.651	312.56
590.861	313.56
591.071	321.56
591.281	314.56
591.49	325.56
591.7	320.56
591.91	323.56
592.119	350.56
592.329	331.56
592.539	351.56
592.748	347.56
592.958	350.56
593.167	346.56
593.377	350.56
593.587	360.56
593.796	362.56
594.006	338.56
594.215	357.56
594.424	343.56
594.634	329.56
594.843	328.56
595.053	321.56
595.262	323.56
595.472	310.56
595.681	313.56
595.89	313.56
596.1	301.56
596.309	305.56
596.518	324.56
596.727	299.56
596.937	302.56
597.146	293.56
597.355	280.56
597.564	281.56
597.774	307.56
597.983	288.56
598.192	301.56
598.401	291.56
598.61	293.56
598.819	290.56
599.028	300.56
599.237	296.56
599.446	278.56
599.655	265.56
599.864	271.56
600.073	284.56
600.282	279.56
600.491	281.56
600.7	286.56
600.909	283.56
601.118	281.56
601.327	253.56
601.536	263.56
601.745	285.56
601.953	278.56
602.162	271.56
602.371	281.56
602.58	292.56
602.789	276.56
602.997	280.56
603.206	266.56
603.415	277.56
603.623	267.56
603.832	271.56
604.041	294.56
604.249	271.56
604.458	253.56
604.666	265.56
604.875	245.56
605.084	263.56
605.292	268.56
605.501	279.56
605.709	257.56
605.918	281.56
606.126	271.56
606.334	265.56
606.543	272.56
606.751	257.56
606.96	266.56
607.168	265.56
607.376	270.56
607.585	269.56
607.793	267.56
608.001	257.56
608.21	261.56
608.418	264.56
608.626	248.56
608.834	267.56
609.043	261.56
609.251	250.56
609.459	259.56
609.667	260.56
609.875	262.56
610.083	245.56
610.291	281.56
610.499	263.56
610.707	259.56
610.916	248.56
611.124	267.56
611.332	259.56
611.54	251.56
611.748	254.56
611.955	271.56
612.163	240.56
612.371	263.56
612.579	272.56
612.787	254.56
612.995	260.56
613.203	275.56
613.411	252.56
613.618	261.56
613.826	261.56
614.034	247.56
614.242	257.56
614.449	253.56
614.657	251.56
614.865	264.56
615.072	249.56
615.28	272.56
615.488	272.56
615.695	255.56
615.903	244.56
616.111	265.56
616.318	270.56
616.526	262.56
616.733	240.56
616.941	246.56
617.148	225.56
617.356	253.56
617.563	272.56
617.771	252.56
617.978	252.56
618.185	250.56
618.393	249.56
618.6	256.56
618.807	260.56
619.015	263.56
619.222	245.56
619.429	239.56
619.637	257.56
619.844	234.56
620.051	233.56
620.258	239.56
620.466	228.56
620.673	229.56
620.88	236.56
621.087	220.56
621.294	233.56
621.501	236.56
621.708	242.56
621.915	249.56
622.122	227.56
622.329	238.56
622.536	236.56
622.743	228.56
622.95	236.56
623.157	234.56
623.364	226.56
623.571	235.56
623.778	226.56
623.985	245.56
624.192	219.56
624.399	215.56
624.606	224.56
624.812	218.56
625.019	238.56
625.226	232.56
625.433	228.56
625.639	218.56
625.846	222.56
626.053	247.56
626.259	214.56
626.466	216.56
626.673	221.56
626.879	231.56
627.086	223.56
627.293	213.56
627.499	222.56
627.706	210.56
627.912	228.56
628.119	229.56
628.325	219.56
628.532	215.56
628.738	221.56
628.945	215.56
629.151	222.56
629.357	211.56
629.564	198.56
629.77	231.56
629.976	213.56
630.183	209.56
630.389	199.56
630.595	213.56
630.802	215.56
631.008	205.56
631.214	205.56
631.42	194.56
631.627	195.56
631.833	192.56
632.039	199.56
632.245	207.56
632.451	190.56
632.657	195.56
632.863	183.56
633.069	205.56
633.275	204.56
633.481	199.56
633.688	208.56
633.893	213.56
634.099	189.56
634.305	186.56
634.511	179.56
634.717	183.56
634.923	185.56
635.129	188.56
635.335	199.56
635.541	201.56
635.747	215.56
635.952	196.56
636.158	191.56
636.364	193.56
636.57	202.56
636.775	195.56
636.981	192.56
637.187	190.56
637.392	193.56
637.598	201.56
637.804	180.56
638.009	191.56
638.215	187.56
638.421	170.56
638.626	185.56
638.832	183.56
639.037	184.56
639.243	193.56
639.448	195.56
639.654	181.56
639.859	187.56
640.065	195.56
640.27	191.56
640.475	172.56
640.681	199.56
640.886	188.56
641.091	190.56
641.297	181.56
641.502	192.56
641.707	180.56
641.913	182.56
642.118	174.56
642.323	175.56
642.528	182.56
642.733	196.56
642.939	164.56
643.144	176.56
643.349	193.56
643.554	182.56
643.759	187.56
643.964	175.56
644.169	169.56
644.374	173.56
644.579	184.56
644.784	173.56
644.989	189.56
645.194	174.56
645.399	165.56
645.604	178.56
645.809	183.56
646.014	184.56
646.219	165.56
646.423	167.56
646.628	175.56
646.833	174.56
647.038	187.56
647.243	176.56
647.447	176.56
647.652	172.56
647.857	176.56
648.062	201.56
648.266	170.56
648.471	172.56
648.676	180.56
648.88	189.56
649.085	191.56
649.289	175.56
649.494	189.56
649.698	186.56
649.903	195.56
650.107	182.56
650.312	180.56
650.516	184.56
650.721	164.56
650.925	157.56
651.13	153.56
651.334	169.56
651.539	170.56
651.743	158.56
651.947	150.56
652.152	166.56
652.356	156.56
652.56	156.56
652.764	148.56
652.969	154.56
653.173	152.56
653.377	165.56
653.581	160.56
653.785	151.56
653.99	157.56
654.194	157.56
654.398	140.56
654.602	129.56
654.806	132.56
655.01	142.56
655.214	143.56
655.418	155.56
655.622	150.56
655.826	135.56
656.03	138.56
656.234	150.56
656.438	143.56
656.642	144.56
656.846	154.56
657.049	144.56
657.253	133.56
657.457	126.56
657.661	115.56
657.865	112.56
658.068	107.56
658.272	127.56
658.476	128.56
658.68	121.56
658.883	108.56
659.087	106.56
659.291	112.56
659.494	117.56
659.698	88.56
659.901	105.56
660.105	121.56
660.309	105.56
660.512	99.56
660.716	95.56
660.919	99.56
661.123	107.56
661.326	104.56
661.53	92.56
661.733	99.56
661.936	87.56
662.14	91.56
662.343	99.56
662.546	84.56
662.75	86.56
662.953	107.56
663.156	81.56
663.36	91.56
663.563	97.56
663.766	86.56
663.969	85.56
664.173	81.56
664.376	88.56
664.579	87.56
664.782	93.56
664.985	97.56
665.188	87.56
665.391	82.56
665.594	96.56
665.797	82.56
666	88.56
666.203	70.56
666.406	84.56
666.609	92.56
666.812	87.56
667.015	81.56
667.218	90.56
667.421	87.56
667.624	81.56
667.827	86.56
668.03	75.56
668.232	83.56
668.435	100.56
668.638	87.56
668.841	85.56
669.043	91.56
669.246	85.56
669.449	86.56
669.651	73.56
669.854	79.56
670.057	86.56
670.259	86.56
670.462	101.56
670.665	93.56
670.867	87.56
671.07	91.56
671.272	82.56
671.475	100.56
671.677	89.56
671.88	82.56
672.082	105.56
672.284	85.56
672.487	76.56
672.689	93.56
672.892	81.56
