Data from 1976.PennyLincolnUp.Lamp.En5.5.200Scan.071719.P1.Changed Mount._HRD10591_16-00-28-861.txt Node
Date: Thu Jul 18 16:00:28 EDT 2019
User: cochatt
Spectrometer: HR+D1059
Trigger mode: 1
Integration Time (sec): 1.000000E-1
Scans to average: 1
Electric dark correction enabled: true
Nonlinearity correction enabled: false
Boxcar width: 0
XAxis mode: Wavelengths
Number of Pixels in Spectrum: 2048
>>>>>Begin Spectral Data<<<<<
223.165	-5.62
223.4	-5.62
223.635	-5.62
223.869	-9.62
224.104	-24.62
224.338	-23.62
224.573	-23.62
224.808	-8.62
225.042	4.38
225.277	4.38
225.511	15.38
225.746	9.38
225.98	4.38
226.215	3.38
226.449	12.38
226.683	11.38
226.918	12.38
227.152	18.38
227.387	39.38
227.621	34.38
227.856	53.38
228.09	43.38
228.324	60.38
228.559	70.38
228.793	62.38
229.027	96.38
229.262	103.38
229.496	122.38
229.73	139.38
229.964	150.38
230.199	132.38
230.433	115.38
230.667	109.38
230.901	123.38
231.136	103.38
231.37	115.38
231.604	119.38
231.838	110.38
232.072	122.38
232.306	104.38
232.541	115.38
232.775	106.38
233.009	122.38
233.243	127.38
233.477	108.38
233.711	124.38
233.945	123.38
234.179	120.38
234.413	117.38
234.647	126.38
234.881	126.38
235.115	131.38
235.349	134.38
235.583	118.38
235.817	130.38
236.051	123.38
236.285	133.38
236.519	119.38
236.753	122.38
236.987	154.38
237.221	172.38
237.455	214.38
237.689	186.38
237.922	153.38
238.156	134.38
238.39	138.38
238.624	136.38
238.858	142.38
239.091	130.38
239.325	120.38
239.559	133.38
239.793	126.38
240.027	143.38
240.26	149.38
240.494	166.38
240.728	151.38
240.961	141.38
241.195	149.38
241.429	161.38
241.662	146.38
241.896	148.38
242.13	143.38
242.363	146.38
242.597	136.38
242.83	146.38
243.064	143.38
243.298	142.38
243.531	137.38
243.765	142.38
243.998	153.38
244.232	157.38
244.465	159.38
244.699	147.38
244.932	155.38
245.166	132.38
245.399	157.38
245.633	156.38
245.866	158.38
246.099	142.38
246.333	147.38
246.566	163.38
246.8	159.38
247.033	170.38
247.266	156.38
247.5	174.38
247.733	175.38
247.966	175.38
248.2	184.38
248.433	166.38
248.666	170.38
248.899	179.38
249.133	210.38
249.366	198.38
249.599	194.38
249.832	195.38
250.066	181.38
250.299	176.38
250.532	191.38
250.765	202.38
250.998	208.38
251.231	225.38
251.465	207.38
251.698	212.38
251.931	202.38
252.164	203.38
252.397	196.38
252.63	207.38
252.863	202.38
253.096	210.38
253.329	254.38
253.562	223.38
253.795	226.38
254.028	235.38
254.261	217.38
254.494	231.38
254.727	252.38
254.96	276.38
255.193	269.38
255.426	253.38
255.659	240.38
255.892	255.38
256.124	252.38
256.357	231.38
256.59	227.38
256.823	211.38
257.056	206.38
257.289	226.38
257.521	207.38
257.754	216.38
257.987	227.38
258.22	217.38
258.452	221.38
258.685	217.38
258.918	209.38
259.151	215.38
259.383	231.38
259.616	211.38
259.849	212.38
260.081	242.38
260.314	261.38
260.547	267.38
260.779	255.38
261.012	242.38
261.244	236.38
261.477	228.38
261.71	238.38
261.942	236.38
262.175	231.38
262.407	229.38
262.64	207.38
262.872	210.38
263.105	233.38
263.337	210.38
263.57	215.38
263.802	217.38
264.035	219.38
264.267	230.38
264.499	214.38
264.732	217.38
264.964	204.38
265.197	227.38
265.429	206.38
265.661	230.38
265.894	227.38
266.126	232.38
266.358	227.38
266.591	222.38
266.823	234.38
267.055	226.38
267.287	229.38
267.52	227.38
267.752	227.38
267.984	226.38
268.216	242.38
268.448	251.38
268.681	253.38
268.913	259.38
269.145	266.38
269.377	280.38
269.609	288.38
269.841	272.38
270.073	280.38
270.306	292.38
270.538	309.38
270.77	327.38
271.002	307.38
271.234	310.38
271.466	313.38
271.698	308.38
271.93	332.38
272.162	330.38
272.394	328.38
272.626	332.38
272.858	315.38
273.09	290.38
273.322	292.38
273.553	281.38
273.785	283.38
274.017	281.38
274.249	279.38
274.481	279.38
274.713	250.38
274.945	260.38
275.176	262.38
275.408	287.38
275.64	281.38
275.872	285.38
276.104	275.38
276.335	281.38
276.567	270.38
276.799	282.38
277.031	322.38
277.262	305.38
277.494	338.38
277.726	332.38
277.957	299.38
278.189	302.38
278.421	292.38
278.652	280.38
278.884	277.38
279.115	290.38
279.347	287.38
279.579	290.38
279.81	278.38
280.042	279.38
280.273	282.38
280.505	295.38
280.736	298.38
280.968	288.38
281.199	289.38
281.431	270.38
281.662	292.38
281.894	301.38
282.125	294.38
282.356	295.38
282.588	321.38
282.819	312.38
283.051	304.38
283.282	312.38
283.513	290.38
283.745	313.38
283.976	304.38
284.207	299.38
284.439	289.38
284.67	294.38
284.901	291.38
285.132	291.38
285.364	285.38
285.595	287.38
285.826	295.38
286.057	310.38
286.288	292.38
286.52	296.38
286.751	298.38
286.982	314.38
287.213	310.38
287.444	304.38
287.675	332.38
287.906	322.38
288.138	323.38
288.369	345.38
288.6	321.38
288.831	321.38
289.062	324.38
289.293	286.38
289.524	306.38
289.755	315.38
289.986	308.38
290.217	317.38
290.448	326.38
290.679	312.38
290.91	299.38
291.141	308.38
291.371	308.38
291.602	315.38
291.833	311.38
292.064	317.38
292.295	304.38
292.526	307.38
292.757	300.38
292.987	304.38
293.218	319.38
293.449	348.38
293.68	318.38
293.91	306.38
294.141	323.38
294.372	312.38
294.603	329.38
294.833	320.38
295.064	307.38
295.295	298.38
295.525	323.38
295.756	301.38
295.987	331.38
296.217	362.38
296.448	353.38
296.679	320.38
296.909	331.38
297.14	322.38
297.37	312.38
297.601	330.38
297.831	326.38
298.062	340.38
298.292	339.38
298.523	333.38
298.753	324.38
298.984	335.38
299.214	335.38
299.445	349.38
299.675	344.38
299.905	335.38
300.136	340.38
300.366	329.38
300.597	337.38
300.827	320.38
301.057	340.38
301.288	339.38
301.518	352.38
301.748	365.38
301.979	346.38
302.209	361.38
302.439	358.38
302.669	348.38
302.9	358.38
303.13	354.38
303.36	354.38
303.59	358.38
303.82	372.38
304.051	348.38
304.281	352.38
304.511	356.38
304.741	338.38
304.971	343.38
305.201	335.38
305.431	354.38
305.661	368.38
305.891	347.38
306.121	347.38
306.352	365.38
306.582	360.38
306.812	367.38
307.042	354.38
307.272	369.38
307.502	361.38
307.731	377.38
307.961	329.38
308.191	346.38
308.421	342.38
308.651	350.38
308.881	363.38
309.111	362.38
309.341	363.38
309.571	359.38
309.8	365.38
310.03	364.38
310.26	361.38
310.49	378.38
310.72	394.38
310.949	412.38
311.179	403.38
311.409	390.38
311.639	384.38
311.868	384.38
312.098	397.38
312.328	401.38
312.557	390.38
312.787	425.38
313.017	400.38
313.246	410.38
313.476	405.38
313.706	401.38
313.935	421.38
314.165	417.38
314.394	398.38
314.624	406.38
314.853	400.38
315.083	408.38
315.312	383.38
315.542	402.38
315.771	382.38
316.001	378.38
316.23	376.38
316.46	396.38
316.689	401.38
316.919	400.38
317.148	387.38
317.377	409.38
317.607	409.38
317.836	407.38
318.065	386.38
318.295	394.38
318.524	400.38
318.753	389.38
318.983	390.38
319.212	400.38
319.441	407.38
319.67	406.38
319.9	410.38
320.129	394.38
320.358	403.38
320.587	403.38
320.816	393.38
321.046	406.38
321.275	413.38
321.504	398.38
321.733	414.38
321.962	408.38
322.191	427.38
322.42	427.38
322.649	436.38
322.878	458.38
323.108	454.38
323.337	482.38
323.566	488.38
323.795	510.38
324.024	524.38
324.253	592.38
324.482	818.38
324.71	1261.38
324.939	1814.38
325.168	1596.38
325.397	834.38
325.626	588.38
325.855	517.38
326.084	494.38
326.313	471.38
326.542	460.38
326.77	506.38
326.999	564.38
327.228	774.38
327.457	1149.38
327.686	1398.38
327.914	954.38
328.143	649.38
328.372	574.38
328.6	549.38
328.829	526.38
329.058	549.38
329.287	562.38
329.515	532.38
329.744	516.38
329.972	500.38
330.201	514.38
330.43	556.38
330.658	566.38
330.887	570.38
331.115	557.38
331.344	511.38
331.572	511.38
331.801	504.38
332.03	490.38
332.258	479.38
332.486	476.38
332.715	482.38
332.943	480.38
333.172	490.38
333.4	494.38
333.629	488.38
333.857	493.38
334.085	528.38
334.314	534.38
334.542	550.38
334.771	554.38
334.999	524.38
335.227	483.38
335.455	494.38
335.684	471.38
335.912	474.38
336.14	467.38
336.369	454.38
336.597	465.38
336.825	473.38
337.053	459.38
337.281	471.38
337.51	464.38
337.738	462.38
337.966	467.38
338.194	463.38
338.422	474.38
338.65	453.38
338.878	458.38
339.106	450.38
339.334	453.38
339.562	446.38
339.79	426.38
340.018	450.38
340.246	457.38
340.474	459.38
340.702	449.38
340.93	453.38
341.158	449.38
341.386	433.38
341.614	436.38
341.842	470.38
342.07	460.38
342.298	431.38
342.526	435.38
342.754	432.38
342.981	432.38
343.209	448.38
343.437	456.38
343.665	470.38
343.893	468.38
344.12	469.38
344.348	466.38
344.576	471.38
344.804	462.38
345.031	455.38
345.259	451.38
345.487	445.38
345.714	459.38
345.942	457.38
346.17	442.38
346.397	430.38
346.625	435.38
346.853	410.38
347.08	430.38
347.308	444.38
347.535	447.38
347.763	454.38
347.99	439.38
348.218	422.38
348.445	440.38
348.673	429.38
348.9	427.38
349.128	447.38
349.355	428.38
349.583	436.38
349.81	416.38
350.037	430.38
350.265	419.38
350.492	434.38
350.72	420.38
350.947	441.38
351.174	451.38
351.402	440.38
351.629	435.38
351.856	422.38
352.083	436.38
352.311	449.38
352.538	458.38
352.765	446.38
352.992	442.38
353.22	426.38
353.447	425.38
353.674	434.38
353.901	413.38
354.128	423.38
354.355	407.38
354.583	428.38
354.81	410.38
355.037	416.38
355.264	402.38
355.491	398.38
355.718	403.38
355.945	385.38
356.172	422.38
356.399	413.38
356.626	386.38
356.853	418.38
357.08	391.38
357.307	430.38
357.534	402.38
357.761	410.38
357.988	415.38
358.215	415.38
358.441	409.38
358.668	416.38
358.895	402.38
359.122	419.38
359.349	425.38
359.576	438.38
359.802	434.38
360.029	470.38
360.256	476.38
360.483	449.38
360.709	435.38
360.936	415.38
361.163	428.38
361.39	440.38
361.616	441.38
361.843	453.38
362.07	416.38
362.296	426.38
362.523	435.38
362.749	440.38
362.976	427.38
363.203	396.38
363.429	417.38
363.656	404.38
363.882	418.38
364.109	420.38
364.335	413.38
364.562	403.38
364.788	403.38
365.015	391.38
365.241	427.38
365.468	424.38
365.694	422.38
365.92	403.38
366.147	396.38
366.373	420.38
366.599	418.38
366.826	416.38
367.052	415.38
367.278	415.38
367.505	417.38
367.731	403.38
367.957	401.38
368.184	408.38
368.41	438.38
368.636	435.38
368.862	431.38
369.089	425.38
369.315	435.38
369.541	427.38
369.767	422.38
369.993	403.38
370.219	430.38
370.445	410.38
370.672	411.38
370.898	424.38
371.124	425.38
371.35	411.38
371.576	413.38
371.802	426.38
372.028	411.38
372.254	430.38
372.48	428.38
372.706	427.38
372.932	446.38
373.158	428.38
373.384	431.38
373.61	444.38
373.835	435.38
374.061	425.38
374.287	448.38
374.513	446.38
374.739	426.38
374.965	445.38
375.191	450.38
375.416	448.38
375.642	445.38
375.868	413.38
376.094	426.38
376.319	404.38
376.545	423.38
376.771	420.38
376.997	414.38
377.222	420.38
377.448	422.38
377.674	417.38
377.899	430.38
378.125	412.38
378.35	423.38
378.576	412.38
378.802	402.38
379.027	446.38
379.253	447.38
379.478	416.38
379.704	435.38
379.929	421.38
380.155	433.38
380.38	434.38
380.606	441.38
380.831	422.38
381.057	426.38
381.282	415.38
381.507	433.38
381.733	426.38
381.958	456.38
382.184	442.38
382.409	441.38
382.634	439.38
382.86	448.38
383.085	430.38
383.31	418.38
383.535	438.38
383.761	448.38
383.986	443.38
384.211	442.38
384.436	459.38
384.662	465.38
384.887	466.38
385.112	458.38
385.337	456.38
385.562	451.38
385.787	459.38
386.013	475.38
386.238	498.38
386.463	486.38
386.688	490.38
386.913	475.38
387.138	460.38
387.363	467.38
387.588	470.38
387.813	485.38
388.038	481.38
388.263	483.38
388.488	477.38
388.713	468.38
388.938	464.38
389.163	482.38
389.387	471.38
389.612	453.38
389.837	463.38
390.062	476.38
390.287	487.38
390.512	459.38
390.736	474.38
390.961	461.38
391.186	474.38
391.411	489.38
391.636	477.38
391.86	479.38
392.085	481.38
392.31	484.38
392.534	491.38
392.759	484.38
392.984	464.38
393.208	465.38
393.433	468.38
393.658	472.38
393.882	473.38
394.107	473.38
394.331	479.38
394.556	471.38
394.78	461.38
395.005	489.38
395.229	483.38
395.454	503.38
395.678	517.38
395.903	517.38
396.127	495.38
396.352	534.38
396.576	488.38
396.801	503.38
397.025	496.38
397.249	502.38
397.474	510.38
397.698	527.38
397.922	528.38
398.147	507.38
398.371	538.38
398.595	527.38
398.82	534.38
399.044	582.38
399.268	568.38
399.492	618.38
399.717	673.38
399.941	688.38
400.165	696.38
400.389	686.38
400.613	599.38
400.837	577.38
401.062	556.38
401.286	513.38
401.51	539.38
401.734	541.38
401.958	546.38
402.182	552.38
402.406	545.38
402.63	546.38
402.854	552.38
403.078	550.38
403.302	583.38
403.526	564.38
403.75	578.38
403.974	577.38
404.198	593.38
404.422	579.38
404.645	585.38
404.869	571.38
405.093	595.38
405.317	641.38
405.541	676.38
405.765	617.38
405.988	597.38
406.212	601.38
406.436	616.38
406.66	632.38
406.883	619.38
407.107	610.38
407.331	683.38
407.555	771.38
407.778	760.38
408.002	658.38
408.226	639.38
408.449	642.38
408.673	616.38
408.896	654.38
409.12	705.38
409.344	669.38
409.567	578.38
409.791	589.38
410.014	550.38
410.238	574.38
410.461	552.38
410.685	579.38
410.908	618.38
411.132	620.38
411.355	640.38
411.578	605.38
411.802	598.38
412.025	569.38
412.249	565.38
412.472	617.38
412.695	642.38
412.919	603.38
413.142	576.38
413.365	550.38
413.589	558.38
413.812	558.38
414.035	537.38
414.258	544.38
414.482	528.38
414.705	553.38
414.928	538.38
415.151	553.38
415.374	533.38
415.597	550.38
415.821	530.38
416.044	542.38
416.267	542.38
416.49	530.38
416.713	551.38
416.936	521.38
417.159	531.38
417.382	542.38
417.605	553.38
417.828	561.38
418.051	579.38
418.274	573.38
418.497	544.38
418.72	544.38
418.943	507.38
419.166	542.38
419.389	580.38
419.611	604.38
419.834	556.38
420.057	552.38
420.28	569.38
420.503	551.38
420.726	553.38
420.948	587.38
421.171	598.38
421.394	628.38
421.617	566.38
421.839	577.38
422.062	555.38
422.285	594.38
422.507	626.38
422.73	698.38
422.953	659.38
423.175	613.38
423.398	586.38
423.621	589.38
423.843	605.38
424.066	612.38
424.288	573.38
424.511	605.38
424.733	667.38
424.956	740.38
425.178	708.38
425.401	708.38
425.623	729.38
425.846	625.38
426.068	607.38
426.291	571.38
426.513	590.38
426.735	591.38
426.958	604.38
427.18	715.38
427.402	872.38
427.625	936.38
427.847	763.38
428.069	668.38
428.292	615.38
428.514	578.38
428.736	547.38
428.958	564.38
429.181	544.38
429.403	541.38
429.625	544.38
429.847	566.38
430.069	646.38
430.292	639.38
430.514	547.38
430.736	539.38
430.958	541.38
431.18	509.38
431.402	528.38
431.624	482.38
431.846	518.38
432.068	524.38
432.29	520.38
432.512	508.38
432.734	512.38
432.956	519.38
433.178	498.38
433.4	533.38
433.622	528.38
433.844	532.38
434.066	513.38
434.287	514.38
434.509	530.38
434.731	541.38
434.953	576.38
435.175	584.38
435.397	586.38
435.618	583.38
435.84	623.38
436.062	694.38
436.284	775.38
436.505	647.38
436.727	594.38
436.949	566.38
437.17	558.38
437.392	510.38
437.614	556.38
437.835	570.38
438.057	657.38
438.278	759.38
438.5	752.38
438.721	849.38
438.943	786.38
439.165	638.38
439.386	596.38
439.608	606.38
439.829	580.38
440.05	596.38
440.272	638.38
440.493	605.38
440.715	578.38
440.936	564.38
441.158	544.38
441.379	582.38
441.6	569.38
441.822	608.38
442.043	634.38
442.264	720.38
442.486	762.38
442.707	630.38
442.928	581.38
443.149	571.38
443.371	593.38
443.592	655.38
443.813	747.38
444.034	810.38
444.255	664.38
444.476	640.38
444.698	617.38
444.919	598.38
445.14	741.38
445.361	675.38
445.582	656.38
445.803	674.38
446.024	748.38
446.245	810.38
446.466	699.38
446.687	611.38
446.908	582.38
447.129	553.38
447.35	551.38
447.571	538.38
447.792	524.38
448.013	525.38
448.234	564.38
448.455	572.38
448.675	694.38
448.896	810.38
449.117	691.38
449.338	659.38
449.559	753.38
449.779	862.38
450	698.38
450.221	579.38
450.442	520.38
450.662	545.38
450.883	512.38
451.104	540.38
451.324	522.38
451.545	491.38
451.766	488.38
451.986	469.38
452.207	463.38
452.428	460.38
452.648	475.38
452.869	488.38
453.089	498.38
453.31	490.38
453.53	498.38
453.751	481.38
453.971	507.38
454.192	508.38
454.412	489.38
454.633	470.38
454.853	472.38
455.073	471.38
455.294	514.38
455.514	565.38
455.734	529.38
455.955	462.38
456.175	448.38
456.395	440.38
456.616	456.38
456.836	468.38
457.056	444.38
457.276	440.38
457.497	465.38
457.717	432.38
457.937	462.38
458.157	469.38
458.377	455.38
458.598	479.38
458.818	530.38
459.038	579.38
459.258	644.38
459.478	543.38
459.698	550.38
459.918	514.38
460.138	532.38
460.358	541.38
460.578	539.38
460.798	515.38
461.018	523.38
461.238	525.38
461.458	543.38
461.678	522.38
461.898	566.38
462.118	553.38
462.338	548.38
462.558	564.38
462.777	584.38
462.997	604.38
463.217	622.38
463.437	612.38
463.657	605.38
463.876	581.38
464.096	591.38
464.316	608.38
464.536	583.38
464.755	602.38
464.975	577.38
465.195	590.38
465.414	642.38
465.634	598.38
465.854	558.38
466.073	516.38
466.293	512.38
466.512	501.38
466.732	498.38
466.951	495.38
467.171	483.38
467.391	510.38
467.61	492.38
467.829	507.38
468.049	493.38
468.268	472.38
468.488	495.38
468.707	490.38
468.927	463.38
469.146	486.38
469.365	504.38
469.585	474.38
469.804	491.38
470.023	503.38
470.243	515.38
470.462	519.38
470.681	521.38
470.901	512.38
471.12	498.38
471.339	485.38
471.558	492.38
471.777	497.38
471.997	492.38
472.216	499.38
472.435	521.38
472.654	501.38
472.873	474.38
473.092	506.38
473.311	499.38
473.53	492.38
473.749	514.38
473.968	548.38
474.187	626.38
474.406	649.38
474.625	559.38
474.844	513.38
475.063	505.38
475.282	510.38
475.501	509.38
475.72	506.38
475.939	510.38
476.158	542.38
476.377	515.38
476.596	504.38
476.814	520.38
477.033	497.38
477.252	521.38
477.471	536.38
477.69	540.38
477.908	529.38
478.127	542.38
478.346	550.38
478.564	558.38
478.783	579.38
479.002	572.38
479.22	568.38
479.439	592.38
479.658	577.38
479.876	580.38
480.095	596.38
480.313	648.38
480.532	644.38
480.751	616.38
480.969	629.38
481.188	688.38
481.406	668.38
481.624	648.38
481.843	585.38
482.061	596.38
482.28	598.38
482.498	571.38
482.717	573.38
482.935	586.38
483.153	563.38
483.372	558.38
483.59	564.38
483.808	572.38
484.027	590.38
484.245	600.38
484.463	598.38
484.681	603.38
484.9	609.38
485.118	601.38
485.336	610.38
485.554	607.38
485.772	578.38
485.99	592.38
486.209	617.38
486.427	591.38
486.645	586.38
486.863	640.38
487.081	599.38
487.299	636.38
487.517	607.38
487.735	624.38
487.953	617.38
488.171	625.38
488.389	641.38
488.607	607.38
488.825	623.38
489.043	623.38
489.261	647.38
489.479	600.38
489.696	622.38
489.914	613.38
490.132	633.38
490.35	635.38
490.568	660.38
490.786	654.38
491.003	663.38
491.221	674.38
491.439	699.38
491.657	673.38
491.874	714.38
492.092	692.38
492.31	706.38
492.527	702.38
492.745	729.38
492.963	728.38
493.18	723.38
493.398	726.38
493.615	750.38
493.833	734.38
494.05	724.38
494.268	720.38
494.485	741.38
494.703	723.38
494.92	742.38
495.138	707.38
495.355	728.38
495.573	729.38
495.79	707.38
496.008	747.38
496.225	740.38
496.442	742.38
496.66	738.38
496.877	737.38
497.094	728.38
497.312	730.38
497.529	761.38
497.746	777.38
497.963	781.38
498.181	803.38
498.398	814.38
498.615	828.38
498.832	853.38
499.049	884.38
499.267	892.38
499.484	952.38
499.701	956.38
499.918	1032.38
500.135	1104.38
500.352	1153.38
500.569	1194.38
500.786	1182.38
501.003	1155.38
501.22	1119.38
501.437	1056.38
501.654	996.38
501.871	988.38
502.088	953.38
502.305	882.38
502.522	851.38
502.739	842.38
502.956	806.38
503.172	808.38
503.389	792.38
503.606	789.38
503.823	788.38
504.04	763.38
504.256	739.38
504.473	754.38
504.69	749.38
504.907	748.38
505.123	752.38
505.34	719.38
505.557	720.38
505.773	713.38
505.99	698.38
506.207	692.38
506.423	692.38
506.64	699.38
506.856	671.38
507.073	678.38
507.289	668.38
507.506	674.38
507.722	667.38
507.939	699.38
508.155	680.38
508.372	631.38
508.588	639.38
508.805	644.38
509.021	641.38
509.238	670.38
509.454	642.38
509.67	632.38
509.887	632.38
510.103	634.38
510.319	627.38
510.536	687.38
510.752	1005.38
510.968	860.38
511.184	627.38
511.401	607.38
511.617	617.38
511.833	604.38
512.049	596.38
512.265	606.38
512.481	593.38
512.698	605.38
512.914	600.38
513.13	596.38
513.346	588.38
513.562	589.38
513.778	626.38
513.994	611.38
514.21	603.38
514.426	630.38
514.642	671.38
514.858	679.38
515.074	699.38
515.29	792.38
515.506	1046.38
515.721	908.38
515.937	699.38
516.153	672.38
516.369	647.38
516.585	641.38
516.801	630.38
517.016	628.38
517.232	654.38
517.448	676.38
517.664	650.38
517.879	648.38
518.095	689.38
518.311	664.38
518.527	652.38
518.742	634.38
518.958	602.38
519.173	623.38
519.389	615.38
519.605	604.38
519.82	618.38
520.036	613.38
520.251	622.38
520.467	642.38
520.682	659.38
520.898	618.38
521.113	648.38
521.329	685.38
521.544	712.38
521.76	857.38
521.975	1306.38
522.19	1270.38
522.406	796.38
522.621	657.38
522.836	619.38
523.052	600.38
523.267	570.38
523.482	574.38
523.698	540.38
523.913	538.38
524.128	539.38
524.343	548.38
524.559	542.38
524.774	530.38
524.989	560.38
525.204	520.38
525.419	523.38
525.634	520.38
525.849	518.38
526.064	526.38
526.28	523.38
526.495	531.38
526.71	509.38
526.925	488.38
527.14	518.38
527.355	500.38
527.57	507.38
527.785	506.38
527.999	487.38
528.214	518.38
528.429	518.38
528.644	507.38
528.859	514.38
529.074	533.38
529.289	540.38
529.503	586.38
529.718	577.38
529.933	523.38
530.148	504.38
530.363	528.38
530.577	510.38
530.792	498.38
531.007	500.38
531.221	511.38
531.436	506.38
531.651	510.38
531.865	488.38
532.08	486.38
532.295	504.38
532.509	479.38
532.724	480.38
532.938	480.38
533.153	488.38
533.367	494.38
533.582	490.38
533.796	504.38
534.011	507.38
534.225	485.38
534.44	480.38
534.654	486.38
534.868	488.38
535.083	470.38
535.297	495.38
535.511	475.38
535.726	505.38
535.94	493.38
536.154	483.38
536.369	483.38
536.583	476.38
536.797	484.38
537.011	469.38
537.225	466.38
537.44	449.38
537.654	481.38
537.868	471.38
538.082	463.38
538.296	475.38
538.51	474.38
538.724	493.38
538.938	463.38
539.153	468.38
539.367	473.38
539.581	483.38
539.795	460.38
540.009	458.38
540.222	462.38
540.436	466.38
540.65	466.38
540.864	463.38
541.078	473.38
541.292	488.38
541.506	473.38
541.72	489.38
541.934	470.38
542.147	482.38
542.361	459.38
542.575	468.38
542.789	476.38
543.002	467.38
543.216	476.38
543.43	452.38
543.644	465.38
543.857	460.38
544.071	467.38
544.285	464.38
544.498	474.38
544.712	469.38
544.925	482.38
545.139	456.38
545.352	456.38
545.566	451.38
545.779	456.38
545.993	465.38
546.206	484.38
546.42	482.38
546.633	444.38
546.847	466.38
547.06	440.38
547.274	463.38
547.487	453.38
547.7	463.38
547.914	451.38
548.127	465.38
548.34	452.38
548.554	454.38
548.767	481.38
548.98	460.38
549.193	452.38
549.407	482.38
549.62	468.38
549.833	472.38
550.046	463.38
550.259	440.38
550.473	443.38
550.686	454.38
550.899	422.38
551.112	442.38
551.325	452.38
551.538	441.38
551.751	442.38
551.964	468.38
552.177	458.38
552.39	456.38
552.603	454.38
552.816	457.38
553.029	453.38
553.242	470.38
553.455	481.38
553.667	490.38
553.88	492.38
554.093	479.38
554.306	464.38
554.519	461.38
554.732	456.38
554.944	449.38
555.157	438.38
555.37	452.38
555.583	447.38
555.795	426.38
556.008	429.38
556.221	432.38
556.433	433.38
556.646	416.38
556.859	403.38
557.071	396.38
557.284	401.38
557.496	414.38
557.709	414.38
557.921	412.38
558.134	418.38
558.346	414.38
558.559	423.38
558.771	401.38
558.984	415.38
559.196	404.38
559.409	406.38
559.621	390.38
559.833	409.38
560.046	401.38
560.258	401.38
560.47	405.38
560.683	419.38
560.895	412.38
561.107	407.38
561.32	392.38
561.532	410.38
561.744	398.38
561.956	394.38
562.168	400.38
562.381	404.38
562.593	394.38
562.805	400.38
563.017	396.38
563.229	406.38
563.441	412.38
563.653	418.38
563.865	392.38
564.077	404.38
564.289	418.38
564.501	432.38
564.713	427.38
564.925	417.38
565.137	453.38
565.349	419.38
565.561	454.38
565.773	478.38
565.985	461.38
566.197	473.38
566.408	473.38
566.62	506.38
566.832	539.38
567.044	525.38
567.255	530.38
567.467	539.38
567.679	574.38
567.891	555.38
568.102	574.38
568.314	560.38
568.526	534.38
568.737	500.38
568.949	496.38
569.161	474.38
569.372	454.38
569.584	450.38
569.795	414.38
570.007	424.38
570.218	457.38
570.43	450.38
570.641	418.38
570.853	392.38
571.064	397.38
571.276	407.38
571.487	404.38
571.698	384.38
571.91	374.38
572.121	403.38
572.333	393.38
572.544	377.38
572.755	367.38
572.966	380.38
573.178	358.38
573.389	367.38
573.6	356.38
573.811	342.38
574.023	364.38
574.234	363.38
574.445	351.38
574.656	346.38
574.867	368.38
575.078	335.38
575.289	370.38
575.501	335.38
575.712	328.38
575.923	351.38
576.134	342.38
576.345	360.38
576.556	363.38
576.767	340.38
576.978	355.38
577.188	328.38
577.399	336.38
577.61	328.38
577.821	327.38
578.032	329.38
578.243	336.38
578.454	522.38
578.665	410.38
578.875	338.38
579.086	320.38
579.297	326.38
579.508	327.38
579.718	318.38
579.929	335.38
580.14	299.38
580.35	327.38
580.561	326.38
580.772	332.38
580.982	326.38
581.193	324.38
581.403	309.38
581.614	332.38
581.825	317.38
582.035	328.38
582.246	314.38
582.456	318.38
582.667	322.38
582.877	316.38
583.087	322.38
583.298	310.38
583.508	311.38
583.719	299.38
583.929	330.38
584.139	324.38
584.35	299.38
584.56	323.38
584.77	324.38
584.981	297.38
585.191	307.38
585.401	294.38
585.611	311.38
585.821	327.38
586.032	307.38
586.242	309.38
586.452	326.38
586.662	291.38
586.872	318.38
587.082	323.38
587.292	306.38
587.502	310.38
587.713	310.38
587.923	301.38
588.133	306.38
588.343	315.38
588.553	305.38
588.762	315.38
588.972	306.38
589.182	312.38
589.392	291.38
589.602	308.38
589.812	311.38
590.022	305.38
590.232	295.38
590.441	318.38
590.651	322.38
590.861	337.38
591.071	308.38
591.281	323.38
591.49	319.38
591.7	324.38
591.91	312.38
592.119	312.38
592.329	327.38
592.539	334.38
592.748	328.38
592.958	344.38
593.167	329.38
593.377	339.38
593.587	342.38
593.796	351.38
594.006	340.38
594.215	340.38
594.424	324.38
594.634	323.38
594.843	344.38
595.053	324.38
595.262	322.38
595.472	327.38
595.681	310.38
595.89	321.38
596.1	294.38
596.309	312.38
596.518	329.38
596.727	316.38
596.937	305.38
597.146	284.38
597.355	289.38
597.564	295.38
597.774	300.38
597.983	261.38
598.192	287.38
598.401	302.38
598.61	278.38
598.819	284.38
599.028	284.38
599.237	282.38
599.446	281.38
599.655	284.38
599.864	268.38
600.073	291.38
600.282	291.38
600.491	279.38
600.7	279.38
600.909	275.38
601.118	262.38
601.327	275.38
601.536	285.38
601.745	281.38
601.953	271.38
602.162	270.38
602.371	280.38
602.58	276.38
602.789	266.38
602.997	296.38
603.206	274.38
603.415	256.38
603.623	276.38
603.832	256.38
604.041	280.38
604.249	275.38
604.458	265.38
604.666	266.38
604.875	260.38
605.084	250.38
605.292	259.38
605.501	285.38
605.709	276.38
605.918	270.38
606.126	260.38
606.334	259.38
606.543	256.38
606.751	254.38
606.96	246.38
607.168	266.38
607.376	262.38
607.585	262.38
607.793	257.38
608.001	262.38
608.21	248.38
608.418	271.38
608.626	260.38
608.834	259.38
609.043	243.38
609.251	264.38
609.459	240.38
609.667	264.38
609.875	249.38
610.083	245.38
610.291	240.38
610.499	253.38
610.707	275.38
610.916	249.38
611.124	260.38
611.332	242.38
611.54	276.38
611.748	269.38
611.955	263.38
612.163	260.38
612.371	254.38
612.579	252.38
612.787	267.38
612.995	249.38
613.203	259.38
613.411	256.38
613.618	261.38
613.826	260.38
614.034	262.38
614.242	238.38
614.449	234.38
614.657	244.38
614.865	244.38
615.072	263.38
615.28	227.38
615.488	238.38
615.695	231.38
615.903	255.38
616.111	239.38
616.318	244.38
616.526	246.38
616.733	240.38
616.941	256.38
617.148	249.38
617.356	242.38
617.563	263.38
617.771	246.38
617.978	250.38
618.185	252.38
618.393	253.38
618.6	255.38
618.807	262.38
619.015	240.38
619.222	250.38
619.429	241.38
619.637	246.38
619.844	238.38
620.051	250.38
620.258	222.38
620.466	228.38
620.673	240.38
620.88	227.38
621.087	238.38
621.294	240.38
621.501	231.38
621.708	251.38
621.915	231.38
622.122	222.38
622.329	240.38
622.536	226.38
622.743	224.38
622.95	234.38
623.157	226.38
623.364	227.38
623.571	217.38
623.778	239.38
623.985	232.38
624.192	226.38
624.399	235.38
624.606	208.38
624.812	226.38
625.019	232.38
625.226	213.38
625.433	217.38
625.639	210.38
625.846	216.38
626.053	220.38
626.259	203.38
626.466	216.38
626.673	197.38
626.879	226.38
627.086	227.38
627.293	206.38
627.499	205.38
627.706	227.38
627.912	225.38
628.119	226.38
628.325	221.38
628.532	211.38
628.738	217.38
628.945	218.38
629.151	217.38
629.357	210.38
629.564	216.38
629.77	201.38
629.976	201.38
630.183	212.38
630.389	195.38
630.595	187.38
630.802	212.38
631.008	223.38
631.214	215.38
631.42	223.38
631.627	216.38
631.833	227.38
632.039	191.38
632.245	207.38
632.451	208.38
632.657	198.38
632.863	205.38
633.069	193.38
633.275	192.38
633.481	206.38
633.688	199.38
633.893	215.38
634.099	207.38
634.305	199.38
634.511	193.38
634.717	209.38
634.923	194.38
635.129	198.38
635.335	195.38
635.541	198.38
635.747	179.38
635.952	191.38
636.158	188.38
636.364	200.38
636.57	214.38
636.775	200.38
636.981	196.38
637.187	199.38
637.392	195.38
637.598	201.38
637.804	199.38
638.009	168.38
638.215	188.38
638.421	177.38
638.626	175.38
638.832	184.38
639.037	172.38
639.243	184.38
639.448	199.38
639.654	176.38
639.859	170.38
640.065	186.38
640.27	184.38
640.475	182.38
640.681	196.38
640.886	187.38
641.091	184.38
641.297	177.38
641.502	166.38
641.707	182.38
641.913	188.38
642.118	198.38
642.323	176.38
642.528	175.38
642.733	179.38
642.939	189.38
643.144	172.38
643.349	185.38
643.554	198.38
643.759	170.38
643.964	185.38
644.169	170.38
644.374	186.38
644.579	166.38
644.784	154.38
644.989	179.38
645.194	176.38
645.399	171.38
645.604	171.38
645.809	176.38
646.014	177.38
646.219	178.38
646.423	170.38
646.628	178.38
646.833	167.38
647.038	182.38
647.243	170.38
647.447	172.38
647.652	187.38
647.857	186.38
648.062	194.38
648.266	196.38
648.471	188.38
648.676	185.38
648.88	179.38
649.085	169.38
649.289	186.38
649.494	191.38
649.698	187.38
649.903	202.38
650.107	189.38
650.312	184.38
650.516	170.38
650.721	171.38
650.925	164.38
651.13	173.38
651.334	167.38
651.539	162.38
651.743	168.38
651.947	159.38
652.152	154.38
652.356	144.38
652.56	147.38
652.764	149.38
652.969	160.38
653.173	164.38
653.377	147.38
653.581	153.38
653.785	142.38
653.99	156.38
654.194	152.38
654.398	135.38
654.602	145.38
654.806	162.38
655.01	148.38
655.214	159.38
655.418	153.38
655.622	146.38
655.826	154.38
656.03	138.38
656.234	134.38
656.438	136.38
656.642	141.38
656.846	147.38
657.049	120.38
657.253	129.38
657.457	151.38
657.661	140.38
657.865	132.38
658.068	124.38
658.272	108.38
658.476	115.38
658.68	116.38
658.883	119.38
659.087	110.38
659.291	111.38
659.494	122.38
659.698	106.38
659.901	111.38
660.105	100.38
660.309	98.38
660.512	95.38
660.716	89.38
660.919	86.38
661.123	104.38
661.326	84.38
661.53	87.38
661.733	100.38
661.936	98.38
662.14	90.38
662.343	92.38
662.546	82.38
662.75	88.38
662.953	87.38
663.156	89.38
663.36	87.38
663.563	91.38
663.766	79.38
663.969	100.38
664.173	93.38
664.376	80.38
664.579	85.38
664.782	84.38
664.985	91.38
665.188	94.38
665.391	92.38
665.594	84.38
665.797	98.38
666	88.38
666.203	89.38
666.406	76.38
666.609	90.38
666.812	90.38
667.015	79.38
667.218	88.38
667.421	83.38
667.624	80.38
667.827	94.38
668.03	95.38
668.232	102.38
668.435	75.38
668.638	93.38
668.841	95.38
669.043	100.38
669.246	101.38
669.449	80.38
669.651	89.38
669.854	105.38
670.057	84.38
670.259	94.38
670.462	84.38
670.665	77.38
670.867	89.38
671.07	105.38
671.272	84.38
671.475	88.38
671.677	95.38
671.88	83.38
672.082	90.38
672.284	93.38
672.487	101.38
672.689	82.38
672.892	86.38
