Data from 1976.PennyLincolnUp.Lamp.En5.5.200Scan.071719.P1.Changed Mount._HRD10591_16-00-56-861.txt Node
Date: Thu Jul 18 16:00:56 EDT 2019
User: cochatt
Spectrometer: HR+D1059
Trigger mode: 1
Integration Time (sec): 1.000000E-1
Scans to average: 1
Electric dark correction enabled: true
Nonlinearity correction enabled: false
Boxcar width: 0
XAxis mode: Wavelengths
Number of Pixels in Spectrum: 2048
>>>>>Begin Spectral Data<<<<<
223.165	-22.19
223.4	-22.19
223.635	-22.19
223.869	-9.19
224.104	-18.19
224.338	-17.19
224.573	-13.19
224.808	-16.19
225.042	-9.19
225.277	-6.19
225.511	-1.19
225.746	10.81
225.98	2.81
226.215	14.81
226.449	10.81
226.683	18.81
226.918	27.81
227.152	26.81
227.387	29.81
227.621	29.81
227.856	45.81
228.09	31.81
228.324	53.81
228.559	59.81
228.793	65.81
229.027	97.81
229.262	103.81
229.496	98.81
229.73	121.81
229.964	138.81
230.199	116.81
230.433	98.81
230.667	105.81
230.901	120.81
231.136	98.81
231.37	114.81
231.604	109.81
231.838	103.81
232.072	103.81
232.306	109.81
232.541	96.81
232.775	119.81
233.009	126.81
233.243	125.81
233.477	124.81
233.711	114.81
233.945	110.81
234.179	115.81
234.413	113.81
234.647	123.81
234.881	116.81
235.115	109.81
235.349	123.81
235.583	120.81
235.817	126.81
236.051	144.81
236.285	114.81
236.519	125.81
236.753	139.81
236.987	134.81
237.221	174.81
237.455	237.81
237.689	187.81
237.922	135.81
238.156	146.81
238.39	137.81
238.624	122.81
238.858	140.81
239.091	123.81
239.325	121.81
239.559	126.81
239.793	122.81
240.027	138.81
240.26	143.81
240.494	160.81
240.728	159.81
240.961	152.81
241.195	143.81
241.429	148.81
241.662	132.81
241.896	123.81
242.13	148.81
242.363	137.81
242.597	132.81
242.83	136.81
243.064	148.81
243.298	152.81
243.531	133.81
243.765	140.81
243.998	134.81
244.232	148.81
244.465	146.81
244.699	144.81
244.932	136.81
245.166	140.81
245.399	152.81
245.633	153.81
245.866	137.81
246.099	160.81
246.333	142.81
246.566	153.81
246.8	141.81
247.033	155.81
247.266	173.81
247.5	168.81
247.733	173.81
247.966	173.81
248.2	170.81
248.433	173.81
248.666	169.81
248.899	197.81
249.133	193.81
249.366	208.81
249.599	196.81
249.832	183.81
250.066	178.81
250.299	181.81
250.532	193.81
250.765	199.81
250.998	235.81
251.231	221.81
251.465	227.81
251.698	215.81
251.931	211.81
252.164	193.81
252.397	203.81
252.63	202.81
252.863	202.81
253.096	215.81
253.329	232.81
253.562	231.81
253.795	216.81
254.028	210.81
254.261	217.81
254.494	220.81
254.727	250.81
254.96	282.81
255.193	265.81
255.426	244.81
255.659	230.81
255.892	236.81
256.124	236.81
256.357	250.81
256.59	246.81
256.823	230.81
257.056	217.81
257.289	223.81
257.521	229.81
257.754	225.81
257.987	219.81
258.22	210.81
258.452	211.81
258.685	243.81
258.918	213.81
259.151	229.81
259.383	225.81
259.616	193.81
259.849	229.81
260.081	240.81
260.314	264.81
260.547	247.81
260.779	245.81
261.012	230.81
261.244	232.81
261.477	243.81
261.71	218.81
261.942	216.81
262.175	234.81
262.407	222.81
262.64	227.81
262.872	232.81
263.105	233.81
263.337	240.81
263.57	216.81
263.802	208.81
264.035	209.81
264.267	219.81
264.499	215.81
264.732	217.81
264.964	222.81
265.197	215.81
265.429	233.81
265.661	240.81
265.894	217.81
266.126	236.81
266.358	232.81
266.591	236.81
266.823	259.81
267.055	228.81
267.287	237.81
267.52	238.81
267.752	257.81
267.984	245.81
268.216	244.81
268.448	246.81
268.681	254.81
268.913	253.81
269.145	294.81
269.377	310.81
269.609	284.81
269.841	276.81
270.073	272.81
270.306	309.81
270.538	324.81
270.77	322.81
271.002	308.81
271.234	330.81
271.466	319.81
271.698	306.81
271.93	316.81
272.162	337.81
272.394	336.81
272.626	320.81
272.858	305.81
273.09	289.81
273.322	274.81
273.553	278.81
273.785	263.81
274.017	265.81
274.249	260.81
274.481	268.81
274.713	276.81
274.945	288.81
275.176	278.81
275.408	270.81
275.64	269.81
275.872	287.81
276.104	282.81
276.335	282.81
276.567	289.81
276.799	307.81
277.031	317.81
277.262	333.81
277.494	336.81
277.726	314.81
277.957	310.81
278.189	305.81
278.421	289.81
278.652	290.81
278.884	279.81
279.115	288.81
279.347	292.81
279.579	284.81
279.81	297.81
280.042	298.81
280.273	293.81
280.505	281.81
280.736	278.81
280.968	293.81
281.199	283.81
281.431	290.81
281.662	290.81
281.894	305.81
282.125	290.81
282.356	302.81
282.588	329.81
282.819	319.81
283.051	299.81
283.282	295.81
283.513	299.81
283.745	323.81
283.976	305.81
284.207	302.81
284.439	307.81
284.67	291.81
284.901	294.81
285.132	285.81
285.364	294.81
285.595	293.81
285.826	320.81
286.057	313.81
286.288	311.81
286.52	297.81
286.751	298.81
286.982	313.81
287.213	301.81
287.444	308.81
287.675	331.81
287.906	308.81
288.138	325.81
288.369	326.81
288.6	323.81
288.831	325.81
289.062	325.81
289.293	323.81
289.524	330.81
289.755	316.81
289.986	317.81
290.217	314.81
290.448	308.81
290.679	318.81
290.91	304.81
291.141	320.81
291.371	330.81
291.602	330.81
291.833	306.81
292.064	313.81
292.295	318.81
292.526	326.81
292.757	319.81
292.987	303.81
293.218	311.81
293.449	322.81
293.68	317.81
293.91	322.81
294.141	301.81
294.372	305.81
294.603	309.81
294.833	318.81
295.064	319.81
295.295	307.81
295.525	313.81
295.756	333.81
295.987	305.81
296.217	332.81
296.448	330.81
296.679	324.81
296.909	324.81
297.14	333.81
297.37	340.81
297.601	332.81
297.831	317.81
298.062	320.81
298.292	333.81
298.523	336.81
298.753	336.81
298.984	324.81
299.214	349.81
299.445	329.81
299.675	340.81
299.905	333.81
300.136	336.81
300.366	330.81
300.597	332.81
300.827	348.81
301.057	351.81
301.288	378.81
301.518	345.81
301.748	334.81
301.979	355.81
302.209	338.81
302.439	352.81
302.669	349.81
302.9	357.81
303.13	370.81
303.36	333.81
303.59	350.81
303.82	365.81
304.051	373.81
304.281	344.81
304.511	363.81
304.741	356.81
304.971	322.81
305.201	359.81
305.431	362.81
305.661	336.81
305.891	355.81
306.121	342.81
306.352	364.81
306.582	381.81
306.812	366.81
307.042	368.81
307.272	371.81
307.502	351.81
307.731	361.81
307.961	349.81
308.191	369.81
308.421	356.81
308.651	374.81
308.881	357.81
309.111	362.81
309.341	364.81
309.571	374.81
309.8	367.81
310.03	387.81
310.26	391.81
310.49	398.81
310.72	393.81
310.949	389.81
311.179	399.81
311.409	368.81
311.639	408.81
311.868	410.81
312.098	390.81
312.328	417.81
312.557	398.81
312.787	424.81
313.017	428.81
313.246	413.81
313.476	392.81
313.706	394.81
313.935	404.81
314.165	404.81
314.394	414.81
314.624	399.81
314.853	403.81
315.083	407.81
315.312	398.81
315.542	388.81
315.771	390.81
316.001	395.81
316.23	394.81
316.46	391.81
316.689	402.81
316.919	405.81
317.148	396.81
317.377	403.81
317.607	400.81
317.836	422.81
318.065	406.81
318.295	405.81
318.524	410.81
318.753	414.81
318.983	413.81
319.212	411.81
319.441	421.81
319.67	394.81
319.9	397.81
320.129	417.81
320.358	420.81
320.587	392.81
320.816	426.81
321.046	404.81
321.275	412.81
321.504	423.81
321.733	403.81
321.962	412.81
322.191	430.81
322.42	436.81
322.649	452.81
322.878	444.81
323.108	440.81
323.337	460.81
323.566	476.81
323.795	509.81
324.024	539.81
324.253	619.81
324.482	857.81
324.71	1330.81
324.939	1934.81
325.168	1674.81
325.397	871.81
325.626	600.81
325.855	537.81
326.084	514.81
326.313	512.81
326.542	491.81
326.77	554.81
326.999	590.81
327.228	806.81
327.457	1181.81
327.686	1489.81
327.914	1008.81
328.143	676.81
328.372	580.81
328.6	552.81
328.829	526.81
329.058	563.81
329.287	565.81
329.515	522.81
329.744	489.81
329.972	499.81
330.201	536.81
330.43	582.81
330.658	561.81
330.887	567.81
331.115	565.81
331.344	508.81
331.572	493.81
331.801	498.81
332.03	516.81
332.258	500.81
332.486	488.81
332.715	500.81
332.943	500.81
333.172	494.81
333.4	498.81
333.629	501.81
333.857	513.81
334.085	516.81
334.314	543.81
334.542	543.81
334.771	565.81
334.999	542.81
335.227	508.81
335.455	512.81
335.684	492.81
335.912	483.81
336.14	481.81
336.369	480.81
336.597	493.81
336.825	476.81
337.053	497.81
337.281	465.81
337.51	461.81
337.738	456.81
337.966	472.81
338.194	469.81
338.422	455.81
338.65	458.81
338.878	443.81
339.106	436.81
339.334	458.81
339.562	474.81
339.79	459.81
340.018	464.81
340.246	451.81
340.474	465.81
340.702	451.81
340.93	457.81
341.158	468.81
341.386	464.81
341.614	470.81
341.842	435.81
342.07	448.81
342.298	451.81
342.526	433.81
342.754	453.81
342.981	443.81
343.209	434.81
343.437	454.81
343.665	472.81
343.893	463.81
344.12	488.81
344.348	477.81
344.576	483.81
344.804	463.81
345.031	469.81
345.259	480.81
345.487	482.81
345.714	462.81
345.942	457.81
346.17	451.81
346.397	449.81
346.625	448.81
346.853	409.81
347.08	446.81
347.308	449.81
347.535	441.81
347.763	465.81
347.99	442.81
348.218	444.81
348.445	444.81
348.673	447.81
348.9	436.81
349.128	424.81
349.355	419.81
349.583	423.81
349.81	418.81
350.037	448.81
350.265	412.81
350.492	419.81
350.72	416.81
350.947	419.81
351.174	428.81
351.402	453.81
351.629	436.81
351.856	429.81
352.083	465.81
352.311	446.81
352.538	459.81
352.765	444.81
352.992	442.81
353.22	426.81
353.447	443.81
353.674	417.81
353.901	422.81
354.128	402.81
354.355	430.81
354.583	419.81
354.81	414.81
355.037	428.81
355.264	418.81
355.491	415.81
355.718	412.81
355.945	404.81
356.172	421.81
356.399	420.81
356.626	416.81
356.853	402.81
357.08	420.81
357.307	408.81
357.534	426.81
357.761	409.81
357.988	422.81
358.215	424.81
358.441	400.81
358.668	420.81
358.895	421.81
359.122	419.81
359.349	422.81
359.576	426.81
359.802	430.81
360.029	448.81
360.256	469.81
360.483	458.81
360.709	448.81
360.936	450.81
361.163	437.81
361.39	437.81
361.616	449.81
361.843	430.81
362.07	453.81
362.296	440.81
362.523	416.81
362.749	433.81
362.976	418.81
363.203	444.81
363.429	440.81
363.656	431.81
363.882	418.81
364.109	413.81
364.335	419.81
364.562	423.81
364.788	428.81
365.015	426.81
365.241	410.81
365.468	417.81
365.694	413.81
365.92	419.81
366.147	424.81
366.373	406.81
366.599	420.81
366.826	404.81
367.052	416.81
367.278	394.81
367.505	437.81
367.731	427.81
367.957	414.81
368.184	419.81
368.41	413.81
368.636	414.81
368.862	426.81
369.089	450.81
369.315	414.81
369.541	413.81
369.767	401.81
369.993	425.81
370.219	411.81
370.445	417.81
370.672	419.81
370.898	433.81
371.124	426.81
371.35	414.81
371.576	405.81
371.802	398.81
372.028	411.81
372.254	448.81
372.48	443.81
372.706	448.81
372.932	427.81
373.158	435.81
373.384	443.81
373.61	441.81
373.835	424.81
374.061	428.81
374.287	426.81
374.513	419.81
374.739	442.81
374.965	448.81
375.191	456.81
375.416	464.81
375.642	437.81
375.868	440.81
376.094	445.81
376.319	406.81
376.545	405.81
376.771	425.81
376.997	433.81
377.222	411.81
377.448	422.81
377.674	441.81
377.899	456.81
378.125	422.81
378.35	430.81
378.576	418.81
378.802	398.81
379.027	459.81
379.253	431.81
379.478	414.81
379.704	426.81
379.929	420.81
380.155	435.81
380.38	412.81
380.606	436.81
380.831	415.81
381.057	422.81
381.282	444.81
381.507	442.81
381.733	415.81
381.958	436.81
382.184	424.81
382.409	438.81
382.634	431.81
382.86	442.81
383.085	436.81
383.31	426.81
383.535	434.81
383.761	452.81
383.986	461.81
384.211	489.81
384.436	445.81
384.662	458.81
384.887	470.81
385.112	452.81
385.337	459.81
385.562	486.81
385.787	460.81
386.013	471.81
386.238	472.81
386.463	495.81
386.688	470.81
386.913	464.81
387.138	484.81
387.363	477.81
387.588	481.81
387.813	499.81
388.038	458.81
388.263	487.81
388.488	473.81
388.713	482.81
388.938	473.81
389.163	481.81
389.387	488.81
389.612	473.81
389.837	476.81
390.062	473.81
390.287	509.81
390.512	488.81
390.736	457.81
390.961	481.81
391.186	501.81
391.411	486.81
391.636	479.81
391.86	485.81
392.085	512.81
392.31	507.81
392.534	492.81
392.759	489.81
392.984	508.81
393.208	494.81
393.433	485.81
393.658	460.81
393.882	474.81
394.107	466.81
394.331	464.81
394.556	474.81
394.78	492.81
395.005	481.81
395.229	479.81
395.454	502.81
395.678	500.81
395.903	503.81
396.127	516.81
396.352	524.81
396.576	504.81
396.801	491.81
397.025	489.81
397.249	499.81
397.474	513.81
397.698	511.81
397.922	537.81
398.147	550.81
398.371	535.81
398.595	544.81
398.82	572.81
399.044	593.81
399.268	590.81
399.492	616.81
399.717	692.81
399.941	705.81
400.165	694.81
400.389	709.81
400.613	636.81
400.837	573.81
401.062	560.81
401.286	574.81
401.51	568.81
401.734	551.81
401.958	540.81
402.182	544.81
402.406	570.81
402.63	578.81
402.854	558.81
403.078	566.81
403.302	576.81
403.526	580.81
403.75	572.81
403.974	582.81
404.198	583.81
404.422	581.81
404.645	614.81
404.869	587.81
405.093	629.81
405.317	645.81
405.541	677.81
405.765	616.81
405.988	632.81
406.212	606.81
406.436	631.81
406.66	620.81
406.883	624.81
407.107	661.81
407.331	697.81
407.555	748.81
407.778	760.81
408.002	705.81
408.226	670.81
408.449	635.81
408.673	634.81
408.896	674.81
409.12	694.81
409.344	650.81
409.567	596.81
409.791	606.81
410.014	584.81
410.238	562.81
410.461	593.81
410.685	584.81
410.908	572.81
411.132	617.81
411.355	653.81
411.578	637.81
411.802	593.81
412.025	575.81
412.249	591.81
412.472	610.81
412.695	630.81
412.919	625.81
413.142	610.81
413.365	596.81
413.589	565.81
413.812	558.81
414.035	580.81
414.258	550.81
414.482	550.81
414.705	538.81
414.928	543.81
415.151	530.81
415.374	530.81
415.597	532.81
415.821	551.81
416.044	554.81
416.267	542.81
416.49	560.81
416.713	538.81
416.936	537.81
417.159	520.81
417.382	546.81
417.605	559.81
417.828	580.81
418.051	586.81
418.274	543.81
418.497	548.81
418.72	539.81
418.943	550.81
419.166	572.81
419.389	586.81
419.611	605.81
419.834	584.81
420.057	566.81
420.28	590.81
420.503	555.81
420.726	556.81
420.948	587.81
421.171	625.81
421.394	650.81
421.617	602.81
421.839	572.81
422.062	578.81
422.285	571.81
422.507	641.81
422.73	721.81
422.953	706.81
423.175	621.81
423.398	594.81
423.621	583.81
423.843	604.81
424.066	604.81
424.288	608.81
424.511	628.81
424.733	695.81
424.956	768.81
425.178	696.81
425.401	718.81
425.623	765.81
425.846	634.81
426.068	611.81
426.291	602.81
426.513	590.81
426.735	621.81
426.958	641.81
427.18	724.81
427.402	856.81
427.625	925.81
427.847	795.81
428.069	708.81
428.292	632.81
428.514	580.81
428.736	556.81
428.958	546.81
429.181	551.81
429.403	536.81
429.625	557.81
429.847	579.81
430.069	647.81
430.292	660.81
430.514	576.81
430.736	524.81
430.958	541.81
431.18	544.81
431.402	523.81
431.624	518.81
431.846	523.81
432.068	524.81
432.29	537.81
432.512	520.81
432.734	533.81
432.956	538.81
433.178	524.81
433.4	554.81
433.622	514.81
433.844	514.81
434.066	507.81
434.287	513.81
434.509	548.81
434.731	549.81
434.953	545.81
435.175	552.81
435.397	590.81
435.618	587.81
435.84	636.81
436.062	717.81
436.284	808.81
436.505	661.81
436.727	613.81
436.949	578.81
437.17	548.81
437.392	576.81
437.614	563.81
437.835	595.81
438.057	676.81
438.278	770.81
438.5	785.81
438.721	877.81
438.943	801.81
439.165	674.81
439.386	624.81
439.608	610.81
439.829	584.81
440.05	596.81
440.272	637.81
440.493	627.81
440.715	584.81
440.936	568.81
441.158	585.81
441.379	550.81
441.6	570.81
441.822	590.81
442.043	649.81
442.264	731.81
442.486	777.81
442.707	636.81
442.928	614.81
443.149	619.81
443.371	621.81
443.592	682.81
443.813	782.81
444.034	833.81
444.255	702.81
444.476	626.81
444.698	641.81
444.919	625.81
445.14	723.81
445.361	693.81
445.582	663.81
445.803	706.81
446.024	805.81
446.245	787.81
446.466	730.81
446.687	621.81
446.908	589.81
447.129	582.81
447.35	544.81
447.571	530.81
447.792	539.81
448.013	535.81
448.234	560.81
448.455	614.81
448.675	733.81
448.896	832.81
449.117	706.81
449.338	638.81
449.559	760.81
449.779	870.81
450	693.81
450.221	594.81
450.442	548.81
450.662	536.81
450.883	549.81
451.104	552.81
451.324	539.81
451.545	508.81
451.766	503.81
451.986	476.81
452.207	496.81
452.428	470.81
452.648	497.81
452.869	488.81
453.089	502.81
453.31	492.81
453.53	494.81
453.751	482.81
453.971	493.81
454.192	488.81
454.412	480.81
454.633	483.81
454.853	484.81
455.073	469.81
455.294	507.81
455.514	563.81
455.734	550.81
455.955	491.81
456.175	467.81
456.395	449.81
456.616	458.81
456.836	461.81
457.056	462.81
457.276	441.81
457.497	438.81
457.717	465.81
457.937	472.81
458.157	477.81
458.377	496.81
458.598	512.81
458.818	528.81
459.038	608.81
459.258	646.81
459.478	562.81
459.698	566.81
459.918	531.81
460.138	521.81
460.358	552.81
460.578	530.81
460.798	547.81
461.018	570.81
461.238	548.81
461.458	549.81
461.678	533.81
461.898	562.81
462.118	560.81
462.338	565.81
462.558	566.81
462.777	601.81
462.997	614.81
463.217	618.81
463.437	626.81
463.657	574.81
463.876	602.81
464.096	599.81
464.316	585.81
464.536	573.81
464.755	565.81
464.975	584.81
465.195	586.81
465.414	635.81
465.634	573.81
465.854	545.81
466.073	541.81
466.293	544.81
466.512	515.81
466.732	494.81
466.951	504.81
467.171	486.81
467.391	512.81
467.61	525.81
467.829	491.81
468.049	526.81
468.268	514.81
468.488	480.81
468.707	502.81
468.927	484.81
469.146	481.81
469.365	494.81
469.585	507.81
469.804	502.81
470.023	502.81
470.243	515.81
470.462	526.81
470.681	520.81
470.901	526.81
471.12	508.81
471.339	511.81
471.558	525.81
471.777	514.81
471.997	476.81
472.216	500.81
472.435	522.81
472.654	483.81
472.873	494.81
473.092	506.81
473.311	503.81
473.53	505.81
473.749	516.81
473.968	535.81
474.187	618.81
474.406	692.81
474.625	551.81
474.844	532.81
475.063	537.81
475.282	506.81
475.501	507.81
475.72	499.81
475.939	522.81
476.158	524.81
476.377	529.81
476.596	512.81
476.814	520.81
477.033	546.81
477.252	545.81
477.471	553.81
477.69	524.81
477.908	570.81
478.127	552.81
478.346	550.81
478.564	578.81
478.783	578.81
479.002	601.81
479.22	591.81
479.439	597.81
479.658	606.81
479.876	605.81
480.095	599.81
480.313	632.81
480.532	654.81
480.751	627.81
480.969	632.81
481.188	663.81
481.406	693.81
481.624	646.81
481.843	609.81
482.061	612.81
482.28	600.81
482.498	581.81
482.717	581.81
482.935	598.81
483.153	580.81
483.372	597.81
483.59	591.81
483.808	572.81
484.027	601.81
484.245	586.81
484.463	588.81
484.681	613.81
484.9	608.81
485.118	601.81
485.336	601.81
485.554	612.81
485.772	609.81
485.99	599.81
486.209	604.81
486.427	635.81
486.645	608.81
486.863	636.81
487.081	626.81
487.299	622.81
487.517	618.81
487.735	641.81
487.953	636.81
488.171	640.81
488.389	635.81
488.607	629.81
488.825	647.81
489.043	636.81
489.261	651.81
489.479	656.81
489.696	635.81
489.914	630.81
490.132	654.81
490.35	673.81
490.568	661.81
490.786	681.81
491.003	685.81
491.221	690.81
491.439	712.81
491.657	703.81
491.874	710.81
492.092	736.81
492.31	718.81
492.527	721.81
492.745	713.81
492.963	722.81
493.18	734.81
493.398	731.81
493.615	744.81
493.833	731.81
494.05	721.81
494.268	760.81
494.485	714.81
494.703	760.81
494.92	762.81
495.138	744.81
495.355	714.81
495.573	756.81
495.79	743.81
496.008	745.81
496.225	745.81
496.442	752.81
496.66	744.81
496.877	762.81
497.094	778.81
497.312	747.81
497.529	764.81
497.746	768.81
497.963	818.81
498.181	865.81
498.398	850.81
498.615	858.81
498.832	873.81
499.049	877.81
499.267	930.81
499.484	931.81
499.701	987.81
499.918	1039.81
500.135	1135.81
500.352	1200.81
500.569	1192.81
500.786	1214.81
501.003	1190.81
501.22	1122.81
501.437	1075.81
501.654	1036.81
501.871	1000.81
502.088	974.81
502.305	910.81
502.522	894.81
502.739	870.81
502.956	846.81
503.172	805.81
503.389	803.81
503.606	793.81
503.823	778.81
504.04	784.81
504.256	786.81
504.473	749.81
504.69	754.81
504.907	760.81
505.123	769.81
505.34	712.81
505.557	716.81
505.773	702.81
505.99	698.81
506.207	724.81
506.423	689.81
506.64	690.81
506.856	665.81
507.073	680.81
507.289	660.81
507.506	674.81
507.722	667.81
507.939	700.81
508.155	681.81
508.372	671.81
508.588	672.81
508.805	650.81
509.021	664.81
509.238	678.81
509.454	679.81
509.67	680.81
509.887	659.81
510.103	651.81
510.319	642.81
510.536	714.81
510.752	1061.81
510.968	891.81
511.184	658.81
511.401	646.81
511.617	619.81
511.833	609.81
512.049	626.81
512.265	624.81
512.481	615.81
512.698	619.81
512.914	600.81
513.13	606.81
513.346	596.81
513.562	603.81
513.778	612.81
513.994	630.81
514.21	630.81
514.426	631.81
514.642	674.81
514.858	678.81
515.074	728.81
515.29	819.81
515.506	1061.81
515.721	945.81
515.937	708.81
516.153	672.81
516.369	641.81
516.585	654.81
516.801	654.81
517.016	640.81
517.232	659.81
517.448	668.81
517.664	690.81
517.879	663.81
518.095	666.81
518.311	639.81
518.527	665.81
518.742	654.81
518.958	642.81
519.173	651.81
519.389	640.81
519.605	626.81
519.82	615.81
520.036	637.81
520.251	634.81
520.467	659.81
520.682	654.81
520.898	673.81
521.113	671.81
521.329	698.81
521.544	771.81
521.76	875.81
521.975	1313.81
522.19	1272.81
522.406	804.81
522.621	639.81
522.836	626.81
523.052	609.81
523.267	592.81
523.482	569.81
523.698	550.81
523.913	584.81
524.128	558.81
524.343	537.81
524.559	538.81
524.774	550.81
524.989	561.81
525.204	546.81
525.419	521.81
525.634	529.81
525.849	525.81
526.064	537.81
526.28	540.81
526.495	504.81
526.71	522.81
526.925	522.81
527.14	520.81
527.355	535.81
527.57	526.81
527.785	514.81
527.999	512.81
528.214	533.81
528.429	519.81
528.644	512.81
528.859	506.81
529.074	515.81
529.289	547.81
529.503	592.81
529.718	551.81
529.933	542.81
530.148	506.81
530.363	523.81
530.577	497.81
530.792	512.81
531.007	525.81
531.221	523.81
531.436	495.81
531.651	497.81
531.865	509.81
532.08	494.81
532.295	506.81
532.509	516.81
532.724	492.81
532.938	509.81
533.153	506.81
533.367	484.81
533.582	505.81
533.796	474.81
534.011	487.81
534.225	516.81
534.44	490.81
534.654	481.81
534.868	502.81
535.083	470.81
535.297	481.81
535.511	500.81
535.726	486.81
535.94	506.81
536.154	489.81
536.369	475.81
536.583	472.81
536.797	481.81
537.011	472.81
537.225	481.81
537.44	470.81
537.654	462.81
537.868	467.81
538.082	470.81
538.296	471.81
538.51	473.81
538.724	475.81
538.938	489.81
539.153	479.81
539.367	467.81
539.581	475.81
539.795	482.81
540.009	470.81
540.222	453.81
540.436	500.81
540.65	497.81
540.864	490.81
541.078	498.81
541.292	501.81
541.506	480.81
541.72	492.81
541.934	467.81
542.147	459.81
542.361	475.81
542.575	489.81
542.789	484.81
543.002	470.81
543.216	459.81
543.43	468.81
543.644	504.81
543.857	485.81
544.071	467.81
544.285	486.81
544.498	473.81
544.712	476.81
544.925	480.81
545.139	485.81
545.352	479.81
545.566	486.81
545.779	470.81
545.993	455.81
546.206	471.81
546.42	459.81
546.633	470.81
546.847	486.81
547.06	466.81
547.274	473.81
547.487	482.81
547.7	460.81
547.914	445.81
548.127	473.81
548.34	460.81
548.554	456.81
548.767	465.81
548.98	488.81
549.193	471.81
549.407	463.81
549.62	474.81
549.833	464.81
550.046	469.81
550.259	474.81
550.473	453.81
550.686	452.81
550.899	464.81
551.112	453.81
551.325	464.81
551.538	437.81
551.751	460.81
551.964	450.81
552.177	471.81
552.39	461.81
552.603	463.81
552.816	453.81
553.029	499.81
553.242	474.81
553.455	470.81
553.667	479.81
553.88	479.81
554.093	481.81
554.306	461.81
554.519	477.81
554.732	458.81
554.944	459.81
555.157	450.81
555.37	432.81
555.583	453.81
555.795	439.81
556.008	434.81
556.221	426.81
556.433	434.81
556.646	414.81
556.859	441.81
557.071	410.81
557.284	428.81
557.496	407.81
557.709	423.81
557.921	421.81
558.134	407.81
558.346	397.81
558.559	406.81
558.771	419.81
558.984	409.81
559.196	417.81
559.409	416.81
559.621	431.81
559.833	396.81
560.046	398.81
560.258	389.81
560.47	405.81
560.683	414.81
560.895	404.81
561.107	396.81
561.32	425.81
561.532	440.81
561.744	409.81
561.956	402.81
562.168	421.81
562.381	418.81
562.593	430.81
562.805	386.81
563.017	417.81
563.229	419.81
563.441	432.81
563.653	420.81
563.865	419.81
564.077	407.81
564.289	415.81
564.501	432.81
564.713	425.81
564.925	427.81
565.137	440.81
565.349	442.81
565.561	460.81
565.773	451.81
565.985	456.81
566.197	468.81
566.408	472.81
566.62	520.81
566.832	546.81
567.044	552.81
567.255	539.81
567.467	544.81
567.679	560.81
567.891	572.81
568.102	573.81
568.314	557.81
568.526	541.81
568.737	507.81
568.949	482.81
569.161	473.81
569.372	460.81
569.584	442.81
569.795	435.81
570.007	434.81
570.218	448.81
570.43	452.81
570.641	420.81
570.853	424.81
571.064	433.81
571.276	386.81
571.487	388.81
571.698	402.81
571.91	413.81
572.121	386.81
572.333	382.81
572.544	370.81
572.755	357.81
572.966	362.81
573.178	368.81
573.389	357.81
573.6	348.81
573.811	365.81
574.023	373.81
574.234	376.81
574.445	354.81
574.656	374.81
574.867	365.81
575.078	347.81
575.289	345.81
575.501	341.81
575.712	348.81
575.923	347.81
576.134	329.81
576.345	346.81
576.556	338.81
576.767	347.81
576.978	366.81
577.188	345.81
577.399	353.81
577.61	343.81
577.821	343.81
578.032	357.81
578.243	372.81
578.454	510.81
578.665	406.81
578.875	336.81
579.086	336.81
579.297	330.81
579.508	345.81
579.718	331.81
579.929	333.81
580.14	330.81
580.35	325.81
580.561	315.81
580.772	324.81
580.982	330.81
581.193	320.81
581.403	327.81
581.614	306.81
581.825	346.81
582.035	322.81
582.246	322.81
582.456	310.81
582.667	324.81
582.877	318.81
583.087	317.81
583.298	316.81
583.508	309.81
583.719	317.81
583.929	327.81
584.139	314.81
584.35	317.81
584.56	314.81
584.77	323.81
584.981	315.81
585.191	292.81
585.401	337.81
585.611	314.81
585.821	319.81
586.032	316.81
586.242	317.81
586.452	313.81
586.662	310.81
586.872	299.81
587.082	310.81
587.292	309.81
587.502	321.81
587.713	314.81
587.923	311.81
588.133	306.81
588.343	312.81
588.553	300.81
588.762	327.81
588.972	312.81
589.182	315.81
589.392	304.81
589.602	309.81
589.812	306.81
590.022	307.81
590.232	300.81
590.441	301.81
590.651	309.81
590.861	312.81
591.071	310.81
591.281	317.81
591.49	316.81
591.7	320.81
591.91	339.81
592.119	338.81
592.329	326.81
592.539	334.81
592.748	325.81
592.958	326.81
593.167	333.81
593.377	333.81
593.587	336.81
593.796	354.81
594.006	325.81
594.215	353.81
594.424	336.81
594.634	319.81
594.843	327.81
595.053	333.81
595.262	339.81
595.472	317.81
595.681	322.81
595.89	301.81
596.1	307.81
596.309	317.81
596.518	298.81
596.727	314.81
596.937	286.81
597.146	297.81
597.355	294.81
597.564	302.81
597.774	274.81
597.983	308.81
598.192	275.81
598.401	275.81
598.61	261.81
598.819	278.81
599.028	284.81
599.237	299.81
599.446	280.81
599.655	281.81
599.864	275.81
600.073	274.81
600.282	267.81
600.491	280.81
600.7	276.81
600.909	264.81
601.118	265.81
601.327	269.81
601.536	259.81
601.745	274.81
601.953	266.81
602.162	276.81
602.371	251.81
602.58	260.81
602.789	275.81
602.997	261.81
603.206	279.81
603.415	261.81
603.623	262.81
603.832	243.81
604.041	265.81
604.249	275.81
604.458	257.81
604.666	279.81
604.875	244.81
605.084	248.81
605.292	265.81
605.501	259.81
605.709	256.81
605.918	261.81
606.126	249.81
606.334	250.81
606.543	274.81
606.751	278.81
606.96	259.81
607.168	260.81
607.376	269.81
607.585	253.81
607.793	267.81
608.001	255.81
608.21	286.81
608.418	256.81
608.626	249.81
608.834	258.81
609.043	239.81
609.251	247.81
609.459	265.81
609.667	253.81
609.875	244.81
610.083	246.81
610.291	265.81
610.499	264.81
610.707	246.81
610.916	245.81
611.124	267.81
611.332	235.81
611.54	258.81
611.748	250.81
611.955	255.81
612.163	248.81
612.371	265.81
612.579	248.81
612.787	251.81
612.995	257.81
613.203	252.81
613.411	262.81
613.618	248.81
613.826	250.81
614.034	255.81
614.242	251.81
614.449	260.81
614.657	235.81
614.865	247.81
615.072	266.81
615.28	251.81
615.488	244.81
615.695	248.81
615.903	248.81
616.111	245.81
616.318	250.81
616.526	267.81
616.733	252.81
616.941	225.81
617.148	245.81
617.356	259.81
617.563	232.81
617.771	240.81
617.978	229.81
618.185	235.81
618.393	238.81
618.6	246.81
618.807	246.81
619.015	228.81
619.222	250.81
619.429	232.81
619.637	223.81
619.844	234.81
620.051	241.81
620.258	236.81
620.466	236.81
620.673	211.81
620.88	248.81
621.087	232.81
621.294	232.81
621.501	230.81
621.708	249.81
621.915	242.81
622.122	245.81
622.329	235.81
622.536	219.81
622.743	219.81
622.95	213.81
623.157	227.81
623.364	243.81
623.571	217.81
623.778	226.81
623.985	223.81
624.192	218.81
624.399	222.81
624.606	233.81
624.812	218.81
625.019	235.81
625.226	200.81
625.433	232.81
625.639	214.81
625.846	226.81
626.053	208.81
626.259	213.81
626.466	211.81
626.673	210.81
626.879	201.81
627.086	206.81
627.293	204.81
627.499	222.81
627.706	197.81
627.912	214.81
628.119	209.81
628.325	211.81
628.532	220.81
628.738	212.81
628.945	213.81
629.151	195.81
629.357	213.81
629.564	204.81
629.77	212.81
629.976	199.81
630.183	216.81
630.389	212.81
630.595	213.81
630.802	200.81
631.008	199.81
631.214	184.81
631.42	210.81
631.627	202.81
631.833	200.81
632.039	207.81
632.245	199.81
632.451	205.81
632.657	208.81
632.863	194.81
633.069	207.81
633.275	186.81
633.481	190.81
633.688	196.81
633.893	210.81
634.099	198.81
634.305	201.81
634.511	204.81
634.717	198.81
634.923	193.81
635.129	178.81
635.335	202.81
635.541	192.81
635.747	195.81
635.952	207.81
636.158	171.81
636.364	194.81
636.57	197.81
636.775	202.81
636.981	184.81
637.187	193.81
637.392	179.81
637.598	164.81
637.804	187.81
638.009	194.81
638.215	190.81
638.421	189.81
638.626	191.81
638.832	182.81
639.037	184.81
639.243	188.81
639.448	172.81
639.654	200.81
639.859	173.81
640.065	182.81
640.27	192.81
640.475	173.81
640.681	177.81
640.886	172.81
641.091	192.81
641.297	185.81
641.502	169.81
641.707	179.81
641.913	182.81
642.118	188.81
642.323	164.81
642.528	191.81
642.733	171.81
642.939	163.81
643.144	178.81
643.349	180.81
643.554	168.81
643.759	170.81
643.964	169.81
644.169	178.81
644.374	169.81
644.579	174.81
644.784	189.81
644.989	169.81
645.194	168.81
645.399	178.81
645.604	176.81
645.809	170.81
646.014	177.81
646.219	166.81
646.423	174.81
646.628	172.81
646.833	170.81
647.038	188.81
647.243	177.81
647.447	171.81
647.652	162.81
647.857	162.81
648.062	164.81
648.266	186.81
648.471	186.81
648.676	181.81
648.88	183.81
649.085	176.81
649.289	186.81
649.494	165.81
649.698	200.81
649.903	181.81
650.107	187.81
650.312	189.81
650.516	173.81
650.721	167.81
650.925	172.81
651.13	154.81
651.334	166.81
651.539	174.81
651.743	166.81
651.947	151.81
652.152	150.81
652.356	154.81
652.56	157.81
652.764	149.81
652.969	154.81
653.173	151.81
653.377	137.81
653.581	154.81
653.785	134.81
653.99	141.81
654.194	140.81
654.398	145.81
654.602	135.81
654.806	138.81
655.01	141.81
655.214	139.81
655.418	122.81
655.622	152.81
655.826	136.81
656.03	123.81
656.234	145.81
656.438	149.81
656.642	135.81
656.846	142.81
657.049	149.81
657.253	131.81
657.457	122.81
657.661	124.81
657.865	121.81
658.068	121.81
658.272	101.81
658.476	108.81
658.68	101.81
658.883	117.81
659.087	112.81
659.291	104.81
659.494	94.81
659.698	91.81
659.901	91.81
660.105	100.81
660.309	95.81
660.512	101.81
660.716	105.81
660.919	105.81
661.123	76.81
661.326	82.81
661.53	93.81
661.733	79.81
661.936	82.81
662.14	103.81
662.343	93.81
662.546	90.81
662.75	82.81
662.953	85.81
663.156	82.81
663.36	86.81
663.563	78.81
663.766	82.81
663.969	92.81
664.173	69.81
664.376	77.81
664.579	86.81
664.782	89.81
664.985	79.81
665.188	71.81
665.391	78.81
665.594	78.81
665.797	78.81
666	61.81
666.203	62.81
666.406	75.81
666.609	86.81
666.812	85.81
667.015	87.81
667.218	78.81
667.421	87.81
667.624	76.81
667.827	84.81
668.03	70.81
668.232	75.81
668.435	81.81
668.638	85.81
668.841	74.81
669.043	79.81
669.246	89.81
669.449	96.81
669.651	77.81
669.854	74.81
670.057	84.81
670.259	80.81
670.462	86.81
670.665	78.81
670.867	87.81
671.07	88.81
671.272	75.81
671.475	77.81
671.677	64.81
671.88	92.81
672.082	78.81
672.284	101.81
672.487	80.81
672.689	95.81
672.892	100.81
