Data from 1976.PennyLincolnUp.Lamp.En5.5.200Scan.071719.P1.Changed Mount._HRD10591_16-00-29-861.txt Node
Date: Thu Jul 18 16:00:29 EDT 2019
User: cochatt
Spectrometer: HR+D1059
Trigger mode: 1
Integration Time (sec): 1.000000E-1
Scans to average: 1
Electric dark correction enabled: true
Nonlinearity correction enabled: false
Boxcar width: 0
XAxis mode: Wavelengths
Number of Pixels in Spectrum: 2048
>>>>>Begin Spectral Data<<<<<
223.165	-27.25
223.4	-27.25
223.635	-27.25
223.869	-17.25
224.104	-19.25
224.338	-4.25
224.573	-23.25
224.808	-24.25
225.042	1.75
225.277	-1.25
225.511	8.75
225.746	-3.25
225.98	9.75
226.215	7.75
226.449	3.75
226.683	27.75
226.918	24.75
227.152	35.75
227.387	35.75
227.621	43.75
227.856	58.75
228.09	48.75
228.324	51.75
228.559	57.75
228.793	68.75
229.027	101.75
229.262	109.75
229.496	107.75
229.73	125.75
229.964	155.75
230.199	120.75
230.433	102.75
230.667	116.75
230.901	111.75
231.136	103.75
231.37	99.75
231.604	110.75
231.838	121.75
232.072	105.75
232.306	115.75
232.541	105.75
232.775	104.75
233.009	117.75
233.243	125.75
233.477	110.75
233.711	131.75
233.945	115.75
234.179	127.75
234.413	126.75
234.647	118.75
234.881	126.75
235.115	119.75
235.349	126.75
235.583	122.75
235.817	127.75
236.051	122.75
236.285	136.75
236.519	133.75
236.753	125.75
236.987	162.75
237.221	182.75
237.455	209.75
237.689	183.75
237.922	144.75
238.156	123.75
238.39	149.75
238.624	139.75
238.858	142.75
239.091	128.75
239.325	133.75
239.559	115.75
239.793	133.75
240.027	137.75
240.26	138.75
240.494	169.75
240.728	167.75
240.961	147.75
241.195	160.75
241.429	144.75
241.662	155.75
241.896	153.75
242.13	146.75
242.363	139.75
242.597	139.75
242.83	149.75
243.064	144.75
243.298	159.75
243.531	140.75
243.765	139.75
243.998	138.75
244.232	146.75
244.465	137.75
244.699	156.75
244.932	148.75
245.166	141.75
245.399	149.75
245.633	151.75
245.866	156.75
246.099	143.75
246.333	160.75
246.566	169.75
246.8	138.75
247.033	154.75
247.266	166.75
247.5	161.75
247.733	175.75
247.966	153.75
248.2	171.75
248.433	180.75
248.666	188.75
248.899	175.75
249.133	198.75
249.366	181.75
249.599	205.75
249.832	191.75
250.066	194.75
250.299	196.75
250.532	187.75
250.765	214.75
250.998	230.75
251.231	235.75
251.465	201.75
251.698	219.75
251.931	203.75
252.164	206.75
252.397	208.75
252.63	222.75
252.863	185.75
253.096	220.75
253.329	230.75
253.562	216.75
253.795	218.75
254.028	222.75
254.261	223.75
254.494	231.75
254.727	261.75
254.96	278.75
255.193	249.75
255.426	245.75
255.659	249.75
255.892	239.75
256.124	217.75
256.357	237.75
256.59	246.75
256.823	215.75
257.056	215.75
257.289	217.75
257.521	225.75
257.754	232.75
257.987	211.75
258.22	198.75
258.452	213.75
258.685	223.75
258.918	222.75
259.151	221.75
259.383	215.75
259.616	224.75
259.849	234.75
260.081	241.75
260.314	255.75
260.547	265.75
260.779	264.75
261.012	233.75
261.244	245.75
261.477	233.75
261.71	234.75
261.942	241.75
262.175	252.75
262.407	221.75
262.64	216.75
262.872	219.75
263.105	220.75
263.337	227.75
263.57	214.75
263.802	221.75
264.035	220.75
264.267	240.75
264.499	209.75
264.732	207.75
264.964	219.75
265.197	223.75
265.429	222.75
265.661	239.75
265.894	212.75
266.126	253.75
266.358	221.75
266.591	225.75
266.823	232.75
267.055	237.75
267.287	245.75
267.52	245.75
267.752	231.75
267.984	214.75
268.216	237.75
268.448	241.75
268.681	251.75
268.913	252.75
269.145	305.75
269.377	291.75
269.609	284.75
269.841	277.75
270.073	291.75
270.306	300.75
270.538	328.75
270.77	329.75
271.002	317.75
271.234	307.75
271.466	315.75
271.698	315.75
271.93	322.75
272.162	317.75
272.394	323.75
272.626	321.75
272.858	301.75
273.09	292.75
273.322	299.75
273.553	285.75
273.785	288.75
274.017	269.75
274.249	293.75
274.481	269.75
274.713	260.75
274.945	279.75
275.176	287.75
275.408	276.75
275.64	281.75
275.872	273.75
276.104	286.75
276.335	287.75
276.567	287.75
276.799	327.75
277.031	303.75
277.262	319.75
277.494	331.75
277.726	331.75
277.957	292.75
278.189	291.75
278.421	292.75
278.652	281.75
278.884	297.75
279.115	305.75
279.347	281.75
279.579	294.75
279.81	287.75
280.042	282.75
280.273	294.75
280.505	289.75
280.736	277.75
280.968	290.75
281.199	286.75
281.431	279.75
281.662	293.75
281.894	309.75
282.125	280.75
282.356	320.75
282.588	315.75
282.819	340.75
283.051	316.75
283.282	292.75
283.513	282.75
283.745	282.75
283.976	294.75
284.207	309.75
284.439	311.75
284.67	299.75
284.901	296.75
285.132	307.75
285.364	281.75
285.595	303.75
285.826	293.75
286.057	304.75
286.288	319.75
286.52	319.75
286.751	319.75
286.982	307.75
287.213	300.75
287.444	295.75
287.675	318.75
287.906	325.75
288.138	318.75
288.369	315.75
288.6	331.75
288.831	315.75
289.062	314.75
289.293	335.75
289.524	311.75
289.755	327.75
289.986	313.75
290.217	305.75
290.448	318.75
290.679	301.75
290.91	306.75
291.141	320.75
291.371	307.75
291.602	301.75
291.833	302.75
292.064	308.75
292.295	321.75
292.526	312.75
292.757	316.75
292.987	328.75
293.218	314.75
293.449	295.75
293.68	308.75
293.91	311.75
294.141	312.75
294.372	293.75
294.603	309.75
294.833	301.75
295.064	322.75
295.295	304.75
295.525	307.75
295.756	330.75
295.987	322.75
296.217	325.75
296.448	345.75
296.679	343.75
296.909	308.75
297.14	311.75
297.37	332.75
297.601	351.75
297.831	319.75
298.062	324.75
298.292	331.75
298.523	345.75
298.753	349.75
298.984	349.75
299.214	334.75
299.445	332.75
299.675	340.75
299.905	347.75
300.136	332.75
300.366	340.75
300.597	320.75
300.827	352.75
301.057	366.75
301.288	365.75
301.518	351.75
301.748	341.75
301.979	345.75
302.209	358.75
302.439	351.75
302.669	345.75
302.9	347.75
303.13	366.75
303.36	359.75
303.59	376.75
303.82	371.75
304.051	346.75
304.281	341.75
304.511	345.75
304.741	350.75
304.971	364.75
305.201	359.75
305.431	366.75
305.661	362.75
305.891	354.75
306.121	350.75
306.352	374.75
306.582	348.75
306.812	351.75
307.042	352.75
307.272	381.75
307.502	368.75
307.731	358.75
307.961	349.75
308.191	348.75
308.421	352.75
308.651	342.75
308.881	348.75
309.111	364.75
309.341	356.75
309.571	359.75
309.8	398.75
310.03	403.75
310.26	405.75
310.49	378.75
310.72	383.75
310.949	419.75
311.179	407.75
311.409	385.75
311.639	391.75
311.868	384.75
312.098	394.75
312.328	392.75
312.557	399.75
312.787	415.75
313.017	411.75
313.246	417.75
313.476	398.75
313.706	387.75
313.935	385.75
314.165	402.75
314.394	405.75
314.624	413.75
314.853	416.75
315.083	388.75
315.312	397.75
315.542	395.75
315.771	380.75
316.001	371.75
316.23	411.75
316.46	414.75
316.689	392.75
316.919	405.75
317.148	407.75
317.377	414.75
317.607	407.75
317.836	404.75
318.065	395.75
318.295	413.75
318.524	394.75
318.753	409.75
318.983	405.75
319.212	377.75
319.441	419.75
319.67	417.75
319.9	413.75
320.129	400.75
320.358	427.75
320.587	392.75
320.816	401.75
321.046	405.75
321.275	408.75
321.504	416.75
321.733	417.75
321.962	426.75
322.191	411.75
322.42	428.75
322.649	445.75
322.878	448.75
323.108	473.75
323.337	483.75
323.566	489.75
323.795	527.75
324.024	547.75
324.253	612.75
324.482	879.75
324.71	1285.75
324.939	1932.75
325.168	1692.75
325.397	863.75
325.626	602.75
325.855	540.75
326.084	481.75
326.313	478.75
326.542	495.75
326.77	532.75
326.999	603.75
327.228	793.75
327.457	1190.75
327.686	1432.75
327.914	967.75
328.143	655.75
328.372	584.75
328.6	545.75
328.829	526.75
329.058	578.75
329.287	550.75
329.515	526.75
329.744	511.75
329.972	513.75
330.201	508.75
330.43	561.75
330.658	588.75
330.887	592.75
331.115	549.75
331.344	500.75
331.572	499.75
331.801	499.75
332.03	520.75
332.258	495.75
332.486	479.75
332.715	484.75
332.943	474.75
333.172	489.75
333.4	495.75
333.629	510.75
333.857	528.75
334.085	519.75
334.314	542.75
334.542	551.75
334.771	572.75
334.999	515.75
335.227	522.75
335.455	516.75
335.684	466.75
335.912	476.75
336.14	458.75
336.369	454.75
336.597	487.75
336.825	478.75
337.053	485.75
337.281	473.75
337.51	444.75
337.738	479.75
337.966	483.75
338.194	487.75
338.422	480.75
338.65	492.75
338.878	479.75
339.106	441.75
339.334	471.75
339.562	448.75
339.79	459.75
340.018	462.75
340.246	457.75
340.474	480.75
340.702	457.75
340.93	451.75
341.158	452.75
341.386	475.75
341.614	459.75
341.842	459.75
342.07	463.75
342.298	453.75
342.526	451.75
342.754	440.75
342.981	450.75
343.209	437.75
343.437	460.75
343.665	447.75
343.893	474.75
344.12	477.75
344.348	513.75
344.576	467.75
344.804	467.75
345.031	470.75
345.259	477.75
345.487	465.75
345.714	451.75
345.942	455.75
346.17	438.75
346.397	425.75
346.625	429.75
346.853	448.75
347.08	448.75
347.308	424.75
347.535	431.75
347.763	451.75
347.99	453.75
348.218	438.75
348.445	436.75
348.673	458.75
348.9	455.75
349.128	432.75
349.355	429.75
349.583	410.75
349.81	404.75
350.037	423.75
350.265	425.75
350.492	413.75
350.72	416.75
350.947	417.75
351.174	447.75
351.402	451.75
351.629	447.75
351.856	428.75
352.083	429.75
352.311	432.75
352.538	446.75
352.765	430.75
352.992	448.75
353.22	441.75
353.447	433.75
353.674	441.75
353.901	429.75
354.128	400.75
354.355	423.75
354.583	408.75
354.81	437.75
355.037	432.75
355.264	413.75
355.491	419.75
355.718	405.75
355.945	412.75
356.172	417.75
356.399	421.75
356.626	390.75
356.853	411.75
357.08	386.75
357.307	435.75
357.534	405.75
357.761	429.75
357.988	425.75
358.215	398.75
358.441	425.75
358.668	411.75
358.895	417.75
359.122	420.75
359.349	443.75
359.576	437.75
359.802	433.75
360.029	483.75
360.256	469.75
360.483	463.75
360.709	436.75
360.936	436.75
361.163	430.75
361.39	432.75
361.616	444.75
361.843	452.75
362.07	452.75
362.296	440.75
362.523	412.75
362.749	421.75
362.976	408.75
363.203	418.75
363.429	426.75
363.656	437.75
363.882	422.75
364.109	442.75
364.335	421.75
364.562	416.75
364.788	432.75
365.015	420.75
365.241	413.75
365.468	424.75
365.694	455.75
365.92	433.75
366.147	422.75
366.373	444.75
366.599	419.75
366.826	411.75
367.052	411.75
367.278	436.75
367.505	411.75
367.731	424.75
367.957	421.75
368.184	439.75
368.41	419.75
368.636	430.75
368.862	446.75
369.089	427.75
369.315	421.75
369.541	425.75
369.767	417.75
369.993	426.75
370.219	426.75
370.445	409.75
370.672	423.75
370.898	408.75
371.124	427.75
371.35	431.75
371.576	438.75
371.802	430.75
372.028	423.75
372.254	423.75
372.48	407.75
372.706	443.75
372.932	417.75
373.158	439.75
373.384	427.75
373.61	438.75
373.835	424.75
374.061	420.75
374.287	435.75
374.513	440.75
374.739	421.75
374.965	431.75
375.191	452.75
375.416	448.75
375.642	407.75
375.868	444.75
376.094	432.75
376.319	427.75
376.545	421.75
376.771	430.75
376.997	430.75
377.222	427.75
377.448	430.75
377.674	429.75
377.899	423.75
378.125	428.75
378.35	421.75
378.576	434.75
378.802	413.75
379.027	421.75
379.253	439.75
379.478	423.75
379.704	437.75
379.929	419.75
380.155	430.75
380.38	425.75
380.606	418.75
380.831	424.75
381.057	443.75
381.282	436.75
381.507	430.75
381.733	415.75
381.958	432.75
382.184	429.75
382.409	423.75
382.634	425.75
382.86	417.75
383.085	445.75
383.31	437.75
383.535	428.75
383.761	448.75
383.986	465.75
384.211	446.75
384.436	440.75
384.662	461.75
384.887	465.75
385.112	468.75
385.337	473.75
385.562	462.75
385.787	480.75
386.013	505.75
386.238	498.75
386.463	454.75
386.688	489.75
386.913	467.75
387.138	484.75
387.363	473.75
387.588	458.75
387.813	480.75
388.038	483.75
388.263	494.75
388.488	473.75
388.713	470.75
388.938	455.75
389.163	479.75
389.387	492.75
389.612	471.75
389.837	483.75
390.062	480.75
390.287	468.75
390.512	456.75
390.736	483.75
390.961	475.75
391.186	462.75
391.411	489.75
391.636	488.75
391.86	499.75
392.085	485.75
392.31	504.75
392.534	492.75
392.759	507.75
392.984	491.75
393.208	484.75
393.433	492.75
393.658	484.75
393.882	482.75
394.107	492.75
394.331	497.75
394.556	489.75
394.78	478.75
395.005	501.75
395.229	495.75
395.454	503.75
395.678	493.75
395.903	495.75
396.127	529.75
396.352	520.75
396.576	517.75
396.801	494.75
397.025	513.75
397.249	491.75
397.474	523.75
397.698	519.75
397.922	524.75
398.147	531.75
398.371	555.75
398.595	544.75
398.82	547.75
399.044	574.75
399.268	617.75
399.492	613.75
399.717	679.75
399.941	711.75
400.165	676.75
400.389	712.75
400.613	653.75
400.837	600.75
401.062	554.75
401.286	543.75
401.51	569.75
401.734	555.75
401.958	547.75
402.182	609.75
402.406	557.75
402.63	554.75
402.854	553.75
403.078	581.75
403.302	579.75
403.526	590.75
403.75	587.75
403.974	566.75
404.198	563.75
404.422	568.75
404.645	601.75
404.869	617.75
405.093	618.75
405.317	650.75
405.541	696.75
405.765	631.75
405.988	597.75
406.212	623.75
406.436	638.75
406.66	633.75
406.883	623.75
407.107	643.75
407.331	706.75
407.555	747.75
407.778	773.75
408.002	680.75
408.226	625.75
408.449	629.75
408.673	623.75
408.896	661.75
409.12	703.75
409.344	673.75
409.567	625.75
409.791	596.75
410.014	575.75
410.238	577.75
410.461	599.75
410.685	581.75
410.908	591.75
411.132	630.75
411.355	641.75
411.578	629.75
411.802	579.75
412.025	561.75
412.249	587.75
412.472	619.75
412.695	635.75
412.919	611.75
413.142	599.75
413.365	578.75
413.589	567.75
413.812	549.75
414.035	537.75
414.258	544.75
414.482	552.75
414.705	545.75
414.928	556.75
415.151	527.75
415.374	542.75
415.597	541.75
415.821	544.75
416.044	540.75
416.267	538.75
416.49	543.75
416.713	545.75
416.936	527.75
417.159	537.75
417.382	540.75
417.605	537.75
417.828	547.75
418.051	573.75
418.274	541.75
418.497	534.75
418.72	534.75
418.943	520.75
419.166	569.75
419.389	591.75
419.611	590.75
419.834	581.75
420.057	589.75
420.28	568.75
420.503	571.75
420.726	579.75
420.948	582.75
421.171	620.75
421.394	673.75
421.617	565.75
421.839	570.75
422.062	560.75
422.285	572.75
422.507	659.75
422.73	711.75
422.953	705.75
423.175	604.75
423.398	613.75
423.621	599.75
423.843	602.75
424.066	622.75
424.288	581.75
424.511	622.75
424.733	661.75
424.956	735.75
425.178	711.75
425.401	693.75
425.623	740.75
425.846	639.75
426.068	601.75
426.291	588.75
426.513	611.75
426.735	590.75
426.958	653.75
427.18	715.75
427.402	843.75
427.625	911.75
427.847	773.75
428.069	687.75
428.292	636.75
428.514	586.75
428.736	581.75
428.958	549.75
429.181	523.75
429.403	546.75
429.625	567.75
429.847	599.75
430.069	640.75
430.292	653.75
430.514	557.75
430.736	534.75
430.958	525.75
431.18	523.75
431.402	519.75
431.624	521.75
431.846	501.75
432.068	522.75
432.29	520.75
432.512	552.75
432.734	561.75
432.956	544.75
433.178	534.75
433.4	546.75
433.622	530.75
433.844	517.75
434.066	503.75
434.287	507.75
434.509	516.75
434.731	555.75
434.953	557.75
435.175	583.75
435.397	594.75
435.618	613.75
435.84	649.75
436.062	711.75
436.284	775.75
436.505	665.75
436.727	588.75
436.949	565.75
437.17	581.75
437.392	537.75
437.614	550.75
437.835	593.75
438.057	690.75
438.278	794.75
438.5	781.75
438.721	851.75
438.943	826.75
439.165	644.75
439.386	607.75
439.608	578.75
439.829	615.75
440.05	631.75
440.272	639.75
440.493	644.75
440.715	566.75
440.936	584.75
441.158	554.75
441.379	537.75
441.6	569.75
441.822	596.75
442.043	633.75
442.264	701.75
442.486	779.75
442.707	663.75
442.928	616.75
443.149	613.75
443.371	638.75
443.592	663.75
443.813	783.75
444.034	821.75
444.255	711.75
444.476	618.75
444.698	619.75
444.919	630.75
445.14	743.75
445.361	663.75
445.582	648.75
445.803	693.75
446.024	819.75
446.245	790.75
446.466	710.75
446.687	637.75
446.908	591.75
447.129	560.75
447.35	546.75
447.571	538.75
447.792	527.75
448.013	537.75
448.234	554.75
448.455	607.75
448.675	704.75
448.896	840.75
449.117	718.75
449.338	687.75
449.559	776.75
449.779	892.75
450	706.75
450.221	571.75
450.442	539.75
450.662	547.75
450.883	534.75
451.104	522.75
451.324	542.75
451.545	526.75
451.766	501.75
451.986	470.75
452.207	484.75
452.428	492.75
452.648	481.75
452.869	483.75
453.089	488.75
453.31	509.75
453.53	503.75
453.751	487.75
453.971	482.75
454.192	495.75
454.412	479.75
454.633	468.75
454.853	476.75
455.073	461.75
455.294	505.75
455.514	565.75
455.734	546.75
455.955	477.75
456.175	462.75
456.395	443.75
456.616	446.75
456.836	445.75
457.056	458.75
457.276	443.75
457.497	442.75
457.717	453.75
457.937	458.75
458.157	469.75
458.377	462.75
458.598	495.75
458.818	538.75
459.038	613.75
459.258	652.75
459.478	554.75
459.698	517.75
459.918	529.75
460.138	519.75
460.358	564.75
460.578	565.75
460.798	546.75
461.018	549.75
461.238	552.75
461.458	542.75
461.678	522.75
461.898	553.75
462.118	552.75
462.338	573.75
462.558	564.75
462.777	584.75
462.997	637.75
463.217	629.75
463.437	638.75
463.657	592.75
463.876	599.75
464.096	583.75
464.316	576.75
464.536	595.75
464.755	583.75
464.975	606.75
465.195	603.75
465.414	640.75
465.634	593.75
465.854	567.75
466.073	534.75
466.293	516.75
466.512	526.75
466.732	504.75
466.951	495.75
467.171	507.75
467.391	502.75
467.61	519.75
467.829	528.75
468.049	529.75
468.268	513.75
468.488	493.75
468.707	487.75
468.927	484.75
469.146	478.75
469.365	475.75
469.585	475.75
469.804	494.75
470.023	483.75
470.243	493.75
470.462	512.75
470.681	510.75
470.901	526.75
471.12	516.75
471.339	507.75
471.558	522.75
471.777	513.75
471.997	499.75
472.216	492.75
472.435	521.75
472.654	528.75
472.873	502.75
473.092	518.75
473.311	474.75
473.53	492.75
473.749	532.75
473.968	544.75
474.187	642.75
474.406	670.75
474.625	587.75
474.844	541.75
475.063	512.75
475.282	502.75
475.501	517.75
475.72	521.75
475.939	510.75
476.158	525.75
476.377	515.75
476.596	533.75
476.814	513.75
477.033	535.75
477.252	535.75
477.471	540.75
477.69	550.75
477.908	533.75
478.127	567.75
478.346	572.75
478.564	582.75
478.783	581.75
479.002	588.75
479.22	583.75
479.439	598.75
479.658	616.75
479.876	617.75
480.095	600.75
480.313	644.75
480.532	630.75
480.751	649.75
480.969	620.75
481.188	659.75
481.406	679.75
481.624	621.75
481.843	596.75
482.061	583.75
482.28	610.75
482.498	596.75
482.717	592.75
482.935	596.75
483.153	587.75
483.372	569.75
483.59	583.75
483.808	589.75
484.027	580.75
484.245	599.75
484.463	616.75
484.681	617.75
484.9	614.75
485.118	614.75
485.336	621.75
485.554	617.75
485.772	610.75
485.99	630.75
486.209	624.75
486.427	604.75
486.645	624.75
486.863	644.75
487.081	613.75
487.299	630.75
487.517	636.75
487.735	609.75
487.953	629.75
488.171	620.75
488.389	608.75
488.607	638.75
488.825	608.75
489.043	624.75
489.261	654.75
489.479	636.75
489.696	639.75
489.914	641.75
490.132	667.75
490.35	662.75
490.568	627.75
490.786	685.75
491.003	684.75
491.221	708.75
491.439	682.75
491.657	697.75
491.874	723.75
492.092	727.75
492.31	724.75
492.527	700.75
492.745	725.75
492.963	722.75
493.18	740.75
493.398	733.75
493.615	746.75
493.833	750.75
494.05	730.75
494.268	771.75
494.485	755.75
494.703	732.75
494.92	747.75
495.138	726.75
495.355	747.75
495.573	758.75
495.79	747.75
496.008	740.75
496.225	755.75
496.442	748.75
496.66	740.75
496.877	760.75
497.094	765.75
497.312	748.75
497.529	796.75
497.746	789.75
497.963	797.75
498.181	843.75
498.398	862.75
498.615	837.75
498.832	848.75
499.049	888.75
499.267	913.75
499.484	982.75
499.701	1002.75
499.918	1050.75
500.135	1113.75
500.352	1185.75
500.569	1199.75
500.786	1219.75
501.003	1190.75
501.22	1134.75
501.437	1077.75
501.654	1033.75
501.871	1011.75
502.088	967.75
502.305	909.75
502.522	874.75
502.739	891.75
502.956	835.75
503.172	825.75
503.389	797.75
503.606	785.75
503.823	782.75
504.04	762.75
504.256	753.75
504.473	755.75
504.69	765.75
504.907	764.75
505.123	728.75
505.34	750.75
505.557	718.75
505.773	706.75
505.99	713.75
506.207	702.75
506.423	680.75
506.64	710.75
506.856	687.75
507.073	688.75
507.289	655.75
507.506	695.75
507.722	691.75
507.939	688.75
508.155	678.75
508.372	678.75
508.588	658.75
508.805	652.75
509.021	648.75
509.238	650.75
509.454	677.75
509.67	672.75
509.887	692.75
510.103	646.75
510.319	673.75
510.536	701.75
510.752	1059.75
510.968	873.75
511.184	670.75
511.401	615.75
511.617	617.75
511.833	618.75
512.049	625.75
512.265	600.75
512.481	615.75
512.698	622.75
512.914	600.75
513.13	638.75
513.346	602.75
513.562	604.75
513.778	593.75
513.994	636.75
514.21	643.75
514.426	638.75
514.642	642.75
514.858	678.75
515.074	699.75
515.29	783.75
515.506	1065.75
515.721	917.75
515.937	684.75
516.153	657.75
516.369	671.75
516.585	663.75
516.801	661.75
517.016	667.75
517.232	655.75
517.448	647.75
517.664	693.75
517.879	684.75
518.095	664.75
518.311	669.75
518.527	647.75
518.742	653.75
518.958	643.75
519.173	649.75
519.389	616.75
519.605	625.75
519.82	623.75
520.036	645.75
520.251	672.75
520.467	663.75
520.682	633.75
520.898	648.75
521.113	639.75
521.329	673.75
521.544	746.75
521.76	892.75
521.975	1314.75
522.19	1273.75
522.406	809.75
522.621	666.75
522.836	631.75
523.052	611.75
523.267	590.75
523.482	581.75
523.698	568.75
523.913	581.75
524.128	571.75
524.343	573.75
524.559	547.75
524.774	541.75
524.989	529.75
525.204	544.75
525.419	538.75
525.634	550.75
525.849	541.75
526.064	537.75
526.28	569.75
526.495	512.75
526.71	516.75
526.925	522.75
527.14	535.75
527.355	509.75
527.57	506.75
527.785	527.75
527.999	511.75
528.214	514.75
528.429	511.75
528.644	513.75
528.859	524.75
529.074	542.75
529.289	534.75
529.503	573.75
529.718	584.75
529.933	548.75
530.148	542.75
530.363	513.75
530.577	528.75
530.792	506.75
531.007	484.75
531.221	488.75
531.436	512.75
531.651	512.75
531.865	490.75
532.08	501.75
532.295	506.75
532.509	468.75
532.724	500.75
532.938	493.75
533.153	486.75
533.367	512.75
533.582	501.75
533.796	477.75
534.011	504.75
534.225	489.75
534.44	493.75
534.654	485.75
534.868	487.75
535.083	458.75
535.297	488.75
535.511	503.75
535.726	521.75
535.94	500.75
536.154	480.75
536.369	492.75
536.583	504.75
536.797	462.75
537.011	485.75
537.225	490.75
537.44	487.75
537.654	499.75
537.868	483.75
538.082	463.75
538.296	483.75
538.51	472.75
538.724	488.75
538.938	488.75
539.153	469.75
539.367	465.75
539.581	492.75
539.795	486.75
540.009	473.75
540.222	472.75
540.436	489.75
540.65	472.75
540.864	461.75
541.078	474.75
541.292	502.75
541.506	491.75
541.72	492.75
541.934	470.75
542.147	486.75
542.361	471.75
542.575	469.75
542.789	474.75
543.002	488.75
543.216	494.75
543.43	478.75
543.644	482.75
543.857	479.75
544.071	463.75
544.285	487.75
544.498	494.75
544.712	457.75
544.925	503.75
545.139	487.75
545.352	466.75
545.566	505.75
545.779	471.75
545.993	464.75
546.206	477.75
546.42	486.75
546.633	463.75
546.847	460.75
547.06	465.75
547.274	448.75
547.487	473.75
547.7	468.75
547.914	468.75
548.127	465.75
548.34	451.75
548.554	456.75
548.767	480.75
548.98	465.75
549.193	458.75
549.407	468.75
549.62	461.75
549.833	464.75
550.046	476.75
550.259	462.75
550.473	476.75
550.686	456.75
550.899	448.75
551.112	461.75
551.325	483.75
551.538	442.75
551.751	458.75
551.964	468.75
552.177	456.75
552.39	461.75
552.603	492.75
552.816	484.75
553.029	482.75
553.242	463.75
553.455	454.75
553.667	484.75
553.88	492.75
554.093	485.75
554.306	479.75
554.519	481.75
554.732	464.75
554.944	449.75
555.157	450.75
555.37	447.75
555.583	441.75
555.795	472.75
556.008	445.75
556.221	415.75
556.433	415.75
556.646	419.75
556.859	420.75
557.071	415.75
557.284	421.75
557.496	416.75
557.709	414.75
557.921	444.75
558.134	410.75
558.346	424.75
558.559	397.75
558.771	413.75
558.984	414.75
559.196	414.75
559.409	418.75
559.621	414.75
559.833	428.75
560.046	391.75
560.258	401.75
560.47	394.75
560.683	425.75
560.895	415.75
561.107	395.75
561.32	387.75
561.532	415.75
561.744	424.75
561.956	405.75
562.168	417.75
562.381	402.75
562.593	420.75
562.805	416.75
563.017	406.75
563.229	423.75
563.441	423.75
563.653	407.75
563.865	423.75
564.077	412.75
564.289	432.75
564.501	422.75
564.713	445.75
564.925	441.75
565.137	458.75
565.349	448.75
565.561	466.75
565.773	463.75
565.985	472.75
566.197	456.75
566.408	511.75
566.62	517.75
566.832	532.75
567.044	557.75
567.255	557.75
567.467	564.75
567.679	563.75
567.891	576.75
568.102	573.75
568.314	566.75
568.526	539.75
568.737	505.75
568.949	499.75
569.161	485.75
569.372	447.75
569.584	438.75
569.795	437.75
570.007	423.75
570.218	435.75
570.43	425.75
570.641	407.75
570.853	436.75
571.064	403.75
571.276	412.75
571.487	416.75
571.698	389.75
571.91	380.75
572.121	398.75
572.333	379.75
572.544	382.75
572.755	371.75
572.966	387.75
573.178	382.75
573.389	378.75
573.6	366.75
573.811	355.75
574.023	358.75
574.234	361.75
574.445	365.75
574.656	343.75
574.867	353.75
575.078	356.75
575.289	359.75
575.501	358.75
575.712	346.75
575.923	349.75
576.134	351.75
576.345	353.75
576.556	335.75
576.767	344.75
576.978	336.75
577.188	351.75
577.399	368.75
577.61	342.75
577.821	336.75
578.032	340.75
578.243	360.75
578.454	508.75
578.665	407.75
578.875	355.75
579.086	332.75
579.297	335.75
579.508	339.75
579.718	328.75
579.929	326.75
580.14	325.75
580.35	321.75
580.561	331.75
580.772	343.75
580.982	346.75
581.193	302.75
581.403	336.75
581.614	320.75
581.825	312.75
582.035	323.75
582.246	296.75
582.456	319.75
582.667	325.75
582.877	312.75
583.087	322.75
583.298	307.75
583.508	319.75
583.719	304.75
583.929	315.75
584.139	306.75
584.35	303.75
584.56	323.75
584.77	312.75
584.981	323.75
585.191	314.75
585.401	311.75
585.611	312.75
585.821	320.75
586.032	304.75
586.242	301.75
586.452	299.75
586.662	316.75
586.872	305.75
587.082	302.75
587.292	310.75
587.502	326.75
587.713	315.75
587.923	312.75
588.133	309.75
588.343	324.75
588.553	302.75
588.762	306.75
588.972	324.75
589.182	303.75
589.392	316.75
589.602	324.75
589.812	321.75
590.022	304.75
590.232	341.75
590.441	318.75
590.651	328.75
590.861	302.75
591.071	317.75
591.281	323.75
591.49	299.75
591.7	316.75
591.91	319.75
592.119	313.75
592.329	330.75
592.539	333.75
592.748	335.75
592.958	317.75
593.167	338.75
593.377	352.75
593.587	344.75
593.796	335.75
594.006	345.75
594.215	345.75
594.424	337.75
594.634	343.75
594.843	326.75
595.053	327.75
595.262	330.75
595.472	320.75
595.681	318.75
595.89	298.75
596.1	299.75
596.309	311.75
596.518	297.75
596.727	324.75
596.937	300.75
597.146	298.75
597.355	286.75
597.564	285.75
597.774	269.75
597.983	262.75
598.192	291.75
598.401	273.75
598.61	277.75
598.819	271.75
599.028	281.75
599.237	280.75
599.446	282.75
599.655	276.75
599.864	280.75
600.073	276.75
600.282	275.75
600.491	287.75
600.7	278.75
600.909	281.75
601.118	269.75
601.327	286.75
601.536	275.75
601.745	269.75
601.953	277.75
602.162	267.75
602.371	273.75
602.58	248.75
602.789	271.75
602.997	262.75
603.206	276.75
603.415	250.75
603.623	236.75
603.832	259.75
604.041	287.75
604.249	263.75
604.458	251.75
604.666	252.75
604.875	263.75
605.084	273.75
605.292	273.75
605.501	258.75
605.709	265.75
605.918	263.75
606.126	264.75
606.334	253.75
606.543	251.75
606.751	265.75
606.96	268.75
607.168	261.75
607.376	267.75
607.585	257.75
607.793	252.75
608.001	245.75
608.21	267.75
608.418	267.75
608.626	268.75
608.834	258.75
609.043	247.75
609.251	249.75
609.459	267.75
609.667	251.75
609.875	258.75
610.083	259.75
610.291	257.75
610.499	252.75
610.707	247.75
610.916	249.75
611.124	275.75
611.332	257.75
611.54	279.75
611.748	265.75
611.955	257.75
612.163	245.75
612.371	261.75
612.579	247.75
612.787	261.75
612.995	265.75
613.203	235.75
613.411	250.75
613.618	259.75
613.826	250.75
614.034	247.75
614.242	254.75
614.449	252.75
614.657	242.75
614.865	233.75
615.072	229.75
615.28	274.75
615.488	221.75
615.695	242.75
615.903	234.75
616.111	240.75
616.318	252.75
616.526	256.75
616.733	250.75
616.941	251.75
617.148	245.75
617.356	240.75
617.563	255.75
617.771	248.75
617.978	242.75
618.185	237.75
618.393	251.75
618.6	246.75
618.807	247.75
619.015	229.75
619.222	243.75
619.429	243.75
619.637	252.75
619.844	245.75
620.051	244.75
620.258	258.75
620.466	223.75
620.673	229.75
620.88	246.75
621.087	237.75
621.294	236.75
621.501	222.75
621.708	222.75
621.915	249.75
622.122	258.75
622.329	219.75
622.536	220.75
622.743	216.75
622.95	253.75
623.157	226.75
623.364	239.75
623.571	220.75
623.778	211.75
623.985	219.75
624.192	226.75
624.399	213.75
624.606	253.75
624.812	219.75
625.019	215.75
625.226	242.75
625.433	216.75
625.639	230.75
625.846	205.75
626.053	210.75
626.259	221.75
626.466	224.75
626.673	223.75
626.879	217.75
627.086	223.75
627.293	206.75
627.499	231.75
627.706	225.75
627.912	215.75
628.119	211.75
628.325	213.75
628.532	193.75
628.738	214.75
628.945	202.75
629.151	219.75
629.357	208.75
629.564	211.75
629.77	202.75
629.976	212.75
630.183	199.75
630.389	211.75
630.595	201.75
630.802	205.75
631.008	201.75
631.214	207.75
631.42	219.75
631.627	217.75
631.833	208.75
632.039	208.75
632.245	199.75
632.451	195.75
632.657	197.75
632.863	201.75
633.069	200.75
633.275	194.75
633.481	192.75
633.688	187.75
633.893	209.75
634.099	196.75
634.305	198.75
634.511	174.75
634.717	191.75
634.923	190.75
635.129	183.75
635.335	181.75
635.541	187.75
635.747	186.75
635.952	201.75
636.158	195.75
636.364	199.75
636.57	205.75
636.775	192.75
636.981	182.75
637.187	187.75
637.392	185.75
637.598	192.75
637.804	181.75
638.009	204.75
638.215	196.75
638.421	184.75
638.626	175.75
638.832	200.75
639.037	171.75
639.243	172.75
639.448	181.75
639.654	196.75
639.859	179.75
640.065	183.75
640.27	187.75
640.475	181.75
640.681	182.75
640.886	167.75
641.091	174.75
641.297	193.75
641.502	173.75
641.707	179.75
641.913	185.75
642.118	184.75
642.323	169.75
642.528	173.75
642.733	176.75
642.939	170.75
643.144	164.75
643.349	174.75
643.554	183.75
643.759	178.75
643.964	167.75
644.169	185.75
644.374	167.75
644.579	184.75
644.784	190.75
644.989	187.75
645.194	169.75
645.399	175.75
645.604	181.75
645.809	165.75
646.014	182.75
646.219	179.75
646.423	163.75
646.628	182.75
646.833	168.75
647.038	167.75
647.243	177.75
647.447	181.75
647.652	174.75
647.857	179.75
648.062	171.75
648.266	177.75
648.471	199.75
648.676	181.75
648.88	177.75
649.085	183.75
649.289	179.75
649.494	178.75
649.698	175.75
649.903	189.75
650.107	169.75
650.312	176.75
650.516	167.75
650.721	151.75
650.925	158.75
651.13	164.75
651.334	156.75
651.539	173.75
651.743	155.75
651.947	157.75
652.152	151.75
652.356	152.75
652.56	138.75
652.764	145.75
652.969	161.75
653.173	136.75
653.377	132.75
653.581	148.75
653.785	130.75
653.99	135.75
654.194	150.75
654.398	134.75
654.602	134.75
654.806	139.75
655.01	151.75
655.214	150.75
655.418	138.75
655.622	140.75
655.826	146.75
656.03	153.75
656.234	141.75
656.438	156.75
656.642	147.75
656.846	134.75
657.049	143.75
657.253	126.75
657.457	136.75
657.661	138.75
657.865	131.75
658.068	118.75
658.272	106.75
658.476	96.75
658.68	115.75
658.883	102.75
659.087	119.75
659.291	105.75
659.494	98.75
659.698	97.75
659.901	96.75
660.105	104.75
660.309	106.75
660.512	91.75
660.716	103.75
660.919	90.75
661.123	91.75
661.326	106.75
661.53	79.75
661.733	89.75
661.936	84.75
662.14	87.75
662.343	99.75
662.546	81.75
662.75	91.75
662.953	90.75
663.156	90.75
663.36	84.75
663.563	100.75
663.766	88.75
663.969	87.75
664.173	89.75
664.376	79.75
664.579	87.75
664.782	94.75
664.985	92.75
665.188	87.75
665.391	91.75
665.594	94.75
665.797	92.75
666	88.75
666.203	76.75
666.406	89.75
666.609	90.75
666.812	92.75
667.015	77.75
667.218	83.75
667.421	92.75
667.624	78.75
667.827	85.75
668.03	83.75
668.232	88.75
668.435	74.75
668.638	81.75
668.841	96.75
669.043	86.75
669.246	73.75
669.449	79.75
669.651	75.75
669.854	79.75
670.057	75.75
670.259	85.75
670.462	97.75
670.665	77.75
670.867	90.75
671.07	92.75
671.272	100.75
671.475	95.75
671.677	82.75
671.88	80.75
672.082	87.75
672.284	86.75
672.487	84.75
672.689	91.75
672.892	82.75
