Data from 1976.PennyLincolnUp.Lamp.En5.5.200Scan.071719.P1.Changed Mount._HRD10591_15-59-47-860.txt Node
Date: Thu Jul 18 15:59:47 EDT 2019
User: cochatt
Spectrometer: HR+D1059
Trigger mode: 1
Integration Time (sec): 1.000000E-1
Scans to average: 1
Electric dark correction enabled: true
Nonlinearity correction enabled: false
Boxcar width: 0
XAxis mode: Wavelengths
Number of Pixels in Spectrum: 2048
>>>>>Begin Spectral Data<<<<<
223.165	-7.12
223.4	-7.12
223.635	-7.12
223.869	-26.12
224.104	-25.12
224.338	-20.12
224.573	-9.12
224.808	-12.12
225.042	-7.12
225.277	-6.12
225.511	-15.12
225.746	5.88
225.98	12.88
226.215	13.88
226.449	12.88
226.683	15.88
226.918	28.88
227.152	37.88
227.387	38.88
227.621	51.88
227.856	57.88
228.09	43.88
228.324	63.88
228.559	59.88
228.793	76.88
229.027	98.88
229.262	105.88
229.496	118.88
229.73	125.88
229.964	152.88
230.199	129.88
230.433	109.88
230.667	105.88
230.901	117.88
231.136	112.88
231.37	113.88
231.604	124.88
231.838	116.88
232.072	117.88
232.306	109.88
232.541	117.88
232.775	114.88
233.009	121.88
233.243	107.88
233.477	109.88
233.711	113.88
233.945	137.88
234.179	111.88
234.413	122.88
234.647	111.88
234.881	121.88
235.115	117.88
235.349	125.88
235.583	130.88
235.817	120.88
236.051	121.88
236.285	126.88
236.519	139.88
236.753	140.88
236.987	146.88
237.221	182.88
237.455	218.88
237.689	190.88
237.922	130.88
238.156	136.88
238.39	122.88
238.624	120.88
238.858	129.88
239.091	135.88
239.325	134.88
239.559	130.88
239.793	145.88
240.027	127.88
240.26	132.88
240.494	143.88
240.728	142.88
240.961	136.88
241.195	148.88
241.429	155.88
241.662	139.88
241.896	138.88
242.13	123.88
242.363	135.88
242.597	136.88
242.83	142.88
243.064	126.88
243.298	153.88
243.531	146.88
243.765	145.88
243.998	145.88
244.232	143.88
244.465	142.88
244.699	139.88
244.932	141.88
245.166	161.88
245.399	137.88
245.633	147.88
245.866	143.88
246.099	135.88
246.333	142.88
246.566	147.88
246.8	164.88
247.033	160.88
247.266	160.88
247.5	160.88
247.733	167.88
247.966	154.88
248.2	171.88
248.433	184.88
248.666	174.88
248.899	168.88
249.133	180.88
249.366	207.88
249.599	186.88
249.832	184.88
250.066	193.88
250.299	173.88
250.532	179.88
250.765	199.88
250.998	216.88
251.231	222.88
251.465	213.88
251.698	206.88
251.931	194.88
252.164	186.88
252.397	205.88
252.63	191.88
252.863	199.88
253.096	196.88
253.329	210.88
253.562	208.88
253.795	219.88
254.028	215.88
254.261	211.88
254.494	208.88
254.727	236.88
254.96	279.88
255.193	264.88
255.426	230.88
255.659	218.88
255.892	225.88
256.124	228.88
256.357	213.88
256.59	213.88
256.823	221.88
257.056	213.88
257.289	197.88
257.521	220.88
257.754	210.88
257.987	215.88
258.22	200.88
258.452	192.88
258.685	211.88
258.918	215.88
259.151	201.88
259.383	222.88
259.616	221.88
259.849	214.88
260.081	222.88
260.314	220.88
260.547	241.88
260.779	250.88
261.012	219.88
261.244	213.88
261.477	210.88
261.71	203.88
261.942	216.88
262.175	213.88
262.407	223.88
262.64	210.88
262.872	208.88
263.105	202.88
263.337	223.88
263.57	215.88
263.802	210.88
264.035	220.88
264.267	210.88
264.499	217.88
264.732	208.88
264.964	204.88
265.197	232.88
265.429	220.88
265.661	210.88
265.894	205.88
266.126	221.88
266.358	218.88
266.591	213.88
266.823	229.88
267.055	222.88
267.287	225.88
267.52	220.88
267.752	220.88
267.984	231.88
268.216	225.88
268.448	233.88
268.681	227.88
268.913	248.88
269.145	255.88
269.377	250.88
269.609	259.88
269.841	254.88
270.073	287.88
270.306	281.88
270.538	309.88
270.77	287.88
271.002	283.88
271.234	274.88
271.466	287.88
271.698	310.88
271.93	295.88
272.162	315.88
272.394	299.88
272.626	295.88
272.858	270.88
273.09	284.88
273.322	263.88
273.553	258.88
273.785	256.88
274.017	263.88
274.249	261.88
274.481	257.88
274.713	264.88
274.945	259.88
275.176	262.88
275.408	258.88
275.64	269.88
275.872	278.88
276.104	285.88
276.335	286.88
276.567	282.88
276.799	273.88
277.031	287.88
277.262	294.88
277.494	305.88
277.726	314.88
277.957	291.88
278.189	274.88
278.421	265.88
278.652	257.88
278.884	283.88
279.115	281.88
279.347	274.88
279.579	268.88
279.81	247.88
280.042	274.88
280.273	270.88
280.505	268.88
280.736	267.88
280.968	277.88
281.199	265.88
281.431	269.88
281.662	267.88
281.894	272.88
282.125	261.88
282.356	292.88
282.588	302.88
282.819	285.88
283.051	279.88
283.282	286.88
283.513	305.88
283.745	287.88
283.976	279.88
284.207	303.88
284.439	274.88
284.67	287.88
284.901	296.88
285.132	286.88
285.364	284.88
285.595	290.88
285.826	297.88
286.057	286.88
286.288	281.88
286.52	282.88
286.751	313.88
286.982	302.88
287.213	303.88
287.444	280.88
287.675	290.88
287.906	294.88
288.138	303.88
288.369	324.88
288.6	298.88
288.831	313.88
289.062	303.88
289.293	287.88
289.524	303.88
289.755	310.88
289.986	311.88
290.217	287.88
290.448	297.88
290.679	286.88
290.91	298.88
291.141	319.88
291.371	293.88
291.602	289.88
291.833	299.88
292.064	297.88
292.295	290.88
292.526	312.88
292.757	294.88
292.987	317.88
293.218	315.88
293.449	313.88
293.68	292.88
293.91	313.88
294.141	305.88
294.372	287.88
294.603	296.88
294.833	296.88
295.064	312.88
295.295	317.88
295.525	302.88
295.756	306.88
295.987	320.88
296.217	350.88
296.448	320.88
296.679	319.88
296.909	298.88
297.14	309.88
297.37	310.88
297.601	309.88
297.831	319.88
298.062	327.88
298.292	312.88
298.523	335.88
298.753	335.88
298.984	314.88
299.214	325.88
299.445	339.88
299.675	337.88
299.905	300.88
300.136	310.88
300.366	330.88
300.597	318.88
300.827	350.88
301.057	329.88
301.288	338.88
301.518	319.88
301.748	328.88
301.979	329.88
302.209	338.88
302.439	331.88
302.669	326.88
302.9	315.88
303.13	326.88
303.36	320.88
303.59	332.88
303.82	350.88
304.051	362.88
304.281	336.88
304.511	338.88
304.741	340.88
304.971	320.88
305.201	323.88
305.431	313.88
305.661	331.88
305.891	326.88
306.121	339.88
306.352	339.88
306.582	343.88
306.812	339.88
307.042	327.88
307.272	333.88
307.502	342.88
307.731	318.88
307.961	341.88
308.191	343.88
308.421	339.88
308.651	328.88
308.881	346.88
309.111	365.88
309.341	332.88
309.571	328.88
309.8	354.88
310.03	358.88
310.26	383.88
310.49	366.88
310.72	354.88
310.949	374.88
311.179	371.88
311.409	381.88
311.639	361.88
311.868	364.88
312.098	364.88
312.328	365.88
312.557	393.88
312.787	397.88
313.017	377.88
313.246	393.88
313.476	367.88
313.706	379.88
313.935	382.88
314.165	383.88
314.394	401.88
314.624	389.88
314.853	370.88
315.083	385.88
315.312	376.88
315.542	362.88
315.771	350.88
316.001	361.88
316.23	360.88
316.46	370.88
316.689	402.88
316.919	377.88
317.148	393.88
317.377	384.88
317.607	386.88
317.836	382.88
318.065	374.88
318.295	377.88
318.524	359.88
318.753	359.88
318.983	357.88
319.212	380.88
319.441	380.88
319.67	388.88
319.9	384.88
320.129	375.88
320.358	392.88
320.587	385.88
320.816	358.88
321.046	403.88
321.275	391.88
321.504	389.88
321.733	403.88
321.962	414.88
322.191	439.88
322.42	397.88
322.649	405.88
322.878	400.88
323.108	433.88
323.337	440.88
323.566	445.88
323.795	447.88
324.024	486.88
324.253	541.88
324.482	744.88
324.71	1114.88
324.939	1627.88
325.168	1425.88
325.397	728.88
325.626	538.88
325.855	463.88
326.084	455.88
326.313	432.88
326.542	460.88
326.77	477.88
326.999	541.88
327.228	701.88
327.457	997.88
327.686	1229.88
327.914	839.88
328.143	587.88
328.372	499.88
328.6	492.88
328.829	505.88
329.058	487.88
329.287	503.88
329.515	467.88
329.744	461.88
329.972	447.88
330.201	451.88
330.43	498.88
330.658	515.88
330.887	535.88
331.115	508.88
331.344	479.88
331.572	445.88
331.801	452.88
332.03	458.88
332.258	443.88
332.486	422.88
332.715	441.88
332.943	434.88
333.172	451.88
333.4	458.88
333.629	454.88
333.857	460.88
334.085	463.88
334.314	488.88
334.542	517.88
334.771	503.88
334.999	475.88
335.227	475.88
335.455	448.88
335.684	452.88
335.912	462.88
336.14	441.88
336.369	431.88
336.597	461.88
336.825	460.88
337.053	439.88
337.281	439.88
337.51	430.88
337.738	429.88
337.966	439.88
338.194	440.88
338.422	428.88
338.65	415.88
338.878	420.88
339.106	432.88
339.334	459.88
339.562	432.88
339.79	423.88
340.018	421.88
340.246	409.88
340.474	437.88
340.702	415.88
340.93	402.88
341.158	423.88
341.386	409.88
341.614	404.88
341.842	426.88
342.07	429.88
342.298	429.88
342.526	425.88
342.754	414.88
342.981	418.88
343.209	412.88
343.437	424.88
343.665	405.88
343.893	429.88
344.12	446.88
344.348	462.88
344.576	454.88
344.804	432.88
345.031	433.88
345.259	451.88
345.487	428.88
345.714	423.88
345.942	426.88
346.17	412.88
346.397	415.88
346.625	394.88
346.853	401.88
347.08	416.88
347.308	416.88
347.535	412.88
347.763	416.88
347.99	392.88
348.218	416.88
348.445	431.88
348.673	407.88
348.9	410.88
349.128	410.88
349.355	399.88
349.583	406.88
349.81	394.88
350.037	376.88
350.265	382.88
350.492	384.88
350.72	393.88
350.947	392.88
351.174	413.88
351.402	392.88
351.629	403.88
351.856	401.88
352.083	415.88
352.311	417.88
352.538	392.88
352.765	430.88
352.992	385.88
353.22	428.88
353.447	400.88
353.674	409.88
353.901	413.88
354.128	398.88
354.355	385.88
354.583	407.88
354.81	400.88
355.037	383.88
355.264	377.88
355.491	387.88
355.718	386.88
355.945	383.88
356.172	383.88
356.399	372.88
356.626	363.88
356.853	391.88
357.08	387.88
357.307	399.88
357.534	379.88
357.761	392.88
357.988	381.88
358.215	401.88
358.441	390.88
358.668	400.88
358.895	386.88
359.122	398.88
359.349	395.88
359.576	421.88
359.802	427.88
360.029	417.88
360.256	427.88
360.483	414.88
360.709	425.88
360.936	394.88
361.163	406.88
361.39	413.88
361.616	429.88
361.843	400.88
362.07	399.88
362.296	397.88
362.523	417.88
362.749	408.88
362.976	415.88
363.203	408.88
363.429	395.88
363.656	399.88
363.882	375.88
364.109	386.88
364.335	371.88
364.562	406.88
364.788	393.88
365.015	380.88
365.241	411.88
365.468	401.88
365.694	386.88
365.92	400.88
366.147	391.88
366.373	408.88
366.599	381.88
366.826	389.88
367.052	398.88
367.278	403.88
367.505	399.88
367.731	383.88
367.957	385.88
368.184	382.88
368.41	382.88
368.636	418.88
368.862	397.88
369.089	407.88
369.315	382.88
369.541	377.88
369.767	393.88
369.993	401.88
370.219	403.88
370.445	406.88
370.672	398.88
370.898	423.88
371.124	393.88
371.35	423.88
371.576	386.88
371.802	412.88
372.028	409.88
372.254	416.88
372.48	403.88
372.706	416.88
372.932	400.88
373.158	424.88
373.384	407.88
373.61	413.88
373.835	411.88
374.061	419.88
374.287	411.88
374.513	409.88
374.739	401.88
374.965	402.88
375.191	420.88
375.416	408.88
375.642	407.88
375.868	416.88
376.094	387.88
376.319	390.88
376.545	405.88
376.771	416.88
376.997	410.88
377.222	394.88
377.448	400.88
377.674	397.88
377.899	392.88
378.125	401.88
378.35	378.88
378.576	401.88
378.802	413.88
379.027	398.88
379.253	415.88
379.478	411.88
379.704	387.88
379.929	398.88
380.155	380.88
380.38	410.88
380.606	399.88
380.831	393.88
381.057	402.88
381.282	403.88
381.507	425.88
381.733	403.88
381.958	399.88
382.184	404.88
382.409	410.88
382.634	420.88
382.86	417.88
383.085	426.88
383.31	419.88
383.535	406.88
383.761	428.88
383.986	432.88
384.211	434.88
384.436	427.88
384.662	445.88
384.887	436.88
385.112	434.88
385.337	455.88
385.562	457.88
385.787	447.88
386.013	467.88
386.238	466.88
386.463	455.88
386.688	450.88
386.913	455.88
387.138	461.88
387.363	455.88
387.588	435.88
387.813	439.88
388.038	446.88
388.263	460.88
388.488	451.88
388.713	455.88
388.938	431.88
389.163	445.88
389.387	441.88
389.612	451.88
389.837	449.88
390.062	425.88
390.287	443.88
390.512	449.88
390.736	456.88
390.961	427.88
391.186	472.88
391.411	457.88
391.636	459.88
391.86	455.88
392.085	477.88
392.31	467.88
392.534	482.88
392.759	464.88
392.984	459.88
393.208	461.88
393.433	434.88
393.658	458.88
393.882	438.88
394.107	451.88
394.331	432.88
394.556	477.88
394.78	470.88
395.005	445.88
395.229	469.88
395.454	450.88
395.678	467.88
395.903	474.88
396.127	507.88
396.352	485.88
396.576	469.88
396.801	463.88
397.025	477.88
397.249	482.88
397.474	465.88
397.698	466.88
397.922	471.88
398.147	497.88
398.371	517.88
398.595	504.88
398.82	518.88
399.044	539.88
399.268	559.88
399.492	614.88
399.717	611.88
399.941	651.88
400.165	637.88
400.389	677.88
400.613	592.88
400.837	553.88
401.062	554.88
401.286	540.88
401.51	538.88
401.734	527.88
401.958	525.88
402.182	523.88
402.406	525.88
402.63	522.88
402.854	535.88
403.078	535.88
403.302	551.88
403.526	544.88
403.75	565.88
403.974	566.88
404.198	558.88
404.422	552.88
404.645	552.88
404.869	551.88
405.093	582.88
405.317	593.88
405.541	622.88
405.765	585.88
405.988	568.88
406.212	586.88
406.436	578.88
406.66	594.88
406.883	585.88
407.107	594.88
407.331	647.88
407.555	699.88
407.778	718.88
408.002	643.88
408.226	607.88
408.449	605.88
408.673	584.88
408.896	616.88
409.12	654.88
409.344	609.88
409.567	568.88
409.791	569.88
410.014	526.88
410.238	544.88
410.461	532.88
410.685	544.88
410.908	539.88
411.132	580.88
411.355	635.88
411.578	595.88
411.802	543.88
412.025	534.88
412.249	545.88
412.472	592.88
412.695	598.88
412.919	575.88
413.142	547.88
413.365	519.88
413.589	519.88
413.812	538.88
414.035	512.88
414.258	505.88
414.482	505.88
414.705	519.88
414.928	518.88
415.151	529.88
415.374	521.88
415.597	522.88
415.821	503.88
416.044	477.88
416.267	513.88
416.49	495.88
416.713	507.88
416.936	489.88
417.159	517.88
417.382	499.88
417.605	517.88
417.828	494.88
418.051	538.88
418.274	542.88
418.497	544.88
418.72	517.88
418.943	526.88
419.166	550.88
419.389	558.88
419.611	539.88
419.834	545.88
420.057	544.88
420.28	543.88
420.503	543.88
420.726	511.88
420.948	528.88
421.171	586.88
421.394	618.88
421.617	551.88
421.839	528.88
422.062	528.88
422.285	539.88
422.507	582.88
422.73	680.88
422.953	646.88
423.175	575.88
423.398	533.88
423.621	547.88
423.843	579.88
424.066	566.88
424.288	553.88
424.511	549.88
424.733	619.88
424.956	706.88
425.178	651.88
425.401	654.88
425.623	680.88
425.846	591.88
426.068	563.88
426.291	553.88
426.513	548.88
426.735	568.88
426.958	582.88
427.18	670.88
427.402	800.88
427.625	869.88
427.847	729.88
428.069	638.88
428.292	571.88
428.514	542.88
428.736	516.88
428.958	500.88
429.181	517.88
429.403	496.88
429.625	517.88
429.847	521.88
430.069	607.88
430.292	599.88
430.514	530.88
430.736	495.88
430.958	502.88
431.18	488.88
431.402	474.88
431.624	481.88
431.846	489.88
432.068	494.88
432.29	496.88
432.512	497.88
432.734	499.88
432.956	499.88
433.178	515.88
433.4	506.88
433.622	519.88
433.844	496.88
434.066	496.88
434.287	518.88
434.509	494.88
434.731	527.88
434.953	520.88
435.175	539.88
435.397	538.88
435.618	545.88
435.84	601.88
436.062	667.88
436.284	734.88
436.505	618.88
436.727	556.88
436.949	542.88
437.17	534.88
437.392	498.88
437.614	527.88
437.835	543.88
438.057	617.88
438.278	707.88
438.5	704.88
438.721	776.88
438.943	770.88
439.165	604.88
439.386	562.88
439.608	531.88
439.829	548.88
440.05	565.88
440.272	616.88
440.493	561.88
440.715	544.88
440.936	518.88
441.158	536.88
441.379	525.88
441.6	526.88
441.822	539.88
442.043	584.88
442.264	655.88
442.486	686.88
442.707	591.88
442.928	551.88
443.149	553.88
443.371	594.88
443.592	629.88
443.813	707.88
444.034	767.88
444.255	643.88
444.476	589.88
444.698	568.88
444.919	576.88
445.14	689.88
445.361	634.88
445.582	604.88
445.803	641.88
446.024	718.88
446.245	731.88
446.466	665.88
446.687	577.88
446.908	546.88
447.129	543.88
447.35	510.88
447.571	513.88
447.792	510.88
448.013	494.88
448.234	509.88
448.455	565.88
448.675	661.88
448.896	754.88
449.117	631.88
449.338	609.88
449.559	719.88
449.779	841.88
450	649.88
450.221	537.88
450.442	493.88
450.662	492.88
450.883	486.88
451.104	494.88
451.324	475.88
451.545	457.88
451.766	454.88
451.986	459.88
452.207	444.88
452.428	463.88
452.648	449.88
452.869	443.88
453.089	456.88
453.31	456.88
453.53	448.88
453.751	455.88
453.971	450.88
454.192	465.88
454.412	462.88
454.633	456.88
454.853	443.88
455.073	432.88
455.294	452.88
455.514	527.88
455.734	509.88
455.955	429.88
456.175	460.88
456.395	434.88
456.616	425.88
456.836	440.88
457.056	431.88
457.276	419.88
457.497	431.88
457.717	450.88
457.937	436.88
458.157	455.88
458.377	436.88
458.598	461.88
458.818	494.88
459.038	559.88
459.258	584.88
459.478	529.88
459.698	476.88
459.918	470.88
460.138	489.88
460.358	522.88
460.578	523.88
460.798	509.88
461.018	525.88
461.238	507.88
461.458	495.88
461.678	525.88
461.898	511.88
462.118	503.88
462.338	535.88
462.558	522.88
462.777	536.88
462.997	563.88
463.217	581.88
463.437	591.88
463.657	577.88
463.876	549.88
464.096	545.88
464.316	550.88
464.536	571.88
464.755	562.88
464.975	551.88
465.195	543.88
465.414	591.88
465.634	542.88
465.854	507.88
466.073	491.88
466.293	479.88
466.512	455.88
466.732	456.88
466.951	461.88
467.171	457.88
467.391	493.88
467.61	472.88
467.829	473.88
468.049	486.88
468.268	471.88
468.488	489.88
468.707	462.88
468.927	446.88
469.146	441.88
469.365	466.88
469.585	440.88
469.804	478.88
470.023	482.88
470.243	474.88
470.462	485.88
470.681	485.88
470.901	476.88
471.12	503.88
471.339	486.88
471.558	472.88
471.777	478.88
471.997	478.88
472.216	491.88
472.435	474.88
472.654	463.88
472.873	480.88
473.092	475.88
473.311	480.88
473.53	449.88
473.749	479.88
473.968	530.88
474.187	620.88
474.406	618.88
474.625	525.88
474.844	492.88
475.063	472.88
475.282	480.88
475.501	472.88
475.72	474.88
475.939	458.88
476.158	494.88
476.377	503.88
476.596	467.88
476.814	486.88
477.033	511.88
477.252	515.88
477.471	496.88
477.69	514.88
477.908	513.88
478.127	523.88
478.346	534.88
478.564	533.88
478.783	537.88
479.002	539.88
479.22	537.88
479.439	545.88
479.658	555.88
479.876	547.88
480.095	589.88
480.313	593.88
480.532	570.88
480.751	586.88
480.969	569.88
481.188	613.88
481.406	594.88
481.624	570.88
481.843	562.88
482.061	546.88
482.28	565.88
482.498	573.88
482.717	537.88
482.935	547.88
483.153	560.88
483.372	567.88
483.59	574.88
483.808	570.88
484.027	542.88
484.245	557.88
484.463	556.88
484.681	569.88
484.9	549.88
485.118	558.88
485.336	565.88
485.554	577.88
485.772	583.88
485.99	558.88
486.209	576.88
486.427	584.88
486.645	554.88
486.863	613.88
487.081	595.88
487.299	606.88
487.517	599.88
487.735	590.88
487.953	566.88
488.171	578.88
488.389	598.88
488.607	569.88
488.825	601.88
489.043	579.88
489.261	600.88
489.479	599.88
489.696	588.88
489.914	606.88
490.132	588.88
490.35	607.88
490.568	626.88
490.786	632.88
491.003	643.88
491.221	656.88
491.439	654.88
491.657	650.88
491.874	656.88
492.092	689.88
492.31	691.88
492.527	649.88
492.745	653.88
492.963	679.88
493.18	672.88
493.398	698.88
493.615	679.88
493.833	685.88
494.05	680.88
494.268	670.88
494.485	681.88
494.703	691.88
494.92	688.88
495.138	700.88
495.355	688.88
495.573	686.88
495.79	689.88
496.008	674.88
496.225	671.88
496.442	684.88
496.66	683.88
496.877	711.88
497.094	698.88
497.312	706.88
497.529	724.88
497.746	721.88
497.963	733.88
498.181	748.88
498.398	762.88
498.615	800.88
498.832	803.88
499.049	818.88
499.267	848.88
499.484	910.88
499.701	963.88
499.918	971.88
500.135	1049.88
500.352	1115.88
500.569	1134.88
500.786	1126.88
501.003	1135.88
501.22	1049.88
501.437	1013.88
501.654	958.88
501.871	945.88
502.088	887.88
502.305	857.88
502.522	823.88
502.739	812.88
502.956	758.88
503.172	752.88
503.389	722.88
503.606	730.88
503.823	722.88
504.04	713.88
504.256	703.88
504.473	707.88
504.69	710.88
504.907	699.88
505.123	667.88
505.34	679.88
505.557	640.88
505.773	653.88
505.99	654.88
506.207	646.88
506.423	659.88
506.64	640.88
506.856	651.88
507.073	642.88
507.289	650.88
507.506	641.88
507.722	630.88
507.939	624.88
508.155	626.88
508.372	630.88
508.588	627.88
508.805	591.88
509.021	640.88
509.238	626.88
509.454	632.88
509.67	615.88
509.887	603.88
510.103	620.88
510.319	616.88
510.536	631.88
510.752	927.88
510.968	793.88
511.184	584.88
511.401	570.88
511.617	584.88
511.833	570.88
512.049	560.88
512.265	580.88
512.481	569.88
512.698	583.88
512.914	563.88
513.13	565.88
513.346	557.88
513.562	568.88
513.778	590.88
513.994	581.88
514.21	592.88
514.426	593.88
514.642	601.88
514.858	617.88
515.074	618.88
515.29	716.88
515.506	900.88
515.721	799.88
515.937	638.88
516.153	601.88
516.369	583.88
516.585	607.88
516.801	624.88
517.016	611.88
517.232	606.88
517.448	619.88
517.664	648.88
517.879	647.88
518.095	599.88
518.311	641.88
518.527	607.88
518.742	611.88
518.958	602.88
519.173	594.88
519.389	586.88
519.605	591.88
519.82	582.88
520.036	576.88
520.251	595.88
520.467	594.88
520.682	563.88
520.898	607.88
521.113	607.88
521.329	625.88
521.544	668.88
521.76	759.88
521.975	1088.88
522.19	1095.88
522.406	683.88
522.621	605.88
522.836	563.88
523.052	549.88
523.267	531.88
523.482	526.88
523.698	518.88
523.913	523.88
524.128	526.88
524.343	525.88
524.559	497.88
524.774	500.88
524.989	486.88
525.204	505.88
525.419	485.88
525.634	495.88
525.849	514.88
526.064	506.88
526.28	498.88
526.495	489.88
526.71	479.88
526.925	509.88
527.14	485.88
527.355	464.88
527.57	487.88
527.785	492.88
527.999	501.88
528.214	483.88
528.429	486.88
528.644	458.88
528.859	484.88
529.074	490.88
529.289	484.88
529.503	539.88
529.718	529.88
529.933	510.88
530.148	495.88
530.363	487.88
530.577	477.88
530.792	473.88
531.007	457.88
531.221	452.88
531.436	458.88
531.651	471.88
531.865	492.88
532.08	466.88
532.295	443.88
532.509	466.88
532.724	487.88
532.938	485.88
533.153	480.88
533.367	471.88
533.582	455.88
533.796	473.88
534.011	467.88
534.225	469.88
534.44	461.88
534.654	460.88
534.868	464.88
535.083	456.88
535.297	440.88
535.511	476.88
535.726	469.88
535.94	471.88
536.154	458.88
536.369	449.88
536.583	451.88
536.797	447.88
537.011	453.88
537.225	459.88
537.44	460.88
537.654	452.88
537.868	450.88
538.082	438.88
538.296	451.88
538.51	447.88
538.724	447.88
538.938	453.88
539.153	446.88
539.367	463.88
539.581	477.88
539.795	460.88
540.009	443.88
540.222	437.88
540.436	439.88
540.65	454.88
540.864	449.88
541.078	440.88
541.292	447.88
541.506	431.88
541.72	445.88
541.934	476.88
542.147	447.88
542.361	443.88
542.575	431.88
542.789	453.88
543.002	455.88
543.216	438.88
543.43	449.88
543.644	457.88
543.857	460.88
544.071	458.88
544.285	451.88
544.498	451.88
544.712	447.88
544.925	453.88
545.139	445.88
545.352	432.88
545.566	438.88
545.779	456.88
545.993	451.88
546.206	449.88
546.42	447.88
546.633	439.88
546.847	446.88
547.06	431.88
547.274	453.88
547.487	455.88
547.7	441.88
547.914	419.88
548.127	433.88
548.34	443.88
548.554	473.88
548.767	443.88
548.98	431.88
549.193	448.88
549.407	435.88
549.62	455.88
549.833	465.88
550.046	451.88
550.259	442.88
550.473	435.88
550.686	425.88
550.899	448.88
551.112	451.88
551.325	404.88
551.538	417.88
551.751	442.88
551.964	441.88
552.177	435.88
552.39	443.88
552.603	448.88
552.816	438.88
553.029	457.88
553.242	453.88
553.455	439.88
553.667	467.88
553.88	439.88
554.093	438.88
554.306	450.88
554.519	430.88
554.732	458.88
554.944	434.88
555.157	423.88
555.37	434.88
555.583	424.88
555.795	403.88
556.008	413.88
556.221	410.88
556.433	421.88
556.646	394.88
556.859	393.88
557.071	389.88
557.284	379.88
557.496	385.88
557.709	396.88
557.921	391.88
558.134	404.88
558.346	397.88
558.559	390.88
558.771	410.88
558.984	392.88
559.196	384.88
559.409	386.88
559.621	399.88
559.833	389.88
560.046	376.88
560.258	400.88
560.47	399.88
560.683	398.88
560.895	394.88
561.107	400.88
561.32	401.88
561.532	403.88
561.744	379.88
561.956	386.88
562.168	417.88
562.381	382.88
562.593	389.88
562.805	401.88
563.017	389.88
563.229	409.88
563.441	394.88
563.653	414.88
563.865	395.88
564.077	401.88
564.289	397.88
564.501	425.88
564.713	408.88
564.925	404.88
565.137	439.88
565.349	447.88
565.561	406.88
565.773	432.88
565.985	439.88
566.197	452.88
566.408	478.88
566.62	499.88
566.832	501.88
567.044	500.88
567.255	549.88
567.467	553.88
567.679	552.88
567.891	551.88
568.102	527.88
568.314	533.88
568.526	502.88
568.737	513.88
568.949	442.88
569.161	453.88
569.372	436.88
569.584	451.88
569.795	412.88
570.007	397.88
570.218	421.88
570.43	413.88
570.641	376.88
570.853	408.88
571.064	396.88
571.276	390.88
571.487	388.88
571.698	394.88
571.91	386.88
572.121	371.88
572.333	391.88
572.544	363.88
572.755	356.88
572.966	354.88
573.178	354.88
573.389	356.88
573.6	348.88
573.811	346.88
574.023	352.88
574.234	353.88
574.445	349.88
574.656	342.88
574.867	339.88
575.078	327.88
575.289	338.88
575.501	337.88
575.712	332.88
575.923	341.88
576.134	345.88
576.345	332.88
576.556	345.88
576.767	343.88
576.978	336.88
577.188	346.88
577.399	320.88
577.61	314.88
577.821	329.88
578.032	313.88
578.243	351.88
578.454	440.88
578.665	381.88
578.875	320.88
579.086	322.88
579.297	315.88
579.508	318.88
579.718	330.88
579.929	307.88
580.14	304.88
580.35	318.88
580.561	297.88
580.772	311.88
580.982	309.88
581.193	303.88
581.403	309.88
581.614	301.88
581.825	320.88
582.035	299.88
582.246	307.88
582.456	306.88
582.667	303.88
582.877	317.88
583.087	312.88
583.298	315.88
583.508	306.88
583.719	321.88
583.929	303.88
584.139	307.88
584.35	309.88
584.56	323.88
584.77	319.88
584.981	296.88
585.191	281.88
585.401	290.88
585.611	309.88
585.821	297.88
586.032	286.88
586.242	285.88
586.452	299.88
586.662	312.88
586.872	300.88
587.082	304.88
587.292	288.88
587.502	289.88
587.713	300.88
587.923	303.88
588.133	294.88
588.343	298.88
588.553	293.88
588.762	302.88
588.972	297.88
589.182	291.88
589.392	290.88
589.602	308.88
589.812	309.88
590.022	292.88
590.232	297.88
590.441	291.88
590.651	310.88
590.861	306.88
591.071	302.88
591.281	301.88
591.49	305.88
591.7	317.88
591.91	323.88
592.119	303.88
592.329	297.88
592.539	303.88
592.748	314.88
592.958	330.88
593.167	331.88
593.377	320.88
593.587	338.88
593.796	334.88
594.006	327.88
594.215	331.88
594.424	322.88
594.634	334.88
594.843	332.88
595.053	303.88
595.262	319.88
595.472	310.88
595.681	315.88
595.89	312.88
596.1	289.88
596.309	317.88
596.518	293.88
596.727	285.88
596.937	267.88
597.146	290.88
597.355	282.88
597.564	266.88
597.774	291.88
597.983	282.88
598.192	263.88
598.401	279.88
598.61	284.88
598.819	272.88
599.028	267.88
599.237	271.88
599.446	271.88
599.655	266.88
599.864	272.88
600.073	271.88
600.282	266.88
600.491	286.88
600.7	275.88
600.909	249.88
601.118	279.88
601.327	248.88
601.536	262.88
601.745	272.88
601.953	263.88
602.162	277.88
602.371	269.88
602.58	255.88
602.789	257.88
602.997	276.88
603.206	273.88
603.415	247.88
603.623	246.88
603.832	247.88
604.041	256.88
604.249	254.88
604.458	252.88
604.666	245.88
604.875	247.88
605.084	246.88
605.292	231.88
605.501	256.88
605.709	255.88
605.918	251.88
606.126	254.88
606.334	239.88
606.543	251.88
606.751	250.88
606.96	246.88
607.168	264.88
607.376	231.88
607.585	250.88
607.793	255.88
608.001	241.88
608.21	242.88
608.418	237.88
608.626	266.88
608.834	246.88
609.043	237.88
609.251	256.88
609.459	261.88
609.667	248.88
609.875	242.88
610.083	241.88
610.291	248.88
610.499	240.88
610.707	247.88
610.916	263.88
611.124	241.88
611.332	250.88
611.54	253.88
611.748	252.88
611.955	249.88
612.163	225.88
612.371	253.88
612.579	261.88
612.787	223.88
612.995	248.88
613.203	240.88
613.411	248.88
613.618	240.88
613.826	251.88
614.034	227.88
614.242	247.88
614.449	245.88
614.657	228.88
614.865	233.88
615.072	241.88
615.28	240.88
615.488	240.88
615.695	256.88
615.903	231.88
616.111	232.88
616.318	242.88
616.526	255.88
616.733	251.88
616.941	245.88
617.148	249.88
617.356	245.88
617.563	234.88
617.771	238.88
617.978	236.88
618.185	239.88
618.393	243.88
618.6	241.88
618.807	228.88
619.015	248.88
619.222	240.88
619.429	234.88
619.637	240.88
619.844	226.88
620.051	222.88
620.258	233.88
620.466	215.88
620.673	221.88
620.88	223.88
621.087	230.88
621.294	231.88
621.501	245.88
621.708	227.88
621.915	203.88
622.122	230.88
622.329	221.88
622.536	229.88
622.743	218.88
622.95	222.88
623.157	222.88
623.364	251.88
623.571	232.88
623.778	220.88
623.985	218.88
624.192	216.88
624.399	226.88
624.606	221.88
624.812	213.88
625.019	223.88
625.226	222.88
625.433	217.88
625.639	218.88
625.846	211.88
626.053	205.88
626.259	224.88
626.466	210.88
626.673	202.88
626.879	198.88
627.086	202.88
627.293	202.88
627.499	204.88
627.706	206.88
627.912	197.88
628.119	208.88
628.325	201.88
628.532	210.88
628.738	223.88
628.945	200.88
629.151	212.88
629.357	206.88
629.564	194.88
629.77	202.88
629.976	193.88
630.183	193.88
630.389	200.88
630.595	203.88
630.802	194.88
631.008	181.88
631.214	209.88
631.42	198.88
631.627	205.88
631.833	189.88
632.039	189.88
632.245	191.88
632.451	205.88
632.657	190.88
632.863	210.88
633.069	200.88
633.275	205.88
633.481	195.88
633.688	186.88
633.893	210.88
634.099	183.88
634.305	193.88
634.511	204.88
634.717	186.88
634.923	199.88
635.129	205.88
635.335	190.88
635.541	181.88
635.747	191.88
635.952	202.88
636.158	171.88
636.364	171.88
636.57	179.88
636.775	189.88
636.981	188.88
637.187	198.88
637.392	183.88
637.598	174.88
637.804	192.88
638.009	183.88
638.215	185.88
638.421	162.88
638.626	183.88
638.832	193.88
639.037	176.88
639.243	177.88
639.448	163.88
639.654	163.88
639.859	178.88
640.065	168.88
640.27	183.88
640.475	194.88
640.681	179.88
640.886	162.88
641.091	172.88
641.297	194.88
641.502	170.88
641.707	176.88
641.913	166.88
642.118	177.88
642.323	171.88
642.528	170.88
642.733	157.88
642.939	169.88
643.144	176.88
643.349	167.88
643.554	166.88
643.759	170.88
643.964	161.88
644.169	165.88
644.374	176.88
644.579	177.88
644.784	173.88
644.989	172.88
645.194	190.88
645.399	172.88
645.604	175.88
645.809	176.88
646.014	160.88
646.219	161.88
646.423	179.88
646.628	164.88
646.833	163.88
647.038	168.88
647.243	187.88
647.447	181.88
647.652	168.88
647.857	171.88
648.062	191.88
648.266	176.88
648.471	177.88
648.676	185.88
648.88	176.88
649.085	175.88
649.289	165.88
649.494	173.88
649.698	191.88
649.903	174.88
650.107	175.88
650.312	170.88
650.516	171.88
650.721	174.88
650.925	158.88
651.13	159.88
651.334	150.88
651.539	181.88
651.743	147.88
651.947	169.88
652.152	167.88
652.356	153.88
652.56	143.88
652.764	159.88
652.969	150.88
653.173	140.88
653.377	153.88
653.581	138.88
653.785	142.88
653.99	145.88
654.194	161.88
654.398	139.88
654.602	149.88
654.806	138.88
655.01	153.88
655.214	153.88
655.418	147.88
655.622	145.88
655.826	150.88
656.03	155.88
656.234	145.88
656.438	139.88
656.642	145.88
656.846	144.88
657.049	141.88
657.253	130.88
657.457	108.88
657.661	113.88
657.865	123.88
658.068	118.88
658.272	127.88
658.476	109.88
658.68	115.88
658.883	111.88
659.087	100.88
659.291	102.88
659.494	105.88
659.698	105.88
659.901	106.88
660.105	113.88
660.309	100.88
660.512	102.88
660.716	100.88
660.919	96.88
661.123	93.88
661.326	86.88
661.53	93.88
661.733	99.88
661.936	77.88
662.14	97.88
662.343	94.88
662.546	99.88
662.75	93.88
662.953	99.88
663.156	89.88
663.36	78.88
663.563	91.88
663.766	88.88
663.969	83.88
664.173	81.88
664.376	90.88
664.579	83.88
664.782	93.88
664.985	87.88
665.188	77.88
665.391	92.88
665.594	91.88
665.797	87.88
666	96.88
666.203	82.88
666.406	97.88
666.609	86.88
666.812	83.88
667.015	74.88
667.218	93.88
667.421	99.88
667.624	91.88
667.827	64.88
668.03	94.88
668.232	97.88
668.435	90.88
668.638	77.88
668.841	84.88
669.043	87.88
669.246	97.88
669.449	76.88
669.651	76.88
669.854	104.88
670.057	79.88
670.259	96.88
670.462	92.88
670.665	75.88
670.867	85.88
671.07	93.88
671.272	76.88
671.475	82.88
671.677	87.88
671.88	96.88
672.082	76.88
672.284	90.88
672.487	87.88
672.689	85.88
672.892	106.88
