Data from 1976.PennyLincolnUp.Lamp.En5.5.200Scan.071719.P1.Changed Mount._HRD10591_16-01-03-861.txt Node
Date: Thu Jul 18 16:01:03 EDT 2019
User: cochatt
Spectrometer: HR+D1059
Trigger mode: 1
Integration Time (sec): 1.000000E-1
Scans to average: 1
Electric dark correction enabled: true
Nonlinearity correction enabled: false
Boxcar width: 0
XAxis mode: Wavelengths
Number of Pixels in Spectrum: 2048
>>>>>Begin Spectral Data<<<<<
223.165	-12.75
223.4	-12.75
223.635	-12.75
223.869	-26.75
224.104	-12.75
224.338	-4.75
224.573	-5.75
224.808	-22.75
225.042	-4.75
225.277	-8.75
225.511	1.25
225.746	-2.75
225.98	14.25
226.215	21.25
226.449	10.25
226.683	16.25
226.918	20.25
227.152	18.25
227.387	27.25
227.621	28.25
227.856	43.25
228.09	60.25
228.324	57.25
228.559	51.25
228.793	73.25
229.027	102.25
229.262	118.25
229.496	120.25
229.73	133.25
229.964	159.25
230.199	131.25
230.433	121.25
230.667	109.25
230.901	118.25
231.136	108.25
231.37	97.25
231.604	108.25
231.838	118.25
232.072	116.25
232.306	111.25
232.541	120.25
232.775	115.25
233.009	120.25
233.243	109.25
233.477	116.25
233.711	106.25
233.945	115.25
234.179	117.25
234.413	125.25
234.647	129.25
234.881	125.25
235.115	128.25
235.349	117.25
235.583	124.25
235.817	121.25
236.051	118.25
236.285	127.25
236.519	130.25
236.753	122.25
236.987	132.25
237.221	172.25
237.455	233.25
237.689	188.25
237.922	136.25
238.156	142.25
238.39	142.25
238.624	121.25
238.858	124.25
239.091	134.25
239.325	131.25
239.559	136.25
239.793	132.25
240.027	136.25
240.26	139.25
240.494	158.25
240.728	153.25
240.961	150.25
241.195	149.25
241.429	141.25
241.662	140.25
241.896	145.25
242.13	138.25
242.363	142.25
242.597	139.25
242.83	136.25
243.064	148.25
243.298	148.25
243.531	147.25
243.765	149.25
243.998	159.25
244.232	158.25
244.465	141.25
244.699	155.25
244.932	143.25
245.166	164.25
245.399	142.25
245.633	136.25
245.866	144.25
246.099	157.25
246.333	152.25
246.566	161.25
246.8	159.25
247.033	171.25
247.266	178.25
247.5	157.25
247.733	165.25
247.966	169.25
248.2	192.25
248.433	188.25
248.666	189.25
248.899	191.25
249.133	203.25
249.366	205.25
249.599	219.25
249.832	188.25
250.066	199.25
250.299	187.25
250.532	184.25
250.765	197.25
250.998	225.25
251.231	224.25
251.465	220.25
251.698	222.25
251.931	196.25
252.164	194.25
252.397	198.25
252.63	216.25
252.863	220.25
253.096	226.25
253.329	236.25
253.562	251.25
253.795	232.25
254.028	214.25
254.261	229.25
254.494	226.25
254.727	258.25
254.96	280.25
255.193	284.25
255.426	251.25
255.659	245.25
255.892	229.25
256.124	235.25
256.357	241.25
256.59	265.25
256.823	226.25
257.056	226.25
257.289	235.25
257.521	215.25
257.754	225.25
257.987	218.25
258.22	204.25
258.452	206.25
258.685	210.25
258.918	217.25
259.151	213.25
259.383	224.25
259.616	213.25
259.849	228.25
260.081	242.25
260.314	280.25
260.547	268.25
260.779	242.25
261.012	226.25
261.244	232.25
261.477	231.25
261.71	223.25
261.942	226.25
262.175	249.25
262.407	235.25
262.64	232.25
262.872	224.25
263.105	229.25
263.337	227.25
263.57	230.25
263.802	228.25
264.035	242.25
264.267	219.25
264.499	219.25
264.732	243.25
264.964	232.25
265.197	214.25
265.429	229.25
265.661	221.25
265.894	230.25
266.126	226.25
266.358	240.25
266.591	216.25
266.823	243.25
267.055	252.25
267.287	238.25
267.52	236.25
267.752	239.25
267.984	251.25
268.216	249.25
268.448	254.25
268.681	248.25
268.913	267.25
269.145	285.25
269.377	292.25
269.609	282.25
269.841	280.25
270.073	283.25
270.306	318.25
270.538	329.25
270.77	329.25
271.002	305.25
271.234	296.25
271.466	295.25
271.698	315.25
271.93	329.25
272.162	326.25
272.394	318.25
272.626	321.25
272.858	314.25
273.09	293.25
273.322	293.25
273.553	296.25
273.785	278.25
274.017	267.25
274.249	273.25
274.481	276.25
274.713	291.25
274.945	270.25
275.176	280.25
275.408	277.25
275.64	275.25
275.872	289.25
276.104	281.25
276.335	289.25
276.567	299.25
276.799	288.25
277.031	297.25
277.262	330.25
277.494	340.25
277.726	306.25
277.957	317.25
278.189	301.25
278.421	283.25
278.652	291.25
278.884	276.25
279.115	307.25
279.347	295.25
279.579	279.25
279.81	269.25
280.042	282.25
280.273	278.25
280.505	273.25
280.736	302.25
280.968	297.25
281.199	278.25
281.431	298.25
281.662	297.25
281.894	282.25
282.125	285.25
282.356	278.25
282.588	314.25
282.819	328.25
283.051	308.25
283.282	305.25
283.513	309.25
283.745	308.25
283.976	301.25
284.207	306.25
284.439	301.25
284.67	308.25
284.901	314.25
285.132	289.25
285.364	302.25
285.595	321.25
285.826	326.25
286.057	320.25
286.288	299.25
286.52	314.25
286.751	320.25
286.982	318.25
287.213	313.25
287.444	324.25
287.675	313.25
287.906	313.25
288.138	317.25
288.369	326.25
288.6	334.25
288.831	331.25
289.062	335.25
289.293	329.25
289.524	320.25
289.755	337.25
289.986	331.25
290.217	334.25
290.448	336.25
290.679	320.25
290.91	310.25
291.141	297.25
291.371	320.25
291.602	314.25
291.833	328.25
292.064	324.25
292.295	314.25
292.526	311.25
292.757	309.25
292.987	329.25
293.218	330.25
293.449	320.25
293.68	320.25
293.91	323.25
294.141	309.25
294.372	312.25
294.603	325.25
294.833	310.25
295.064	330.25
295.295	330.25
295.525	314.25
295.756	334.25
295.987	347.25
296.217	342.25
296.448	360.25
296.679	343.25
296.909	341.25
297.14	315.25
297.37	347.25
297.601	329.25
297.831	336.25
298.062	318.25
298.292	322.25
298.523	333.25
298.753	339.25
298.984	327.25
299.214	345.25
299.445	329.25
299.675	341.25
299.905	337.25
300.136	336.25
300.366	345.25
300.597	355.25
300.827	348.25
301.057	340.25
301.288	348.25
301.518	362.25
301.748	347.25
301.979	347.25
302.209	368.25
302.439	348.25
302.669	357.25
302.9	356.25
303.13	370.25
303.36	369.25
303.59	371.25
303.82	369.25
304.051	372.25
304.281	375.25
304.511	359.25
304.741	361.25
304.971	346.25
305.201	355.25
305.431	353.25
305.661	364.25
305.891	350.25
306.121	357.25
306.352	349.25
306.582	369.25
306.812	368.25
307.042	354.25
307.272	380.25
307.502	352.25
307.731	384.25
307.961	361.25
308.191	334.25
308.421	351.25
308.651	357.25
308.881	379.25
309.111	368.25
309.341	376.25
309.571	358.25
309.8	374.25
310.03	378.25
310.26	363.25
310.49	388.25
310.72	414.25
310.949	408.25
311.179	399.25
311.409	392.25
311.639	405.25
311.868	416.25
312.098	408.25
312.328	401.25
312.557	426.25
312.787	438.25
313.017	411.25
313.246	409.25
313.476	402.25
313.706	405.25
313.935	416.25
314.165	406.25
314.394	429.25
314.624	431.25
314.853	408.25
315.083	391.25
315.312	401.25
315.542	386.25
315.771	406.25
316.001	410.25
316.23	391.25
316.46	405.25
316.689	424.25
316.919	428.25
317.148	421.25
317.377	417.25
317.607	413.25
317.836	410.25
318.065	396.25
318.295	427.25
318.524	402.25
318.753	390.25
318.983	420.25
319.212	395.25
319.441	409.25
319.67	423.25
319.9	410.25
320.129	391.25
320.358	399.25
320.587	388.25
320.816	423.25
321.046	410.25
321.275	434.25
321.504	429.25
321.733	408.25
321.962	436.25
322.191	445.25
322.42	442.25
322.649	439.25
322.878	472.25
323.108	461.25
323.337	484.25
323.566	487.25
323.795	522.25
324.024	550.25
324.253	665.25
324.482	903.25
324.71	1381.25
324.939	2030.25
325.168	1723.25
325.397	893.25
325.626	610.25
325.855	553.25
326.084	510.25
326.313	491.25
326.542	492.25
326.77	541.25
326.999	613.25
327.228	800.25
327.457	1240.25
327.686	1478.25
327.914	1016.25
328.143	714.25
328.372	585.25
328.6	554.25
328.829	550.25
329.058	549.25
329.287	582.25
329.515	551.25
329.744	530.25
329.972	499.25
330.201	526.25
330.43	561.25
330.658	570.25
330.887	610.25
331.115	568.25
331.344	520.25
331.572	497.25
331.801	511.25
332.03	489.25
332.258	497.25
332.486	488.25
332.715	470.25
332.943	478.25
333.172	488.25
333.4	505.25
333.629	525.25
333.857	518.25
334.085	522.25
334.314	552.25
334.542	555.25
334.771	577.25
334.999	541.25
335.227	523.25
335.455	483.25
335.684	476.25
335.912	477.25
336.14	473.25
336.369	463.25
336.597	493.25
336.825	496.25
337.053	486.25
337.281	477.25
337.51	478.25
337.738	460.25
337.966	466.25
338.194	489.25
338.422	469.25
338.65	452.25
338.878	451.25
339.106	453.25
339.334	472.25
339.562	462.25
339.79	462.25
340.018	483.25
340.246	456.25
340.474	462.25
340.702	467.25
340.93	487.25
341.158	465.25
341.386	439.25
341.614	438.25
341.842	471.25
342.07	469.25
342.298	453.25
342.526	438.25
342.754	429.25
342.981	441.25
343.209	435.25
343.437	467.25
343.665	459.25
343.893	473.25
344.12	481.25
344.348	485.25
344.576	480.25
344.804	483.25
345.031	471.25
345.259	467.25
345.487	452.25
345.714	461.25
345.942	423.25
346.17	444.25
346.397	440.25
346.625	449.25
346.853	436.25
347.08	446.25
347.308	460.25
347.535	461.25
347.763	453.25
347.99	458.25
348.218	440.25
348.445	425.25
348.673	419.25
348.9	442.25
349.128	434.25
349.355	416.25
349.583	418.25
349.81	450.25
350.037	429.25
350.265	438.25
350.492	434.25
350.72	420.25
350.947	434.25
351.174	442.25
351.402	451.25
351.629	449.25
351.856	428.25
352.083	441.25
352.311	467.25
352.538	443.25
352.765	455.25
352.992	445.25
353.22	443.25
353.447	423.25
353.674	423.25
353.901	422.25
354.128	407.25
354.355	425.25
354.583	421.25
354.81	414.25
355.037	408.25
355.264	408.25
355.491	416.25
355.718	408.25
355.945	418.25
356.172	401.25
356.399	412.25
356.626	397.25
356.853	418.25
357.08	418.25
357.307	435.25
357.534	428.25
357.761	408.25
357.988	444.25
358.215	413.25
358.441	422.25
358.668	430.25
358.895	425.25
359.122	400.25
359.349	432.25
359.576	439.25
359.802	449.25
360.029	456.25
360.256	455.25
360.483	478.25
360.709	454.25
360.936	440.25
361.163	444.25
361.39	440.25
361.616	424.25
361.843	445.25
362.07	446.25
362.296	444.25
362.523	418.25
362.749	424.25
362.976	430.25
363.203	416.25
363.429	411.25
363.656	446.25
363.882	436.25
364.109	433.25
364.335	425.25
364.562	398.25
364.788	417.25
365.015	422.25
365.241	412.25
365.468	419.25
365.694	455.25
365.92	418.25
366.147	418.25
366.373	443.25
366.599	432.25
366.826	418.25
367.052	427.25
367.278	432.25
367.505	420.25
367.731	423.25
367.957	434.25
368.184	418.25
368.41	421.25
368.636	440.25
368.862	445.25
369.089	415.25
369.315	420.25
369.541	443.25
369.767	438.25
369.993	420.25
370.219	436.25
370.445	436.25
370.672	421.25
370.898	405.25
371.124	422.25
371.35	426.25
371.576	432.25
371.802	427.25
372.028	437.25
372.254	438.25
372.48	430.25
372.706	419.25
372.932	434.25
373.158	429.25
373.384	454.25
373.61	443.25
373.835	425.25
374.061	420.25
374.287	460.25
374.513	424.25
374.739	458.25
374.965	428.25
375.191	452.25
375.416	428.25
375.642	435.25
375.868	442.25
376.094	421.25
376.319	422.25
376.545	439.25
376.771	422.25
376.997	418.25
377.222	434.25
377.448	436.25
377.674	441.25
377.899	429.25
378.125	442.25
378.35	440.25
378.576	446.25
378.802	413.25
379.027	438.25
379.253	433.25
379.478	424.25
379.704	420.25
379.929	434.25
380.155	444.25
380.38	434.25
380.606	453.25
380.831	449.25
381.057	448.25
381.282	441.25
381.507	433.25
381.733	426.25
381.958	448.25
382.184	453.25
382.409	434.25
382.634	441.25
382.86	444.25
383.085	449.25
383.31	425.25
383.535	461.25
383.761	456.25
383.986	451.25
384.211	450.25
384.436	462.25
384.662	462.25
384.887	483.25
385.112	482.25
385.337	472.25
385.562	463.25
385.787	444.25
386.013	482.25
386.238	484.25
386.463	483.25
386.688	488.25
386.913	484.25
387.138	469.25
387.363	504.25
387.588	479.25
387.813	466.25
388.038	476.25
388.263	466.25
388.488	489.25
388.713	455.25
388.938	455.25
389.163	475.25
389.387	487.25
389.612	480.25
389.837	483.25
390.062	489.25
390.287	461.25
390.512	486.25
390.736	502.25
390.961	491.25
391.186	487.25
391.411	476.25
391.636	477.25
391.86	501.25
392.085	493.25
392.31	473.25
392.534	514.25
392.759	508.25
392.984	499.25
393.208	501.25
393.433	493.25
393.658	498.25
393.882	481.25
394.107	489.25
394.331	482.25
394.556	473.25
394.78	485.25
395.005	484.25
395.229	503.25
395.454	484.25
395.678	482.25
395.903	501.25
396.127	525.25
396.352	519.25
396.576	524.25
396.801	500.25
397.025	506.25
397.249	512.25
397.474	516.25
397.698	515.25
397.922	508.25
398.147	530.25
398.371	535.25
398.595	579.25
398.82	565.25
399.044	586.25
399.268	600.25
399.492	645.25
399.717	685.25
399.941	712.25
400.165	714.25
400.389	692.25
400.613	642.25
400.837	590.25
401.062	586.25
401.286	553.25
401.51	568.25
401.734	572.25
401.958	537.25
402.182	553.25
402.406	580.25
402.63	570.25
402.854	577.25
403.078	598.25
403.302	577.25
403.526	622.25
403.75	576.25
403.974	592.25
404.198	594.25
404.422	567.25
404.645	611.25
404.869	606.25
405.093	620.25
405.317	649.25
405.541	681.25
405.765	634.25
405.988	635.25
406.212	613.25
406.436	635.25
406.66	631.25
406.883	617.25
407.107	658.25
407.331	700.25
407.555	752.25
407.778	791.25
408.002	714.25
408.226	651.25
408.449	635.25
408.673	650.25
408.896	659.25
409.12	704.25
409.344	662.25
409.567	590.25
409.791	613.25
410.014	612.25
410.238	561.25
410.461	586.25
410.685	589.25
410.908	610.25
411.132	620.25
411.355	664.25
411.578	614.25
411.802	613.25
412.025	594.25
412.249	583.25
412.472	605.25
412.695	652.25
412.919	625.25
413.142	591.25
413.365	562.25
413.589	581.25
413.812	549.25
414.035	533.25
414.258	517.25
414.482	552.25
414.705	568.25
414.928	548.25
415.151	570.25
415.374	560.25
415.597	556.25
415.821	551.25
416.044	557.25
416.267	565.25
416.49	546.25
416.713	531.25
416.936	542.25
417.159	545.25
417.382	562.25
417.605	564.25
417.828	558.25
418.051	586.25
418.274	561.25
418.497	567.25
418.72	557.25
418.943	548.25
419.166	577.25
419.389	581.25
419.611	593.25
419.834	585.25
420.057	586.25
420.28	596.25
420.503	574.25
420.726	569.25
420.948	582.25
421.171	624.25
421.394	658.25
421.617	609.25
421.839	562.25
422.062	588.25
422.285	585.25
422.507	642.25
422.73	700.25
422.953	691.25
423.175	622.25
423.398	613.25
423.621	572.25
423.843	601.25
424.066	632.25
424.288	612.25
424.511	625.25
424.733	683.25
424.956	764.25
425.178	727.25
425.401	716.25
425.623	738.25
425.846	646.25
426.068	588.25
426.291	591.25
426.513	608.25
426.735	610.25
426.958	642.25
427.18	728.25
427.402	847.25
427.625	910.25
427.847	802.25
428.069	726.25
428.292	641.25
428.514	571.25
428.736	563.25
428.958	580.25
429.181	552.25
429.403	545.25
429.625	555.25
429.847	604.25
430.069	656.25
430.292	674.25
430.514	564.25
430.736	530.25
430.958	551.25
431.18	541.25
431.402	513.25
431.624	532.25
431.846	502.25
432.068	517.25
432.29	544.25
432.512	542.25
432.734	552.25
432.956	523.25
433.178	550.25
433.4	550.25
433.622	527.25
433.844	516.25
434.066	522.25
434.287	533.25
434.509	529.25
434.731	557.25
434.953	552.25
435.175	579.25
435.397	610.25
435.618	600.25
435.84	610.25
436.062	728.25
436.284	808.25
436.505	680.25
436.727	588.25
436.949	566.25
437.17	565.25
437.392	547.25
437.614	556.25
437.835	598.25
438.057	653.25
438.278	782.25
438.5	798.25
438.721	876.25
438.943	850.25
439.165	678.25
439.386	628.25
439.608	587.25
439.829	610.25
440.05	611.25
440.272	667.25
440.493	630.25
440.715	591.25
440.936	586.25
441.158	569.25
441.379	532.25
441.6	590.25
441.822	611.25
442.043	642.25
442.264	722.25
442.486	744.25
442.707	640.25
442.928	627.25
443.149	624.25
443.371	636.25
443.592	685.25
443.813	781.25
444.034	840.25
444.255	684.25
444.476	648.25
444.698	619.25
444.919	635.25
445.14	762.25
445.361	689.25
445.582	672.25
445.803	704.25
446.024	809.25
446.245	789.25
446.466	743.25
446.687	635.25
446.908	595.25
447.129	546.25
447.35	564.25
447.571	554.25
447.792	542.25
448.013	556.25
448.234	552.25
448.455	588.25
448.675	744.25
448.896	837.25
449.117	708.25
449.338	665.25
449.559	789.25
449.779	892.25
450	694.25
450.221	610.25
450.442	563.25
450.662	524.25
450.883	523.25
451.104	513.25
451.324	507.25
451.545	506.25
451.766	509.25
451.986	475.25
452.207	460.25
452.428	507.25
452.648	482.25
452.869	482.25
453.089	493.25
453.31	533.25
453.53	479.25
453.751	500.25
453.971	494.25
454.192	486.25
454.412	489.25
454.633	460.25
454.853	479.25
455.073	476.25
455.294	526.25
455.514	573.25
455.734	562.25
455.955	491.25
456.175	465.25
456.395	478.25
456.616	467.25
456.836	457.25
457.056	457.25
457.276	443.25
457.497	470.25
457.717	476.25
457.937	481.25
458.157	477.25
458.377	465.25
458.598	481.25
458.818	549.25
459.038	591.25
459.258	648.25
459.478	577.25
459.698	542.25
459.918	525.25
460.138	535.25
460.358	564.25
460.578	558.25
460.798	558.25
461.018	558.25
461.238	544.25
461.458	551.25
461.678	573.25
461.898	570.25
462.118	553.25
462.338	570.25
462.558	572.25
462.777	589.25
462.997	610.25
463.217	637.25
463.437	616.25
463.657	578.25
463.876	593.25
464.096	584.25
464.316	605.25
464.536	576.25
464.755	593.25
464.975	603.25
465.195	629.25
465.414	640.25
465.634	595.25
465.854	554.25
466.073	531.25
466.293	532.25
466.512	515.25
466.732	498.25
466.951	512.25
467.171	498.25
467.391	530.25
467.61	517.25
467.829	510.25
468.049	500.25
468.268	513.25
468.488	510.25
468.707	487.25
468.927	477.25
469.146	506.25
469.365	480.25
469.585	503.25
469.804	501.25
470.023	529.25
470.243	517.25
470.462	536.25
470.681	540.25
470.901	534.25
471.12	513.25
471.339	518.25
471.558	510.25
471.777	495.25
471.997	487.25
472.216	489.25
472.435	519.25
472.654	517.25
472.873	512.25
473.092	502.25
473.311	500.25
473.53	491.25
473.749	523.25
473.968	538.25
474.187	644.25
474.406	664.25
474.625	568.25
474.844	512.25
475.063	523.25
475.282	516.25
475.501	508.25
475.72	520.25
475.939	532.25
476.158	524.25
476.377	529.25
476.596	516.25
476.814	530.25
477.033	527.25
477.252	562.25
477.471	567.25
477.69	560.25
477.908	544.25
478.127	560.25
478.346	551.25
478.564	536.25
478.783	567.25
479.002	593.25
479.22	578.25
479.439	617.25
479.658	625.25
479.876	645.25
480.095	626.25
480.313	622.25
480.532	648.25
480.751	634.25
480.969	635.25
481.188	657.25
481.406	706.25
481.624	617.25
481.843	632.25
482.061	630.25
482.28	606.25
482.498	550.25
482.717	595.25
482.935	583.25
483.153	592.25
483.372	591.25
483.59	592.25
483.808	595.25
484.027	599.25
484.245	598.25
484.463	615.25
484.681	619.25
484.9	610.25
485.118	597.25
485.336	625.25
485.554	611.25
485.772	618.25
485.99	605.25
486.209	602.25
486.427	605.25
486.645	613.25
486.863	627.25
487.081	636.25
487.299	639.25
487.517	636.25
487.735	626.25
487.953	642.25
488.171	624.25
488.389	628.25
488.607	611.25
488.825	678.25
489.043	642.25
489.261	652.25
489.479	643.25
489.696	645.25
489.914	624.25
490.132	649.25
490.35	653.25
490.568	668.25
490.786	660.25
491.003	680.25
491.221	710.25
491.439	712.25
491.657	704.25
491.874	708.25
492.092	719.25
492.31	737.25
492.527	741.25
492.745	728.25
492.963	742.25
493.18	736.25
493.398	752.25
493.615	752.25
493.833	746.25
494.05	723.25
494.268	756.25
494.485	737.25
494.703	725.25
494.92	723.25
495.138	742.25
495.355	764.25
495.573	761.25
495.79	754.25
496.008	764.25
496.225	738.25
496.442	741.25
496.66	772.25
496.877	727.25
497.094	770.25
497.312	793.25
497.529	774.25
497.746	800.25
497.963	812.25
498.181	836.25
498.398	854.25
498.615	840.25
498.832	871.25
499.049	913.25
499.267	948.25
499.484	1002.25
499.701	1034.25
499.918	1064.25
500.135	1098.25
500.352	1189.25
500.569	1203.25
500.786	1188.25
501.003	1184.25
501.22	1140.25
501.437	1074.25
501.654	1030.25
501.871	1025.25
502.088	952.25
502.305	906.25
502.522	881.25
502.739	861.25
502.956	834.25
503.172	817.25
503.389	787.25
503.606	809.25
503.823	754.25
504.04	774.25
504.256	774.25
504.473	804.25
504.69	766.25
504.907	780.25
505.123	752.25
505.34	742.25
505.557	739.25
505.773	716.25
505.99	721.25
506.207	716.25
506.423	725.25
506.64	691.25
506.856	692.25
507.073	705.25
507.289	712.25
507.506	682.25
507.722	701.25
507.939	708.25
508.155	682.25
508.372	691.25
508.588	658.25
508.805	660.25
509.021	646.25
509.238	682.25
509.454	683.25
509.67	661.25
509.887	658.25
510.103	634.25
510.319	677.25
510.536	736.25
510.752	1099.25
510.968	906.25
511.184	667.25
511.401	628.25
511.617	641.25
511.833	619.25
512.049	590.25
512.265	630.25
512.481	634.25
512.698	621.25
512.914	616.25
513.13	632.25
513.346	617.25
513.562	604.25
513.778	633.25
513.994	631.25
514.21	628.25
514.426	648.25
514.642	688.25
514.858	661.25
515.074	722.25
515.29	809.25
515.506	1121.25
515.721	942.25
515.937	767.25
516.153	694.25
516.369	658.25
516.585	665.25
516.801	634.25
517.016	654.25
517.232	650.25
517.448	666.25
517.664	668.25
517.879	667.25
518.095	680.25
518.311	668.25
518.527	654.25
518.742	667.25
518.958	659.25
519.173	647.25
519.389	648.25
519.605	642.25
519.82	621.25
520.036	648.25
520.251	636.25
520.467	672.25
520.682	661.25
520.898	666.25
521.113	654.25
521.329	704.25
521.544	794.25
521.76	908.25
521.975	1404.25
522.19	1291.25
522.406	803.25
522.621	664.25
522.836	622.25
523.052	600.25
523.267	572.25
523.482	582.25
523.698	585.25
523.913	570.25
524.128	562.25
524.343	579.25
524.559	560.25
524.774	541.25
524.989	560.25
525.204	558.25
525.419	551.25
525.634	544.25
525.849	547.25
526.064	558.25
526.28	553.25
526.495	509.25
526.71	522.25
526.925	517.25
527.14	523.25
527.355	504.25
527.57	512.25
527.785	532.25
527.999	516.25
528.214	504.25
528.429	534.25
528.644	533.25
528.859	496.25
529.074	536.25
529.289	529.25
529.503	595.25
529.718	592.25
529.933	547.25
530.148	533.25
530.363	540.25
530.577	517.25
530.792	502.25
531.007	496.25
531.221	516.25
531.436	500.25
531.651	518.25
531.865	515.25
532.08	524.25
532.295	500.25
532.509	500.25
532.724	516.25
532.938	507.25
533.153	498.25
533.367	487.25
533.582	504.25
533.796	500.25
534.011	486.25
534.225	490.25
534.44	499.25
534.654	500.25
534.868	498.25
535.083	492.25
535.297	510.25
535.511	491.25
535.726	509.25
535.94	512.25
536.154	505.25
536.369	498.25
536.583	492.25
536.797	500.25
537.011	499.25
537.225	486.25
537.44	477.25
537.654	473.25
537.868	458.25
538.082	469.25
538.296	486.25
538.51	479.25
538.724	493.25
538.938	466.25
539.153	484.25
539.367	498.25
539.581	473.25
539.795	481.25
540.009	461.25
540.222	496.25
540.436	473.25
540.65	499.25
540.864	484.25
541.078	494.25
541.292	490.25
541.506	506.25
541.72	477.25
541.934	470.25
542.147	490.25
542.361	483.25
542.575	482.25
542.789	460.25
543.002	478.25
543.216	478.25
543.43	470.25
543.644	489.25
543.857	465.25
544.071	482.25
544.285	484.25
544.498	488.25
544.712	478.25
544.925	471.25
545.139	484.25
545.352	471.25
545.566	456.25
545.779	477.25
545.993	477.25
546.206	489.25
546.42	458.25
546.633	488.25
546.847	491.25
547.06	470.25
547.274	477.25
547.487	465.25
547.7	471.25
547.914	468.25
548.127	465.25
548.34	462.25
548.554	468.25
548.767	478.25
548.98	467.25
549.193	443.25
549.407	474.25
549.62	489.25
549.833	453.25
550.046	499.25
550.259	474.25
550.473	466.25
550.686	455.25
550.899	472.25
551.112	481.25
551.325	453.25
551.538	445.25
551.751	434.25
551.964	450.25
552.177	446.25
552.39	476.25
552.603	444.25
552.816	492.25
553.029	472.25
553.242	483.25
553.455	457.25
553.667	505.25
553.88	484.25
554.093	469.25
554.306	484.25
554.519	476.25
554.732	471.25
554.944	461.25
555.157	486.25
555.37	464.25
555.583	437.25
555.795	459.25
556.008	436.25
556.221	450.25
556.433	419.25
556.646	428.25
556.859	440.25
557.071	418.25
557.284	412.25
557.496	402.25
557.709	417.25
557.921	433.25
558.134	432.25
558.346	389.25
558.559	421.25
558.771	420.25
558.984	416.25
559.196	419.25
559.409	417.25
559.621	420.25
559.833	436.25
560.046	404.25
560.258	409.25
560.47	408.25
560.683	410.25
560.895	420.25
561.107	391.25
561.32	392.25
561.532	406.25
561.744	419.25
561.956	399.25
562.168	378.25
562.381	416.25
562.593	421.25
562.805	430.25
563.017	405.25
563.229	404.25
563.441	409.25
563.653	434.25
563.865	418.25
564.077	436.25
564.289	427.25
564.501	403.25
564.713	443.25
564.925	442.25
565.137	455.25
565.349	461.25
565.561	468.25
565.773	463.25
565.985	481.25
566.197	461.25
566.408	499.25
566.62	509.25
566.832	550.25
567.044	557.25
567.255	547.25
567.467	558.25
567.679	588.25
567.891	593.25
568.102	563.25
568.314	572.25
568.526	539.25
568.737	524.25
568.949	513.25
569.161	458.25
569.372	449.25
569.584	451.25
569.795	443.25
570.007	426.25
570.218	463.25
570.43	463.25
570.641	421.25
570.853	399.25
571.064	410.25
571.276	410.25
571.487	418.25
571.698	414.25
571.91	388.25
572.121	395.25
572.333	393.25
572.544	382.25
572.755	375.25
572.966	374.25
573.178	374.25
573.389	345.25
573.6	366.25
573.811	376.25
574.023	370.25
574.234	353.25
574.445	353.25
574.656	343.25
574.867	365.25
575.078	365.25
575.289	358.25
575.501	359.25
575.712	374.25
575.923	360.25
576.134	362.25
576.345	350.25
576.556	346.25
576.767	355.25
576.978	332.25
577.188	346.25
577.399	342.25
577.61	341.25
577.821	346.25
578.032	339.25
578.243	382.25
578.454	488.25
578.665	411.25
578.875	342.25
579.086	324.25
579.297	333.25
579.508	346.25
579.718	324.25
579.929	324.25
580.14	322.25
580.35	314.25
580.561	318.25
580.772	314.25
580.982	318.25
581.193	326.25
581.403	315.25
581.614	317.25
581.825	331.25
582.035	321.25
582.246	340.25
582.456	318.25
582.667	324.25
582.877	306.25
583.087	333.25
583.298	301.25
583.508	315.25
583.719	310.25
583.929	311.25
584.139	308.25
584.35	305.25
584.56	323.25
584.77	334.25
584.981	320.25
585.191	315.25
585.401	318.25
585.611	314.25
585.821	314.25
586.032	332.25
586.242	313.25
586.452	306.25
586.662	296.25
586.872	328.25
587.082	324.25
587.292	342.25
587.502	305.25
587.713	316.25
587.923	304.25
588.133	310.25
588.343	316.25
588.553	316.25
588.762	292.25
588.972	306.25
589.182	333.25
589.392	314.25
589.602	292.25
589.812	320.25
590.022	306.25
590.232	312.25
590.441	311.25
590.651	325.25
590.861	297.25
591.071	297.25
591.281	329.25
591.49	314.25
591.7	309.25
591.91	337.25
592.119	323.25
592.329	327.25
592.539	348.25
592.748	336.25
592.958	351.25
593.167	342.25
593.377	361.25
593.587	374.25
593.796	352.25
594.006	342.25
594.215	339.25
594.424	345.25
594.634	364.25
594.843	320.25
595.053	330.25
595.262	330.25
595.472	324.25
595.681	339.25
595.89	313.25
596.1	314.25
596.309	302.25
596.518	284.25
596.727	316.25
596.937	300.25
597.146	302.25
597.355	295.25
597.564	288.25
597.774	298.25
597.983	288.25
598.192	292.25
598.401	285.25
598.61	274.25
598.819	284.25
599.028	276.25
599.237	282.25
599.446	263.25
599.655	276.25
599.864	278.25
600.073	273.25
600.282	281.25
600.491	264.25
600.7	268.25
600.909	298.25
601.118	262.25
601.327	273.25
601.536	267.25
601.745	258.25
601.953	275.25
602.162	290.25
602.371	274.25
602.58	265.25
602.789	262.25
602.997	256.25
603.206	250.25
603.415	274.25
603.623	271.25
603.832	274.25
604.041	268.25
604.249	243.25
604.458	257.25
604.666	239.25
604.875	260.25
605.084	256.25
605.292	258.25
605.501	257.25
605.709	244.25
605.918	258.25
606.126	268.25
606.334	269.25
606.543	268.25
606.751	269.25
606.96	252.25
607.168	256.25
607.376	258.25
607.585	259.25
607.793	279.25
608.001	263.25
608.21	261.25
608.418	262.25
608.626	256.25
608.834	257.25
609.043	269.25
609.251	245.25
609.459	267.25
609.667	258.25
609.875	262.25
610.083	260.25
610.291	257.25
610.499	256.25
610.707	264.25
610.916	246.25
611.124	250.25
611.332	253.25
611.54	282.25
611.748	265.25
611.955	263.25
612.163	236.25
612.371	252.25
612.579	243.25
612.787	249.25
612.995	241.25
613.203	232.25
613.411	261.25
613.618	237.25
613.826	250.25
614.034	244.25
614.242	253.25
614.449	246.25
614.657	255.25
614.865	261.25
615.072	244.25
615.28	277.25
615.488	242.25
615.695	258.25
615.903	257.25
616.111	266.25
616.318	257.25
616.526	261.25
616.733	246.25
616.941	245.25
617.148	260.25
617.356	254.25
617.563	260.25
617.771	257.25
617.978	236.25
618.185	246.25
618.393	233.25
618.6	242.25
618.807	256.25
619.015	246.25
619.222	253.25
619.429	262.25
619.637	261.25
619.844	257.25
620.051	251.25
620.258	244.25
620.466	225.25
620.673	234.25
620.88	222.25
621.087	242.25
621.294	253.25
621.501	229.25
621.708	232.25
621.915	233.25
622.122	241.25
622.329	235.25
622.536	232.25
622.743	218.25
622.95	227.25
623.157	239.25
623.364	231.25
623.571	216.25
623.778	224.25
623.985	211.25
624.192	233.25
624.399	228.25
624.606	234.25
624.812	230.25
625.019	215.25
625.226	225.25
625.433	234.25
625.639	230.25
625.846	214.25
626.053	233.25
626.259	215.25
626.466	208.25
626.673	231.25
626.879	228.25
627.086	220.25
627.293	217.25
627.499	204.25
627.706	228.25
627.912	233.25
628.119	205.25
628.325	203.25
628.532	207.25
628.738	209.25
628.945	204.25
629.151	194.25
629.357	200.25
629.564	211.25
629.77	198.25
629.976	206.25
630.183	194.25
630.389	194.25
630.595	198.25
630.802	203.25
631.008	222.25
631.214	188.25
631.42	197.25
631.627	202.25
631.833	203.25
632.039	199.25
632.245	208.25
632.451	201.25
632.657	207.25
632.863	195.25
633.069	194.25
633.275	192.25
633.481	181.25
633.688	200.25
633.893	184.25
634.099	209.25
634.305	191.25
634.511	204.25
634.717	193.25
634.923	183.25
635.129	192.25
635.335	203.25
635.541	198.25
635.747	194.25
635.952	186.25
636.158	184.25
636.364	196.25
636.57	189.25
636.775	192.25
636.981	186.25
637.187	180.25
637.392	193.25
637.598	200.25
637.804	186.25
638.009	203.25
638.215	184.25
638.421	181.25
638.626	186.25
638.832	197.25
639.037	185.25
639.243	184.25
639.448	183.25
639.654	195.25
639.859	174.25
640.065	154.25
640.27	202.25
640.475	179.25
640.681	171.25
640.886	173.25
641.091	178.25
641.297	192.25
641.502	164.25
641.707	176.25
641.913	177.25
642.118	164.25
642.323	165.25
642.528	177.25
642.733	173.25
642.939	167.25
643.144	167.25
643.349	166.25
643.554	187.25
643.759	184.25
643.964	168.25
644.169	164.25
644.374	174.25
644.579	186.25
644.784	166.25
644.989	199.25
645.194	171.25
645.399	171.25
645.604	182.25
645.809	176.25
646.014	161.25
646.219	160.25
646.423	169.25
646.628	169.25
646.833	184.25
647.038	182.25
647.243	178.25
647.447	178.25
647.652	163.25
647.857	174.25
648.062	176.25
648.266	185.25
648.471	169.25
648.676	182.25
648.88	198.25
649.085	183.25
649.289	162.25
649.494	175.25
649.698	198.25
649.903	189.25
650.107	189.25
650.312	193.25
650.516	168.25
650.721	179.25
650.925	156.25
651.13	160.25
651.334	162.25
651.539	156.25
651.743	157.25
651.947	159.25
652.152	148.25
652.356	171.25
652.56	150.25
652.764	135.25
652.969	146.25
653.173	146.25
653.377	115.25
653.581	142.25
653.785	137.25
653.99	141.25
654.194	135.25
654.398	127.25
654.602	147.25
654.806	156.25
655.01	127.25
655.214	142.25
655.418	138.25
655.622	143.25
655.826	123.25
656.03	145.25
656.234	143.25
656.438	136.25
656.642	137.25
656.846	145.25
657.049	127.25
657.253	137.25
657.457	127.25
657.661	125.25
657.865	109.25
658.068	113.25
658.272	115.25
658.476	105.25
658.68	118.25
658.883	105.25
659.087	106.25
659.291	102.25
659.494	102.25
659.698	108.25
659.901	93.25
660.105	111.25
660.309	90.25
660.512	102.25
660.716	95.25
660.919	100.25
661.123	82.25
661.326	93.25
661.53	89.25
661.733	90.25
661.936	87.25
662.14	78.25
662.343	90.25
662.546	77.25
662.75	78.25
662.953	91.25
663.156	84.25
663.36	81.25
663.563	78.25
663.766	88.25
663.969	92.25
664.173	83.25
664.376	70.25
664.579	92.25
664.782	93.25
664.985	72.25
665.188	88.25
665.391	68.25
665.594	80.25
665.797	72.25
666	82.25
666.203	75.25
666.406	82.25
666.609	83.25
666.812	81.25
667.015	88.25
667.218	83.25
667.421	80.25
667.624	62.25
667.827	67.25
668.03	83.25
668.232	83.25
668.435	83.25
668.638	76.25
668.841	89.25
669.043	85.25
669.246	82.25
669.449	83.25
669.651	68.25
669.854	72.25
670.057	89.25
670.259	85.25
670.462	82.25
670.665	94.25
670.867	68.25
671.07	93.25
671.272	75.25
671.475	90.25
671.677	80.25
671.88	76.25
672.082	94.25
672.284	75.25
672.487	82.25
672.689	66.25
672.892	74.25
