Data from 1976.PennyLincolnUp.Lamp.En5.5.200Scan.071719.P1.Changed Mount._HRD10591_16-02-16-866.txt Node
Date: Thu Jul 18 16:02:16 EDT 2019
User: cochatt
Spectrometer: HR+D1059
Trigger mode: 1
Integration Time (sec): 1.000000E-1
Scans to average: 1
Electric dark correction enabled: true
Nonlinearity correction enabled: false
Boxcar width: 0
XAxis mode: Wavelengths
Number of Pixels in Spectrum: 2048
>>>>>Begin Spectral Data<<<<<
223.165	-17.25
223.4	-17.25
223.635	-17.25
223.869	-14.25
224.104	-1.25
224.338	-13.25
224.573	-23.25
224.808	-18.25
225.042	-9.25
225.277	-11.25
225.511	-0.25
225.746	5.75
225.98	15.75
226.215	11.75
226.449	8.75
226.683	19.75
226.918	25.75
227.152	20.75
227.387	36.75
227.621	53.75
227.856	27.75
228.09	25.75
228.324	51.75
228.559	50.75
228.793	70.75
229.027	94.75
229.262	118.75
229.496	125.75
229.73	122.75
229.964	153.75
230.199	133.75
230.433	123.75
230.667	100.75
230.901	103.75
231.136	113.75
231.37	101.75
231.604	127.75
231.838	116.75
232.072	94.75
232.306	105.75
232.541	113.75
232.775	109.75
233.009	120.75
233.243	107.75
233.477	112.75
233.711	107.75
233.945	114.75
234.179	133.75
234.413	124.75
234.647	126.75
234.881	124.75
235.115	128.75
235.349	106.75
235.583	113.75
235.817	124.75
236.051	127.75
236.285	132.75
236.519	141.75
236.753	136.75
236.987	138.75
237.221	194.75
237.455	220.75
237.689	166.75
237.922	138.75
238.156	148.75
238.39	127.75
238.624	130.75
238.858	130.75
239.091	131.75
239.325	125.75
239.559	124.75
239.793	110.75
240.027	132.75
240.26	138.75
240.494	162.75
240.728	159.75
240.961	161.75
241.195	150.75
241.429	132.75
241.662	144.75
241.896	140.75
242.13	141.75
242.363	140.75
242.597	128.75
242.83	130.75
243.064	148.75
243.298	154.75
243.531	148.75
243.765	148.75
243.998	147.75
244.232	135.75
244.465	157.75
244.699	126.75
244.932	161.75
245.166	134.75
245.399	147.75
245.633	147.75
245.866	141.75
246.099	153.75
246.333	157.75
246.566	150.75
246.8	153.75
247.033	149.75
247.266	157.75
247.5	155.75
247.733	159.75
247.966	171.75
248.2	166.75
248.433	181.75
248.666	169.75
248.899	194.75
249.133	208.75
249.366	218.75
249.599	208.75
249.832	196.75
250.066	191.75
250.299	201.75
250.532	206.75
250.765	200.75
250.998	234.75
251.231	235.75
251.465	227.75
251.698	223.75
251.931	200.75
252.164	206.75
252.397	200.75
252.63	193.75
252.863	214.75
253.096	220.75
253.329	228.75
253.562	227.75
253.795	228.75
254.028	205.75
254.261	221.75
254.494	231.75
254.727	271.75
254.96	275.75
255.193	268.75
255.426	264.75
255.659	233.75
255.892	222.75
256.124	232.75
256.357	240.75
256.59	221.75
256.823	203.75
257.056	214.75
257.289	222.75
257.521	206.75
257.754	226.75
257.987	202.75
258.22	218.75
258.452	213.75
258.685	217.75
258.918	220.75
259.151	206.75
259.383	227.75
259.616	223.75
259.849	250.75
260.081	240.75
260.314	257.75
260.547	284.75
260.779	261.75
261.012	262.75
261.244	233.75
261.477	233.75
261.71	241.75
261.942	246.75
262.175	233.75
262.407	251.75
262.64	226.75
262.872	222.75
263.105	230.75
263.337	238.75
263.57	229.75
263.802	220.75
264.035	220.75
264.267	235.75
264.499	229.75
264.732	244.75
264.964	222.75
265.197	233.75
265.429	247.75
265.661	242.75
265.894	230.75
266.126	224.75
266.358	212.75
266.591	249.75
266.823	254.75
267.055	260.75
267.287	252.75
267.52	240.75
267.752	251.75
267.984	248.75
268.216	265.75
268.448	229.75
268.681	262.75
268.913	258.75
269.145	266.75
269.377	292.75
269.609	292.75
269.841	283.75
270.073	289.75
270.306	322.75
270.538	344.75
270.77	343.75
271.002	310.75
271.234	312.75
271.466	310.75
271.698	311.75
271.93	334.75
272.162	334.75
272.394	338.75
272.626	324.75
272.858	315.75
273.09	296.75
273.322	287.75
273.553	281.75
273.785	297.75
274.017	277.75
274.249	280.75
274.481	299.75
274.713	288.75
274.945	306.75
275.176	300.75
275.408	291.75
275.64	291.75
275.872	270.75
276.104	297.75
276.335	283.75
276.567	266.75
276.799	301.75
277.031	351.75
277.262	331.75
277.494	346.75
277.726	343.75
277.957	339.75
278.189	287.75
278.421	291.75
278.652	265.75
278.884	278.75
279.115	296.75
279.347	296.75
279.579	302.75
279.81	276.75
280.042	286.75
280.273	296.75
280.505	284.75
280.736	284.75
280.968	281.75
281.199	294.75
281.431	298.75
281.662	308.75
281.894	290.75
282.125	284.75
282.356	316.75
282.588	325.75
282.819	329.75
283.051	296.75
283.282	301.75
283.513	289.75
283.745	301.75
283.976	295.75
284.207	294.75
284.439	320.75
284.67	319.75
284.901	294.75
285.132	306.75
285.364	302.75
285.595	286.75
285.826	298.75
286.057	284.75
286.288	312.75
286.52	313.75
286.751	326.75
286.982	296.75
287.213	313.75
287.444	317.75
287.675	314.75
287.906	328.75
288.138	320.75
288.369	346.75
288.6	314.75
288.831	320.75
289.062	314.75
289.293	333.75
289.524	324.75
289.755	312.75
289.986	332.75
290.217	317.75
290.448	332.75
290.679	330.75
290.91	315.75
291.141	299.75
291.371	326.75
291.602	329.75
291.833	324.75
292.064	330.75
292.295	336.75
292.526	324.75
292.757	328.75
292.987	318.75
293.218	308.75
293.449	334.75
293.68	313.75
293.91	308.75
294.141	329.75
294.372	333.75
294.603	333.75
294.833	332.75
295.064	334.75
295.295	323.75
295.525	317.75
295.756	324.75
295.987	322.75
296.217	331.75
296.448	350.75
296.679	336.75
296.909	333.75
297.14	341.75
297.37	346.75
297.601	322.75
297.831	327.75
298.062	317.75
298.292	328.75
298.523	339.75
298.753	330.75
298.984	334.75
299.214	340.75
299.445	315.75
299.675	343.75
299.905	362.75
300.136	334.75
300.366	372.75
300.597	341.75
300.827	333.75
301.057	333.75
301.288	363.75
301.518	345.75
301.748	342.75
301.979	371.75
302.209	345.75
302.439	365.75
302.669	350.75
302.9	356.75
303.13	335.75
303.36	352.75
303.59	354.75
303.82	388.75
304.051	362.75
304.281	368.75
304.511	356.75
304.741	362.75
304.971	354.75
305.201	354.75
305.431	363.75
305.661	339.75
305.891	356.75
306.121	373.75
306.352	375.75
306.582	375.75
306.812	359.75
307.042	348.75
307.272	352.75
307.502	373.75
307.731	365.75
307.961	372.75
308.191	356.75
308.421	365.75
308.651	368.75
308.881	365.75
309.111	370.75
309.341	352.75
309.571	375.75
309.8	398.75
310.03	388.75
310.26	397.75
310.49	382.75
310.72	401.75
310.949	434.75
311.179	413.75
311.409	404.75
311.639	409.75
311.868	403.75
312.098	369.75
312.328	408.75
312.557	434.75
312.787	432.75
313.017	434.75
313.246	403.75
313.476	397.75
313.706	392.75
313.935	404.75
314.165	422.75
314.394	418.75
314.624	416.75
314.853	401.75
315.083	404.75
315.312	416.75
315.542	389.75
315.771	397.75
316.001	401.75
316.23	386.75
316.46	410.75
316.689	417.75
316.919	418.75
317.148	434.75
317.377	412.75
317.607	408.75
317.836	412.75
318.065	389.75
318.295	383.75
318.524	377.75
318.753	389.75
318.983	399.75
319.212	394.75
319.441	402.75
319.67	400.75
319.9	397.75
320.129	418.75
320.358	386.75
320.587	429.75
320.816	410.75
321.046	414.75
321.275	421.75
321.504	419.75
321.733	433.75
321.962	439.75
322.191	429.75
322.42	415.75
322.649	461.75
322.878	466.75
323.108	469.75
323.337	485.75
323.566	485.75
323.795	524.75
324.024	546.75
324.253	650.75
324.482	909.75
324.71	1412.75
324.939	2072.75
325.168	1808.75
325.397	925.75
325.626	620.75
325.855	572.75
326.084	499.75
326.313	490.75
326.542	520.75
326.77	559.75
326.999	626.75
327.228	844.75
327.457	1254.75
327.686	1568.75
327.914	1050.75
328.143	683.75
328.372	620.75
328.6	590.75
328.829	555.75
329.058	557.75
329.287	573.75
329.515	532.75
329.744	529.75
329.972	544.75
330.201	542.75
330.43	562.75
330.658	586.75
330.887	586.75
331.115	582.75
331.344	529.75
331.572	516.75
331.801	493.75
332.03	489.75
332.258	483.75
332.486	483.75
332.715	498.75
332.943	483.75
333.172	486.75
333.4	511.75
333.629	522.75
333.857	517.75
334.085	544.75
334.314	533.75
334.542	553.75
334.771	582.75
334.999	533.75
335.227	519.75
335.455	485.75
335.684	480.75
335.912	494.75
336.14	487.75
336.369	490.75
336.597	483.75
336.825	490.75
337.053	483.75
337.281	452.75
337.51	458.75
337.738	463.75
337.966	459.75
338.194	454.75
338.422	480.75
338.65	462.75
338.878	473.75
339.106	470.75
339.334	462.75
339.562	466.75
339.79	467.75
340.018	458.75
340.246	464.75
340.474	460.75
340.702	466.75
340.93	445.75
341.158	459.75
341.386	439.75
341.614	473.75
341.842	453.75
342.07	436.75
342.298	455.75
342.526	418.75
342.754	443.75
342.981	438.75
343.209	438.75
343.437	466.75
343.665	462.75
343.893	478.75
344.12	493.75
344.348	492.75
344.576	474.75
344.804	480.75
345.031	462.75
345.259	468.75
345.487	469.75
345.714	450.75
345.942	456.75
346.17	463.75
346.397	456.75
346.625	428.75
346.853	446.75
347.08	458.75
347.308	427.75
347.535	456.75
347.763	455.75
347.99	468.75
348.218	452.75
348.445	458.75
348.673	455.75
348.9	449.75
349.128	432.75
349.355	424.75
349.583	440.75
349.81	427.75
350.037	404.75
350.265	434.75
350.492	422.75
350.72	444.75
350.947	434.75
351.174	438.75
351.402	416.75
351.629	432.75
351.856	451.75
352.083	450.75
352.311	440.75
352.538	433.75
352.765	443.75
352.992	459.75
353.22	440.75
353.447	441.75
353.674	430.75
353.901	434.75
354.128	404.75
354.355	420.75
354.583	421.75
354.81	437.75
355.037	424.75
355.264	397.75
355.491	417.75
355.718	406.75
355.945	416.75
356.172	421.75
356.399	422.75
356.626	422.75
356.853	426.75
357.08	432.75
357.307	412.75
357.534	415.75
357.761	413.75
357.988	420.75
358.215	425.75
358.441	415.75
358.668	415.75
358.895	424.75
359.122	416.75
359.349	438.75
359.576	459.75
359.802	458.75
360.029	454.75
360.256	496.75
360.483	485.75
360.709	456.75
360.936	446.75
361.163	440.75
361.39	436.75
361.616	437.75
361.843	424.75
362.07	427.75
362.296	420.75
362.523	445.75
362.749	429.75
362.976	419.75
363.203	438.75
363.429	410.75
363.656	437.75
363.882	423.75
364.109	413.75
364.335	424.75
364.562	419.75
364.788	434.75
365.015	429.75
365.241	436.75
365.468	409.75
365.694	434.75
365.92	433.75
366.147	442.75
366.373	410.75
366.599	405.75
366.826	418.75
367.052	409.75
367.278	442.75
367.505	421.75
367.731	432.75
367.957	418.75
368.184	427.75
368.41	410.75
368.636	436.75
368.862	473.75
369.089	448.75
369.315	433.75
369.541	434.75
369.767	425.75
369.993	412.75
370.219	444.75
370.445	424.75
370.672	406.75
370.898	411.75
371.124	438.75
371.35	426.75
371.576	436.75
371.802	423.75
372.028	417.75
372.254	435.75
372.48	442.75
372.706	439.75
372.932	439.75
373.158	428.75
373.384	413.75
373.61	433.75
373.835	440.75
374.061	429.75
374.287	457.75
374.513	432.75
374.739	451.75
374.965	449.75
375.191	457.75
375.416	420.75
375.642	428.75
375.868	439.75
376.094	426.75
376.319	418.75
376.545	417.75
376.771	429.75
376.997	434.75
377.222	435.75
377.448	426.75
377.674	420.75
377.899	416.75
378.125	416.75
378.35	422.75
378.576	397.75
378.802	428.75
379.027	408.75
379.253	429.75
379.478	420.75
379.704	412.75
379.929	416.75
380.155	407.75
380.38	421.75
380.606	423.75
380.831	435.75
381.057	442.75
381.282	434.75
381.507	436.75
381.733	419.75
381.958	425.75
382.184	429.75
382.409	436.75
382.634	434.75
382.86	440.75
383.085	436.75
383.31	450.75
383.535	430.75
383.761	446.75
383.986	462.75
384.211	480.75
384.436	457.75
384.662	481.75
384.887	451.75
385.112	481.75
385.337	493.75
385.562	482.75
385.787	454.75
386.013	486.75
386.238	482.75
386.463	473.75
386.688	489.75
386.913	493.75
387.138	461.75
387.363	465.75
387.588	474.75
387.813	478.75
388.038	465.75
388.263	457.75
388.488	480.75
388.713	488.75
388.938	489.75
389.163	485.75
389.387	477.75
389.612	470.75
389.837	458.75
390.062	480.75
390.287	466.75
390.512	488.75
390.736	501.75
390.961	461.75
391.186	492.75
391.411	496.75
391.636	512.75
391.86	507.75
392.085	497.75
392.31	515.75
392.534	480.75
392.759	469.75
392.984	496.75
393.208	497.75
393.433	477.75
393.658	500.75
393.882	478.75
394.107	480.75
394.331	483.75
394.556	476.75
394.78	498.75
395.005	488.75
395.229	494.75
395.454	499.75
395.678	514.75
395.903	499.75
396.127	537.75
396.352	511.75
396.576	500.75
396.801	490.75
397.025	489.75
397.249	512.75
397.474	535.75
397.698	520.75
397.922	522.75
398.147	527.75
398.371	554.75
398.595	541.75
398.82	549.75
399.044	553.75
399.268	587.75
399.492	622.75
399.717	653.75
399.941	692.75
400.165	719.75
400.389	713.75
400.613	630.75
400.837	622.75
401.062	609.75
401.286	564.75
401.51	557.75
401.734	551.75
401.958	558.75
402.182	566.75
402.406	576.75
402.63	576.75
402.854	583.75
403.078	567.75
403.302	585.75
403.526	599.75
403.75	604.75
403.974	589.75
404.198	569.75
404.422	584.75
404.645	585.75
404.869	587.75
405.093	618.75
405.317	674.75
405.541	677.75
405.765	619.75
405.988	602.75
406.212	591.75
406.436	633.75
406.66	636.75
406.883	633.75
407.107	653.75
407.331	665.75
407.555	761.75
407.778	768.75
408.002	675.75
408.226	633.75
408.449	641.75
408.673	650.75
408.896	648.75
409.12	715.75
409.344	653.75
409.567	594.75
409.791	589.75
410.014	573.75
410.238	570.75
410.461	572.75
410.685	600.75
410.908	594.75
411.132	652.75
411.355	657.75
411.578	633.75
411.802	582.75
412.025	568.75
412.249	589.75
412.472	619.75
412.695	635.75
412.919	633.75
413.142	562.75
413.365	567.75
413.589	589.75
413.812	552.75
414.035	532.75
414.258	556.75
414.482	536.75
414.705	537.75
414.928	551.75
415.151	557.75
415.374	550.75
415.597	532.75
415.821	535.75
416.044	538.75
416.267	537.75
416.49	533.75
416.713	534.75
416.936	565.75
417.159	530.75
417.382	550.75
417.605	552.75
417.828	576.75
418.051	581.75
418.274	555.75
418.497	557.75
418.72	534.75
418.943	544.75
419.166	565.75
419.389	606.75
419.611	585.75
419.834	568.75
420.057	563.75
420.28	571.75
420.503	588.75
420.726	564.75
420.948	579.75
421.171	602.75
421.394	651.75
421.617	605.75
421.839	560.75
422.062	577.75
422.285	576.75
422.507	653.75
422.73	698.75
422.953	716.75
423.175	626.75
423.398	598.75
423.621	598.75
423.843	603.75
424.066	653.75
424.288	621.75
424.511	608.75
424.733	698.75
424.956	740.75
425.178	733.75
425.401	732.75
425.623	735.75
425.846	644.75
426.068	610.75
426.291	596.75
426.513	600.75
426.735	606.75
426.958	645.75
427.18	724.75
427.402	850.75
427.625	936.75
427.847	801.75
428.069	702.75
428.292	636.75
428.514	595.75
428.736	566.75
428.958	546.75
429.181	545.75
429.403	542.75
429.625	528.75
429.847	580.75
430.069	654.75
430.292	650.75
430.514	584.75
430.736	532.75
430.958	527.75
431.18	531.75
431.402	557.75
431.624	522.75
431.846	522.75
432.068	510.75
432.29	523.75
432.512	523.75
432.734	529.75
432.956	523.75
433.178	539.75
433.4	556.75
433.622	541.75
433.844	538.75
434.066	528.75
434.287	522.75
434.509	524.75
434.731	536.75
434.953	548.75
435.175	574.75
435.397	604.75
435.618	605.75
435.84	645.75
436.062	735.75
436.284	810.75
436.505	667.75
436.727	602.75
436.949	560.75
437.17	574.75
437.392	548.75
437.614	565.75
437.835	594.75
438.057	694.75
438.278	792.75
438.5	788.75
438.721	870.75
438.943	837.75
439.165	653.75
439.386	612.75
439.608	591.75
439.829	572.75
440.05	616.75
440.272	671.75
440.493	631.75
440.715	568.75
440.936	585.75
441.158	587.75
441.379	567.75
441.6	580.75
441.822	601.75
442.043	649.75
442.264	745.75
442.486	757.75
442.707	664.75
442.928	618.75
443.149	640.75
443.371	660.75
443.592	689.75
443.813	802.75
444.034	858.75
444.255	720.75
444.476	606.75
444.698	658.75
444.919	629.75
445.14	668.75
445.361	646.75
445.582	647.75
445.803	710.75
446.024	810.75
446.245	826.75
446.466	734.75
446.687	650.75
446.908	600.75
447.129	538.75
447.35	537.75
447.571	547.75
447.792	545.75
448.013	540.75
448.234	569.75
448.455	598.75
448.675	740.75
448.896	843.75
449.117	722.75
449.338	660.75
449.559	773.75
449.779	902.75
450	709.75
450.221	596.75
450.442	574.75
450.662	520.75
450.883	529.75
451.104	542.75
451.324	519.75
451.545	502.75
451.766	500.75
451.986	493.75
452.207	500.75
452.428	504.75
452.648	468.75
452.869	489.75
453.089	484.75
453.31	492.75
453.53	493.75
453.751	496.75
453.971	500.75
454.192	516.75
454.412	492.75
454.633	466.75
454.853	483.75
455.073	469.75
455.294	516.75
455.514	576.75
455.734	570.75
455.955	503.75
456.175	470.75
456.395	462.75
456.616	459.75
456.836	454.75
457.056	450.75
457.276	473.75
457.497	451.75
457.717	476.75
457.937	455.75
458.157	468.75
458.377	467.75
458.598	501.75
458.818	535.75
459.038	603.75
459.258	653.75
459.478	566.75
459.698	534.75
459.918	539.75
460.138	517.75
460.358	532.75
460.578	546.75
460.798	550.75
461.018	532.75
461.238	537.75
461.458	542.75
461.678	544.75
461.898	551.75
462.118	541.75
462.338	558.75
462.558	557.75
462.777	579.75
462.997	583.75
463.217	637.75
463.437	642.75
463.657	589.75
463.876	587.75
464.096	613.75
464.316	583.75
464.536	605.75
464.755	568.75
464.975	577.75
465.195	600.75
465.414	622.75
465.634	609.75
465.854	555.75
466.073	534.75
466.293	503.75
466.512	494.75
466.732	511.75
466.951	537.75
467.171	487.75
467.391	488.75
467.61	512.75
467.829	513.75
468.049	504.75
468.268	493.75
468.488	492.75
468.707	486.75
468.927	492.75
469.146	491.75
469.365	486.75
469.585	494.75
469.804	510.75
470.023	512.75
470.243	498.75
470.462	515.75
470.681	510.75
470.901	501.75
471.12	507.75
471.339	501.75
471.558	519.75
471.777	500.75
471.997	485.75
472.216	480.75
472.435	554.75
472.654	509.75
472.873	525.75
473.092	484.75
473.311	502.75
473.53	508.75
473.749	520.75
473.968	562.75
474.187	650.75
474.406	674.75
474.625	576.75
474.844	534.75
475.063	504.75
475.282	518.75
475.501	513.75
475.72	509.75
475.939	506.75
476.158	516.75
476.377	518.75
476.596	524.75
476.814	516.75
477.033	535.75
477.252	527.75
477.471	545.75
477.69	533.75
477.908	570.75
478.127	564.75
478.346	564.75
478.564	555.75
478.783	592.75
479.002	601.75
479.22	576.75
479.439	576.75
479.658	618.75
479.876	611.75
480.095	626.75
480.313	651.75
480.532	647.75
480.751	649.75
480.969	630.75
481.188	663.75
481.406	704.75
481.624	640.75
481.843	619.75
482.061	621.75
482.28	615.75
482.498	608.75
482.717	573.75
482.935	598.75
483.153	585.75
483.372	581.75
483.59	589.75
483.808	596.75
484.027	570.75
484.245	604.75
484.463	586.75
484.681	611.75
484.9	564.75
485.118	632.75
485.336	630.75
485.554	600.75
485.772	604.75
485.99	611.75
486.209	620.75
486.427	627.75
486.645	634.75
486.863	645.75
487.081	636.75
487.299	631.75
487.517	640.75
487.735	628.75
487.953	624.75
488.171	625.75
488.389	632.75
488.607	657.75
488.825	648.75
489.043	621.75
489.261	632.75
489.479	643.75
489.696	613.75
489.914	669.75
490.132	638.75
490.35	656.75
490.568	680.75
490.786	666.75
491.003	666.75
491.221	699.75
491.439	719.75
491.657	721.75
491.874	728.75
492.092	714.75
492.31	694.75
492.527	732.75
492.745	724.75
492.963	710.75
493.18	720.75
493.398	745.75
493.615	747.75
493.833	737.75
494.05	754.75
494.268	755.75
494.485	745.75
494.703	738.75
494.92	744.75
495.138	752.75
495.355	729.75
495.573	754.75
495.79	731.75
496.008	755.75
496.225	758.75
496.442	718.75
496.66	760.75
496.877	731.75
497.094	758.75
497.312	725.75
497.529	774.75
497.746	785.75
497.963	813.75
498.181	833.75
498.398	840.75
498.615	860.75
498.832	875.75
499.049	873.75
499.267	927.75
499.484	962.75
499.701	997.75
499.918	1045.75
500.135	1139.75
500.352	1153.75
500.569	1208.75
500.786	1198.75
501.003	1158.75
501.22	1125.75
501.437	1076.75
501.654	1045.75
501.871	1013.75
502.088	967.75
502.305	938.75
502.522	877.75
502.739	853.75
502.956	832.75
503.172	807.75
503.389	794.75
503.606	809.75
503.823	795.75
504.04	768.75
504.256	792.75
504.473	770.75
504.69	781.75
504.907	760.75
505.123	760.75
505.34	734.75
505.557	714.75
505.773	728.75
505.99	717.75
506.207	714.75
506.423	709.75
506.64	700.75
506.856	681.75
507.073	718.75
507.289	698.75
507.506	698.75
507.722	685.75
507.939	684.75
508.155	671.75
508.372	661.75
508.588	651.75
508.805	667.75
509.021	677.75
509.238	668.75
509.454	666.75
509.67	648.75
509.887	670.75
510.103	680.75
510.319	635.75
510.536	713.75
510.752	1076.75
510.968	903.75
511.184	670.75
511.401	656.75
511.617	635.75
511.833	614.75
512.049	609.75
512.265	618.75
512.481	615.75
512.698	614.75
512.914	627.75
513.13	626.75
513.346	624.75
513.562	624.75
513.778	613.75
513.994	616.75
514.21	645.75
514.426	668.75
514.642	683.75
514.858	692.75
515.074	710.75
515.29	827.75
515.506	1100.75
515.721	956.75
515.937	712.75
516.153	684.75
516.369	644.75
516.585	633.75
516.801	640.75
517.016	637.75
517.232	680.75
517.448	676.75
517.664	653.75
517.879	679.75
518.095	688.75
518.311	691.75
518.527	670.75
518.742	644.75
518.958	639.75
519.173	622.75
519.389	639.75
519.605	624.75
519.82	622.75
520.036	636.75
520.251	626.75
520.467	656.75
520.682	666.75
520.898	644.75
521.113	677.75
521.329	694.75
521.544	774.75
521.76	896.75
521.975	1372.75
522.19	1332.75
522.406	807.75
522.621	664.75
522.836	630.75
523.052	615.75
523.267	595.75
523.482	568.75
523.698	564.75
523.913	571.75
524.128	566.75
524.343	567.75
524.559	538.75
524.774	560.75
524.989	518.75
525.204	542.75
525.419	556.75
525.634	540.75
525.849	520.75
526.064	548.75
526.28	530.75
526.495	514.75
526.71	517.75
526.925	514.75
527.14	489.75
527.355	496.75
527.57	500.75
527.785	515.75
527.999	508.75
528.214	532.75
528.429	499.75
528.644	516.75
528.859	532.75
529.074	522.75
529.289	549.75
529.503	612.75
529.718	574.75
529.933	526.75
530.148	524.75
530.363	546.75
530.577	530.75
530.792	500.75
531.007	517.75
531.221	503.75
531.436	521.75
531.651	490.75
531.865	479.75
532.08	482.75
532.295	488.75
532.509	489.75
532.724	478.75
532.938	505.75
533.153	475.75
533.367	492.75
533.582	499.75
533.796	510.75
534.011	504.75
534.225	496.75
534.44	483.75
534.654	496.75
534.868	486.75
535.083	492.75
535.297	504.75
535.511	491.75
535.726	502.75
535.94	510.75
536.154	481.75
536.369	504.75
536.583	480.75
536.797	486.75
537.011	473.75
537.225	468.75
537.44	476.75
537.654	509.75
537.868	468.75
538.082	482.75
538.296	479.75
538.51	471.75
538.724	486.75
538.938	483.75
539.153	482.75
539.367	473.75
539.581	462.75
539.795	462.75
540.009	466.75
540.222	467.75
540.436	466.75
540.65	478.75
540.864	493.75
541.078	490.75
541.292	493.75
541.506	472.75
541.72	474.75
541.934	480.75
542.147	471.75
542.361	466.75
542.575	454.75
542.789	463.75
543.002	467.75
543.216	480.75
543.43	474.75
543.644	469.75
543.857	487.75
544.071	476.75
544.285	489.75
544.498	477.75
544.712	453.75
544.925	466.75
545.139	462.75
545.352	479.75
545.566	490.75
545.779	474.75
545.993	469.75
546.206	476.75
546.42	478.75
546.633	476.75
546.847	470.75
547.06	463.75
547.274	470.75
547.487	462.75
547.7	466.75
547.914	465.75
548.127	451.75
548.34	460.75
548.554	453.75
548.767	459.75
548.98	499.75
549.193	470.75
549.407	458.75
549.62	462.75
549.833	462.75
550.046	445.75
550.259	484.75
550.473	456.75
550.686	457.75
550.899	475.75
551.112	452.75
551.325	441.75
551.538	453.75
551.751	465.75
551.964	467.75
552.177	453.75
552.39	455.75
552.603	459.75
552.816	465.75
553.029	469.75
553.242	459.75
553.455	470.75
553.667	477.75
553.88	496.75
554.093	480.75
554.306	455.75
554.519	467.75
554.732	461.75
554.944	433.75
555.157	470.75
555.37	463.75
555.583	448.75
555.795	448.75
556.008	427.75
556.221	418.75
556.433	422.75
556.646	436.75
556.859	431.75
557.071	420.75
557.284	424.75
557.496	427.75
557.709	402.75
557.921	426.75
558.134	424.75
558.346	432.75
558.559	409.75
558.771	412.75
558.984	391.75
559.196	388.75
559.409	389.75
559.621	390.75
559.833	401.75
560.046	404.75
560.258	419.75
560.47	414.75
560.683	399.75
560.895	387.75
561.107	388.75
561.32	401.75
561.532	399.75
561.744	406.75
561.956	388.75
562.168	415.75
562.381	408.75
562.593	402.75
562.805	419.75
563.017	423.75
563.229	430.75
563.441	417.75
563.653	397.75
563.865	411.75
564.077	396.75
564.289	419.75
564.501	439.75
564.713	447.75
564.925	421.75
565.137	467.75
565.349	447.75
565.561	448.75
565.773	460.75
565.985	493.75
566.197	491.75
566.408	502.75
566.62	508.75
566.832	533.75
567.044	548.75
567.255	545.75
567.467	527.75
567.679	545.75
567.891	563.75
568.102	569.75
568.314	552.75
568.526	546.75
568.737	513.75
568.949	486.75
569.161	474.75
569.372	465.75
569.584	436.75
569.795	439.75
570.007	424.75
570.218	438.75
570.43	441.75
570.641	406.75
570.853	422.75
571.064	417.75
571.276	405.75
571.487	409.75
571.698	399.75
571.91	402.75
572.121	409.75
572.333	380.75
572.544	380.75
572.755	374.75
572.966	365.75
573.178	362.75
573.389	386.75
573.6	388.75
573.811	360.75
574.023	338.75
574.234	373.75
574.445	348.75
574.656	356.75
574.867	388.75
575.078	374.75
575.289	368.75
575.501	372.75
575.712	360.75
575.923	334.75
576.134	346.75
576.345	346.75
576.556	349.75
576.767	356.75
576.978	348.75
577.188	364.75
577.399	338.75
577.61	323.75
577.821	339.75
578.032	335.75
578.243	369.75
578.454	504.75
578.665	414.75
578.875	336.75
579.086	328.75
579.297	323.75
579.508	312.75
579.718	326.75
579.929	310.75
580.14	322.75
580.35	326.75
580.561	326.75
580.772	328.75
580.982	340.75
581.193	324.75
581.403	318.75
581.614	324.75
581.825	316.75
582.035	330.75
582.246	323.75
582.456	297.75
582.667	328.75
582.877	325.75
583.087	324.75
583.298	315.75
583.508	304.75
583.719	310.75
583.929	316.75
584.139	302.75
584.35	314.75
584.56	310.75
584.77	296.75
584.981	306.75
585.191	312.75
585.401	319.75
585.611	324.75
585.821	315.75
586.032	310.75
586.242	306.75
586.452	309.75
586.662	309.75
586.872	309.75
587.082	302.75
587.292	308.75
587.502	329.75
587.713	310.75
587.923	324.75
588.133	311.75
588.343	312.75
588.553	318.75
588.762	317.75
588.972	308.75
589.182	304.75
589.392	316.75
589.602	304.75
589.812	297.75
590.022	297.75
590.232	325.75
590.441	310.75
590.651	318.75
590.861	293.75
591.071	295.75
591.281	313.75
591.49	313.75
591.7	323.75
591.91	322.75
592.119	320.75
592.329	313.75
592.539	325.75
592.748	336.75
592.958	346.75
593.167	341.75
593.377	338.75
593.587	349.75
593.796	365.75
594.006	361.75
594.215	340.75
594.424	347.75
594.634	334.75
594.843	344.75
595.053	338.75
595.262	332.75
595.472	330.75
595.681	312.75
595.89	291.75
596.1	316.75
596.309	288.75
596.518	286.75
596.727	299.75
596.937	294.75
597.146	297.75
597.355	293.75
597.564	289.75
597.774	282.75
597.983	292.75
598.192	283.75
598.401	275.75
598.61	293.75
598.819	283.75
599.028	302.75
599.237	268.75
599.446	270.75
599.655	278.75
599.864	269.75
600.073	268.75
600.282	286.75
600.491	267.75
600.7	278.75
600.909	272.75
601.118	253.75
601.327	279.75
601.536	281.75
601.745	272.75
601.953	281.75
602.162	278.75
602.371	258.75
602.58	263.75
602.789	265.75
602.997	266.75
603.206	268.75
603.415	262.75
603.623	263.75
603.832	257.75
604.041	265.75
604.249	267.75
604.458	258.75
604.666	262.75
604.875	258.75
605.084	258.75
605.292	256.75
605.501	254.75
605.709	256.75
605.918	263.75
606.126	258.75
606.334	254.75
606.543	248.75
606.751	247.75
606.96	246.75
607.168	260.75
607.376	253.75
607.585	255.75
607.793	273.75
608.001	242.75
608.21	243.75
608.418	263.75
608.626	249.75
608.834	248.75
609.043	253.75
609.251	261.75
609.459	266.75
609.667	260.75
609.875	259.75
610.083	260.75
610.291	249.75
610.499	248.75
610.707	255.75
610.916	253.75
611.124	249.75
611.332	246.75
611.54	254.75
611.748	243.75
611.955	242.75
612.163	257.75
612.371	263.75
612.579	240.75
612.787	269.75
612.995	260.75
613.203	257.75
613.411	261.75
613.618	246.75
613.826	232.75
614.034	249.75
614.242	257.75
614.449	258.75
614.657	251.75
614.865	253.75
615.072	274.75
615.28	240.75
615.488	241.75
615.695	256.75
615.903	260.75
616.111	250.75
616.318	248.75
616.526	272.75
616.733	258.75
616.941	250.75
617.148	237.75
617.356	244.75
617.563	244.75
617.771	258.75
617.978	240.75
618.185	245.75
618.393	234.75
618.6	262.75
618.807	234.75
619.015	250.75
619.222	242.75
619.429	246.75
619.637	240.75
619.844	233.75
620.051	220.75
620.258	228.75
620.466	251.75
620.673	223.75
620.88	224.75
621.087	225.75
621.294	230.75
621.501	232.75
621.708	240.75
621.915	231.75
622.122	230.75
622.329	243.75
622.536	234.75
622.743	221.75
622.95	224.75
623.157	228.75
623.364	218.75
623.571	234.75
623.778	232.75
623.985	219.75
624.192	222.75
624.399	227.75
624.606	228.75
624.812	241.75
625.019	234.75
625.226	236.75
625.433	248.75
625.639	204.75
625.846	221.75
626.053	213.75
626.259	219.75
626.466	221.75
626.673	209.75
626.879	198.75
627.086	215.75
627.293	212.75
627.499	207.75
627.706	215.75
627.912	205.75
628.119	215.75
628.325	217.75
628.532	215.75
628.738	209.75
628.945	220.75
629.151	192.75
629.357	200.75
629.564	211.75
629.77	206.75
629.976	215.75
630.183	210.75
630.389	206.75
630.595	203.75
630.802	205.75
631.008	202.75
631.214	190.75
631.42	204.75
631.627	206.75
631.833	198.75
632.039	190.75
632.245	193.75
632.451	184.75
632.657	182.75
632.863	184.75
633.069	209.75
633.275	193.75
633.481	188.75
633.688	195.75
633.893	198.75
634.099	187.75
634.305	187.75
634.511	186.75
634.717	195.75
634.923	178.75
635.129	168.75
635.335	197.75
635.541	184.75
635.747	179.75
635.952	196.75
636.158	167.75
636.364	188.75
636.57	182.75
636.775	184.75
636.981	189.75
637.187	183.75
637.392	179.75
637.598	176.75
637.804	204.75
638.009	180.75
638.215	184.75
638.421	174.75
638.626	194.75
638.832	195.75
639.037	196.75
639.243	180.75
639.448	177.75
639.654	188.75
639.859	183.75
640.065	181.75
640.27	182.75
640.475	172.75
640.681	190.75
640.886	181.75
641.091	172.75
641.297	170.75
641.502	170.75
641.707	187.75
641.913	182.75
642.118	173.75
642.323	188.75
642.528	154.75
642.733	188.75
642.939	198.75
643.144	180.75
643.349	168.75
643.554	167.75
643.759	156.75
643.964	164.75
644.169	177.75
644.374	186.75
644.579	190.75
644.784	176.75
644.989	186.75
645.194	164.75
645.399	164.75
645.604	172.75
645.809	179.75
646.014	174.75
646.219	165.75
646.423	164.75
646.628	163.75
646.833	178.75
647.038	180.75
647.243	178.75
647.447	189.75
647.652	194.75
647.857	183.75
648.062	157.75
648.266	164.75
648.471	179.75
648.676	173.75
648.88	174.75
649.085	175.75
649.289	178.75
649.494	179.75
649.698	190.75
649.903	191.75
650.107	180.75
650.312	166.75
650.516	157.75
650.721	156.75
650.925	177.75
651.13	172.75
651.334	173.75
651.539	164.75
651.743	166.75
651.947	158.75
652.152	148.75
652.356	155.75
652.56	166.75
652.764	124.75
652.969	141.75
653.173	151.75
653.377	152.75
653.581	154.75
653.785	140.75
653.99	133.75
654.194	154.75
654.398	137.75
654.602	131.75
654.806	144.75
655.01	149.75
655.214	140.75
655.418	128.75
655.622	128.75
655.826	138.75
656.03	125.75
656.234	134.75
656.438	142.75
656.642	136.75
656.846	129.75
657.049	133.75
657.253	126.75
657.457	132.75
657.661	123.75
657.865	122.75
658.068	110.75
658.272	107.75
658.476	119.75
658.68	103.75
658.883	114.75
659.087	107.75
659.291	107.75
659.494	99.75
659.698	98.75
659.901	103.75
660.105	95.75
660.309	97.75
660.512	97.75
660.716	85.75
660.919	97.75
661.123	100.75
661.326	83.75
661.53	88.75
661.733	84.75
661.936	69.75
662.14	98.75
662.343	91.75
662.546	87.75
662.75	85.75
662.953	84.75
663.156	77.75
663.36	76.75
663.563	67.75
663.766	76.75
663.969	73.75
664.173	85.75
664.376	75.75
664.579	73.75
664.782	85.75
664.985	87.75
665.188	87.75
665.391	68.75
665.594	78.75
665.797	85.75
666	86.75
666.203	81.75
666.406	71.75
666.609	79.75
666.812	83.75
667.015	79.75
667.218	82.75
667.421	94.75
667.624	79.75
667.827	79.75
668.03	77.75
668.232	84.75
668.435	77.75
668.638	93.75
668.841	85.75
669.043	68.75
669.246	88.75
669.449	92.75
669.651	70.75
669.854	86.75
670.057	71.75
670.259	69.75
670.462	81.75
670.665	75.75
670.867	89.75
671.07	88.75
671.272	72.75
671.475	77.75
671.677	77.75
671.88	78.75
672.082	88.75
672.284	92.75
672.487	70.75
672.689	69.75
672.892	82.75
