Data from 1976.PennyLincolnUp.Lamp.En5.5.200Scan.071719.P1.Changed Mount._HRD10591_15-59-23-860.txt Node
Date: Thu Jul 18 15:59:23 EDT 2019
User: cochatt
Spectrometer: HR+D1059
Trigger mode: 1
Integration Time (sec): 1.000000E-1
Scans to average: 1
Electric dark correction enabled: true
Nonlinearity correction enabled: false
Boxcar width: 0
XAxis mode: Wavelengths
Number of Pixels in Spectrum: 2048
>>>>>Begin Spectral Data<<<<<
223.165	1.5
223.4	1.5
223.635	1.5
223.869	-20.5
224.104	-18.5
224.338	-20.5
224.573	-4.5
224.808	-12.5
225.042	-11.5
225.277	-9.5
225.511	3.5
225.746	-2.5
225.98	3.5
226.215	26.5
226.449	10.5
226.683	18.5
226.918	25.5
227.152	10.5
227.387	32.5
227.621	45.5
227.856	46.5
228.09	56.5
228.324	55.5
228.559	58.5
228.793	68.5
229.027	106.5
229.262	122.5
229.496	140.5
229.73	157.5
229.964	189.5
230.199	160.5
230.433	148.5
230.667	142.5
230.901	136.5
231.136	103.5
231.37	120.5
231.604	118.5
231.838	123.5
232.072	136.5
232.306	137.5
232.541	134.5
232.775	128.5
233.009	114.5
233.243	129.5
233.477	133.5
233.711	117.5
233.945	130.5
234.179	125.5
234.413	124.5
234.647	112.5
234.881	128.5
235.115	130.5
235.349	131.5
235.583	133.5
235.817	126.5
236.051	149.5
236.285	143.5
236.519	142.5
236.753	133.5
236.987	157.5
237.221	210.5
237.455	301.5
237.689	235.5
237.922	161.5
238.156	152.5
238.39	154.5
238.624	143.5
238.858	146.5
239.091	138.5
239.325	138.5
239.559	149.5
239.793	154.5
240.027	150.5
240.26	178.5
240.494	173.5
240.728	176.5
240.961	184.5
241.195	151.5
241.429	168.5
241.662	151.5
241.896	138.5
242.13	148.5
242.363	146.5
242.597	134.5
242.83	159.5
243.064	160.5
243.298	134.5
243.531	153.5
243.765	134.5
243.998	155.5
244.232	168.5
244.465	157.5
244.699	162.5
244.932	164.5
245.166	147.5
245.399	166.5
245.633	164.5
245.866	151.5
246.099	156.5
246.333	164.5
246.566	158.5
246.8	161.5
247.033	168.5
247.266	183.5
247.5	189.5
247.733	195.5
247.966	212.5
248.2	217.5
248.433	228.5
248.666	203.5
248.899	198.5
249.133	246.5
249.366	254.5
249.599	260.5
249.832	240.5
250.066	209.5
250.299	212.5
250.532	219.5
250.765	234.5
250.998	260.5
251.231	271.5
251.465	263.5
251.698	247.5
251.931	240.5
252.164	237.5
252.397	219.5
252.63	240.5
252.863	272.5
253.096	251.5
253.329	251.5
253.562	273.5
253.795	249.5
254.028	249.5
254.261	250.5
254.494	259.5
254.727	290.5
254.96	351.5
255.193	322.5
255.426	281.5
255.659	277.5
255.892	282.5
256.124	264.5
256.357	265.5
256.59	255.5
256.823	252.5
257.056	250.5
257.289	242.5
257.521	260.5
257.754	259.5
257.987	236.5
258.22	240.5
258.452	243.5
258.685	246.5
258.918	243.5
259.151	250.5
259.383	258.5
259.616	263.5
259.849	260.5
260.081	273.5
260.314	313.5
260.547	307.5
260.779	295.5
261.012	284.5
261.244	270.5
261.477	292.5
261.71	270.5
261.942	301.5
262.175	334.5
262.407	314.5
262.64	281.5
262.872	272.5
263.105	272.5
263.337	272.5
263.57	256.5
263.802	244.5
264.035	250.5
264.267	257.5
264.499	267.5
264.732	260.5
264.964	250.5
265.197	257.5
265.429	255.5
265.661	254.5
265.894	249.5
266.126	260.5
266.358	245.5
266.591	261.5
266.823	269.5
267.055	275.5
267.287	284.5
267.52	273.5
267.752	273.5
267.984	279.5
268.216	278.5
268.448	264.5
268.681	293.5
268.913	288.5
269.145	320.5
269.377	337.5
269.609	326.5
269.841	340.5
270.073	328.5
270.306	349.5
270.538	378.5
270.77	363.5
271.002	353.5
271.234	331.5
271.466	357.5
271.698	371.5
271.93	405.5
272.162	402.5
272.394	387.5
272.626	363.5
272.858	341.5
273.09	339.5
273.322	321.5
273.553	322.5
273.785	313.5
274.017	338.5
274.249	309.5
274.481	327.5
274.713	336.5
274.945	333.5
275.176	342.5
275.408	338.5
275.64	333.5
275.872	336.5
276.104	339.5
276.335	328.5
276.567	345.5
276.799	386.5
277.031	413.5
277.262	426.5
277.494	428.5
277.726	376.5
277.957	373.5
278.189	358.5
278.421	335.5
278.652	344.5
278.884	355.5
279.115	331.5
279.347	373.5
279.579	466.5
279.81	573.5
280.042	546.5
280.273	466.5
280.505	479.5
280.736	426.5
280.968	387.5
281.199	357.5
281.431	349.5
281.662	332.5
281.894	329.5
282.125	328.5
282.356	396.5
282.588	418.5
282.819	462.5
283.051	372.5
283.282	342.5
283.513	341.5
283.745	340.5
283.976	361.5
284.207	356.5
284.439	354.5
284.67	361.5
284.901	357.5
285.132	352.5
285.364	385.5
285.595	403.5
285.826	346.5
286.057	359.5
286.288	368.5
286.52	336.5
286.751	354.5
286.982	353.5
287.213	348.5
287.444	348.5
287.675	353.5
287.906	378.5
288.138	408.5
288.369	420.5
288.6	401.5
288.831	385.5
289.062	365.5
289.293	346.5
289.524	369.5
289.755	354.5
289.986	360.5
290.217	340.5
290.448	333.5
290.679	333.5
290.91	363.5
291.141	372.5
291.371	355.5
291.602	344.5
291.833	349.5
292.064	350.5
292.295	346.5
292.526	369.5
292.757	357.5
292.987	351.5
293.218	352.5
293.449	369.5
293.68	353.5
293.91	349.5
294.141	344.5
294.372	354.5
294.603	358.5
294.833	363.5
295.064	355.5
295.295	360.5
295.525	356.5
295.756	358.5
295.987	392.5
296.217	461.5
296.448	454.5
296.679	410.5
296.909	368.5
297.14	359.5
297.37	361.5
297.601	380.5
297.831	366.5
298.062	366.5
298.292	370.5
298.523	382.5
298.753	364.5
298.984	384.5
299.214	392.5
299.445	380.5
299.675	386.5
299.905	388.5
300.136	390.5
300.366	387.5
300.597	384.5
300.827	392.5
301.057	412.5
301.288	440.5
301.518	432.5
301.748	409.5
301.979	416.5
302.209	422.5
302.439	428.5
302.669	425.5
302.9	418.5
303.13	399.5
303.36	403.5
303.59	409.5
303.82	442.5
304.051	445.5
304.281	406.5
304.511	397.5
304.741	412.5
304.971	380.5
305.201	407.5
305.431	398.5
305.661	433.5
305.891	418.5
306.121	431.5
306.352	412.5
306.582	434.5
306.812	416.5
307.042	407.5
307.272	437.5
307.502	447.5
307.731	415.5
307.961	420.5
308.191	420.5
308.421	408.5
308.651	451.5
308.881	426.5
309.111	456.5
309.341	451.5
309.571	471.5
309.8	484.5
310.03	490.5
310.26	516.5
310.49	506.5
310.72	528.5
310.949	570.5
311.179	596.5
311.409	515.5
311.639	492.5
311.868	493.5
312.098	516.5
312.328	500.5
312.557	541.5
312.787	618.5
313.017	583.5
313.246	538.5
313.476	520.5
313.706	474.5
313.935	528.5
314.165	532.5
314.394	563.5
314.624	565.5
314.853	516.5
315.083	496.5
315.312	502.5
315.542	480.5
315.771	466.5
316.001	491.5
316.23	475.5
316.46	499.5
316.689	484.5
316.919	484.5
317.148	527.5
317.377	519.5
317.607	538.5
317.836	504.5
318.065	484.5
318.295	516.5
318.524	501.5
318.753	475.5
318.983	498.5
319.212	482.5
319.441	503.5
319.67	521.5
319.9	513.5
320.129	478.5
320.358	491.5
320.587	484.5
320.816	520.5
321.046	534.5
321.275	516.5
321.504	552.5
321.733	519.5
321.962	526.5
322.191	569.5
322.42	628.5
322.649	636.5
322.878	641.5
323.108	688.5
323.337	757.5
323.566	783.5
323.795	871.5
324.024	997.5
324.253	1344.5
324.482	2157.5
324.71	3712.5
324.939	5756.5
325.168	4705.5
325.397	2074.5
325.626	1219.5
325.855	904.5
326.084	766.5
326.313	746.5
326.542	768.5
326.77	882.5
326.999	1190.5
327.228	1874.5
327.457	3264.5
327.686	4251.5
327.914	2465.5
328.143	1382.5
328.372	1147.5
328.6	1039.5
328.829	940.5
329.058	974.5
329.287	1031.5
329.515	896.5
329.744	779.5
329.972	784.5
330.201	861.5
330.43	1003.5
330.658	1048.5
330.887	1109.5
331.115	1072.5
331.344	811.5
331.572	744.5
331.801	719.5
332.03	712.5
332.258	659.5
332.486	616.5
332.715	601.5
332.943	616.5
333.172	620.5
333.4	629.5
333.629	629.5
333.857	698.5
334.085	714.5
334.314	760.5
334.542	896.5
334.771	957.5
334.999	800.5
335.227	682.5
335.455	642.5
335.684	642.5
335.912	604.5
336.14	569.5
336.369	628.5
336.597	606.5
336.825	610.5
337.053	600.5
337.281	571.5
337.51	571.5
337.738	569.5
337.966	583.5
338.194	585.5
338.422	613.5
338.65	582.5
338.878	562.5
339.106	569.5
339.334	541.5
339.562	549.5
339.79	543.5
340.018	554.5
340.246	547.5
340.474	567.5
340.702	600.5
340.93	540.5
341.158	542.5
341.386	546.5
341.614	560.5
341.842	560.5
342.07	554.5
342.298	533.5
342.526	541.5
342.754	521.5
342.981	528.5
343.209	520.5
343.437	517.5
343.665	516.5
343.893	551.5
344.12	563.5
344.348	558.5
344.576	537.5
344.804	571.5
345.031	597.5
345.259	602.5
345.487	589.5
345.714	563.5
345.942	553.5
346.17	551.5
346.397	539.5
346.625	528.5
346.853	537.5
347.08	536.5
347.308	577.5
347.535	557.5
347.763	577.5
347.99	579.5
348.218	555.5
348.445	583.5
348.673	594.5
348.9	528.5
349.128	551.5
349.355	520.5
349.583	499.5
349.81	511.5
350.037	505.5
350.265	513.5
350.492	498.5
350.72	513.5
350.947	530.5
351.174	555.5
351.402	591.5
351.629	580.5
351.856	568.5
352.083	590.5
352.311	606.5
352.538	609.5
352.765	603.5
352.992	584.5
353.22	581.5
353.447	560.5
353.674	538.5
353.901	498.5
354.128	496.5
354.355	486.5
354.583	504.5
354.81	481.5
355.037	485.5
355.264	473.5
355.491	460.5
355.718	470.5
355.945	473.5
356.172	453.5
356.399	448.5
356.626	457.5
356.853	477.5
357.08	464.5
357.307	483.5
357.534	462.5
357.761	482.5
357.988	477.5
358.215	488.5
358.441	497.5
358.668	504.5
358.895	517.5
359.122	517.5
359.349	515.5
359.576	547.5
359.802	608.5
360.029	685.5
360.256	721.5
360.483	680.5
360.709	592.5
360.936	554.5
361.163	549.5
361.39	573.5
361.616	572.5
361.843	562.5
362.07	564.5
362.296	590.5
362.523	564.5
362.749	562.5
362.976	540.5
363.203	521.5
363.429	510.5
363.656	496.5
363.882	512.5
364.109	513.5
364.335	484.5
364.562	492.5
364.788	485.5
365.015	482.5
365.241	501.5
365.468	538.5
365.694	539.5
365.92	547.5
366.147	516.5
366.373	516.5
366.599	482.5
366.826	480.5
367.052	485.5
367.278	520.5
367.505	493.5
367.731	478.5
367.957	510.5
368.184	508.5
368.41	520.5
368.636	544.5
368.862	544.5
369.089	505.5
369.315	499.5
369.541	513.5
369.767	481.5
369.993	485.5
370.219	491.5
370.445	512.5
370.672	496.5
370.898	485.5
371.124	481.5
371.35	471.5
371.576	466.5
371.802	478.5
372.028	476.5
372.254	473.5
372.48	488.5
372.706	492.5
372.932	496.5
373.158	491.5
373.384	477.5
373.61	488.5
373.835	520.5
374.061	518.5
374.287	489.5
374.513	510.5
374.739	503.5
374.965	517.5
375.191	491.5
375.416	493.5
375.642	484.5
375.868	493.5
376.094	515.5
376.319	508.5
376.545	477.5
376.771	496.5
376.997	476.5
377.222	474.5
377.448	475.5
377.674	473.5
377.899	482.5
378.125	475.5
378.35	491.5
378.576	488.5
378.802	459.5
379.027	457.5
379.253	478.5
379.478	477.5
379.704	464.5
379.929	482.5
380.155	520.5
380.38	497.5
380.606	491.5
380.831	496.5
381.057	484.5
381.282	466.5
381.507	465.5
381.733	503.5
381.958	499.5
382.184	509.5
382.409	517.5
382.634	514.5
382.86	525.5
383.085	521.5
383.31	522.5
383.535	508.5
383.761	529.5
383.986	542.5
384.211	521.5
384.436	551.5
384.662	532.5
384.887	557.5
385.112	552.5
385.337	565.5
385.562	582.5
385.787	573.5
386.013	585.5
386.238	620.5
386.463	610.5
386.688	577.5
386.913	573.5
387.138	582.5
387.363	570.5
387.588	540.5
387.813	549.5
388.038	558.5
388.263	565.5
388.488	566.5
388.713	545.5
388.938	525.5
389.163	530.5
389.387	530.5
389.612	541.5
389.837	503.5
390.062	509.5
390.287	523.5
390.512	533.5
390.736	517.5
390.961	520.5
391.186	517.5
391.411	524.5
391.636	532.5
391.86	535.5
392.085	553.5
392.31	549.5
392.534	561.5
392.759	565.5
392.984	607.5
393.208	694.5
393.433	952.5
393.658	1064.5
393.882	691.5
394.107	596.5
394.331	571.5
394.556	579.5
394.78	569.5
395.005	529.5
395.229	521.5
395.454	533.5
395.678	550.5
395.903	595.5
396.127	626.5
396.352	695.5
396.576	637.5
396.801	733.5
397.025	886.5
397.249	748.5
397.474	583.5
397.698	549.5
397.922	582.5
398.147	605.5
398.371	598.5
398.595	570.5
398.82	625.5
399.044	610.5
399.268	642.5
399.492	683.5
399.717	723.5
399.941	761.5
400.165	764.5
400.389	783.5
400.613	716.5
400.837	677.5
401.062	642.5
401.286	631.5
401.51	600.5
401.734	598.5
401.958	609.5
402.182	670.5
402.406	701.5
402.63	712.5
402.854	665.5
403.078	644.5
403.302	663.5
403.526	662.5
403.75	663.5
403.974	661.5
404.198	642.5
404.422	662.5
404.645	662.5
404.869	688.5
405.093	704.5
405.317	793.5
405.541	829.5
405.765	737.5
405.988	717.5
406.212	741.5
406.436	809.5
406.66	839.5
406.883	773.5
407.107	802.5
407.331	827.5
407.555	892.5
407.778	894.5
408.002	832.5
408.226	768.5
408.449	725.5
408.673	723.5
408.896	744.5
409.12	805.5
409.344	741.5
409.567	667.5
409.791	646.5
410.014	644.5
410.238	641.5
410.461	624.5
410.685	641.5
410.908	659.5
411.132	727.5
411.355	747.5
411.578	730.5
411.802	653.5
412.025	636.5
412.249	641.5
412.472	685.5
412.695	739.5
412.919	717.5
413.142	675.5
413.365	626.5
413.589	612.5
413.812	596.5
414.035	626.5
414.258	621.5
414.482	610.5
414.705	608.5
414.928	593.5
415.151	595.5
415.374	563.5
415.597	600.5
415.821	586.5
416.044	586.5
416.267	609.5
416.49	621.5
416.713	557.5
416.936	604.5
417.159	607.5
417.382	586.5
417.605	607.5
417.828	629.5
418.051	643.5
418.274	637.5
418.497	584.5
418.72	600.5
418.943	574.5
419.166	607.5
419.389	660.5
419.611	646.5
419.834	645.5
420.057	655.5
420.28	620.5
420.503	643.5
420.726	642.5
420.948	649.5
421.171	696.5
421.394	747.5
421.617	665.5
421.839	615.5
422.062	613.5
422.285	645.5
422.507	752.5
422.73	921.5
422.953	951.5
423.175	751.5
423.398	650.5
423.621	657.5
423.843	677.5
424.066	661.5
424.288	697.5
424.511	681.5
424.733	777.5
424.956	889.5
425.178	885.5
425.401	853.5
425.623	864.5
425.846	728.5
426.068	704.5
426.291	677.5
426.513	704.5
426.735	691.5
426.958	767.5
427.18	880.5
427.402	1052.5
427.625	1267.5
427.847	1193.5
428.069	1001.5
428.292	835.5
428.514	710.5
428.736	643.5
428.958	673.5
429.181	640.5
429.403	626.5
429.625	627.5
429.847	686.5
430.069	775.5
430.292	798.5
430.514	650.5
430.736	606.5
430.958	627.5
431.18	585.5
431.402	605.5
431.624	592.5
431.846	556.5
432.068	586.5
432.29	581.5
432.512	604.5
432.734	620.5
432.956	594.5
433.178	660.5
433.4	639.5
433.622	627.5
433.844	599.5
434.066	606.5
434.287	580.5
434.509	596.5
434.731	602.5
434.953	630.5
435.175	650.5
435.397	660.5
435.618	684.5
435.84	745.5
436.062	901.5
436.284	969.5
436.505	801.5
436.727	710.5
436.949	645.5
437.17	638.5
437.392	652.5
437.614	646.5
437.835	720.5
438.057	875.5
438.278	1009.5
438.5	979.5
438.721	1062.5
438.943	999.5
439.165	779.5
439.386	709.5
439.608	727.5
439.829	702.5
440.05	832.5
440.272	900.5
440.493	834.5
440.715	740.5
440.936	653.5
441.158	674.5
441.379	660.5
441.6	703.5
441.822	708.5
442.043	742.5
442.264	892.5
442.486	911.5
442.707	782.5
442.928	747.5
443.149	756.5
443.371	779.5
443.592	835.5
443.813	942.5
444.034	999.5
444.255	829.5
444.476	730.5
444.698	710.5
444.919	717.5
445.14	838.5
445.361	811.5
445.582	817.5
445.803	935.5
446.024	1112.5
446.245	1062.5
446.466	985.5
446.687	809.5
446.908	732.5
447.129	662.5
447.35	657.5
447.571	644.5
447.792	635.5
448.013	631.5
448.234	663.5
448.455	748.5
448.675	902.5
448.896	1029.5
449.117	875.5
449.338	810.5
449.559	974.5
449.779	1100.5
450	830.5
450.221	696.5
450.442	644.5
450.662	676.5
450.883	678.5
451.104	759.5
451.324	720.5
451.545	665.5
451.766	609.5
451.986	585.5
452.207	584.5
452.428	570.5
452.648	565.5
452.869	613.5
453.089	619.5
453.31	638.5
453.53	610.5
453.751	603.5
453.971	604.5
454.192	704.5
454.412	662.5
454.633	604.5
454.853	595.5
455.073	593.5
455.294	593.5
455.514	703.5
455.734	678.5
455.955	599.5
456.175	570.5
456.395	532.5
456.616	524.5
456.836	505.5
457.056	510.5
457.276	501.5
457.497	542.5
457.717	515.5
457.937	526.5
458.157	553.5
458.377	552.5
458.598	624.5
458.818	756.5
459.038	962.5
459.258	950.5
459.478	753.5
459.698	650.5
459.918	633.5
460.138	614.5
460.358	628.5
460.578	588.5
460.798	606.5
461.018	619.5
461.238	603.5
461.458	584.5
461.678	608.5
461.898	613.5
462.118	607.5
462.338	610.5
462.558	653.5
462.777	643.5
462.997	669.5
463.217	677.5
463.437	668.5
463.657	643.5
463.876	644.5
464.096	648.5
464.316	665.5
464.536	705.5
464.755	702.5
464.975	734.5
465.195	882.5
465.414	1147.5
465.634	874.5
465.854	725.5
466.073	639.5
466.293	631.5
466.512	594.5
466.732	573.5
466.951	582.5
467.171	562.5
467.391	588.5
467.61	643.5
467.829	646.5
468.049	650.5
468.268	686.5
468.488	631.5
468.707	572.5
468.927	581.5
469.146	553.5
469.365	555.5
469.585	583.5
469.804	599.5
470.023	638.5
470.243	633.5
470.462	637.5
470.681	709.5
470.901	672.5
471.12	627.5
471.339	605.5
471.558	622.5
471.777	625.5
471.997	573.5
472.216	644.5
472.435	786.5
472.654	710.5
472.873	626.5
473.092	578.5
473.311	578.5
473.53	581.5
473.749	586.5
473.968	619.5
474.187	790.5
474.406	824.5
474.625	671.5
474.844	612.5
475.063	590.5
475.282	563.5
475.501	585.5
475.72	565.5
475.939	596.5
476.158	594.5
476.377	586.5
476.596	568.5
476.814	634.5
477.033	656.5
477.252	638.5
477.471	633.5
477.69	616.5
477.908	632.5
478.127	660.5
478.346	646.5
478.564	624.5
478.783	668.5
479.002	652.5
479.22	681.5
479.439	736.5
479.658	739.5
479.876	767.5
480.095	760.5
480.313	796.5
480.532	762.5
480.751	768.5
480.969	780.5
481.188	1043.5
481.406	1232.5
481.624	891.5
481.843	777.5
482.061	725.5
482.28	712.5
482.498	718.5
482.717	702.5
482.935	702.5
483.153	688.5
483.372	702.5
483.59	692.5
483.808	675.5
484.027	704.5
484.245	710.5
484.463	714.5
484.681	715.5
484.9	731.5
485.118	703.5
485.336	736.5
485.554	714.5
485.772	733.5
485.99	705.5
486.209	728.5
486.427	719.5
486.645	781.5
486.863	803.5
487.081	811.5
487.299	777.5
487.517	755.5
487.735	761.5
487.953	763.5
488.171	747.5
488.389	743.5
488.607	759.5
488.825	717.5
489.043	742.5
489.261	736.5
489.479	729.5
489.696	731.5
489.914	732.5
490.132	743.5
490.35	759.5
490.568	771.5
490.786	774.5
491.003	790.5
491.221	820.5
491.439	810.5
491.657	835.5
491.874	860.5
492.092	825.5
492.31	822.5
492.527	836.5
492.745	835.5
492.963	873.5
493.18	858.5
493.398	828.5
493.615	836.5
493.833	856.5
494.05	872.5
494.268	820.5
494.485	842.5
494.703	836.5
494.92	858.5
495.138	852.5
495.355	844.5
495.573	868.5
495.79	870.5
496.008	913.5
496.225	877.5
496.442	843.5
496.66	894.5
496.877	848.5
497.094	882.5
497.312	854.5
497.529	874.5
497.746	886.5
497.963	907.5
498.181	955.5
498.398	995.5
498.615	970.5
498.832	983.5
499.049	1009.5
499.267	1052.5
499.484	1068.5
499.701	1104.5
499.918	1148.5
500.135	1224.5
500.352	1256.5
500.569	1272.5
500.786	1285.5
501.003	1280.5
501.22	1245.5
501.437	1186.5
501.654	1194.5
501.871	1176.5
502.088	1152.5
502.305	1060.5
502.522	1020.5
502.739	1010.5
502.956	954.5
503.172	948.5
503.389	921.5
503.606	931.5
503.823	958.5
504.04	948.5
504.256	878.5
504.473	873.5
504.69	875.5
504.907	887.5
505.123	877.5
505.34	847.5
505.557	846.5
505.773	813.5
505.99	847.5
506.207	837.5
506.423	820.5
506.64	838.5
506.856	814.5
507.073	798.5
507.289	801.5
507.506	795.5
507.722	849.5
507.939	910.5
508.155	873.5
508.372	822.5
508.588	794.5
508.805	770.5
509.021	793.5
509.238	793.5
509.454	809.5
509.67	824.5
509.887	792.5
510.103	837.5
510.319	853.5
510.536	1211.5
510.752	2957.5
510.968	2251.5
511.184	981.5
511.401	864.5
511.617	848.5
511.833	776.5
512.049	770.5
512.265	789.5
512.481	743.5
512.698	766.5
512.914	778.5
513.13	762.5
513.346	784.5
513.562	799.5
513.778	825.5
513.994	852.5
514.21	873.5
514.426	960.5
514.642	1122.5
514.858	1205.5
515.074	1379.5
515.29	1929.5
515.506	3661.5
515.721	2750.5
515.937	1381.5
516.153	1120.5
516.369	983.5
516.585	926.5
516.801	859.5
517.016	885.5
517.232	896.5
517.448	892.5
517.664	883.5
517.879	844.5
518.095	877.5
518.311	853.5
518.527	838.5
518.742	864.5
518.958	825.5
519.173	822.5
519.389	845.5
519.605	850.5
519.82	870.5
520.036	901.5
520.251	986.5
520.467	1091.5
520.682	1056.5
520.898	1092.5
521.113	1169.5
521.329	1358.5
521.544	1721.5
521.76	2609.5
521.975	5134.5
522.19	5174.5
522.406	2260.5
522.621	1334.5
522.836	1056.5
523.052	946.5
523.267	876.5
523.482	808.5
523.698	795.5
523.913	824.5
524.128	809.5
524.343	768.5
524.559	716.5
524.774	703.5
524.989	703.5
525.204	702.5
525.419	754.5
525.634	716.5
525.849	666.5
526.064	654.5
526.28	653.5
526.495	635.5
526.71	634.5
526.925	634.5
527.14	648.5
527.355	632.5
527.57	613.5
527.785	641.5
527.999	628.5
528.214	602.5
528.429	622.5
528.644	635.5
528.859	638.5
529.074	646.5
529.289	717.5
529.503	1016.5
529.718	957.5
529.933	768.5
530.148	690.5
530.363	643.5
530.577	646.5
530.792	618.5
531.007	603.5
531.221	611.5
531.436	593.5
531.651	597.5
531.865	563.5
532.08	590.5
532.295	603.5
532.509	565.5
532.724	588.5
532.938	585.5
533.153	590.5
533.367	574.5
533.582	576.5
533.796	595.5
534.011	573.5
534.225	583.5
534.44	563.5
534.654	586.5
534.868	590.5
535.083	578.5
535.297	575.5
535.511	598.5
535.726	636.5
535.94	624.5
536.154	611.5
536.369	588.5
536.583	555.5
536.797	572.5
537.011	549.5
537.225	544.5
537.44	561.5
537.654	574.5
537.868	544.5
538.082	535.5
538.296	544.5
538.51	562.5
538.724	539.5
538.938	551.5
539.153	563.5
539.367	600.5
539.581	625.5
539.795	568.5
540.009	558.5
540.222	557.5
540.436	555.5
540.65	565.5
540.864	573.5
541.078	589.5
541.292	597.5
541.506	553.5
541.72	548.5
541.934	564.5
542.147	547.5
542.361	523.5
542.575	535.5
542.789	542.5
543.002	539.5
543.216	541.5
543.43	577.5
543.644	558.5
543.857	547.5
544.071	557.5
544.285	556.5
544.498	530.5
544.712	548.5
544.925	533.5
545.139	549.5
545.352	540.5
545.566	537.5
545.779	534.5
545.993	530.5
546.206	548.5
546.42	545.5
546.633	533.5
546.847	515.5
547.06	533.5
547.274	532.5
547.487	529.5
547.7	542.5
547.914	514.5
548.127	522.5
548.34	553.5
548.554	527.5
548.767	526.5
548.98	531.5
549.193	522.5
549.407	514.5
549.62	530.5
549.833	524.5
550.046	505.5
550.259	512.5
550.473	514.5
550.686	510.5
550.899	514.5
551.112	486.5
551.325	501.5
551.538	498.5
551.751	503.5
551.964	514.5
552.177	499.5
552.39	521.5
552.603	508.5
552.816	514.5
553.029	537.5
553.242	523.5
553.455	554.5
553.667	595.5
553.88	610.5
554.093	595.5
554.306	560.5
554.519	562.5
554.732	501.5
554.944	501.5
555.157	508.5
555.37	488.5
555.583	512.5
555.795	515.5
556.008	490.5
556.221	484.5
556.433	485.5
556.646	474.5
556.859	458.5
557.071	469.5
557.284	480.5
557.496	483.5
557.709	480.5
557.921	458.5
558.134	452.5
558.346	465.5
558.559	454.5
558.771	450.5
558.984	483.5
559.196	492.5
559.409	541.5
559.621	485.5
559.833	468.5
560.046	472.5
560.258	481.5
560.47	481.5
560.683	474.5
560.895	533.5
561.107	467.5
561.32	451.5
561.532	466.5
561.744	460.5
561.956	444.5
562.168	471.5
562.381	454.5
562.593	470.5
562.805	457.5
563.017	443.5
563.229	468.5
563.441	466.5
563.653	457.5
563.865	447.5
564.077	448.5
564.289	471.5
564.501	474.5
564.713	490.5
564.925	503.5
565.137	514.5
565.349	500.5
565.561	526.5
565.773	521.5
565.985	508.5
566.197	541.5
566.408	546.5
566.62	566.5
566.832	581.5
567.044	576.5
567.255	611.5
567.467	633.5
567.679	620.5
567.891	628.5
568.102	637.5
568.314	598.5
568.526	591.5
568.737	568.5
568.949	533.5
569.161	501.5
569.372	519.5
569.584	520.5
569.795	485.5
570.007	523.5
570.218	716.5
570.43	640.5
570.641	510.5
570.853	473.5
571.064	463.5
571.276	462.5
571.487	448.5
571.698	444.5
571.91	440.5
572.121	448.5
572.333	422.5
572.544	424.5
572.755	424.5
572.966	418.5
573.178	444.5
573.389	400.5
573.6	445.5
573.811	411.5
574.023	390.5
574.234	405.5
574.445	403.5
574.656	425.5
574.867	412.5
575.078	401.5
575.289	402.5
575.501	406.5
575.712	382.5
575.923	403.5
576.134	406.5
576.345	386.5
576.556	388.5
576.767	404.5
576.978	408.5
577.188	375.5
577.399	393.5
577.61	412.5
577.821	408.5
578.032	437.5
578.243	563.5
578.454	1445.5
578.665	887.5
578.875	472.5
579.086	405.5
579.297	389.5
579.508	373.5
579.718	370.5
579.929	370.5
580.14	371.5
580.35	373.5
580.561	374.5
580.772	374.5
580.982	353.5
581.193	370.5
581.403	366.5
581.614	375.5
581.825	365.5
582.035	361.5
582.246	363.5
582.456	360.5
582.667	373.5
582.877	370.5
583.087	357.5
583.298	364.5
583.508	356.5
583.719	367.5
583.929	370.5
584.139	376.5
584.35	344.5
584.56	388.5
584.77	378.5
584.981	383.5
585.191	358.5
585.401	382.5
585.611	370.5
585.821	358.5
586.032	376.5
586.242	361.5
586.452	357.5
586.662	352.5
586.872	361.5
587.082	376.5
587.292	363.5
587.502	379.5
587.713	344.5
587.923	344.5
588.133	345.5
588.343	357.5
588.553	346.5
588.762	368.5
588.972	392.5
589.182	601.5
589.392	603.5
589.602	429.5
589.812	544.5
590.022	498.5
590.232	377.5
590.441	361.5
590.651	357.5
590.861	355.5
591.071	355.5
591.281	357.5
591.49	348.5
591.7	355.5
591.91	372.5
592.119	368.5
592.329	361.5
592.539	385.5
592.748	388.5
592.958	378.5
593.167	382.5
593.377	378.5
593.587	390.5
593.796	384.5
594.006	417.5
594.215	396.5
594.424	390.5
594.634	382.5
594.843	376.5
595.053	379.5
595.262	359.5
595.472	344.5
595.681	380.5
595.89	350.5
596.1	361.5
596.309	331.5
596.518	348.5
596.727	341.5
596.937	348.5
597.146	342.5
597.355	335.5
597.564	353.5
597.774	338.5
597.983	326.5
598.192	329.5
598.401	336.5
598.61	335.5
598.819	314.5
599.028	321.5
599.237	324.5
599.446	329.5
599.655	325.5
599.864	317.5
600.073	297.5
600.282	321.5
600.491	316.5
600.7	321.5
600.909	312.5
601.118	314.5
601.327	322.5
601.536	306.5
601.745	308.5
601.953	310.5
602.162	321.5
602.371	295.5
602.58	313.5
602.789	317.5
602.997	311.5
603.206	299.5
603.415	276.5
603.623	319.5
603.832	314.5
604.041	282.5
604.249	306.5
604.458	305.5
604.666	299.5
604.875	311.5
605.084	306.5
605.292	309.5
605.501	301.5
605.709	300.5
605.918	288.5
606.126	305.5
606.334	310.5
606.543	298.5
606.751	301.5
606.96	298.5
607.168	309.5
607.376	306.5
607.585	299.5
607.793	279.5
608.001	289.5
608.21	291.5
608.418	273.5
608.626	289.5
608.834	300.5
609.043	299.5
609.251	293.5
609.459	286.5
609.667	297.5
609.875	276.5
610.083	287.5
610.291	305.5
610.499	271.5
610.707	295.5
610.916	276.5
611.124	306.5
611.332	290.5
611.54	311.5
611.748	290.5
611.955	309.5
612.163	287.5
612.371	292.5
612.579	288.5
612.787	297.5
612.995	313.5
613.203	300.5
613.411	292.5
613.618	295.5
613.826	300.5
614.034	290.5
614.242	274.5
614.449	284.5
614.657	319.5
614.865	309.5
615.072	289.5
615.28	302.5
615.488	272.5
615.695	295.5
615.903	281.5
616.111	288.5
616.318	300.5
616.526	301.5
616.733	324.5
616.941	269.5
617.148	288.5
617.356	268.5
617.563	272.5
617.771	277.5
617.978	297.5
618.185	286.5
618.393	275.5
618.6	276.5
618.807	285.5
619.015	282.5
619.222	273.5
619.429	304.5
619.637	280.5
619.844	272.5
620.051	268.5
620.258	281.5
620.466	264.5
620.673	276.5
620.88	283.5
621.087	274.5
621.294	269.5
621.501	262.5
621.708	284.5
621.915	284.5
622.122	268.5
622.329	285.5
622.536	278.5
622.743	254.5
622.95	254.5
623.157	261.5
623.364	279.5
623.571	263.5
623.778	261.5
623.985	273.5
624.192	259.5
624.399	267.5
624.606	268.5
624.812	279.5
625.019	234.5
625.226	243.5
625.433	275.5
625.639	274.5
625.846	251.5
626.053	240.5
626.259	247.5
626.466	248.5
626.673	251.5
626.879	234.5
627.086	258.5
627.293	260.5
627.499	252.5
627.706	239.5
627.912	236.5
628.119	242.5
628.325	239.5
628.532	240.5
628.738	227.5
628.945	252.5
629.151	253.5
629.357	226.5
629.564	226.5
629.77	244.5
629.976	232.5
630.183	241.5
630.389	246.5
630.595	225.5
630.802	248.5
631.008	234.5
631.214	234.5
631.42	228.5
631.627	225.5
631.833	231.5
632.039	234.5
632.245	240.5
632.451	226.5
632.657	229.5
632.863	224.5
633.069	230.5
633.275	223.5
633.481	205.5
633.688	220.5
633.893	233.5
634.099	245.5
634.305	220.5
634.511	229.5
634.717	221.5
634.923	231.5
635.129	226.5
635.335	204.5
635.541	211.5
635.747	232.5
635.952	226.5
636.158	214.5
636.364	241.5
636.57	245.5
636.775	232.5
636.981	236.5
637.187	235.5
637.392	228.5
637.598	225.5
637.804	236.5
638.009	229.5
638.215	214.5
638.421	206.5
638.626	211.5
638.832	208.5
639.037	219.5
639.243	212.5
639.448	205.5
639.654	222.5
639.859	218.5
640.065	214.5
640.27	209.5
640.475	203.5
640.681	202.5
640.886	208.5
641.091	197.5
641.297	210.5
641.502	204.5
641.707	222.5
641.913	207.5
642.118	203.5
642.323	212.5
642.528	204.5
642.733	220.5
642.939	220.5
643.144	210.5
643.349	212.5
643.554	204.5
643.759	188.5
643.964	186.5
644.169	212.5
644.374	182.5
644.579	202.5
644.784	193.5
644.989	198.5
645.194	195.5
645.399	206.5
645.604	200.5
645.809	208.5
646.014	212.5
646.219	206.5
646.423	201.5
646.628	207.5
646.833	208.5
647.038	204.5
647.243	227.5
647.447	207.5
647.652	230.5
647.857	215.5
648.062	223.5
648.266	208.5
648.471	210.5
648.676	219.5
648.88	221.5
649.085	205.5
649.289	230.5
649.494	227.5
649.698	267.5
649.903	256.5
650.107	237.5
650.312	218.5
650.516	205.5
650.721	196.5
650.925	192.5
651.13	206.5
651.334	205.5
651.539	197.5
651.743	174.5
651.947	184.5
652.152	193.5
652.356	193.5
652.56	193.5
652.764	182.5
652.969	181.5
653.173	185.5
653.377	163.5
653.581	171.5
653.785	171.5
653.99	170.5
654.194	193.5
654.398	181.5
654.602	182.5
654.806	202.5
655.01	201.5
655.214	194.5
655.418	186.5
655.622	192.5
655.826	188.5
656.03	199.5
656.234	205.5
656.438	224.5
656.642	222.5
656.846	226.5
657.049	180.5
657.253	189.5
657.457	175.5
657.661	165.5
657.865	155.5
658.068	141.5
658.272	129.5
658.476	131.5
658.68	145.5
658.883	114.5
659.087	126.5
659.291	126.5
659.494	129.5
659.698	97.5
659.901	115.5
660.105	105.5
660.309	110.5
660.512	111.5
660.716	93.5
660.919	98.5
661.123	101.5
661.326	88.5
661.53	104.5
661.733	98.5
661.936	69.5
662.14	77.5
662.343	80.5
662.546	104.5
662.75	89.5
662.953	92.5
663.156	91.5
663.36	89.5
663.563	90.5
663.766	77.5
663.969	77.5
664.173	87.5
664.376	87.5
664.579	88.5
664.782	64.5
664.985	73.5
665.188	89.5
665.391	82.5
665.594	73.5
665.797	83.5
666	71.5
666.203	72.5
666.406	87.5
666.609	73.5
666.812	74.5
667.015	79.5
667.218	79.5
667.421	92.5
667.624	93.5
667.827	77.5
668.03	75.5
668.232	91.5
668.435	79.5
668.638	90.5
668.841	69.5
669.043	72.5
669.246	80.5
669.449	75.5
669.651	103.5
669.854	72.5
670.057	101.5
670.259	78.5
670.462	88.5
670.665	82.5
670.867	83.5
671.07	80.5
671.272	101.5
671.475	84.5
671.677	87.5
671.88	73.5
672.082	73.5
672.284	83.5
672.487	90.5
672.689	68.5
672.892	66.5
