Data from 1976.PennyLincolnUp.Lamp.En5.5.200Scan.071719.P1.Changed Mount._HRD10591_16-00-07-861.txt Node
Date: Thu Jul 18 16:00:07 EDT 2019
User: cochatt
Spectrometer: HR+D1059
Trigger mode: 1
Integration Time (sec): 1.000000E-1
Scans to average: 1
Electric dark correction enabled: true
Nonlinearity correction enabled: false
Boxcar width: 0
XAxis mode: Wavelengths
Number of Pixels in Spectrum: 2048
>>>>>Begin Spectral Data<<<<<
223.165	-17.25
223.4	-17.25
223.635	-17.25
223.869	-18.25
224.104	-18.25
224.338	-16.25
224.573	-10.25
224.808	-5.25
225.042	-16.25
225.277	5.75
225.511	-0.25
225.746	-16.25
225.98	9.75
226.215	17.75
226.449	9.75
226.683	18.75
226.918	17.75
227.152	38.75
227.387	23.75
227.621	34.75
227.856	55.75
228.09	33.75
228.324	50.75
228.559	51.75
228.793	56.75
229.027	90.75
229.262	93.75
229.496	103.75
229.73	124.75
229.964	139.75
230.199	119.75
230.433	105.75
230.667	104.75
230.901	114.75
231.136	106.75
231.37	95.75
231.604	106.75
231.838	110.75
232.072	119.75
232.306	90.75
232.541	107.75
232.775	103.75
233.009	106.75
233.243	113.75
233.477	111.75
233.711	116.75
233.945	112.75
234.179	111.75
234.413	123.75
234.647	124.75
234.881	105.75
235.115	121.75
235.349	113.75
235.583	119.75
235.817	113.75
236.051	110.75
236.285	114.75
236.519	122.75
236.753	127.75
236.987	136.75
237.221	166.75
237.455	204.75
237.689	168.75
237.922	131.75
238.156	114.75
238.39	120.75
238.624	127.75
238.858	119.75
239.091	120.75
239.325	122.75
239.559	128.75
239.793	118.75
240.027	124.75
240.26	125.75
240.494	115.75
240.728	137.75
240.961	143.75
241.195	132.75
241.429	131.75
241.662	122.75
241.896	130.75
242.13	138.75
242.363	116.75
242.597	137.75
242.83	134.75
243.064	133.75
243.298	145.75
243.531	147.75
243.765	134.75
243.998	142.75
244.232	130.75
244.465	131.75
244.699	130.75
244.932	145.75
245.166	130.75
245.399	135.75
245.633	149.75
245.866	150.75
246.099	157.75
246.333	149.75
246.566	140.75
246.8	121.75
247.033	139.75
247.266	158.75
247.5	162.75
247.733	169.75
247.966	171.75
248.2	165.75
248.433	159.75
248.666	167.75
248.899	184.75
249.133	197.75
249.366	188.75
249.599	189.75
249.832	191.75
250.066	182.75
250.299	176.75
250.532	189.75
250.765	185.75
250.998	189.75
251.231	223.75
251.465	203.75
251.698	188.75
251.931	177.75
252.164	200.75
252.397	177.75
252.63	190.75
252.863	184.75
253.096	208.75
253.329	228.75
253.562	233.75
253.795	205.75
254.028	202.75
254.261	217.75
254.494	220.75
254.727	240.75
254.96	259.75
255.193	231.75
255.426	237.75
255.659	201.75
255.892	222.75
256.124	226.75
256.357	215.75
256.59	227.75
256.823	223.75
257.056	207.75
257.289	214.75
257.521	189.75
257.754	193.75
257.987	207.75
258.22	211.75
258.452	208.75
258.685	214.75
258.918	204.75
259.151	199.75
259.383	226.75
259.616	207.75
259.849	215.75
260.081	201.75
260.314	238.75
260.547	233.75
260.779	228.75
261.012	221.75
261.244	211.75
261.477	212.75
261.71	209.75
261.942	210.75
262.175	230.75
262.407	213.75
262.64	202.75
262.872	211.75
263.105	198.75
263.337	202.75
263.57	196.75
263.802	199.75
264.035	219.75
264.267	209.75
264.499	221.75
264.732	220.75
264.964	214.75
265.197	210.75
265.429	202.75
265.661	200.75
265.894	222.75
266.126	202.75
266.358	221.75
266.591	212.75
266.823	206.75
267.055	216.75
267.287	221.75
267.52	222.75
267.752	238.75
267.984	219.75
268.216	233.75
268.448	205.75
268.681	228.75
268.913	238.75
269.145	250.75
269.377	265.75
269.609	258.75
269.841	243.75
270.073	265.75
270.306	266.75
270.538	297.75
270.77	315.75
271.002	301.75
271.234	277.75
271.466	290.75
271.698	290.75
271.93	299.75
272.162	293.75
272.394	305.75
272.626	281.75
272.858	277.75
273.09	276.75
273.322	274.75
273.553	263.75
273.785	258.75
274.017	251.75
274.249	242.75
274.481	245.75
274.713	255.75
274.945	251.75
275.176	253.75
275.408	261.75
275.64	267.75
275.872	265.75
276.104	267.75
276.335	254.75
276.567	252.75
276.799	268.75
277.031	293.75
277.262	311.75
277.494	289.75
277.726	294.75
277.957	282.75
278.189	297.75
278.421	277.75
278.652	273.75
278.884	268.75
279.115	277.75
279.347	263.75
279.579	271.75
279.81	260.75
280.042	274.75
280.273	267.75
280.505	274.75
280.736	267.75
280.968	265.75
281.199	263.75
281.431	265.75
281.662	257.75
281.894	288.75
282.125	285.75
282.356	276.75
282.588	304.75
282.819	288.75
283.051	294.75
283.282	277.75
283.513	273.75
283.745	287.75
283.976	286.75
284.207	279.75
284.439	282.75
284.67	273.75
284.901	272.75
285.132	283.75
285.364	296.75
285.595	297.75
285.826	281.75
286.057	285.75
286.288	277.75
286.52	292.75
286.751	289.75
286.982	282.75
287.213	285.75
287.444	295.75
287.675	286.75
287.906	314.75
288.138	303.75
288.369	286.75
288.6	302.75
288.831	290.75
289.062	301.75
289.293	299.75
289.524	301.75
289.755	292.75
289.986	292.75
290.217	302.75
290.448	304.75
290.679	284.75
290.91	306.75
291.141	293.75
291.371	303.75
291.602	283.75
291.833	294.75
292.064	286.75
292.295	299.75
292.526	291.75
292.757	326.75
292.987	283.75
293.218	288.75
293.449	308.75
293.68	284.75
293.91	304.75
294.141	298.75
294.372	291.75
294.603	298.75
294.833	306.75
295.064	297.75
295.295	275.75
295.525	291.75
295.756	313.75
295.987	300.75
296.217	303.75
296.448	331.75
296.679	312.75
296.909	302.75
297.14	320.75
297.37	305.75
297.601	303.75
297.831	301.75
298.062	317.75
298.292	302.75
298.523	316.75
298.753	298.75
298.984	298.75
299.214	317.75
299.445	296.75
299.675	308.75
299.905	342.75
300.136	318.75
300.366	305.75
300.597	326.75
300.827	319.75
301.057	329.75
301.288	336.75
301.518	338.75
301.748	339.75
301.979	329.75
302.209	337.75
302.439	341.75
302.669	324.75
302.9	315.75
303.13	334.75
303.36	316.75
303.59	351.75
303.82	327.75
304.051	331.75
304.281	316.75
304.511	325.75
304.741	334.75
304.971	337.75
305.201	324.75
305.431	332.75
305.661	331.75
305.891	321.75
306.121	327.75
306.352	329.75
306.582	332.75
306.812	326.75
307.042	328.75
307.272	325.75
307.502	329.75
307.731	324.75
307.961	349.75
308.191	337.75
308.421	336.75
308.651	330.75
308.881	333.75
309.111	329.75
309.341	327.75
309.571	339.75
309.8	345.75
310.03	357.75
310.26	391.75
310.49	366.75
310.72	376.75
310.949	377.75
311.179	386.75
311.409	367.75
311.639	351.75
311.868	351.75
312.098	347.75
312.328	361.75
312.557	377.75
312.787	363.75
313.017	379.75
313.246	366.75
313.476	362.75
313.706	367.75
313.935	389.75
314.165	385.75
314.394	391.75
314.624	370.75
314.853	386.75
315.083	378.75
315.312	382.75
315.542	353.75
315.771	370.75
316.001	343.75
316.23	351.75
316.46	351.75
316.689	356.75
316.919	369.75
317.148	386.75
317.377	373.75
317.607	361.75
317.836	373.75
318.065	372.75
318.295	351.75
318.524	355.75
318.753	356.75
318.983	376.75
319.212	377.75
319.441	376.75
319.67	378.75
319.9	398.75
320.129	350.75
320.358	367.75
320.587	385.75
320.816	391.75
321.046	376.75
321.275	384.75
321.504	379.75
321.733	378.75
321.962	399.75
322.191	397.75
322.42	423.75
322.649	407.75
322.878	424.75
323.108	435.75
323.337	431.75
323.566	443.75
323.795	482.75
324.024	514.75
324.253	604.75
324.482	803.75
324.71	1184.75
324.939	1698.75
325.168	1478.75
325.397	751.75
325.626	549.75
325.855	459.75
326.084	437.75
326.313	421.75
326.542	441.75
326.77	502.75
326.999	547.75
327.228	696.75
327.457	1086.75
327.686	1309.75
327.914	879.75
328.143	612.75
328.372	540.75
328.6	518.75
328.829	484.75
329.058	497.75
329.287	517.75
329.515	512.75
329.744	461.75
329.972	445.75
330.201	491.75
330.43	508.75
330.658	506.75
330.887	552.75
331.115	552.75
331.344	480.75
331.572	457.75
331.801	460.75
332.03	445.75
332.258	474.75
332.486	449.75
332.715	463.75
332.943	451.75
333.172	462.75
333.4	460.75
333.629	470.75
333.857	485.75
334.085	478.75
334.314	492.75
334.542	534.75
334.771	512.75
334.999	487.75
335.227	477.75
335.455	459.75
335.684	443.75
335.912	456.75
336.14	457.75
336.369	445.75
336.597	456.75
336.825	459.75
337.053	438.75
337.281	451.75
337.51	415.75
337.738	416.75
337.966	457.75
338.194	453.75
338.422	434.75
338.65	437.75
338.878	435.75
339.106	419.75
339.334	436.75
339.562	431.75
339.79	420.75
340.018	418.75
340.246	420.75
340.474	440.75
340.702	419.75
340.93	413.75
341.158	414.75
341.386	438.75
341.614	424.75
341.842	420.75
342.07	417.75
342.298	395.75
342.526	395.75
342.754	406.75
342.981	405.75
343.209	394.75
343.437	425.75
343.665	413.75
343.893	419.75
344.12	453.75
344.348	438.75
344.576	425.75
344.804	443.75
345.031	429.75
345.259	451.75
345.487	438.75
345.714	417.75
345.942	419.75
346.17	425.75
346.397	419.75
346.625	415.75
346.853	386.75
347.08	415.75
347.308	425.75
347.535	413.75
347.763	383.75
347.99	403.75
348.218	397.75
348.445	422.75
348.673	429.75
348.9	418.75
349.128	404.75
349.355	379.75
349.583	363.75
349.81	366.75
350.037	389.75
350.265	387.75
350.492	418.75
350.72	385.75
350.947	390.75
351.174	387.75
351.402	404.75
351.629	394.75
351.856	415.75
352.083	415.75
352.311	407.75
352.538	398.75
352.765	421.75
352.992	388.75
353.22	425.75
353.447	406.75
353.674	392.75
353.901	383.75
354.128	396.75
354.355	396.75
354.583	379.75
354.81	383.75
355.037	399.75
355.264	399.75
355.491	372.75
355.718	394.75
355.945	388.75
356.172	391.75
356.399	401.75
356.626	373.75
356.853	377.75
357.08	372.75
357.307	386.75
357.534	383.75
357.761	399.75
357.988	370.75
358.215	385.75
358.441	376.75
358.668	395.75
358.895	383.75
359.122	399.75
359.349	401.75
359.576	418.75
359.802	416.75
360.029	437.75
360.256	442.75
360.483	453.75
360.709	390.75
360.936	419.75
361.163	391.75
361.39	410.75
361.616	405.75
361.843	414.75
362.07	421.75
362.296	393.75
362.523	411.75
362.749	389.75
362.976	396.75
363.203	398.75
363.429	393.75
363.656	399.75
363.882	407.75
364.109	397.75
364.335	413.75
364.562	405.75
364.788	401.75
365.015	376.75
365.241	380.75
365.468	387.75
365.694	406.75
365.92	407.75
366.147	377.75
366.373	383.75
366.599	387.75
366.826	399.75
367.052	375.75
367.278	381.75
367.505	385.75
367.731	410.75
367.957	385.75
368.184	402.75
368.41	393.75
368.636	404.75
368.862	392.75
369.089	403.75
369.315	405.75
369.541	392.75
369.767	387.75
369.993	393.75
370.219	395.75
370.445	387.75
370.672	390.75
370.898	374.75
371.124	380.75
371.35	384.75
371.576	387.75
371.802	395.75
372.028	400.75
372.254	367.75
372.48	397.75
372.706	420.75
372.932	414.75
373.158	409.75
373.384	406.75
373.61	388.75
373.835	403.75
374.061	417.75
374.287	403.75
374.513	412.75
374.739	412.75
374.965	417.75
375.191	424.75
375.416	419.75
375.642	403.75
375.868	415.75
376.094	413.75
376.319	390.75
376.545	412.75
376.771	411.75
376.997	399.75
377.222	384.75
377.448	402.75
377.674	377.75
377.899	384.75
378.125	412.75
378.35	390.75
378.576	389.75
378.802	386.75
379.027	390.75
379.253	391.75
379.478	407.75
379.704	403.75
379.929	405.75
380.155	399.75
380.38	409.75
380.606	406.75
380.831	400.75
381.057	387.75
381.282	380.75
381.507	394.75
381.733	410.75
381.958	399.75
382.184	421.75
382.409	415.75
382.634	399.75
382.86	416.75
383.085	423.75
383.31	408.75
383.535	426.75
383.761	422.75
383.986	436.75
384.211	405.75
384.436	434.75
384.662	417.75
384.887	437.75
385.112	443.75
385.337	449.75
385.562	439.75
385.787	442.75
386.013	449.75
386.238	434.75
386.463	474.75
386.688	462.75
386.913	457.75
387.138	434.75
387.363	444.75
387.588	417.75
387.813	429.75
388.038	447.75
388.263	460.75
388.488	442.75
388.713	455.75
388.938	458.75
389.163	440.75
389.387	443.75
389.612	436.75
389.837	437.75
390.062	458.75
390.287	445.75
390.512	441.75
390.736	451.75
390.961	454.75
391.186	448.75
391.411	464.75
391.636	453.75
391.86	452.75
392.085	467.75
392.31	458.75
392.534	457.75
392.759	453.75
392.984	455.75
393.208	463.75
393.433	453.75
393.658	459.75
393.882	465.75
394.107	462.75
394.331	450.75
394.556	445.75
394.78	450.75
395.005	465.75
395.229	462.75
395.454	461.75
395.678	454.75
395.903	493.75
396.127	486.75
396.352	495.75
396.576	450.75
396.801	463.75
397.025	458.75
397.249	479.75
397.474	495.75
397.698	488.75
397.922	490.75
398.147	497.75
398.371	535.75
398.595	510.75
398.82	499.75
399.044	530.75
399.268	544.75
399.492	576.75
399.717	607.75
399.941	633.75
400.165	647.75
400.389	663.75
400.613	621.75
400.837	541.75
401.062	531.75
401.286	533.75
401.51	519.75
401.734	527.75
401.958	516.75
402.182	525.75
402.406	554.75
402.63	521.75
402.854	532.75
403.078	534.75
403.302	531.75
403.526	557.75
403.75	541.75
403.974	569.75
404.198	538.75
404.422	552.75
404.645	543.75
404.869	549.75
405.093	602.75
405.317	621.75
405.541	663.75
405.765	579.75
405.988	585.75
406.212	576.75
406.436	594.75
406.66	603.75
406.883	605.75
407.107	612.75
407.331	634.75
407.555	729.75
407.778	693.75
408.002	628.75
408.226	609.75
408.449	616.75
408.673	586.75
408.896	593.75
409.12	658.75
409.344	633.75
409.567	546.75
409.791	557.75
410.014	541.75
410.238	545.75
410.461	529.75
410.685	542.75
410.908	541.75
411.132	576.75
411.355	647.75
411.578	579.75
411.802	567.75
412.025	552.75
412.249	557.75
412.472	578.75
412.695	617.75
412.919	600.75
413.142	534.75
413.365	539.75
413.589	540.75
413.812	484.75
414.035	523.75
414.258	494.75
414.482	517.75
414.705	521.75
414.928	504.75
415.151	509.75
415.374	505.75
415.597	530.75
415.821	519.75
416.044	489.75
416.267	535.75
416.49	504.75
416.713	496.75
416.936	488.75
417.159	480.75
417.382	500.75
417.605	520.75
417.828	514.75
418.051	531.75
418.274	518.75
418.497	507.75
418.72	515.75
418.943	490.75
419.166	523.75
419.389	542.75
419.611	573.75
419.834	539.75
420.057	534.75
420.28	547.75
420.503	533.75
420.726	537.75
420.948	533.75
421.171	587.75
421.394	600.75
421.617	534.75
421.839	532.75
422.062	548.75
422.285	544.75
422.507	580.75
422.73	670.75
422.953	639.75
423.175	558.75
423.398	563.75
423.621	537.75
423.843	551.75
424.066	575.75
424.288	571.75
424.511	622.75
424.733	623.75
424.956	680.75
425.178	686.75
425.401	656.75
425.623	711.75
425.846	632.75
426.068	569.75
426.291	545.75
426.513	567.75
426.735	538.75
426.958	612.75
427.18	651.75
427.402	789.75
427.625	875.75
427.847	740.75
428.069	629.75
428.292	590.75
428.514	541.75
428.736	513.75
428.958	519.75
429.181	499.75
429.403	522.75
429.625	530.75
429.847	565.75
430.069	597.75
430.292	624.75
430.514	523.75
430.736	497.75
430.958	491.75
431.18	501.75
431.402	489.75
431.624	482.75
431.846	478.75
432.068	481.75
432.29	505.75
432.512	495.75
432.734	511.75
432.956	479.75
433.178	511.75
433.4	487.75
433.622	515.75
433.844	493.75
434.066	500.75
434.287	482.75
434.509	480.75
434.731	515.75
434.953	514.75
435.175	533.75
435.397	552.75
435.618	551.75
435.84	592.75
436.062	666.75
436.284	754.75
436.505	608.75
436.727	555.75
436.949	528.75
437.17	510.75
437.392	508.75
437.614	528.75
437.835	551.75
438.057	627.75
438.278	701.75
438.5	725.75
438.721	808.75
438.943	748.75
439.165	599.75
439.386	570.75
439.608	543.75
439.829	531.75
440.05	596.75
440.272	608.75
440.493	591.75
440.715	534.75
440.936	518.75
441.158	512.75
441.379	510.75
441.6	539.75
441.822	587.75
442.043	582.75
442.264	647.75
442.486	712.75
442.707	599.75
442.928	552.75
443.149	581.75
443.371	570.75
443.592	630.75
443.813	719.75
444.034	755.75
444.255	664.75
444.476	600.75
444.698	578.75
444.919	578.75
445.14	712.75
445.361	651.75
445.582	601.75
445.803	618.75
446.024	725.75
446.245	728.75
446.466	687.75
446.687	596.75
446.908	547.75
447.129	532.75
447.35	507.75
447.571	526.75
447.792	505.75
448.013	513.75
448.234	524.75
448.455	563.75
448.675	665.75
448.896	772.75
449.117	655.75
449.338	613.75
449.559	702.75
449.779	855.75
450	661.75
450.221	562.75
450.442	513.75
450.662	511.75
450.883	477.75
451.104	499.75
451.324	466.75
451.545	473.75
451.766	453.75
451.986	459.75
452.207	456.75
452.428	450.75
452.648	458.75
452.869	469.75
453.089	448.75
453.31	482.75
453.53	460.75
453.751	471.75
453.971	455.75
454.192	446.75
454.412	455.75
454.633	446.75
454.853	438.75
455.073	456.75
455.294	462.75
455.514	530.75
455.734	530.75
455.955	461.75
456.175	441.75
456.395	443.75
456.616	435.75
456.836	433.75
457.056	420.75
457.276	419.75
457.497	426.75
457.717	437.75
457.937	439.75
458.157	444.75
458.377	445.75
458.598	480.75
458.818	482.75
459.038	569.75
459.258	597.75
459.478	529.75
459.698	499.75
459.918	477.75
460.138	493.75
460.358	488.75
460.578	509.75
460.798	513.75
461.018	504.75
461.238	515.75
461.458	511.75
461.678	519.75
461.898	516.75
462.118	543.75
462.338	532.75
462.558	523.75
462.777	559.75
462.997	563.75
463.217	576.75
463.437	591.75
463.657	551.75
463.876	574.75
464.096	549.75
464.316	561.75
464.536	574.75
464.755	551.75
464.975	551.75
465.195	552.75
465.414	584.75
465.634	548.75
465.854	526.75
466.073	490.75
466.293	482.75
466.512	498.75
466.732	453.75
466.951	463.75
467.171	474.75
467.391	494.75
467.61	464.75
467.829	480.75
468.049	473.75
468.268	462.75
468.488	459.75
468.707	452.75
468.927	460.75
469.146	458.75
469.365	442.75
469.585	431.75
469.804	477.75
470.023	481.75
470.243	488.75
470.462	483.75
470.681	499.75
470.901	494.75
471.12	495.75
471.339	487.75
471.558	495.75
471.777	482.75
471.997	459.75
472.216	486.75
472.435	489.75
472.654	489.75
472.873	472.75
473.092	456.75
473.311	450.75
473.53	462.75
473.749	467.75
473.968	475.75
474.187	606.75
474.406	627.75
474.625	533.75
474.844	494.75
475.063	454.75
475.282	475.75
475.501	465.75
475.72	471.75
475.939	482.75
476.158	490.75
476.377	460.75
476.596	462.75
476.814	489.75
477.033	506.75
477.252	521.75
477.471	510.75
477.69	518.75
477.908	530.75
478.127	492.75
478.346	535.75
478.564	520.75
478.783	524.75
479.002	551.75
479.22	554.75
479.439	562.75
479.658	578.75
479.876	542.75
480.095	565.75
480.313	601.75
480.532	616.75
480.751	598.75
480.969	590.75
481.188	629.75
481.406	639.75
481.624	611.75
481.843	573.75
482.061	574.75
482.28	542.75
482.498	537.75
482.717	554.75
482.935	552.75
483.153	542.75
483.372	545.75
483.59	546.75
483.808	559.75
484.027	543.75
484.245	528.75
484.463	560.75
484.681	576.75
484.9	575.75
485.118	590.75
485.336	578.75
485.554	557.75
485.772	575.75
485.99	592.75
486.209	555.75
486.427	574.75
486.645	582.75
486.863	610.75
487.081	587.75
487.299	597.75
487.517	606.75
487.735	605.75
487.953	601.75
488.171	564.75
488.389	573.75
488.607	584.75
488.825	601.75
489.043	582.75
489.261	600.75
489.479	594.75
489.696	607.75
489.914	592.75
490.132	589.75
490.35	626.75
490.568	627.75
490.786	642.75
491.003	634.75
491.221	640.75
491.439	647.75
491.657	659.75
491.874	671.75
492.092	693.75
492.31	690.75
492.527	685.75
492.745	687.75
492.963	679.75
493.18	671.75
493.398	689.75
493.615	661.75
493.833	677.75
494.05	690.75
494.268	699.75
494.485	693.75
494.703	689.75
494.92	693.75
495.138	704.75
495.355	691.75
495.573	698.75
495.79	697.75
496.008	689.75
496.225	695.75
496.442	720.75
496.66	699.75
496.877	701.75
497.094	703.75
497.312	740.75
497.529	729.75
497.746	752.75
497.963	744.75
498.181	752.75
498.398	777.75
498.615	811.75
498.832	805.75
499.049	832.75
499.267	839.75
499.484	901.75
499.701	925.75
499.918	966.75
500.135	1016.75
500.352	1127.75
500.569	1127.75
500.786	1129.75
501.003	1117.75
501.22	1057.75
501.437	1021.75
501.654	954.75
501.871	939.75
502.088	911.75
502.305	859.75
502.522	827.75
502.739	797.75
502.956	775.75
503.172	734.75
503.389	753.75
503.606	725.75
503.823	723.75
504.04	720.75
504.256	703.75
504.473	701.75
504.69	709.75
504.907	727.75
505.123	683.75
505.34	677.75
505.557	663.75
505.773	672.75
505.99	669.75
506.207	655.75
506.423	657.75
506.64	639.75
506.856	657.75
507.073	645.75
507.289	641.75
507.506	634.75
507.722	631.75
507.939	626.75
508.155	635.75
508.372	595.75
508.588	589.75
508.805	627.75
509.021	637.75
509.238	637.75
509.454	621.75
509.67	618.75
509.887	595.75
510.103	603.75
510.319	608.75
510.536	661.75
510.752	975.75
510.968	829.75
511.184	591.75
511.401	557.75
511.617	587.75
511.833	565.75
512.049	586.75
512.265	574.75
512.481	597.75
512.698	561.75
512.914	549.75
513.13	540.75
513.346	566.75
513.562	575.75
513.778	567.75
513.994	579.75
514.21	571.75
514.426	589.75
514.642	602.75
514.858	644.75
515.074	637.75
515.29	717.75
515.506	973.75
515.721	829.75
515.937	650.75
516.153	631.75
516.369	595.75
516.585	626.75
516.801	603.75
517.016	606.75
517.232	625.75
517.448	615.75
517.664	645.75
517.879	637.75
518.095	642.75
518.311	645.75
518.527	602.75
518.742	610.75
518.958	593.75
519.173	595.75
519.389	581.75
519.605	563.75
519.82	574.75
520.036	583.75
520.251	611.75
520.467	623.75
520.682	604.75
520.898	597.75
521.113	623.75
521.329	653.75
521.544	687.75
521.76	786.75
521.975	1177.75
522.19	1145.75
522.406	723.75
522.621	585.75
522.836	578.75
523.052	551.75
523.267	526.75
523.482	521.75
523.698	524.75
523.913	525.75
524.128	513.75
524.343	507.75
524.559	541.75
524.774	523.75
524.989	515.75
525.204	531.75
525.419	513.75
525.634	502.75
525.849	497.75
526.064	486.75
526.28	494.75
526.495	491.75
526.71	485.75
526.925	500.75
527.14	487.75
527.355	485.75
527.57	494.75
527.785	474.75
527.999	450.75
528.214	493.75
528.429	494.75
528.644	498.75
528.859	494.75
529.074	495.75
529.289	495.75
529.503	542.75
529.718	502.75
529.933	521.75
530.148	495.75
530.363	513.75
530.577	470.75
530.792	469.75
531.007	470.75
531.221	472.75
531.436	454.75
531.651	476.75
531.865	462.75
532.08	467.75
532.295	476.75
532.509	452.75
532.724	482.75
532.938	454.75
533.153	458.75
533.367	462.75
533.582	477.75
533.796	475.75
534.011	450.75
534.225	455.75
534.44	461.75
534.654	433.75
534.868	448.75
535.083	455.75
535.297	448.75
535.511	461.75
535.726	463.75
535.94	463.75
536.154	447.75
536.369	435.75
536.583	447.75
536.797	442.75
537.011	447.75
537.225	441.75
537.44	434.75
537.654	470.75
537.868	437.75
538.082	456.75
538.296	457.75
538.51	438.75
538.724	458.75
538.938	442.75
539.153	438.75
539.367	448.75
539.581	456.75
539.795	458.75
540.009	449.75
540.222	406.75
540.436	439.75
540.65	438.75
540.864	459.75
541.078	443.75
541.292	464.75
541.506	443.75
541.72	441.75
541.934	463.75
542.147	436.75
542.361	441.75
542.575	439.75
542.789	435.75
543.002	454.75
543.216	467.75
543.43	454.75
543.644	451.75
543.857	461.75
544.071	445.75
544.285	431.75
544.498	430.75
544.712	440.75
544.925	463.75
545.139	447.75
545.352	443.75
545.566	453.75
545.779	445.75
545.993	446.75
546.206	457.75
546.42	456.75
546.633	448.75
546.847	435.75
547.06	426.75
547.274	417.75
547.487	447.75
547.7	435.75
547.914	433.75
548.127	441.75
548.34	442.75
548.554	423.75
548.767	440.75
548.98	437.75
549.193	440.75
549.407	450.75
549.62	453.75
549.833	431.75
550.046	416.75
550.259	424.75
550.473	426.75
550.686	433.75
550.899	402.75
551.112	427.75
551.325	424.75
551.538	434.75
551.751	409.75
551.964	435.75
552.177	439.75
552.39	425.75
552.603	439.75
552.816	436.75
553.029	448.75
553.242	465.75
553.455	443.75
553.667	444.75
553.88	464.75
554.093	463.75
554.306	465.75
554.519	451.75
554.732	423.75
554.944	429.75
555.157	409.75
555.37	422.75
555.583	411.75
555.795	401.75
556.008	396.75
556.221	414.75
556.433	397.75
556.646	408.75
556.859	393.75
557.071	387.75
557.284	371.75
557.496	395.75
557.709	399.75
557.921	388.75
558.134	383.75
558.346	396.75
558.559	387.75
558.771	378.75
558.984	383.75
559.196	375.75
559.409	409.75
559.621	388.75
559.833	398.75
560.046	371.75
560.258	366.75
560.47	382.75
560.683	388.75
560.895	387.75
561.107	375.75
561.32	370.75
561.532	391.75
561.744	382.75
561.956	363.75
562.168	389.75
562.381	400.75
562.593	383.75
562.805	371.75
563.017	383.75
563.229	392.75
563.441	391.75
563.653	412.75
563.865	380.75
564.077	389.75
564.289	421.75
564.501	401.75
564.713	394.75
564.925	395.75
565.137	442.75
565.349	441.75
565.561	424.75
565.773	449.75
565.985	453.75
566.197	445.75
566.408	484.75
566.62	501.75
566.832	522.75
567.044	523.75
567.255	481.75
567.467	531.75
567.679	509.75
567.891	543.75
568.102	557.75
568.314	537.75
568.526	509.75
568.737	499.75
568.949	471.75
569.161	438.75
569.372	413.75
569.584	409.75
569.795	401.75
570.007	390.75
570.218	417.75
570.43	410.75
570.641	394.75
570.853	399.75
571.064	404.75
571.276	395.75
571.487	393.75
571.698	379.75
571.91	374.75
572.121	360.75
572.333	347.75
572.544	342.75
572.755	363.75
572.966	358.75
573.178	352.75
573.389	337.75
573.6	340.75
573.811	349.75
574.023	351.75
574.234	329.75
574.445	340.75
574.656	340.75
574.867	320.75
575.078	330.75
575.289	313.75
575.501	331.75
575.712	337.75
575.923	318.75
576.134	335.75
576.345	319.75
576.556	335.75
576.767	320.75
576.978	343.75
577.188	336.75
577.399	330.75
577.61	323.75
577.821	321.75
578.032	331.75
578.243	342.75
578.454	464.75
578.665	370.75
578.875	313.75
579.086	292.75
579.297	312.75
579.508	309.75
579.718	311.75
579.929	290.75
580.14	303.75
580.35	294.75
580.561	304.75
580.772	297.75
580.982	282.75
581.193	304.75
581.403	302.75
581.614	286.75
581.825	307.75
582.035	310.75
582.246	319.75
582.456	314.75
582.667	290.75
582.877	303.75
583.087	303.75
583.298	309.75
583.508	285.75
583.719	304.75
583.929	292.75
584.139	308.75
584.35	296.75
584.56	296.75
584.77	292.75
584.981	279.75
585.191	305.75
585.401	273.75
585.611	289.75
585.821	319.75
586.032	306.75
586.242	283.75
586.452	277.75
586.662	279.75
586.872	298.75
587.082	285.75
587.292	285.75
587.502	282.75
587.713	285.75
587.923	298.75
588.133	291.75
588.343	282.75
588.553	283.75
588.762	280.75
588.972	302.75
589.182	290.75
589.392	302.75
589.602	304.75
589.812	287.75
590.022	305.75
590.232	284.75
590.441	281.75
590.651	302.75
590.861	303.75
591.071	304.75
591.281	289.75
591.49	304.75
591.7	298.75
591.91	308.75
592.119	315.75
592.329	298.75
592.539	322.75
592.748	323.75
592.958	321.75
593.167	324.75
593.377	314.75
593.587	324.75
593.796	313.75
594.006	337.75
594.215	312.75
594.424	318.75
594.634	331.75
594.843	309.75
595.053	307.75
595.262	303.75
595.472	308.75
595.681	290.75
595.89	283.75
596.1	286.75
596.309	295.75
596.518	266.75
596.727	281.75
596.937	266.75
597.146	275.75
597.355	276.75
597.564	260.75
597.774	263.75
597.983	272.75
598.192	279.75
598.401	241.75
598.61	283.75
598.819	267.75
599.028	243.75
599.237	264.75
599.446	244.75
599.655	251.75
599.864	281.75
600.073	265.75
600.282	256.75
600.491	245.75
600.7	251.75
600.909	242.75
601.118	229.75
601.327	253.75
601.536	255.75
601.745	241.75
601.953	251.75
602.162	273.75
602.371	268.75
602.58	238.75
602.789	247.75
602.997	242.75
603.206	233.75
603.415	245.75
603.623	238.75
603.832	261.75
604.041	249.75
604.249	248.75
604.458	241.75
604.666	227.75
604.875	259.75
605.084	247.75
605.292	262.75
605.501	240.75
605.709	234.75
605.918	255.75
606.126	248.75
606.334	232.75
606.543	250.75
606.751	237.75
606.96	248.75
607.168	241.75
607.376	219.75
607.585	234.75
607.793	251.75
608.001	238.75
608.21	249.75
608.418	242.75
608.626	245.75
608.834	255.75
609.043	244.75
609.251	240.75
609.459	243.75
609.667	231.75
609.875	235.75
610.083	243.75
610.291	241.75
610.499	239.75
610.707	230.75
610.916	234.75
611.124	254.75
611.332	249.75
611.54	233.75
611.748	233.75
611.955	233.75
612.163	235.75
612.371	255.75
612.579	235.75
612.787	235.75
612.995	239.75
613.203	228.75
613.411	223.75
613.618	235.75
613.826	241.75
614.034	233.75
614.242	229.75
614.449	233.75
614.657	250.75
614.865	232.75
615.072	218.75
615.28	211.75
615.488	230.75
615.695	219.75
615.903	224.75
616.111	234.75
616.318	242.75
616.526	226.75
616.733	247.75
616.941	247.75
617.148	219.75
617.356	231.75
617.563	226.75
617.771	223.75
617.978	229.75
618.185	235.75
618.393	235.75
618.6	243.75
618.807	229.75
619.015	244.75
619.222	228.75
619.429	224.75
619.637	216.75
619.844	238.75
620.051	203.75
620.258	225.75
620.466	224.75
620.673	212.75
620.88	211.75
621.087	222.75
621.294	209.75
621.501	199.75
621.708	209.75
621.915	219.75
622.122	231.75
622.329	226.75
622.536	216.75
622.743	222.75
622.95	211.75
623.157	228.75
623.364	213.75
623.571	216.75
623.778	196.75
623.985	228.75
624.192	218.75
624.399	217.75
624.606	231.75
624.812	202.75
625.019	213.75
625.226	208.75
625.433	202.75
625.639	201.75
625.846	205.75
626.053	217.75
626.259	187.75
626.466	203.75
626.673	211.75
626.879	205.75
627.086	199.75
627.293	201.75
627.499	215.75
627.706	205.75
627.912	192.75
628.119	205.75
628.325	194.75
628.532	183.75
628.738	197.75
628.945	196.75
629.151	188.75
629.357	208.75
629.564	190.75
629.77	205.75
629.976	201.75
630.183	192.75
630.389	207.75
630.595	192.75
630.802	190.75
631.008	189.75
631.214	195.75
631.42	192.75
631.627	188.75
631.833	197.75
632.039	198.75
632.245	173.75
632.451	191.75
632.657	181.75
632.863	199.75
633.069	181.75
633.275	192.75
633.481	177.75
633.688	173.75
633.893	164.75
634.099	168.75
634.305	187.75
634.511	174.75
634.717	193.75
634.923	181.75
635.129	175.75
635.335	175.75
635.541	185.75
635.747	177.75
635.952	174.75
636.158	178.75
636.364	179.75
636.57	174.75
636.775	187.75
636.981	179.75
637.187	197.75
637.392	174.75
637.598	170.75
637.804	170.75
638.009	172.75
638.215	167.75
638.421	166.75
638.626	184.75
638.832	146.75
639.037	166.75
639.243	177.75
639.448	170.75
639.654	188.75
639.859	182.75
640.065	167.75
640.27	165.75
640.475	158.75
640.681	176.75
640.886	169.75
641.091	176.75
641.297	157.75
641.502	175.75
641.707	160.75
641.913	167.75
642.118	179.75
642.323	163.75
642.528	188.75
642.733	181.75
642.939	147.75
643.144	166.75
643.349	157.75
643.554	167.75
643.759	177.75
643.964	171.75
644.169	163.75
644.374	161.75
644.579	155.75
644.784	164.75
644.989	186.75
645.194	168.75
645.399	164.75
645.604	152.75
645.809	163.75
646.014	159.75
646.219	176.75
646.423	167.75
646.628	169.75
646.833	170.75
647.038	167.75
647.243	164.75
647.447	153.75
647.652	149.75
647.857	150.75
648.062	170.75
648.266	158.75
648.471	170.75
648.676	158.75
648.88	170.75
649.085	177.75
649.289	175.75
649.494	153.75
649.698	177.75
649.903	173.75
650.107	154.75
650.312	158.75
650.516	159.75
650.721	157.75
650.925	151.75
651.13	163.75
651.334	153.75
651.539	162.75
651.743	128.75
651.947	156.75
652.152	137.75
652.356	138.75
652.56	120.75
652.764	123.75
652.969	151.75
653.173	136.75
653.377	137.75
653.581	139.75
653.785	131.75
653.99	139.75
654.194	128.75
654.398	145.75
654.602	134.75
654.806	125.75
655.01	155.75
655.214	149.75
655.418	134.75
655.622	128.75
655.826	138.75
656.03	131.75
656.234	135.75
656.438	124.75
656.642	141.75
656.846	130.75
657.049	148.75
657.253	123.75
657.457	125.75
657.661	114.75
657.865	103.75
658.068	107.75
658.272	113.75
658.476	111.75
658.68	95.75
658.883	117.75
659.087	106.75
659.291	105.75
659.494	92.75
659.698	90.75
659.901	107.75
660.105	81.75
660.309	86.75
660.512	91.75
660.716	91.75
660.919	89.75
661.123	96.75
661.326	89.75
661.53	89.75
661.733	91.75
661.936	86.75
662.14	82.75
662.343	90.75
662.546	84.75
662.75	66.75
662.953	78.75
663.156	81.75
663.36	93.75
663.563	72.75
663.766	81.75
663.969	75.75
664.173	87.75
664.376	95.75
664.579	87.75
664.782	72.75
664.985	88.75
665.188	87.75
665.391	75.75
665.594	84.75
665.797	80.75
666	72.75
666.203	72.75
666.406	86.75
666.609	75.75
666.812	71.75
667.015	89.75
667.218	85.75
667.421	74.75
667.624	79.75
667.827	68.75
668.03	73.75
668.232	77.75
668.435	73.75
668.638	69.75
668.841	71.75
669.043	84.75
669.246	71.75
669.449	89.75
669.651	88.75
669.854	61.75
670.057	65.75
670.259	76.75
670.462	78.75
670.665	74.75
670.867	59.75
671.07	63.75
671.272	95.75
671.475	103.75
671.677	65.75
671.88	81.75
672.082	79.75
672.284	80.75
672.487	86.75
672.689	71.75
672.892	85.75
