Data from 1976.PennyLincolnUp.Lamp.En5.5.200Scan.071719.P1.Changed Mount._HRD10591_16-02-25-862.txt Node
Date: Thu Jul 18 16:02:25 EDT 2019
User: cochatt
Spectrometer: HR+D1059
Trigger mode: 1
Integration Time (sec): 1.000000E-1
Scans to average: 1
Electric dark correction enabled: true
Nonlinearity correction enabled: false
Boxcar width: 0
XAxis mode: Wavelengths
Number of Pixels in Spectrum: 2048
>>>>>Begin Spectral Data<<<<<
223.165	-9.62
223.4	-9.62
223.635	-9.62
223.869	0.38
224.104	-9.62
224.338	-16.62
224.573	-23.62
224.808	-31.62
225.042	-13.62
225.277	-0.62
225.511	4.38
225.746	2.38
225.98	4.38
226.215	18.38
226.449	6.38
226.683	17.38
226.918	26.38
227.152	25.38
227.387	28.38
227.621	39.38
227.856	53.38
228.09	47.38
228.324	42.38
228.559	73.38
228.793	81.38
229.027	95.38
229.262	106.38
229.496	102.38
229.73	100.38
229.964	143.38
230.199	134.38
230.433	119.38
230.667	106.38
230.901	103.38
231.136	111.38
231.37	114.38
231.604	103.38
231.838	101.38
232.072	110.38
232.306	114.38
232.541	110.38
232.775	107.38
233.009	122.38
233.243	122.38
233.477	96.38
233.711	117.38
233.945	105.38
234.179	127.38
234.413	124.38
234.647	108.38
234.881	114.38
235.115	132.38
235.349	124.38
235.583	116.38
235.817	125.38
236.051	128.38
236.285	117.38
236.519	121.38
236.753	139.38
236.987	147.38
237.221	179.38
237.455	221.38
237.689	185.38
237.922	132.38
238.156	136.38
238.39	132.38
238.624	109.38
238.858	127.38
239.091	121.38
239.325	117.38
239.559	128.38
239.793	131.38
240.027	125.38
240.26	158.38
240.494	148.38
240.728	144.38
240.961	137.38
241.195	145.38
241.429	153.38
241.662	130.38
241.896	134.38
242.13	155.38
242.363	149.38
242.597	119.38
242.83	132.38
243.064	136.38
243.298	128.38
243.531	131.38
243.765	137.38
243.998	136.38
244.232	138.38
244.465	138.38
244.699	149.38
244.932	164.38
245.166	137.38
245.399	159.38
245.633	154.38
245.866	152.38
246.099	143.38
246.333	147.38
246.566	156.38
246.8	140.38
247.033	160.38
247.266	166.38
247.5	165.38
247.733	152.38
247.966	178.38
248.2	174.38
248.433	155.38
248.666	163.38
248.899	188.38
249.133	194.38
249.366	198.38
249.599	181.38
249.832	183.38
250.066	182.38
250.299	186.38
250.532	200.38
250.765	210.38
250.998	228.38
251.231	222.38
251.465	222.38
251.698	207.38
251.931	199.38
252.164	184.38
252.397	198.38
252.63	201.38
252.863	198.38
253.096	199.38
253.329	248.38
253.562	226.38
253.795	223.38
254.028	226.38
254.261	219.38
254.494	224.38
254.727	243.38
254.96	262.38
255.193	262.38
255.426	247.38
255.659	223.38
255.892	243.38
256.124	224.38
256.357	230.38
256.59	233.38
256.823	213.38
257.056	224.38
257.289	209.38
257.521	212.38
257.754	224.38
257.987	215.38
258.22	215.38
258.452	215.38
258.685	215.38
258.918	212.38
259.151	226.38
259.383	214.38
259.616	196.38
259.849	208.38
260.081	234.38
260.314	256.38
260.547	251.38
260.779	243.38
261.012	261.38
261.244	256.38
261.477	228.38
261.71	226.38
261.942	218.38
262.175	224.38
262.407	228.38
262.64	235.38
262.872	239.38
263.105	226.38
263.337	219.38
263.57	232.38
263.802	206.38
264.035	216.38
264.267	218.38
264.499	227.38
264.732	220.38
264.964	227.38
265.197	223.38
265.429	217.38
265.661	213.38
265.894	213.38
266.126	232.38
266.358	226.38
266.591	220.38
266.823	230.38
267.055	240.38
267.287	231.38
267.52	251.38
267.752	250.38
267.984	237.38
268.216	236.38
268.448	254.38
268.681	240.38
268.913	265.38
269.145	279.38
269.377	289.38
269.609	286.38
269.841	270.38
270.073	290.38
270.306	290.38
270.538	319.38
270.77	335.38
271.002	311.38
271.234	297.38
271.466	303.38
271.698	319.38
271.93	327.38
272.162	329.38
272.394	323.38
272.626	305.38
272.858	283.38
273.09	302.38
273.322	293.38
273.553	293.38
273.785	269.38
274.017	275.38
274.249	307.38
274.481	288.38
274.713	288.38
274.945	284.38
275.176	270.38
275.408	284.38
275.64	276.38
275.872	289.38
276.104	263.38
276.335	279.38
276.567	292.38
276.799	308.38
277.031	319.38
277.262	326.38
277.494	332.38
277.726	323.38
277.957	306.38
278.189	286.38
278.421	293.38
278.652	282.38
278.884	284.38
279.115	275.38
279.347	284.38
279.579	280.38
279.81	291.38
280.042	279.38
280.273	286.38
280.505	278.38
280.736	289.38
280.968	286.38
281.199	287.38
281.431	287.38
281.662	272.38
281.894	297.38
282.125	307.38
282.356	291.38
282.588	318.38
282.819	304.38
283.051	325.38
283.282	298.38
283.513	301.38
283.745	283.38
283.976	308.38
284.207	295.38
284.439	287.38
284.67	307.38
284.901	317.38
285.132	299.38
285.364	315.38
285.595	296.38
285.826	292.38
286.057	298.38
286.288	285.38
286.52	305.38
286.751	293.38
286.982	300.38
287.213	289.38
287.444	305.38
287.675	291.38
287.906	315.38
288.138	328.38
288.369	337.38
288.6	314.38
288.831	312.38
289.062	304.38
289.293	304.38
289.524	324.38
289.755	307.38
289.986	308.38
290.217	308.38
290.448	302.38
290.679	313.38
290.91	319.38
291.141	328.38
291.371	296.38
291.602	302.38
291.833	297.38
292.064	311.38
292.295	314.38
292.526	324.38
292.757	321.38
292.987	333.38
293.218	322.38
293.449	320.38
293.68	324.38
293.91	308.38
294.141	318.38
294.372	314.38
294.603	330.38
294.833	324.38
295.064	302.38
295.295	302.38
295.525	351.38
295.756	332.38
295.987	336.38
296.217	350.38
296.448	339.38
296.679	326.38
296.909	323.38
297.14	310.38
297.37	325.38
297.601	329.38
297.831	326.38
298.062	337.38
298.292	337.38
298.523	314.38
298.753	346.38
298.984	336.38
299.214	317.38
299.445	344.38
299.675	335.38
299.905	339.38
300.136	326.38
300.366	326.38
300.597	341.38
300.827	353.38
301.057	341.38
301.288	349.38
301.518	347.38
301.748	336.38
301.979	347.38
302.209	336.38
302.439	354.38
302.669	362.38
302.9	353.38
303.13	365.38
303.36	343.38
303.59	368.38
303.82	372.38
304.051	364.38
304.281	353.38
304.511	349.38
304.741	353.38
304.971	332.38
305.201	348.38
305.431	356.38
305.661	355.38
305.891	347.38
306.121	335.38
306.352	356.38
306.582	350.38
306.812	335.38
307.042	358.38
307.272	346.38
307.502	334.38
307.731	362.38
307.961	357.38
308.191	358.38
308.421	359.38
308.651	349.38
308.881	356.38
309.111	356.38
309.341	377.38
309.571	368.38
309.8	364.38
310.03	386.38
310.26	376.38
310.49	395.38
310.72	386.38
310.949	401.38
311.179	404.38
311.409	417.38
311.639	384.38
311.868	393.38
312.098	389.38
312.328	392.38
312.557	407.38
312.787	409.38
313.017	424.38
313.246	404.38
313.476	387.38
313.706	390.38
313.935	400.38
314.165	416.38
314.394	424.38
314.624	432.38
314.853	406.38
315.083	399.38
315.312	422.38
315.542	394.38
315.771	407.38
316.001	402.38
316.23	397.38
316.46	391.38
316.689	389.38
316.919	387.38
317.148	393.38
317.377	408.38
317.607	386.38
317.836	386.38
318.065	383.38
318.295	416.38
318.524	388.38
318.753	393.38
318.983	416.38
319.212	398.38
319.441	382.38
319.67	397.38
319.9	401.38
320.129	409.38
320.358	419.38
320.587	394.38
320.816	425.38
321.046	401.38
321.275	408.38
321.504	408.38
321.733	419.38
321.962	410.38
322.191	422.38
322.42	445.38
322.649	444.38
322.878	463.38
323.108	479.38
323.337	451.38
323.566	487.38
323.795	505.38
324.024	539.38
324.253	620.38
324.482	880.38
324.71	1345.38
324.939	1978.38
325.168	1744.38
325.397	882.38
325.626	614.38
325.855	530.38
326.084	494.38
326.313	478.38
326.542	474.38
326.77	524.38
326.999	641.38
327.228	799.38
327.457	1198.38
327.686	1474.38
327.914	977.38
328.143	657.38
328.372	593.38
328.6	548.38
328.829	545.38
329.058	548.38
329.287	549.38
329.515	522.38
329.744	508.38
329.972	524.38
330.201	528.38
330.43	562.38
330.658	583.38
330.887	590.38
331.115	582.38
331.344	528.38
331.572	506.38
331.801	500.38
332.03	508.38
332.258	479.38
332.486	471.38
332.715	468.38
332.943	477.38
333.172	505.38
333.4	471.38
333.629	500.38
333.857	521.38
334.085	515.38
334.314	523.38
334.542	543.38
334.771	562.38
334.999	542.38
335.227	524.38
335.455	487.38
335.684	502.38
335.912	462.38
336.14	477.38
336.369	474.38
336.597	486.38
336.825	501.38
337.053	490.38
337.281	466.38
337.51	463.38
337.738	458.38
337.966	477.38
338.194	478.38
338.422	459.38
338.65	449.38
338.878	458.38
339.106	460.38
339.334	457.38
339.562	448.38
339.79	467.38
340.018	442.38
340.246	455.38
340.474	451.38
340.702	443.38
340.93	466.38
341.158	426.38
341.386	459.38
341.614	444.38
341.842	446.38
342.07	450.38
342.298	425.38
342.526	442.38
342.754	422.38
342.981	437.38
343.209	436.38
343.437	454.38
343.665	456.38
343.893	474.38
344.12	476.38
344.348	474.38
344.576	484.38
344.804	460.38
345.031	471.38
345.259	469.38
345.487	453.38
345.714	435.38
345.942	453.38
346.17	425.38
346.397	426.38
346.625	449.38
346.853	443.38
347.08	440.38
347.308	439.38
347.535	445.38
347.763	455.38
347.99	443.38
348.218	444.38
348.445	451.38
348.673	438.38
348.9	396.38
349.128	412.38
349.355	423.38
349.583	417.38
349.81	428.38
350.037	426.38
350.265	423.38
350.492	416.38
350.72	411.38
350.947	425.38
351.174	427.38
351.402	449.38
351.629	418.38
351.856	421.38
352.083	428.38
352.311	450.38
352.538	442.38
352.765	432.38
352.992	425.38
353.22	424.38
353.447	435.38
353.674	426.38
353.901	430.38
354.128	409.38
354.355	416.38
354.583	409.38
354.81	415.38
355.037	389.38
355.264	404.38
355.491	406.38
355.718	424.38
355.945	413.38
356.172	411.38
356.399	388.38
356.626	415.38
356.853	416.38
357.08	407.38
357.307	408.38
357.534	425.38
357.761	425.38
357.988	405.38
358.215	405.38
358.441	402.38
358.668	412.38
358.895	413.38
359.122	398.38
359.349	434.38
359.576	433.38
359.802	451.38
360.029	479.38
360.256	491.38
360.483	452.38
360.709	445.38
360.936	451.38
361.163	449.38
361.39	441.38
361.616	445.38
361.843	396.38
362.07	440.38
362.296	423.38
362.523	423.38
362.749	428.38
362.976	427.38
363.203	413.38
363.429	411.38
363.656	425.38
363.882	402.38
364.109	407.38
364.335	409.38
364.562	422.38
364.788	397.38
365.015	428.38
365.241	409.38
365.468	427.38
365.694	425.38
365.92	408.38
366.147	410.38
366.373	410.38
366.599	397.38
366.826	411.38
367.052	411.38
367.278	431.38
367.505	412.38
367.731	433.38
367.957	412.38
368.184	392.38
368.41	437.38
368.636	426.38
368.862	424.38
369.089	431.38
369.315	419.38
369.541	406.38
369.767	394.38
369.993	409.38
370.219	432.38
370.445	406.38
370.672	400.38
370.898	427.38
371.124	435.38
371.35	422.38
371.576	424.38
371.802	415.38
372.028	409.38
372.254	418.38
372.48	405.38
372.706	420.38
372.932	431.38
373.158	418.38
373.384	430.38
373.61	410.38
373.835	419.38
374.061	418.38
374.287	426.38
374.513	419.38
374.739	419.38
374.965	415.38
375.191	426.38
375.416	438.38
375.642	417.38
375.868	418.38
376.094	435.38
376.319	427.38
376.545	417.38
376.771	417.38
376.997	432.38
377.222	432.38
377.448	427.38
377.674	416.38
377.899	420.38
378.125	417.38
378.35	416.38
378.576	421.38
378.802	412.38
379.027	413.38
379.253	424.38
379.478	406.38
379.704	424.38
379.929	416.38
380.155	420.38
380.38	418.38
380.606	409.38
380.831	434.38
381.057	426.38
381.282	427.38
381.507	422.38
381.733	425.38
381.958	441.38
382.184	432.38
382.409	432.38
382.634	426.38
382.86	433.38
383.085	450.38
383.31	438.38
383.535	442.38
383.761	460.38
383.986	463.38
384.211	438.38
384.436	440.38
384.662	457.38
384.887	473.38
385.112	431.38
385.337	468.38
385.562	473.38
385.787	446.38
386.013	461.38
386.238	462.38
386.463	465.38
386.688	467.38
386.913	452.38
387.138	461.38
387.363	461.38
387.588	458.38
387.813	474.38
388.038	472.38
388.263	467.38
388.488	475.38
388.713	471.38
388.938	489.38
389.163	464.38
389.387	482.38
389.612	463.38
389.837	463.38
390.062	435.38
390.287	458.38
390.512	449.38
390.736	472.38
390.961	456.38
391.186	476.38
391.411	488.38
391.636	466.38
391.86	497.38
392.085	500.38
392.31	470.38
392.534	479.38
392.759	490.38
392.984	469.38
393.208	474.38
393.433	463.38
393.658	464.38
393.882	465.38
394.107	449.38
394.331	483.38
394.556	469.38
394.78	496.38
395.005	485.38
395.229	496.38
395.454	511.38
395.678	495.38
395.903	497.38
396.127	508.38
396.352	533.38
396.576	492.38
396.801	490.38
397.025	487.38
397.249	503.38
397.474	498.38
397.698	496.38
397.922	496.38
398.147	528.38
398.371	539.38
398.595	532.38
398.82	528.38
399.044	548.38
399.268	577.38
399.492	609.38
399.717	651.38
399.941	717.38
400.165	714.38
400.389	690.38
400.613	619.38
400.837	571.38
401.062	561.38
401.286	570.38
401.51	529.38
401.734	551.38
401.958	524.38
402.182	550.38
402.406	553.38
402.63	558.38
402.854	582.38
403.078	544.38
403.302	555.38
403.526	573.38
403.75	586.38
403.974	578.38
404.198	587.38
404.422	580.38
404.645	582.38
404.869	581.38
405.093	606.38
405.317	643.38
405.541	684.38
405.765	618.38
405.988	617.38
406.212	597.38
406.436	600.38
406.66	622.38
406.883	614.38
407.107	651.38
407.331	690.38
407.555	755.38
407.778	773.38
408.002	695.38
408.226	640.38
408.449	644.38
408.673	629.38
408.896	638.38
409.12	691.38
409.344	652.38
409.567	572.38
409.791	585.38
410.014	577.38
410.238	583.38
410.461	564.38
410.685	553.38
410.908	570.38
411.132	617.38
411.355	638.38
411.578	611.38
411.802	567.38
412.025	562.38
412.249	568.38
412.472	587.38
412.695	612.38
412.919	609.38
413.142	596.38
413.365	575.38
413.589	563.38
413.812	542.38
414.035	533.38
414.258	546.38
414.482	522.38
414.705	543.38
414.928	522.38
415.151	533.38
415.374	523.38
415.597	541.38
415.821	524.38
416.044	524.38
416.267	515.38
416.49	533.38
416.713	512.38
416.936	540.38
417.159	526.38
417.382	521.38
417.605	528.38
417.828	561.38
418.051	564.38
418.274	559.38
418.497	541.38
418.72	542.38
418.943	546.38
419.166	576.38
419.389	576.38
419.611	603.38
419.834	551.38
420.057	574.38
420.28	551.38
420.503	556.38
420.726	562.38
420.948	588.38
421.171	587.38
421.394	648.38
421.617	578.38
421.839	549.38
422.062	559.38
422.285	566.38
422.507	639.38
422.73	707.38
422.953	696.38
423.175	601.38
423.398	560.38
423.621	556.38
423.843	630.38
424.066	606.38
424.288	595.38
424.511	617.38
424.733	642.38
424.956	730.38
425.178	702.38
425.401	713.38
425.623	715.38
425.846	635.38
426.068	580.38
426.291	563.38
426.513	590.38
426.735	574.38
426.958	631.38
427.18	706.38
427.402	854.38
427.625	949.38
427.847	777.38
428.069	678.38
428.292	620.38
428.514	582.38
428.736	572.38
428.958	543.38
429.181	551.38
429.403	545.38
429.625	549.38
429.847	574.38
430.069	619.38
430.292	636.38
430.514	575.38
430.736	530.38
430.958	531.38
431.18	534.38
431.402	524.38
431.624	498.38
431.846	535.38
432.068	542.38
432.29	516.38
432.512	517.38
432.734	551.38
432.956	508.38
433.178	536.38
433.4	539.38
433.622	520.38
433.844	532.38
434.066	511.38
434.287	522.38
434.509	528.38
434.731	560.38
434.953	531.38
435.175	534.38
435.397	574.38
435.618	575.38
435.84	629.38
436.062	727.38
436.284	799.38
436.505	659.38
436.727	599.38
436.949	560.38
437.17	553.38
437.392	542.38
437.614	556.38
437.835	559.38
438.057	672.38
438.278	781.38
438.5	757.38
438.721	863.38
438.943	818.38
439.165	635.38
439.386	608.38
439.608	586.38
439.829	583.38
440.05	633.38
440.272	661.38
440.493	620.38
440.715	576.38
440.936	535.38
441.158	546.38
441.379	548.38
441.6	580.38
441.822	583.38
442.043	618.38
442.264	700.38
442.486	758.38
442.707	659.38
442.928	602.38
443.149	614.38
443.371	640.38
443.592	655.38
443.813	759.38
444.034	845.38
444.255	697.38
444.476	634.38
444.698	628.38
444.919	606.38
445.14	693.38
445.361	634.38
445.582	629.38
445.803	690.38
446.024	773.38
446.245	790.38
446.466	733.38
446.687	622.38
446.908	584.38
447.129	571.38
447.35	540.38
447.571	532.38
447.792	523.38
448.013	536.38
448.234	559.38
448.455	599.38
448.675	716.38
448.896	819.38
449.117	694.38
449.338	642.38
449.559	764.38
449.779	860.38
450	702.38
450.221	565.38
450.442	532.38
450.662	543.38
450.883	519.38
451.104	541.38
451.324	505.38
451.545	487.38
451.766	500.38
451.986	491.38
452.207	459.38
452.428	470.38
452.648	488.38
452.869	478.38
453.089	465.38
453.31	485.38
453.53	474.38
453.751	484.38
453.971	472.38
454.192	499.38
454.412	467.38
454.633	482.38
454.853	486.38
455.073	478.38
455.294	491.38
455.514	552.38
455.734	578.38
455.955	490.38
456.175	446.38
456.395	434.38
456.616	441.38
456.836	436.38
457.056	444.38
457.276	442.38
457.497	453.38
457.717	458.38
457.937	431.38
458.157	479.38
458.377	466.38
458.598	508.38
458.818	526.38
459.038	586.38
459.258	640.38
459.478	550.38
459.698	517.38
459.918	546.38
460.138	518.38
460.358	543.38
460.578	525.38
460.798	535.38
461.018	555.38
461.238	535.38
461.458	540.38
461.678	524.38
461.898	521.38
462.118	551.38
462.338	532.38
462.558	564.38
462.777	591.38
462.997	585.38
463.217	592.38
463.437	596.38
463.657	606.38
463.876	570.38
464.096	582.38
464.316	591.38
464.536	581.38
464.755	585.38
464.975	591.38
465.195	598.38
465.414	643.38
465.634	562.38
465.854	547.38
466.073	533.38
466.293	490.38
466.512	496.38
466.732	507.38
466.951	486.38
467.171	505.38
467.391	476.38
467.61	512.38
467.829	508.38
468.049	504.38
468.268	484.38
468.488	485.38
468.707	484.38
468.927	481.38
469.146	498.38
469.365	486.38
469.585	492.38
469.804	490.38
470.023	497.38
470.243	514.38
470.462	508.38
470.681	503.38
470.901	510.38
471.12	503.38
471.339	495.38
471.558	492.38
471.777	486.38
471.997	504.38
472.216	489.38
472.435	542.38
472.654	503.38
472.873	491.38
473.092	500.38
473.311	486.38
473.53	480.38
473.749	489.38
473.968	540.38
474.187	645.38
474.406	644.38
474.625	550.38
474.844	524.38
475.063	508.38
475.282	521.38
475.501	512.38
475.72	512.38
475.939	508.38
476.158	540.38
476.377	491.38
476.596	495.38
476.814	510.38
477.033	522.38
477.252	521.38
477.471	540.38
477.69	548.38
477.908	537.38
478.127	545.38
478.346	554.38
478.564	558.38
478.783	564.38
479.002	604.38
479.22	563.38
479.439	575.38
479.658	596.38
479.876	589.38
480.095	591.38
480.313	638.38
480.532	631.38
480.751	610.38
480.969	641.38
481.188	677.38
481.406	675.38
481.624	614.38
481.843	623.38
482.061	593.38
482.28	602.38
482.498	551.38
482.717	578.38
482.935	578.38
483.153	576.38
483.372	575.38
483.59	572.38
483.808	571.38
484.027	592.38
484.245	607.38
484.463	602.38
484.681	585.38
484.9	583.38
485.118	592.38
485.336	601.38
485.554	620.38
485.772	612.38
485.99	609.38
486.209	610.38
486.427	592.38
486.645	601.38
486.863	611.38
487.081	610.38
487.299	618.38
487.517	624.38
487.735	622.38
487.953	622.38
488.171	633.38
488.389	627.38
488.607	612.38
488.825	630.38
489.043	626.38
489.261	614.38
489.479	634.38
489.696	634.38
489.914	636.38
490.132	655.38
490.35	640.38
490.568	636.38
490.786	666.38
491.003	669.38
491.221	683.38
491.439	705.38
491.657	690.38
491.874	732.38
492.092	694.38
492.31	713.38
492.527	720.38
492.745	722.38
492.963	715.38
493.18	724.38
493.398	729.38
493.615	716.38
493.833	713.38
494.05	738.38
494.268	720.38
494.485	705.38
494.703	721.38
494.92	719.38
495.138	695.38
495.355	711.38
495.573	735.38
495.79	734.38
496.008	768.38
496.225	727.38
496.442	729.38
496.66	720.38
496.877	749.38
497.094	736.38
497.312	768.38
497.529	784.38
497.746	780.38
497.963	799.38
498.181	802.38
498.398	842.38
498.615	843.38
498.832	872.38
499.049	895.38
499.267	902.38
499.484	957.38
499.701	995.38
499.918	1019.38
500.135	1081.38
500.352	1150.38
500.569	1184.38
500.786	1191.38
501.003	1159.38
501.22	1107.38
501.437	1078.38
501.654	1009.38
501.871	995.38
502.088	951.38
502.305	896.38
502.522	881.38
502.739	862.38
502.956	827.38
503.172	808.38
503.389	786.38
503.606	768.38
503.823	779.38
504.04	757.38
504.256	746.38
504.473	744.38
504.69	744.38
504.907	744.38
505.123	734.38
505.34	716.38
505.557	713.38
505.773	709.38
505.99	722.38
506.207	710.38
506.423	693.38
506.64	698.38
506.856	681.38
507.073	651.38
507.289	665.38
507.506	696.38
507.722	682.38
507.939	694.38
508.155	672.38
508.372	656.38
508.588	653.38
508.805	650.38
509.021	634.38
509.238	663.38
509.454	675.38
509.67	652.38
509.887	663.38
510.103	631.38
510.319	649.38
510.536	733.38
510.752	1070.38
510.968	885.38
511.184	647.38
511.401	619.38
511.617	674.38
511.833	639.38
512.049	607.38
512.265	594.38
512.481	624.38
512.698	616.38
512.914	599.38
513.13	606.38
513.346	603.38
513.562	570.38
513.778	595.38
513.994	630.38
514.21	617.38
514.426	640.38
514.642	658.38
514.858	659.38
515.074	727.38
515.29	798.38
515.506	1082.38
515.721	906.38
515.937	712.38
516.153	675.38
516.369	661.38
516.585	658.38
516.801	644.38
517.016	630.38
517.232	659.38
517.448	643.38
517.664	677.38
517.879	651.38
518.095	660.38
518.311	654.38
518.527	647.38
518.742	658.38
518.958	629.38
519.173	647.38
519.389	630.38
519.605	619.38
519.82	615.38
520.036	637.38
520.251	642.38
520.467	633.38
520.682	644.38
520.898	642.38
521.113	652.38
521.329	698.38
521.544	730.38
521.76	859.38
521.975	1353.38
522.19	1279.38
522.406	802.38
522.621	644.38
522.836	588.38
523.052	598.38
523.267	570.38
523.482	530.38
523.698	554.38
523.913	547.38
524.128	549.38
524.343	542.38
524.559	538.38
524.774	553.38
524.989	536.38
525.204	548.38
525.419	536.38
525.634	520.38
525.849	529.38
526.064	525.38
526.28	521.38
526.495	559.38
526.71	527.38
526.925	534.38
527.14	533.38
527.355	529.38
527.57	485.38
527.785	500.38
527.999	508.38
528.214	495.38
528.429	517.38
528.644	526.38
528.859	491.38
529.074	507.38
529.289	531.38
529.503	573.38
529.718	558.38
529.933	537.38
530.148	518.38
530.363	515.38
530.577	510.38
530.792	513.38
531.007	512.38
531.221	504.38
531.436	498.38
531.651	497.38
531.865	501.38
532.08	483.38
532.295	520.38
532.509	507.38
532.724	496.38
532.938	491.38
533.153	487.38
533.367	484.38
533.582	487.38
533.796	487.38
534.011	502.38
534.225	474.38
534.44	483.38
534.654	473.38
534.868	492.38
535.083	467.38
535.297	493.38
535.511	484.38
535.726	496.38
535.94	504.38
536.154	479.38
536.369	504.38
536.583	457.38
536.797	487.38
537.011	465.38
537.225	474.38
537.44	463.38
537.654	462.38
537.868	474.38
538.082	472.38
538.296	450.38
538.51	475.38
538.724	475.38
538.938	460.38
539.153	503.38
539.367	472.38
539.581	479.38
539.795	475.38
540.009	470.38
540.222	478.38
540.436	456.38
540.65	476.38
540.864	483.38
541.078	475.38
541.292	494.38
541.506	468.38
541.72	471.38
541.934	445.38
542.147	484.38
542.361	486.38
542.575	470.38
542.789	473.38
543.002	457.38
543.216	477.38
543.43	476.38
543.644	465.38
543.857	465.38
544.071	496.38
544.285	480.38
544.498	492.38
544.712	475.38
544.925	485.38
545.139	449.38
545.352	466.38
545.566	445.38
545.779	453.38
545.993	474.38
546.206	455.38
546.42	468.38
546.633	454.38
546.847	460.38
547.06	458.38
547.274	464.38
547.487	453.38
547.7	457.38
547.914	447.38
548.127	451.38
548.34	460.38
548.554	463.38
548.767	455.38
548.98	464.38
549.193	483.38
549.407	452.38
549.62	436.38
549.833	466.38
550.046	446.38
550.259	455.38
550.473	455.38
550.686	460.38
550.899	450.38
551.112	447.38
551.325	421.38
551.538	447.38
551.751	476.38
551.964	454.38
552.177	443.38
552.39	455.38
552.603	465.38
552.816	471.38
553.029	472.38
553.242	473.38
553.455	482.38
553.667	472.38
553.88	483.38
554.093	465.38
554.306	442.38
554.519	460.38
554.732	448.38
554.944	458.38
555.157	419.38
555.37	449.38
555.583	442.38
555.795	416.38
556.008	439.38
556.221	419.38
556.433	419.38
556.646	431.38
556.859	411.38
557.071	414.38
557.284	412.38
557.496	436.38
557.709	415.38
557.921	391.38
558.134	386.38
558.346	397.38
558.559	414.38
558.771	402.38
558.984	407.38
559.196	402.38
559.409	399.38
559.621	413.38
559.833	399.38
560.046	385.38
560.258	398.38
560.47	393.38
560.683	386.38
560.895	414.38
561.107	395.38
561.32	408.38
561.532	406.38
561.744	395.38
561.956	407.38
562.168	372.38
562.381	386.38
562.593	419.38
562.805	403.38
563.017	401.38
563.229	393.38
563.441	398.38
563.653	424.38
563.865	417.38
564.077	404.38
564.289	395.38
564.501	423.38
564.713	420.38
564.925	434.38
565.137	438.38
565.349	448.38
565.561	434.38
565.773	455.38
565.985	467.38
566.197	475.38
566.408	490.38
566.62	484.38
566.832	512.38
567.044	510.38
567.255	517.38
567.467	536.38
567.679	550.38
567.891	565.38
568.102	552.38
568.314	560.38
568.526	537.38
568.737	510.38
568.949	468.38
569.161	460.38
569.372	444.38
569.584	425.38
569.795	439.38
570.007	410.38
570.218	399.38
570.43	444.38
570.641	400.38
570.853	389.38
571.064	391.38
571.276	405.38
571.487	387.38
571.698	389.38
571.91	400.38
572.121	369.38
572.333	378.38
572.544	382.38
572.755	358.38
572.966	350.38
573.178	362.38
573.389	360.38
573.6	355.38
573.811	370.38
574.023	367.38
574.234	346.38
574.445	328.38
574.656	348.38
574.867	344.38
575.078	368.38
575.289	343.38
575.501	346.38
575.712	341.38
575.923	339.38
576.134	359.38
576.345	325.38
576.556	360.38
576.767	342.38
576.978	342.38
577.188	368.38
577.399	357.38
577.61	356.38
577.821	338.38
578.032	328.38
578.243	364.38
578.454	499.38
578.665	421.38
578.875	354.38
579.086	327.38
579.297	313.38
579.508	340.38
579.718	328.38
579.929	319.38
580.14	328.38
580.35	322.38
580.561	329.38
580.772	312.38
580.982	324.38
581.193	318.38
581.403	312.38
581.614	319.38
581.825	328.38
582.035	325.38
582.246	311.38
582.456	305.38
582.667	321.38
582.877	311.38
583.087	296.38
583.298	306.38
583.508	318.38
583.719	316.38
583.929	309.38
584.139	307.38
584.35	314.38
584.56	314.38
584.77	330.38
584.981	307.38
585.191	302.38
585.401	307.38
585.611	292.38
585.821	310.38
586.032	306.38
586.242	291.38
586.452	302.38
586.662	296.38
586.872	294.38
587.082	297.38
587.292	307.38
587.502	313.38
587.713	306.38
587.923	312.38
588.133	292.38
588.343	306.38
588.553	306.38
588.762	309.38
588.972	302.38
589.182	303.38
589.392	292.38
589.602	328.38
589.812	310.38
590.022	310.38
590.232	296.38
590.441	314.38
590.651	312.38
590.861	294.38
591.071	304.38
591.281	302.38
591.49	310.38
591.7	296.38
591.91	312.38
592.119	312.38
592.329	323.38
592.539	327.38
592.748	330.38
592.958	338.38
593.167	347.38
593.377	345.38
593.587	339.38
593.796	324.38
594.006	328.38
594.215	316.38
594.424	335.38
594.634	346.38
594.843	312.38
595.053	328.38
595.262	325.38
595.472	322.38
595.681	308.38
595.89	307.38
596.1	311.38
596.309	308.38
596.518	277.38
596.727	308.38
596.937	288.38
597.146	299.38
597.355	278.38
597.564	292.38
597.774	281.38
597.983	292.38
598.192	258.38
598.401	290.38
598.61	278.38
598.819	274.38
599.028	273.38
599.237	273.38
599.446	261.38
599.655	244.38
599.864	258.38
600.073	273.38
600.282	275.38
600.491	272.38
600.7	275.38
600.909	263.38
601.118	277.38
601.327	267.38
601.536	271.38
601.745	251.38
601.953	264.38
602.162	279.38
602.371	267.38
602.58	240.38
602.789	274.38
602.997	262.38
603.206	272.38
603.415	250.38
603.623	247.38
603.832	254.38
604.041	247.38
604.249	231.38
604.458	256.38
604.666	262.38
604.875	257.38
605.084	259.38
605.292	267.38
605.501	268.38
605.709	272.38
605.918	245.38
606.126	281.38
606.334	258.38
606.543	237.38
606.751	261.38
606.96	261.38
607.168	242.38
607.376	254.38
607.585	258.38
607.793	247.38
608.001	237.38
608.21	254.38
608.418	238.38
608.626	266.38
608.834	253.38
609.043	266.38
609.251	250.38
609.459	233.38
609.667	252.38
609.875	236.38
610.083	232.38
610.291	244.38
610.499	247.38
610.707	251.38
610.916	247.38
611.124	260.38
611.332	251.38
611.54	247.38
611.748	260.38
611.955	228.38
612.163	241.38
612.371	248.38
612.579	251.38
612.787	241.38
612.995	243.38
613.203	250.38
613.411	264.38
613.618	254.38
613.826	254.38
614.034	254.38
614.242	255.38
614.449	236.38
614.657	249.38
614.865	239.38
615.072	250.38
615.28	247.38
615.488	248.38
615.695	235.38
615.903	250.38
616.111	243.38
616.318	240.38
616.526	233.38
616.733	227.38
616.941	258.38
617.148	259.38
617.356	230.38
617.563	233.38
617.771	243.38
617.978	254.38
618.185	246.38
618.393	251.38
618.6	247.38
618.807	218.38
619.015	256.38
619.222	227.38
619.429	233.38
619.637	247.38
619.844	240.38
620.051	234.38
620.258	215.38
620.466	225.38
620.673	224.38
620.88	219.38
621.087	229.38
621.294	214.38
621.501	226.38
621.708	223.38
621.915	228.38
622.122	224.38
622.329	214.38
622.536	229.38
622.743	218.38
622.95	225.38
623.157	230.38
623.364	235.38
623.571	231.38
623.778	231.38
623.985	249.38
624.192	219.38
624.399	213.38
624.606	210.38
624.812	217.38
625.019	214.38
625.226	210.38
625.433	224.38
625.639	204.38
625.846	236.38
626.053	212.38
626.259	211.38
626.466	203.38
626.673	190.38
626.879	203.38
627.086	210.38
627.293	224.38
627.499	224.38
627.706	213.38
627.912	208.38
628.119	192.38
628.325	204.38
628.532	202.38
628.738	194.38
628.945	209.38
629.151	196.38
629.357	181.38
629.564	199.38
629.77	193.38
629.976	199.38
630.183	206.38
630.389	210.38
630.595	183.38
630.802	203.38
631.008	201.38
631.214	204.38
631.42	205.38
631.627	203.38
631.833	198.38
632.039	183.38
632.245	196.38
632.451	195.38
632.657	194.38
632.863	190.38
633.069	199.38
633.275	178.38
633.481	196.38
633.688	209.38
633.893	204.38
634.099	184.38
634.305	198.38
634.511	184.38
634.717	182.38
634.923	175.38
635.129	162.38
635.335	183.38
635.541	182.38
635.747	186.38
635.952	190.38
636.158	183.38
636.364	178.38
636.57	192.38
636.775	195.38
636.981	176.38
637.187	174.38
637.392	191.38
637.598	167.38
637.804	165.38
638.009	181.38
638.215	202.38
638.421	186.38
638.626	175.38
638.832	178.38
639.037	163.38
639.243	162.38
639.448	166.38
639.654	180.38
639.859	190.38
640.065	165.38
640.27	177.38
640.475	183.38
640.681	187.38
640.886	177.38
641.091	180.38
641.297	159.38
641.502	173.38
641.707	178.38
641.913	191.38
642.118	176.38
642.323	168.38
642.528	174.38
642.733	181.38
642.939	177.38
643.144	168.38
643.349	182.38
643.554	160.38
643.759	180.38
643.964	167.38
644.169	172.38
644.374	165.38
644.579	156.38
644.784	162.38
644.989	164.38
645.194	168.38
645.399	168.38
645.604	161.38
645.809	169.38
646.014	164.38
646.219	168.38
646.423	174.38
646.628	162.38
646.833	161.38
647.038	180.38
647.243	176.38
647.447	178.38
647.652	152.38
647.857	168.38
648.062	167.38
648.266	183.38
648.471	191.38
648.676	175.38
648.88	185.38
649.085	159.38
649.289	167.38
649.494	177.38
649.698	192.38
649.903	211.38
650.107	167.38
650.312	171.38
650.516	163.38
650.721	138.38
650.925	158.38
651.13	158.38
651.334	147.38
651.539	159.38
651.743	163.38
651.947	153.38
652.152	131.38
652.356	147.38
652.56	143.38
652.764	162.38
652.969	128.38
653.173	123.38
653.377	140.38
653.581	158.38
653.785	132.38
653.99	136.38
654.194	132.38
654.398	146.38
654.602	139.38
654.806	142.38
655.01	136.38
655.214	156.38
655.418	146.38
655.622	151.38
655.826	136.38
656.03	138.38
656.234	139.38
656.438	132.38
656.642	124.38
656.846	139.38
657.049	123.38
657.253	142.38
657.457	125.38
657.661	114.38
657.865	111.38
658.068	116.38
658.272	106.38
658.476	101.38
658.68	112.38
658.883	97.38
659.087	101.38
659.291	111.38
659.494	110.38
659.698	100.38
659.901	86.38
660.105	95.38
660.309	98.38
660.512	91.38
660.716	108.38
660.919	96.38
661.123	83.38
661.326	79.38
661.53	92.38
661.733	76.38
661.936	90.38
662.14	74.38
662.343	87.38
662.546	88.38
662.75	83.38
662.953	83.38
663.156	88.38
663.36	91.38
663.563	62.38
663.766	74.38
663.969	76.38
664.173	84.38
664.376	84.38
664.579	66.38
664.782	70.38
664.985	72.38
665.188	83.38
665.391	84.38
665.594	63.38
665.797	57.38
666	86.38
666.203	71.38
666.406	79.38
666.609	80.38
666.812	74.38
667.015	72.38
667.218	81.38
667.421	86.38
667.624	79.38
667.827	79.38
668.03	73.38
668.232	73.38
668.435	87.38
668.638	83.38
668.841	82.38
669.043	79.38
669.246	73.38
669.449	75.38
669.651	84.38
669.854	92.38
670.057	80.38
670.259	80.38
670.462	82.38
670.665	70.38
670.867	75.38
671.07	85.38
671.272	74.38
671.475	90.38
671.677	89.38
671.88	82.38
672.082	74.38
672.284	85.38
672.487	81.38
672.689	84.38
672.892	74.38
