Data from 1976.PennyLincolnUp.Lamp.En5.5.200Scan.071719.P1.Changed Mount._HRD10591_16-02-00-862.txt Node
Date: Thu Jul 18 16:02:00 EDT 2019
User: cochatt
Spectrometer: HR+D1059
Trigger mode: 1
Integration Time (sec): 1.000000E-1
Scans to average: 1
Electric dark correction enabled: true
Nonlinearity correction enabled: false
Boxcar width: 0
XAxis mode: Wavelengths
Number of Pixels in Spectrum: 2048
>>>>>Begin Spectral Data<<<<<
223.165	-19.12
223.4	-19.12
223.635	-19.12
223.869	-25.12
224.104	-8.12
224.338	-4.12
224.573	-20.12
224.808	-1.12
225.042	-12.12
225.277	1.88
225.511	-17.12
225.746	8.88
225.98	16.88
226.215	2.88
226.449	3.88
226.683	20.88
226.918	27.88
227.152	23.88
227.387	17.88
227.621	26.88
227.856	38.88
228.09	39.88
228.324	58.88
228.559	52.88
228.793	67.88
229.027	98.88
229.262	105.88
229.496	110.88
229.73	119.88
229.964	148.88
230.199	115.88
230.433	107.88
230.667	117.88
230.901	118.88
231.136	121.88
231.37	104.88
231.604	120.88
231.838	116.88
232.072	115.88
232.306	114.88
232.541	122.88
232.775	123.88
233.009	131.88
233.243	124.88
233.477	121.88
233.711	117.88
233.945	129.88
234.179	119.88
234.413	120.88
234.647	107.88
234.881	126.88
235.115	136.88
235.349	126.88
235.583	126.88
235.817	119.88
236.051	118.88
236.285	126.88
236.519	123.88
236.753	136.88
236.987	140.88
237.221	164.88
237.455	239.88
237.689	179.88
237.922	148.88
238.156	120.88
238.39	137.88
238.624	135.88
238.858	138.88
239.091	124.88
239.325	114.88
239.559	122.88
239.793	139.88
240.027	128.88
240.26	148.88
240.494	154.88
240.728	160.88
240.961	166.88
241.195	135.88
241.429	149.88
241.662	131.88
241.896	128.88
242.13	129.88
242.363	146.88
242.597	146.88
242.83	139.88
243.064	141.88
243.298	152.88
243.531	152.88
243.765	138.88
243.998	137.88
244.232	134.88
244.465	139.88
244.699	158.88
244.932	142.88
245.166	138.88
245.399	159.88
245.633	147.88
245.866	147.88
246.099	175.88
246.333	143.88
246.566	152.88
246.8	166.88
247.033	169.88
247.266	162.88
247.5	155.88
247.733	179.88
247.966	151.88
248.2	146.88
248.433	183.88
248.666	193.88
248.899	189.88
249.133	199.88
249.366	208.88
249.599	209.88
249.832	186.88
250.066	185.88
250.299	178.88
250.532	202.88
250.765	210.88
250.998	226.88
251.231	231.88
251.465	237.88
251.698	216.88
251.931	204.88
252.164	188.88
252.397	203.88
252.63	201.88
252.863	217.88
253.096	214.88
253.329	242.88
253.562	238.88
253.795	223.88
254.028	225.88
254.261	215.88
254.494	227.88
254.727	242.88
254.96	301.88
255.193	274.88
255.426	268.88
255.659	220.88
255.892	250.88
256.124	244.88
256.357	247.88
256.59	228.88
256.823	225.88
257.056	197.88
257.289	227.88
257.521	207.88
257.754	217.88
257.987	216.88
258.22	217.88
258.452	200.88
258.685	219.88
258.918	218.88
259.151	228.88
259.383	236.88
259.616	232.88
259.849	240.88
260.081	242.88
260.314	245.88
260.547	276.88
260.779	263.88
261.012	264.88
261.244	247.88
261.477	241.88
261.71	222.88
261.942	226.88
262.175	230.88
262.407	215.88
262.64	238.88
262.872	205.88
263.105	228.88
263.337	240.88
263.57	224.88
263.802	229.88
264.035	230.88
264.267	241.88
264.499	210.88
264.732	220.88
264.964	235.88
265.197	233.88
265.429	226.88
265.661	216.88
265.894	227.88
266.126	220.88
266.358	226.88
266.591	218.88
266.823	249.88
267.055	235.88
267.287	263.88
267.52	266.88
267.752	254.88
267.984	261.88
268.216	244.88
268.448	244.88
268.681	259.88
268.913	273.88
269.145	270.88
269.377	320.88
269.609	290.88
269.841	294.88
270.073	281.88
270.306	319.88
270.538	336.88
270.77	336.88
271.002	317.88
271.234	318.88
271.466	319.88
271.698	306.88
271.93	329.88
272.162	328.88
272.394	323.88
272.626	305.88
272.858	305.88
273.09	287.88
273.322	291.88
273.553	283.88
273.785	289.88
274.017	271.88
274.249	291.88
274.481	292.88
274.713	278.88
274.945	293.88
275.176	289.88
275.408	293.88
275.64	277.88
275.872	279.88
276.104	279.88
276.335	272.88
276.567	304.88
276.799	297.88
277.031	310.88
277.262	350.88
277.494	352.88
277.726	337.88
277.957	307.88
278.189	299.88
278.421	300.88
278.652	288.88
278.884	277.88
279.115	294.88
279.347	295.88
279.579	273.88
279.81	284.88
280.042	291.88
280.273	288.88
280.505	281.88
280.736	290.88
280.968	277.88
281.199	284.88
281.431	302.88
281.662	296.88
281.894	285.88
282.125	313.88
282.356	294.88
282.588	320.88
282.819	324.88
283.051	312.88
283.282	297.88
283.513	312.88
283.745	300.88
283.976	320.88
284.207	302.88
284.439	307.88
284.67	305.88
284.901	316.88
285.132	299.88
285.364	310.88
285.595	306.88
285.826	315.88
286.057	325.88
286.288	322.88
286.52	327.88
286.751	318.88
286.982	293.88
287.213	306.88
287.444	304.88
287.675	304.88
287.906	326.88
288.138	333.88
288.369	320.88
288.6	321.88
288.831	320.88
289.062	336.88
289.293	310.88
289.524	320.88
289.755	335.88
289.986	322.88
290.217	306.88
290.448	315.88
290.679	331.88
290.91	322.88
291.141	321.88
291.371	327.88
291.602	326.88
291.833	318.88
292.064	342.88
292.295	328.88
292.526	323.88
292.757	298.88
292.987	322.88
293.218	329.88
293.449	317.88
293.68	308.88
293.91	324.88
294.141	327.88
294.372	308.88
294.603	317.88
294.833	305.88
295.064	304.88
295.295	345.88
295.525	340.88
295.756	319.88
295.987	339.88
296.217	336.88
296.448	355.88
296.679	335.88
296.909	299.88
297.14	343.88
297.37	342.88
297.601	335.88
297.831	345.88
298.062	330.88
298.292	347.88
298.523	336.88
298.753	321.88
298.984	339.88
299.214	330.88
299.445	341.88
299.675	326.88
299.905	337.88
300.136	354.88
300.366	373.88
300.597	355.88
300.827	363.88
301.057	354.88
301.288	357.88
301.518	359.88
301.748	351.88
301.979	340.88
302.209	343.88
302.439	384.88
302.669	366.88
302.9	362.88
303.13	368.88
303.36	348.88
303.59	366.88
303.82	366.88
304.051	375.88
304.281	354.88
304.511	362.88
304.741	364.88
304.971	370.88
305.201	347.88
305.431	356.88
305.661	348.88
305.891	368.88
306.121	357.88
306.352	349.88
306.582	384.88
306.812	360.88
307.042	361.88
307.272	359.88
307.502	358.88
307.731	381.88
307.961	349.88
308.191	361.88
308.421	374.88
308.651	377.88
308.881	371.88
309.111	361.88
309.341	364.88
309.571	379.88
309.8	389.88
310.03	404.88
310.26	397.88
310.49	397.88
310.72	410.88
310.949	414.88
311.179	413.88
311.409	390.88
311.639	409.88
311.868	399.88
312.098	392.88
312.328	400.88
312.557	426.88
312.787	436.88
313.017	435.88
313.246	422.88
313.476	408.88
313.706	419.88
313.935	400.88
314.165	412.88
314.394	432.88
314.624	428.88
314.853	411.88
315.083	425.88
315.312	430.88
315.542	403.88
315.771	370.88
316.001	401.88
316.23	402.88
316.46	392.88
316.689	415.88
316.919	410.88
317.148	424.88
317.377	416.88
317.607	420.88
317.836	415.88
318.065	420.88
318.295	393.88
318.524	408.88
318.753	405.88
318.983	425.88
319.212	401.88
319.441	416.88
319.67	402.88
319.9	413.88
320.129	408.88
320.358	421.88
320.587	424.88
320.816	416.88
321.046	432.88
321.275	396.88
321.504	411.88
321.733	427.88
321.962	430.88
322.191	437.88
322.42	429.88
322.649	448.88
322.878	460.88
323.108	479.88
323.337	489.88
323.566	499.88
323.795	542.88
324.024	586.88
324.253	636.88
324.482	958.88
324.71	1422.88
324.939	2130.88
325.168	1847.88
325.397	918.88
325.626	629.88
325.855	555.88
326.084	510.88
326.313	519.88
326.542	505.88
326.77	551.88
326.999	634.88
327.228	848.88
327.457	1296.88
327.686	1595.88
327.914	1092.88
328.143	698.88
328.372	622.88
328.6	585.88
328.829	581.88
329.058	580.88
329.287	586.88
329.515	579.88
329.744	514.88
329.972	532.88
330.201	540.88
330.43	591.88
330.658	582.88
330.887	616.88
331.115	576.88
331.344	556.88
331.572	494.88
331.801	528.88
332.03	480.88
332.258	496.88
332.486	484.88
332.715	485.88
332.943	513.88
333.172	485.88
333.4	497.88
333.629	519.88
333.857	547.88
334.085	544.88
334.314	559.88
334.542	601.88
334.771	581.88
334.999	551.88
335.227	530.88
335.455	516.88
335.684	503.88
335.912	481.88
336.14	493.88
336.369	461.88
336.597	498.88
336.825	504.88
337.053	494.88
337.281	486.88
337.51	488.88
337.738	462.88
337.966	490.88
338.194	491.88
338.422	495.88
338.65	471.88
338.878	470.88
339.106	482.88
339.334	464.88
339.562	466.88
339.79	468.88
340.018	475.88
340.246	460.88
340.474	490.88
340.702	474.88
340.93	472.88
341.158	444.88
341.386	476.88
341.614	466.88
341.842	459.88
342.07	470.88
342.298	442.88
342.526	452.88
342.754	451.88
342.981	447.88
343.209	446.88
343.437	463.88
343.665	470.88
343.893	466.88
344.12	497.88
344.348	481.88
344.576	462.88
344.804	471.88
345.031	456.88
345.259	490.88
345.487	487.88
345.714	446.88
345.942	451.88
346.17	427.88
346.397	449.88
346.625	439.88
346.853	446.88
347.08	462.88
347.308	450.88
347.535	452.88
347.763	471.88
347.99	456.88
348.218	434.88
348.445	478.88
348.673	450.88
348.9	434.88
349.128	426.88
349.355	439.88
349.583	436.88
349.81	424.88
350.037	441.88
350.265	459.88
350.492	433.88
350.72	424.88
350.947	430.88
351.174	430.88
351.402	443.88
351.629	467.88
351.856	453.88
352.083	429.88
352.311	445.88
352.538	452.88
352.765	452.88
352.992	453.88
353.22	446.88
353.447	447.88
353.674	426.88
353.901	412.88
354.128	448.88
354.355	432.88
354.583	440.88
354.81	432.88
355.037	427.88
355.264	421.88
355.491	425.88
355.718	396.88
355.945	430.88
356.172	400.88
356.399	414.88
356.626	404.88
356.853	410.88
357.08	408.88
357.307	414.88
357.534	415.88
357.761	409.88
357.988	416.88
358.215	402.88
358.441	423.88
358.668	420.88
358.895	422.88
359.122	425.88
359.349	433.88
359.576	439.88
359.802	445.88
360.029	479.88
360.256	470.88
360.483	459.88
360.709	436.88
360.936	436.88
361.163	431.88
361.39	442.88
361.616	434.88
361.843	433.88
362.07	436.88
362.296	439.88
362.523	440.88
362.749	438.88
362.976	441.88
363.203	457.88
363.429	437.88
363.656	444.88
363.882	433.88
364.109	428.88
364.335	429.88
364.562	411.88
364.788	408.88
365.015	440.88
365.241	439.88
365.468	439.88
365.694	450.88
365.92	426.88
366.147	436.88
366.373	427.88
366.599	409.88
366.826	408.88
367.052	424.88
367.278	433.88
367.505	409.88
367.731	416.88
367.957	425.88
368.184	416.88
368.41	433.88
368.636	459.88
368.862	439.88
369.089	436.88
369.315	409.88
369.541	437.88
369.767	414.88
369.993	438.88
370.219	421.88
370.445	422.88
370.672	439.88
370.898	402.88
371.124	439.88
371.35	432.88
371.576	407.88
371.802	416.88
372.028	436.88
372.254	420.88
372.48	432.88
372.706	441.88
372.932	431.88
373.158	449.88
373.384	433.88
373.61	430.88
373.835	414.88
374.061	434.88
374.287	420.88
374.513	453.88
374.739	468.88
374.965	438.88
375.191	459.88
375.416	449.88
375.642	442.88
375.868	438.88
376.094	452.88
376.319	432.88
376.545	427.88
376.771	415.88
376.997	422.88
377.222	438.88
377.448	427.88
377.674	440.88
377.899	439.88
378.125	415.88
378.35	414.88
378.576	440.88
378.802	406.88
379.027	427.88
379.253	432.88
379.478	422.88
379.704	423.88
379.929	446.88
380.155	437.88
380.38	425.88
380.606	415.88
380.831	414.88
381.057	435.88
381.282	455.88
381.507	452.88
381.733	450.88
381.958	441.88
382.184	430.88
382.409	437.88
382.634	456.88
382.86	432.88
383.085	448.88
383.31	441.88
383.535	437.88
383.761	473.88
383.986	454.88
384.211	445.88
384.436	443.88
384.662	455.88
384.887	459.88
385.112	463.88
385.337	439.88
385.562	472.88
385.787	467.88
386.013	498.88
386.238	481.88
386.463	484.88
386.688	491.88
386.913	468.88
387.138	476.88
387.363	475.88
387.588	475.88
387.813	487.88
388.038	454.88
388.263	474.88
388.488	455.88
388.713	481.88
388.938	474.88
389.163	485.88
389.387	488.88
389.612	470.88
389.837	489.88
390.062	471.88
390.287	462.88
390.512	476.88
390.736	494.88
390.961	502.88
391.186	488.88
391.411	487.88
391.636	483.88
391.86	510.88
392.085	493.88
392.31	489.88
392.534	496.88
392.759	520.88
392.984	487.88
393.208	495.88
393.433	480.88
393.658	494.88
393.882	485.88
394.107	478.88
394.331	483.88
394.556	484.88
394.78	478.88
395.005	487.88
395.229	497.88
395.454	503.88
395.678	498.88
395.903	516.88
396.127	538.88
396.352	530.88
396.576	526.88
396.801	511.88
397.025	501.88
397.249	478.88
397.474	511.88
397.698	528.88
397.922	525.88
398.147	547.88
398.371	564.88
398.595	530.88
398.82	552.88
399.044	589.88
399.268	588.88
399.492	630.88
399.717	656.88
399.941	682.88
400.165	723.88
400.389	700.88
400.613	634.88
400.837	613.88
401.062	579.88
401.286	568.88
401.51	566.88
401.734	560.88
401.958	562.88
402.182	552.88
402.406	566.88
402.63	587.88
402.854	573.88
403.078	577.88
403.302	598.88
403.526	608.88
403.75	582.88
403.974	601.88
404.198	592.88
404.422	578.88
404.645	607.88
404.869	624.88
405.093	602.88
405.317	652.88
405.541	712.88
405.765	653.88
405.988	626.88
406.212	610.88
406.436	616.88
406.66	648.88
406.883	626.88
407.107	660.88
407.331	714.88
407.555	782.88
407.778	753.88
408.002	721.88
408.226	645.88
408.449	655.88
408.673	633.88
408.896	665.88
409.12	716.88
409.344	671.88
409.567	619.88
409.791	587.88
410.014	586.88
410.238	570.88
410.461	563.88
410.685	594.88
410.908	606.88
411.132	632.88
411.355	665.88
411.578	655.88
411.802	607.88
412.025	580.88
412.249	599.88
412.472	618.88
412.695	664.88
412.919	651.88
413.142	588.88
413.365	568.88
413.589	555.88
413.812	577.88
414.035	553.88
414.258	537.88
414.482	547.88
414.705	534.88
414.928	556.88
415.151	541.88
415.374	538.88
415.597	532.88
415.821	551.88
416.044	558.88
416.267	570.88
416.49	520.88
416.713	540.88
416.936	539.88
417.159	539.88
417.382	538.88
417.605	551.88
417.828	559.88
418.051	561.88
418.274	572.88
418.497	549.88
418.72	556.88
418.943	556.88
419.166	586.88
419.389	609.88
419.611	592.88
419.834	587.88
420.057	570.88
420.28	575.88
420.503	582.88
420.726	550.88
420.948	594.88
421.171	614.88
421.394	665.88
421.617	588.88
421.839	595.88
422.062	586.88
422.285	594.88
422.507	644.88
422.73	720.88
422.953	696.88
423.175	620.88
423.398	628.88
423.621	596.88
423.843	618.88
424.066	608.88
424.288	624.88
424.511	624.88
424.733	684.88
424.956	774.88
425.178	753.88
425.401	730.88
425.623	752.88
425.846	652.88
426.068	626.88
426.291	586.88
426.513	611.88
426.735	596.88
426.958	657.88
427.18	741.88
427.402	896.88
427.625	982.88
427.847	822.88
428.069	702.88
428.292	640.88
428.514	593.88
428.736	574.88
428.958	566.88
429.181	555.88
429.403	560.88
429.625	579.88
429.847	607.88
430.069	665.88
430.292	656.88
430.514	578.88
430.736	548.88
430.958	565.88
431.18	530.88
431.402	520.88
431.624	530.88
431.846	521.88
432.068	530.88
432.29	547.88
432.512	529.88
432.734	551.88
432.956	534.88
433.178	531.88
433.4	554.88
433.622	554.88
433.844	531.88
434.066	522.88
434.287	513.88
434.509	547.88
434.731	548.88
434.953	578.88
435.175	585.88
435.397	615.88
435.618	618.88
435.84	649.88
436.062	742.88
436.284	822.88
436.505	684.88
436.727	619.88
436.949	579.88
437.17	562.88
437.392	544.88
437.614	569.88
437.835	596.88
438.057	661.88
438.278	799.88
438.5	816.88
438.721	872.88
438.943	830.88
439.165	687.88
439.386	595.88
439.608	610.88
439.829	580.88
440.05	624.88
440.272	676.88
440.493	629.88
440.715	575.88
440.936	576.88
441.158	586.88
441.379	561.88
441.6	593.88
441.822	611.88
442.043	642.88
442.264	724.88
442.486	779.88
442.707	661.88
442.928	600.88
443.149	639.88
443.371	664.88
443.592	696.88
443.813	795.88
444.034	847.88
444.255	720.88
444.476	640.88
444.698	656.88
444.919	628.88
445.14	761.88
445.361	723.88
445.582	658.88
445.803	727.88
446.024	823.88
446.245	828.88
446.466	740.88
446.687	644.88
446.908	616.88
447.129	571.88
447.35	546.88
447.571	559.88
447.792	532.88
448.013	552.88
448.234	579.88
448.455	618.88
448.675	718.88
448.896	853.88
449.117	724.88
449.338	676.88
449.559	832.88
449.779	906.88
450	725.88
450.221	609.88
450.442	563.88
450.662	543.88
450.883	544.88
451.104	560.88
451.324	540.88
451.545	533.88
451.766	503.88
451.986	481.88
452.207	485.88
452.428	480.88
452.648	485.88
452.869	508.88
453.089	485.88
453.31	510.88
453.53	470.88
453.751	490.88
453.971	494.88
454.192	511.88
454.412	488.88
454.633	486.88
454.853	479.88
455.073	490.88
455.294	494.88
455.514	589.88
455.734	546.88
455.955	483.88
456.175	492.88
456.395	455.88
456.616	453.88
456.836	469.88
457.056	478.88
457.276	432.88
457.497	469.88
457.717	467.88
457.937	469.88
458.157	482.88
458.377	488.88
458.598	488.88
458.818	575.88
459.038	614.88
459.258	644.88
459.478	563.88
459.698	517.88
459.918	526.88
460.138	533.88
460.358	547.88
460.578	538.88
460.798	567.88
461.018	579.88
461.238	542.88
461.458	548.88
461.678	547.88
461.898	551.88
462.118	575.88
462.338	571.88
462.558	577.88
462.777	576.88
462.997	604.88
463.217	620.88
463.437	638.88
463.657	603.88
463.876	609.88
464.096	630.88
464.316	589.88
464.536	604.88
464.755	612.88
464.975	613.88
465.195	605.88
465.414	665.88
465.634	606.88
465.854	565.88
466.073	545.88
466.293	545.88
466.512	528.88
466.732	501.88
466.951	490.88
467.171	531.88
467.391	504.88
467.61	514.88
467.829	491.88
468.049	516.88
468.268	504.88
468.488	483.88
468.707	484.88
468.927	500.88
469.146	463.88
469.365	483.88
469.585	490.88
469.804	501.88
470.023	520.88
470.243	510.88
470.462	511.88
470.681	522.88
470.901	530.88
471.12	499.88
471.339	502.88
471.558	503.88
471.777	521.88
471.997	512.88
472.216	520.88
472.435	524.88
472.654	523.88
472.873	516.88
473.092	522.88
473.311	503.88
473.53	480.88
473.749	508.88
473.968	547.88
474.187	649.88
474.406	676.88
474.625	556.88
474.844	513.88
475.063	494.88
475.282	490.88
475.501	515.88
475.72	534.88
475.939	528.88
476.158	536.88
476.377	524.88
476.596	532.88
476.814	561.88
477.033	546.88
477.252	525.88
477.471	546.88
477.69	551.88
477.908	546.88
478.127	570.88
478.346	572.88
478.564	551.88
478.783	574.88
479.002	619.88
479.22	602.88
479.439	606.88
479.658	597.88
479.876	621.88
480.095	622.88
480.313	665.88
480.532	663.88
480.751	642.88
480.969	664.88
481.188	672.88
481.406	714.88
481.624	634.88
481.843	644.88
482.061	595.88
482.28	606.88
482.498	571.88
482.717	584.88
482.935	616.88
483.153	610.88
483.372	609.88
483.59	592.88
483.808	595.88
484.027	578.88
484.245	592.88
484.463	598.88
484.681	612.88
484.9	604.88
485.118	598.88
485.336	616.88
485.554	616.88
485.772	630.88
485.99	619.88
486.209	600.88
486.427	619.88
486.645	629.88
486.863	640.88
487.081	664.88
487.299	631.88
487.517	628.88
487.735	654.88
487.953	643.88
488.171	649.88
488.389	631.88
488.607	671.88
488.825	651.88
489.043	650.88
489.261	652.88
489.479	645.88
489.696	636.88
489.914	657.88
490.132	699.88
490.35	656.88
490.568	664.88
490.786	676.88
491.003	679.88
491.221	703.88
491.439	704.88
491.657	733.88
491.874	730.88
492.092	710.88
492.31	739.88
492.527	731.88
492.745	727.88
492.963	762.88
493.18	738.88
493.398	731.88
493.615	743.88
493.833	791.88
494.05	756.88
494.268	755.88
494.485	750.88
494.703	747.88
494.92	742.88
495.138	730.88
495.355	755.88
495.573	769.88
495.79	756.88
496.008	775.88
496.225	768.88
496.442	773.88
496.66	745.88
496.877	771.88
497.094	755.88
497.312	786.88
497.529	777.88
497.746	773.88
497.963	832.88
498.181	827.88
498.398	845.88
498.615	855.88
498.832	878.88
499.049	892.88
499.267	930.88
499.484	952.88
499.701	1019.88
499.918	1099.88
500.135	1129.88
500.352	1202.88
500.569	1210.88
500.786	1206.88
501.003	1176.88
501.22	1151.88
501.437	1101.88
501.654	1041.88
501.871	1025.88
502.088	968.88
502.305	922.88
502.522	918.88
502.739	895.88
502.956	840.88
503.172	820.88
503.389	816.88
503.606	808.88
503.823	820.88
504.04	771.88
504.256	744.88
504.473	779.88
504.69	757.88
504.907	783.88
505.123	763.88
505.34	729.88
505.557	725.88
505.773	742.88
505.99	702.88
506.207	739.88
506.423	722.88
506.64	728.88
506.856	693.88
507.073	684.88
507.289	699.88
507.506	667.88
507.722	672.88
507.939	686.88
508.155	698.88
508.372	667.88
508.588	642.88
508.805	673.88
509.021	664.88
509.238	713.88
509.454	703.88
509.67	677.88
509.887	686.88
510.103	649.88
510.319	664.88
510.536	770.88
510.752	1114.88
510.968	938.88
511.184	692.88
511.401	641.88
511.617	618.88
511.833	626.88
512.049	626.88
512.265	634.88
512.481	621.88
512.698	632.88
512.914	639.88
513.13	625.88
513.346	624.88
513.562	605.88
513.778	622.88
513.994	632.88
514.21	640.88
514.426	662.88
514.642	680.88
514.858	720.88
515.074	721.88
515.29	838.88
515.506	1155.88
515.721	964.88
515.937	741.88
516.153	662.88
516.369	671.88
516.585	691.88
516.801	680.88
517.016	697.88
517.232	670.88
517.448	643.88
517.664	680.88
517.879	674.88
518.095	675.88
518.311	684.88
518.527	639.88
518.742	678.88
518.958	647.88
519.173	632.88
519.389	642.88
519.605	641.88
519.82	625.88
520.036	645.88
520.251	665.88
520.467	684.88
520.682	664.88
520.898	662.88
521.113	673.88
521.329	700.88
521.544	725.88
521.76	950.88
521.975	1391.88
522.19	1383.88
522.406	857.88
522.621	660.88
522.836	631.88
523.052	618.88
523.267	593.88
523.482	571.88
523.698	571.88
523.913	576.88
524.128	575.88
524.343	580.88
524.559	562.88
524.774	550.88
524.989	548.88
525.204	548.88
525.419	559.88
525.634	545.88
525.849	549.88
526.064	532.88
526.28	512.88
526.495	533.88
526.71	531.88
526.925	516.88
527.14	500.88
527.355	500.88
527.57	519.88
527.785	512.88
527.999	534.88
528.214	514.88
528.429	524.88
528.644	517.88
528.859	521.88
529.074	527.88
529.289	558.88
529.503	609.88
529.718	581.88
529.933	556.88
530.148	535.88
530.363	524.88
530.577	500.88
530.792	525.88
531.007	495.88
531.221	508.88
531.436	494.88
531.651	520.88
531.865	507.88
532.08	499.88
532.295	500.88
532.509	479.88
532.724	502.88
532.938	503.88
533.153	506.88
533.367	515.88
533.582	510.88
533.796	500.88
534.011	488.88
534.225	503.88
534.44	485.88
534.654	494.88
534.868	512.88
535.083	484.88
535.297	510.88
535.511	490.88
535.726	507.88
535.94	539.88
536.154	494.88
536.369	473.88
536.583	474.88
536.797	481.88
537.011	486.88
537.225	501.88
537.44	489.88
537.654	482.88
537.868	481.88
538.082	465.88
538.296	496.88
538.51	495.88
538.724	476.88
538.938	501.88
539.153	491.88
539.367	475.88
539.581	467.88
539.795	473.88
540.009	470.88
540.222	485.88
540.436	485.88
540.65	481.88
540.864	466.88
541.078	491.88
541.292	506.88
541.506	491.88
541.72	484.88
541.934	487.88
542.147	480.88
542.361	501.88
542.575	491.88
542.789	480.88
543.002	477.88
543.216	484.88
543.43	469.88
543.644	474.88
543.857	457.88
544.071	478.88
544.285	502.88
544.498	476.88
544.712	480.88
544.925	495.88
545.139	467.88
545.352	484.88
545.566	475.88
545.779	476.88
545.993	466.88
546.206	478.88
546.42	477.88
546.633	490.88
546.847	466.88
547.06	471.88
547.274	454.88
547.487	467.88
547.7	480.88
547.914	473.88
548.127	471.88
548.34	479.88
548.554	464.88
548.767	479.88
548.98	471.88
549.193	472.88
549.407	479.88
549.62	461.88
549.833	471.88
550.046	465.88
550.259	475.88
550.473	453.88
550.686	471.88
550.899	456.88
551.112	494.88
551.325	454.88
551.538	447.88
551.751	457.88
551.964	451.88
552.177	467.88
552.39	472.88
552.603	453.88
552.816	466.88
553.029	477.88
553.242	482.88
553.455	453.88
553.667	500.88
553.88	500.88
554.093	489.88
554.306	470.88
554.519	467.88
554.732	475.88
554.944	447.88
555.157	434.88
555.37	459.88
555.583	436.88
555.795	440.88
556.008	446.88
556.221	431.88
556.433	434.88
556.646	439.88
556.859	417.88
557.071	416.88
557.284	422.88
557.496	397.88
557.709	421.88
557.921	436.88
558.134	421.88
558.346	407.88
558.559	434.88
558.771	414.88
558.984	416.88
559.196	415.88
559.409	404.88
559.621	411.88
559.833	395.88
560.046	407.88
560.258	412.88
560.47	391.88
560.683	419.88
560.895	407.88
561.107	408.88
561.32	392.88
561.532	401.88
561.744	407.88
561.956	402.88
562.168	412.88
562.381	402.88
562.593	408.88
562.805	394.88
563.017	396.88
563.229	409.88
563.441	427.88
563.653	408.88
563.865	415.88
564.077	416.88
564.289	421.88
564.501	430.88
564.713	433.88
564.925	440.88
565.137	445.88
565.349	443.88
565.561	454.88
565.773	475.88
565.985	475.88
566.197	490.88
566.408	513.88
566.62	514.88
566.832	552.88
567.044	530.88
567.255	555.88
567.467	552.88
567.679	553.88
567.891	584.88
568.102	559.88
568.314	587.88
568.526	533.88
568.737	509.88
568.949	509.88
569.161	485.88
569.372	460.88
569.584	448.88
569.795	436.88
570.007	448.88
570.218	474.88
570.43	446.88
570.641	440.88
570.853	405.88
571.064	411.88
571.276	416.88
571.487	395.88
571.698	404.88
571.91	380.88
572.121	402.88
572.333	380.88
572.544	392.88
572.755	378.88
572.966	384.88
573.178	382.88
573.389	375.88
573.6	374.88
573.811	347.88
574.023	359.88
574.234	371.88
574.445	369.88
574.656	358.88
574.867	362.88
575.078	348.88
575.289	363.88
575.501	354.88
575.712	361.88
575.923	359.88
576.134	347.88
576.345	345.88
576.556	339.88
576.767	351.88
576.978	353.88
577.188	354.88
577.399	362.88
577.61	350.88
577.821	348.88
578.032	347.88
578.243	343.88
578.454	503.88
578.665	405.88
578.875	352.88
579.086	330.88
579.297	335.88
579.508	329.88
579.718	335.88
579.929	325.88
580.14	311.88
580.35	334.88
580.561	316.88
580.772	343.88
580.982	330.88
581.193	312.88
581.403	317.88
581.614	334.88
581.825	326.88
582.035	305.88
582.246	321.88
582.456	321.88
582.667	341.88
582.877	319.88
583.087	299.88
583.298	303.88
583.508	324.88
583.719	324.88
583.929	336.88
584.139	295.88
584.35	310.88
584.56	327.88
584.77	315.88
584.981	318.88
585.191	317.88
585.401	313.88
585.611	298.88
585.821	325.88
586.032	313.88
586.242	312.88
586.452	312.88
586.662	293.88
586.872	306.88
587.082	314.88
587.292	306.88
587.502	322.88
587.713	306.88
587.923	311.88
588.133	317.88
588.343	319.88
588.553	339.88
588.762	316.88
588.972	329.88
589.182	322.88
589.392	304.88
589.602	307.88
589.812	322.88
590.022	316.88
590.232	292.88
590.441	312.88
590.651	332.88
590.861	330.88
591.071	318.88
591.281	317.88
591.49	316.88
591.7	307.88
591.91	319.88
592.119	335.88
592.329	337.88
592.539	336.88
592.748	328.88
592.958	308.88
593.167	340.88
593.377	345.88
593.587	355.88
593.796	338.88
594.006	352.88
594.215	367.88
594.424	353.88
594.634	330.88
594.843	337.88
595.053	326.88
595.262	319.88
595.472	313.88
595.681	312.88
595.89	311.88
596.1	296.88
596.309	319.88
596.518	302.88
596.727	299.88
596.937	280.88
597.146	304.88
597.355	299.88
597.564	293.88
597.774	294.88
597.983	296.88
598.192	292.88
598.401	284.88
598.61	291.88
598.819	288.88
599.028	276.88
599.237	275.88
599.446	274.88
599.655	266.88
599.864	283.88
600.073	260.88
600.282	293.88
600.491	283.88
600.7	277.88
600.909	270.88
601.118	267.88
601.327	263.88
601.536	283.88
601.745	272.88
601.953	266.88
602.162	277.88
602.371	290.88
602.58	264.88
602.789	273.88
602.997	291.88
603.206	264.88
603.415	267.88
603.623	260.88
603.832	264.88
604.041	273.88
604.249	252.88
604.458	259.88
604.666	259.88
604.875	258.88
605.084	254.88
605.292	253.88
605.501	266.88
605.709	269.88
605.918	242.88
606.126	260.88
606.334	272.88
606.543	250.88
606.751	254.88
606.96	263.88
607.168	267.88
607.376	241.88
607.585	233.88
607.793	249.88
608.001	255.88
608.21	251.88
608.418	246.88
608.626	259.88
608.834	259.88
609.043	276.88
609.251	235.88
609.459	224.88
609.667	260.88
609.875	230.88
610.083	238.88
610.291	248.88
610.499	251.88
610.707	245.88
610.916	264.88
611.124	273.88
611.332	252.88
611.54	272.88
611.748	239.88
611.955	267.88
612.163	239.88
612.371	265.88
612.579	258.88
612.787	258.88
612.995	240.88
613.203	254.88
613.411	260.88
613.618	247.88
613.826	259.88
614.034	259.88
614.242	232.88
614.449	264.88
614.657	254.88
614.865	242.88
615.072	266.88
615.28	250.88
615.488	252.88
615.695	242.88
615.903	233.88
616.111	249.88
616.318	263.88
616.526	265.88
616.733	259.88
616.941	251.88
617.148	259.88
617.356	245.88
617.563	254.88
617.771	258.88
617.978	251.88
618.185	232.88
618.393	239.88
618.6	248.88
618.807	254.88
619.015	234.88
619.222	249.88
619.429	242.88
619.637	243.88
619.844	231.88
620.051	235.88
620.258	242.88
620.466	227.88
620.673	226.88
620.88	230.88
621.087	225.88
621.294	242.88
621.501	232.88
621.708	225.88
621.915	233.88
622.122	231.88
622.329	246.88
622.536	243.88
622.743	238.88
622.95	247.88
623.157	228.88
623.364	233.88
623.571	230.88
623.778	211.88
623.985	228.88
624.192	227.88
624.399	219.88
624.606	207.88
624.812	213.88
625.019	218.88
625.226	216.88
625.433	220.88
625.639	215.88
625.846	229.88
626.053	212.88
626.259	204.88
626.466	223.88
626.673	214.88
626.879	219.88
627.086	223.88
627.293	210.88
627.499	219.88
627.706	209.88
627.912	215.88
628.119	199.88
628.325	204.88
628.532	207.88
628.738	194.88
628.945	208.88
629.151	215.88
629.357	223.88
629.564	211.88
629.77	208.88
629.976	202.88
630.183	191.88
630.389	214.88
630.595	214.88
630.802	213.88
631.008	189.88
631.214	198.88
631.42	194.88
631.627	209.88
631.833	197.88
632.039	195.88
632.245	204.88
632.451	205.88
632.657	215.88
632.863	186.88
633.069	190.88
633.275	180.88
633.481	207.88
633.688	198.88
633.893	202.88
634.099	198.88
634.305	201.88
634.511	180.88
634.717	190.88
634.923	200.88
635.129	180.88
635.335	204.88
635.541	193.88
635.747	184.88
635.952	174.88
636.158	197.88
636.364	192.88
636.57	193.88
636.775	195.88
636.981	193.88
637.187	196.88
637.392	216.88
637.598	190.88
637.804	191.88
638.009	188.88
638.215	194.88
638.421	195.88
638.626	185.88
638.832	167.88
639.037	182.88
639.243	184.88
639.448	165.88
639.654	180.88
639.859	161.88
640.065	169.88
640.27	183.88
640.475	186.88
640.681	183.88
640.886	174.88
641.091	180.88
641.297	190.88
641.502	173.88
641.707	181.88
641.913	199.88
642.118	191.88
642.323	174.88
642.528	184.88
642.733	197.88
642.939	188.88
643.144	163.88
643.349	170.88
643.554	166.88
643.759	165.88
643.964	173.88
644.169	184.88
644.374	169.88
644.579	174.88
644.784	168.88
644.989	165.88
645.194	160.88
645.399	174.88
645.604	181.88
645.809	170.88
646.014	178.88
646.219	161.88
646.423	165.88
646.628	184.88
646.833	170.88
647.038	179.88
647.243	178.88
647.447	188.88
647.652	177.88
647.857	171.88
648.062	179.88
648.266	168.88
648.471	170.88
648.676	180.88
648.88	183.88
649.085	201.88
649.289	174.88
649.494	186.88
649.698	205.88
649.903	190.88
650.107	165.88
650.312	165.88
650.516	171.88
650.721	168.88
650.925	181.88
651.13	153.88
651.334	171.88
651.539	160.88
651.743	153.88
651.947	152.88
652.152	149.88
652.356	140.88
652.56	132.88
652.764	146.88
652.969	147.88
653.173	164.88
653.377	135.88
653.581	148.88
653.785	149.88
653.99	144.88
654.194	152.88
654.398	140.88
654.602	167.88
654.806	140.88
655.01	146.88
655.214	152.88
655.418	141.88
655.622	148.88
655.826	144.88
656.03	143.88
656.234	150.88
656.438	140.88
656.642	159.88
656.846	142.88
657.049	139.88
657.253	125.88
657.457	128.88
657.661	121.88
657.865	116.88
658.068	116.88
658.272	115.88
658.476	96.88
658.68	117.88
658.883	118.88
659.087	108.88
659.291	106.88
659.494	102.88
659.698	95.88
659.901	98.88
660.105	97.88
660.309	101.88
660.512	84.88
660.716	91.88
660.919	91.88
661.123	102.88
661.326	90.88
661.53	99.88
661.733	92.88
661.936	95.88
662.14	86.88
662.343	87.88
662.546	75.88
662.75	83.88
662.953	93.88
663.156	70.88
663.36	83.88
663.563	97.88
663.766	70.88
663.969	89.88
664.173	87.88
664.376	74.88
664.579	75.88
664.782	83.88
664.985	81.88
665.188	82.88
665.391	100.88
665.594	96.88
665.797	77.88
666	76.88
666.203	73.88
666.406	91.88
666.609	68.88
666.812	97.88
667.015	74.88
667.218	79.88
667.421	72.88
667.624	82.88
667.827	84.88
668.03	84.88
668.232	70.88
668.435	77.88
668.638	78.88
668.841	79.88
669.043	85.88
669.246	70.88
669.449	85.88
669.651	70.88
669.854	84.88
670.057	83.88
670.259	72.88
670.462	96.88
670.665	90.88
670.867	71.88
671.07	82.88
671.272	85.88
671.475	73.88
671.677	73.88
671.88	86.88
672.082	92.88
672.284	76.88
672.487	84.88
672.689	81.88
672.892	91.88
