Data from 1976.PennyLincolnUp.Lamp.En5.5.200Scan.071719.P1.Changed Mount._HRD10591_16-01-49-862.txt Node
Date: Thu Jul 18 16:01:49 EDT 2019
User: cochatt
Spectrometer: HR+D1059
Trigger mode: 1
Integration Time (sec): 1.000000E-1
Scans to average: 1
Electric dark correction enabled: true
Nonlinearity correction enabled: false
Boxcar width: 0
XAxis mode: Wavelengths
Number of Pixels in Spectrum: 2048
>>>>>Begin Spectral Data<<<<<
223.165	-21.62
223.4	-21.62
223.635	-21.62
223.869	-27.62
224.104	-22.62
224.338	-9.62
224.573	0.38
224.808	-9.62
225.042	-0.62
225.277	-10.62
225.511	-8.62
225.746	-3.62
225.98	9.38
226.215	15.38
226.449	22.38
226.683	25.38
226.918	22.38
227.152	19.38
227.387	23.38
227.621	35.38
227.856	49.38
228.09	35.38
228.324	47.38
228.559	54.38
228.793	67.38
229.027	103.38
229.262	93.38
229.496	113.38
229.73	137.38
229.964	157.38
230.199	125.38
230.433	113.38
230.667	106.38
230.901	124.38
231.136	124.38
231.37	118.38
231.604	120.38
231.838	115.38
232.072	111.38
232.306	98.38
232.541	109.38
232.775	123.38
233.009	110.38
233.243	120.38
233.477	112.38
233.711	133.38
233.945	127.38
234.179	120.38
234.413	130.38
234.647	129.38
234.881	121.38
235.115	110.38
235.349	122.38
235.583	126.38
235.817	128.38
236.051	136.38
236.285	130.38
236.519	137.38
236.753	142.38
236.987	146.38
237.221	183.38
237.455	218.38
237.689	195.38
237.922	140.38
238.156	143.38
238.39	126.38
238.624	140.38
238.858	137.38
239.091	133.38
239.325	129.38
239.559	127.38
239.793	141.38
240.027	136.38
240.26	133.38
240.494	151.38
240.728	149.38
240.961	153.38
241.195	141.38
241.429	159.38
241.662	143.38
241.896	149.38
242.13	141.38
242.363	129.38
242.597	127.38
242.83	142.38
243.064	159.38
243.298	143.38
243.531	138.38
243.765	139.38
243.998	142.38
244.232	160.38
244.465	141.38
244.699	154.38
244.932	155.38
245.166	149.38
245.399	151.38
245.633	157.38
245.866	154.38
246.099	163.38
246.333	151.38
246.566	168.38
246.8	157.38
247.033	154.38
247.266	156.38
247.5	169.38
247.733	171.38
247.966	175.38
248.2	180.38
248.433	183.38
248.666	177.38
248.899	204.38
249.133	202.38
249.366	216.38
249.599	201.38
249.832	195.38
250.066	198.38
250.299	186.38
250.532	204.38
250.765	208.38
250.998	236.38
251.231	242.38
251.465	213.38
251.698	208.38
251.931	213.38
252.164	225.38
252.397	201.38
252.63	210.38
252.863	228.38
253.096	224.38
253.329	236.38
253.562	246.38
253.795	229.38
254.028	227.38
254.261	213.38
254.494	247.38
254.727	271.38
254.96	294.38
255.193	255.38
255.426	257.38
255.659	242.38
255.892	231.38
256.124	248.38
256.357	243.38
256.59	241.38
256.823	213.38
257.056	241.38
257.289	219.38
257.521	218.38
257.754	236.38
257.987	215.38
258.22	213.38
258.452	221.38
258.685	223.38
258.918	212.38
259.151	229.38
259.383	222.38
259.616	229.38
259.849	243.38
260.081	261.38
260.314	264.38
260.547	259.38
260.779	250.38
261.012	251.38
261.244	243.38
261.477	227.38
261.71	232.38
261.942	247.38
262.175	242.38
262.407	247.38
262.64	230.38
262.872	239.38
263.105	234.38
263.337	248.38
263.57	243.38
263.802	239.38
264.035	215.38
264.267	216.38
264.499	226.38
264.732	232.38
264.964	216.38
265.197	207.38
265.429	228.38
265.661	237.38
265.894	246.38
266.126	241.38
266.358	251.38
266.591	228.38
266.823	230.38
267.055	241.38
267.287	269.38
267.52	229.38
267.752	249.38
267.984	249.38
268.216	250.38
268.448	278.38
268.681	266.38
268.913	273.38
269.145	284.38
269.377	304.38
269.609	309.38
269.841	286.38
270.073	301.38
270.306	326.38
270.538	331.38
270.77	332.38
271.002	326.38
271.234	305.38
271.466	323.38
271.698	333.38
271.93	344.38
272.162	332.38
272.394	334.38
272.626	322.38
272.858	303.38
273.09	297.38
273.322	310.38
273.553	288.38
273.785	281.38
274.017	300.38
274.249	292.38
274.481	282.38
274.713	287.38
274.945	306.38
275.176	301.38
275.408	291.38
275.64	299.38
275.872	297.38
276.104	289.38
276.335	283.38
276.567	293.38
276.799	311.38
277.031	324.38
277.262	339.38
277.494	345.38
277.726	328.38
277.957	318.38
278.189	317.38
278.421	312.38
278.652	294.38
278.884	317.38
279.115	276.38
279.347	283.38
279.579	293.38
279.81	293.38
280.042	311.38
280.273	306.38
280.505	310.38
280.736	295.38
280.968	305.38
281.199	286.38
281.431	302.38
281.662	296.38
281.894	268.38
282.125	309.38
282.356	330.38
282.588	320.38
282.819	348.38
283.051	324.38
283.282	283.38
283.513	305.38
283.745	288.38
283.976	314.38
284.207	319.38
284.439	322.38
284.67	303.38
284.901	325.38
285.132	299.38
285.364	317.38
285.595	326.38
285.826	321.38
286.057	314.38
286.288	316.38
286.52	322.38
286.751	293.38
286.982	313.38
287.213	314.38
287.444	345.38
287.675	324.38
287.906	313.38
288.138	333.38
288.369	334.38
288.6	333.38
288.831	325.38
289.062	321.38
289.293	329.38
289.524	319.38
289.755	313.38
289.986	333.38
290.217	310.38
290.448	300.38
290.679	315.38
290.91	327.38
291.141	328.38
291.371	334.38
291.602	327.38
291.833	330.38
292.064	313.38
292.295	319.38
292.526	322.38
292.757	317.38
292.987	341.38
293.218	311.38
293.449	340.38
293.68	323.38
293.91	317.38
294.141	326.38
294.372	324.38
294.603	329.38
294.833	324.38
295.064	315.38
295.295	329.38
295.525	327.38
295.756	340.38
295.987	351.38
296.217	349.38
296.448	372.38
296.679	334.38
296.909	313.38
297.14	356.38
297.37	316.38
297.601	329.38
297.831	334.38
298.062	329.38
298.292	333.38
298.523	336.38
298.753	355.38
298.984	341.38
299.214	347.38
299.445	340.38
299.675	335.38
299.905	351.38
300.136	340.38
300.366	371.38
300.597	353.38
300.827	358.38
301.057	333.38
301.288	373.38
301.518	360.38
301.748	367.38
301.979	373.38
302.209	365.38
302.439	373.38
302.669	374.38
302.9	357.38
303.13	351.38
303.36	369.38
303.59	362.38
303.82	369.38
304.051	392.38
304.281	378.38
304.511	343.38
304.741	342.38
304.971	349.38
305.201	348.38
305.431	366.38
305.661	347.38
305.891	383.38
306.121	350.38
306.352	366.38
306.582	373.38
306.812	364.38
307.042	351.38
307.272	357.38
307.502	369.38
307.731	375.38
307.961	374.38
308.191	369.38
308.421	390.38
308.651	396.38
308.881	366.38
309.111	377.38
309.341	371.38
309.571	377.38
309.8	377.38
310.03	400.38
310.26	405.38
310.49	409.38
310.72	389.38
310.949	424.38
311.179	428.38
311.409	413.38
311.639	403.38
311.868	408.38
312.098	397.38
312.328	420.38
312.557	410.38
312.787	423.38
313.017	424.38
313.246	434.38
313.476	400.38
313.706	418.38
313.935	405.38
314.165	413.38
314.394	439.38
314.624	421.38
314.853	428.38
315.083	425.38
315.312	401.38
315.542	399.38
315.771	409.38
316.001	395.38
316.23	423.38
316.46	401.38
316.689	405.38
316.919	408.38
317.148	447.38
317.377	420.38
317.607	419.38
317.836	427.38
318.065	407.38
318.295	413.38
318.524	417.38
318.753	419.38
318.983	396.38
319.212	395.38
319.441	410.38
319.67	406.38
319.9	432.38
320.129	417.38
320.358	407.38
320.587	418.38
320.816	426.38
321.046	425.38
321.275	430.38
321.504	439.38
321.733	444.38
321.962	429.38
322.191	448.38
322.42	419.38
322.649	453.38
322.878	487.38
323.108	502.38
323.337	502.38
323.566	508.38
323.795	534.38
324.024	563.38
324.253	667.38
324.482	900.38
324.71	1415.38
324.939	2071.38
325.168	1831.38
325.397	901.38
325.626	653.38
325.855	563.38
326.084	505.38
326.313	492.38
326.542	517.38
326.77	547.38
326.999	638.38
327.228	833.38
327.457	1273.38
327.686	1578.38
327.914	1049.38
328.143	684.38
328.372	621.38
328.6	586.38
328.829	559.38
329.058	570.38
329.287	577.38
329.515	590.38
329.744	537.38
329.972	494.38
330.201	549.38
330.43	596.38
330.658	619.38
330.887	620.38
331.115	603.38
331.344	552.38
331.572	491.38
331.801	514.38
332.03	537.38
332.258	511.38
332.486	477.38
332.715	478.38
332.943	498.38
333.172	519.38
333.4	513.38
333.629	498.38
333.857	526.38
334.085	545.38
334.314	568.38
334.542	580.38
334.771	588.38
334.999	547.38
335.227	532.38
335.455	505.38
335.684	503.38
335.912	506.38
336.14	502.38
336.369	482.38
336.597	497.38
336.825	506.38
337.053	499.38
337.281	494.38
337.51	472.38
337.738	487.38
337.966	490.38
338.194	481.38
338.422	479.38
338.65	477.38
338.878	463.38
339.106	474.38
339.334	461.38
339.562	490.38
339.79	458.38
340.018	447.38
340.246	437.38
340.474	454.38
340.702	455.38
340.93	482.38
341.158	467.38
341.386	440.38
341.614	467.38
341.842	464.38
342.07	476.38
342.298	456.38
342.526	453.38
342.754	456.38
342.981	430.38
343.209	434.38
343.437	453.38
343.665	455.38
343.893	475.38
344.12	503.38
344.348	467.38
344.576	474.38
344.804	494.38
345.031	483.38
345.259	500.38
345.487	487.38
345.714	462.38
345.942	471.38
346.17	472.38
346.397	453.38
346.625	461.38
346.853	455.38
347.08	434.38
347.308	462.38
347.535	450.38
347.763	473.38
347.99	444.38
348.218	456.38
348.445	459.38
348.673	466.38
348.9	454.38
349.128	445.38
349.355	430.38
349.583	430.38
349.81	447.38
350.037	427.38
350.265	443.38
350.492	448.38
350.72	440.38
350.947	434.38
351.174	444.38
351.402	465.38
351.629	464.38
351.856	457.38
352.083	453.38
352.311	453.38
352.538	438.38
352.765	433.38
352.992	458.38
353.22	451.38
353.447	450.38
353.674	456.38
353.901	443.38
354.128	424.38
354.355	424.38
354.583	420.38
354.81	430.38
355.037	421.38
355.264	428.38
355.491	437.38
355.718	447.38
355.945	438.38
356.172	426.38
356.399	422.38
356.626	409.38
356.853	436.38
357.08	435.38
357.307	409.38
357.534	428.38
357.761	435.38
357.988	417.38
358.215	421.38
358.441	463.38
358.668	429.38
358.895	437.38
359.122	438.38
359.349	437.38
359.576	437.38
359.802	467.38
360.029	469.38
360.256	489.38
360.483	465.38
360.709	458.38
360.936	449.38
361.163	441.38
361.39	439.38
361.616	452.38
361.843	421.38
362.07	462.38
362.296	461.38
362.523	455.38
362.749	442.38
362.976	428.38
363.203	443.38
363.429	438.38
363.656	422.38
363.882	421.38
364.109	414.38
364.335	422.38
364.562	435.38
364.788	421.38
365.015	428.38
365.241	418.38
365.468	429.38
365.694	419.38
365.92	426.38
366.147	419.38
366.373	414.38
366.599	406.38
366.826	431.38
367.052	437.38
367.278	431.38
367.505	445.38
367.731	419.38
367.957	421.38
368.184	434.38
368.41	435.38
368.636	435.38
368.862	439.38
369.089	426.38
369.315	445.38
369.541	437.38
369.767	429.38
369.993	425.38
370.219	433.38
370.445	441.38
370.672	446.38
370.898	422.38
371.124	435.38
371.35	456.38
371.576	421.38
371.802	438.38
372.028	425.38
372.254	430.38
372.48	433.38
372.706	452.38
372.932	423.38
373.158	453.38
373.384	433.38
373.61	445.38
373.835	444.38
374.061	444.38
374.287	443.38
374.513	451.38
374.739	447.38
374.965	442.38
375.191	451.38
375.416	467.38
375.642	473.38
375.868	437.38
376.094	439.38
376.319	437.38
376.545	443.38
376.771	436.38
376.997	426.38
377.222	438.38
377.448	438.38
377.674	429.38
377.899	415.38
378.125	442.38
378.35	429.38
378.576	449.38
378.802	430.38
379.027	447.38
379.253	426.38
379.478	445.38
379.704	452.38
379.929	427.38
380.155	426.38
380.38	432.38
380.606	441.38
380.831	430.38
381.057	444.38
381.282	438.38
381.507	434.38
381.733	459.38
381.958	434.38
382.184	440.38
382.409	449.38
382.634	464.38
382.86	437.38
383.085	452.38
383.31	447.38
383.535	458.38
383.761	474.38
383.986	463.38
384.211	469.38
384.436	465.38
384.662	467.38
384.887	437.38
385.112	460.38
385.337	482.38
385.562	483.38
385.787	467.38
386.013	467.38
386.238	481.38
386.463	514.38
386.688	493.38
386.913	467.38
387.138	469.38
387.363	484.38
387.588	470.38
387.813	502.38
388.038	478.38
388.263	489.38
388.488	500.38
388.713	493.38
388.938	491.38
389.163	478.38
389.387	481.38
389.612	473.38
389.837	478.38
390.062	489.38
390.287	462.38
390.512	476.38
390.736	470.38
390.961	487.38
391.186	473.38
391.411	498.38
391.636	493.38
391.86	510.38
392.085	513.38
392.31	499.38
392.534	503.38
392.759	514.38
392.984	484.38
393.208	473.38
393.433	500.38
393.658	487.38
393.882	488.38
394.107	492.38
394.331	491.38
394.556	487.38
394.78	486.38
395.005	495.38
395.229	494.38
395.454	506.38
395.678	501.38
395.903	532.38
396.127	555.38
396.352	547.38
396.576	519.38
396.801	501.38
397.025	511.38
397.249	502.38
397.474	484.38
397.698	507.38
397.922	528.38
398.147	561.38
398.371	546.38
398.595	542.38
398.82	579.38
399.044	569.38
399.268	588.38
399.492	656.38
399.717	657.38
399.941	720.38
400.165	729.38
400.389	701.38
400.613	664.38
400.837	605.38
401.062	580.38
401.286	586.38
401.51	564.38
401.734	567.38
401.958	571.38
402.182	557.38
402.406	587.38
402.63	608.38
402.854	594.38
403.078	583.38
403.302	596.38
403.526	593.38
403.75	601.38
403.974	606.38
404.198	598.38
404.422	586.38
404.645	598.38
404.869	598.38
405.093	641.38
405.317	663.38
405.541	727.38
405.765	658.38
405.988	623.38
406.212	610.38
406.436	642.38
406.66	656.38
406.883	641.38
407.107	635.38
407.331	708.38
407.555	798.38
407.778	795.38
408.002	717.38
408.226	669.38
408.449	651.38
408.673	653.38
408.896	665.38
409.12	725.38
409.344	671.38
409.567	606.38
409.791	613.38
410.014	583.38
410.238	605.38
410.461	578.38
410.685	585.38
410.908	599.38
411.132	633.38
411.355	661.38
411.578	650.38
411.802	593.38
412.025	577.38
412.249	622.38
412.472	619.38
412.695	642.38
412.919	625.38
413.142	607.38
413.365	587.38
413.589	580.38
413.812	563.38
414.035	556.38
414.258	557.38
414.482	549.38
414.705	537.38
414.928	544.38
415.151	549.38
415.374	527.38
415.597	554.38
415.821	526.38
416.044	546.38
416.267	556.38
416.49	536.38
416.713	534.38
416.936	541.38
417.159	555.38
417.382	567.38
417.605	587.38
417.828	569.38
418.051	570.38
418.274	604.38
418.497	552.38
418.72	590.38
418.943	537.38
419.166	572.38
419.389	587.38
419.611	609.38
419.834	569.38
420.057	576.38
420.28	588.38
420.503	564.38
420.726	565.38
420.948	600.38
421.171	630.38
421.394	655.38
421.617	591.38
421.839	581.38
422.062	576.38
422.285	602.38
422.507	651.38
422.73	724.38
422.953	703.38
423.175	619.38
423.398	609.38
423.621	591.38
423.843	631.38
424.066	622.38
424.288	627.38
424.511	627.38
424.733	670.38
424.956	776.38
425.178	755.38
425.401	733.38
425.623	760.38
425.846	657.38
426.068	606.38
426.291	597.38
426.513	592.38
426.735	606.38
426.958	644.38
427.18	721.38
427.402	893.38
427.625	969.38
427.847	824.38
428.069	697.38
428.292	630.38
428.514	616.38
428.736	575.38
428.958	587.38
429.181	549.38
429.403	539.38
429.625	584.38
429.847	597.38
430.069	673.38
430.292	679.38
430.514	587.38
430.736	565.38
430.958	537.38
431.18	541.38
431.402	544.38
431.624	531.38
431.846	519.38
432.068	536.38
432.29	521.38
432.512	516.38
432.734	554.38
432.956	550.38
433.178	549.38
433.4	538.38
433.622	548.38
433.844	527.38
434.066	544.38
434.287	522.38
434.509	537.38
434.731	561.38
434.953	569.38
435.175	591.38
435.397	604.38
435.618	621.38
435.84	631.38
436.062	733.38
436.284	814.38
436.505	680.38
436.727	615.38
436.949	586.38
437.17	557.38
437.392	547.38
437.614	561.38
437.835	586.38
438.057	701.38
438.278	809.38
438.5	835.38
438.721	902.38
438.943	859.38
439.165	669.38
439.386	614.38
439.608	635.38
439.829	623.38
440.05	620.38
440.272	709.38
440.493	651.38
440.715	594.38
440.936	573.38
441.158	550.38
441.379	579.38
441.6	588.38
441.822	586.38
442.043	636.38
442.264	737.38
442.486	795.38
442.707	679.38
442.928	620.38
443.149	633.38
443.371	645.38
443.592	672.38
443.813	802.38
444.034	877.38
444.255	726.38
444.476	654.38
444.698	653.38
444.919	645.38
445.14	774.38
445.361	680.38
445.582	653.38
445.803	720.38
446.024	835.38
446.245	859.38
446.466	773.38
446.687	657.38
446.908	609.38
447.129	567.38
447.35	561.38
447.571	559.38
447.792	540.38
448.013	565.38
448.234	570.38
448.455	613.38
448.675	737.38
448.896	902.38
449.117	711.38
449.338	688.38
449.559	819.38
449.779	910.38
450	707.38
450.221	611.38
450.442	559.38
450.662	536.38
450.883	554.38
451.104	526.38
451.324	558.38
451.545	520.38
451.766	520.38
451.986	513.38
452.207	480.38
452.428	490.38
452.648	508.38
452.869	476.38
453.089	508.38
453.31	516.38
453.53	502.38
453.751	479.38
453.971	495.38
454.192	509.38
454.412	484.38
454.633	490.38
454.853	497.38
455.073	491.38
455.294	515.38
455.514	570.38
455.734	582.38
455.955	520.38
456.175	481.38
456.395	462.38
456.616	468.38
456.836	465.38
457.056	489.38
457.276	471.38
457.497	463.38
457.717	467.38
457.937	481.38
458.157	455.38
458.377	471.38
458.598	511.38
458.818	544.38
459.038	640.38
459.258	659.38
459.478	591.38
459.698	523.38
459.918	526.38
460.138	549.38
460.358	561.38
460.578	543.38
460.798	583.38
461.018	574.38
461.238	557.38
461.458	566.38
461.678	540.38
461.898	550.38
462.118	565.38
462.338	567.38
462.558	604.38
462.777	604.38
462.997	638.38
463.217	610.38
463.437	632.38
463.657	631.38
463.876	583.38
464.096	591.38
464.316	603.38
464.536	619.38
464.755	619.38
464.975	577.38
465.195	599.38
465.414	659.38
465.634	600.38
465.854	591.38
466.073	543.38
466.293	519.38
466.512	523.38
466.732	489.38
466.951	489.38
467.171	508.38
467.391	529.38
467.61	527.38
467.829	506.38
468.049	514.38
468.268	513.38
468.488	490.38
468.707	503.38
468.927	500.38
469.146	492.38
469.365	496.38
469.585	505.38
469.804	501.38
470.023	534.38
470.243	531.38
470.462	529.38
470.681	531.38
470.901	530.38
471.12	510.38
471.339	504.38
471.558	542.38
471.777	519.38
471.997	515.38
472.216	507.38
472.435	546.38
472.654	544.38
472.873	501.38
473.092	497.38
473.311	517.38
473.53	504.38
473.749	509.38
473.968	552.38
474.187	679.38
474.406	679.38
474.625	585.38
474.844	565.38
475.063	503.38
475.282	521.38
475.501	510.38
475.72	512.38
475.939	514.38
476.158	532.38
476.377	509.38
476.596	533.38
476.814	540.38
477.033	557.38
477.252	552.38
477.471	549.38
477.69	551.38
477.908	540.38
478.127	569.38
478.346	554.38
478.564	570.38
478.783	573.38
479.002	571.38
479.22	584.38
479.439	592.38
479.658	606.38
479.876	635.38
480.095	629.38
480.313	628.38
480.532	660.38
480.751	651.38
480.969	667.38
481.188	679.38
481.406	690.38
481.624	663.38
481.843	623.38
482.061	638.38
482.28	605.38
482.498	589.38
482.717	597.38
482.935	628.38
483.153	601.38
483.372	609.38
483.59	591.38
483.808	556.38
484.027	605.38
484.245	607.38
484.463	594.38
484.681	620.38
484.9	603.38
485.118	610.38
485.336	602.38
485.554	618.38
485.772	615.38
485.99	610.38
486.209	610.38
486.427	605.38
486.645	629.38
486.863	635.38
487.081	636.38
487.299	634.38
487.517	633.38
487.735	661.38
487.953	635.38
488.171	628.38
488.389	651.38
488.607	645.38
488.825	635.38
489.043	663.38
489.261	643.38
489.479	643.38
489.696	677.38
489.914	646.38
490.132	687.38
490.35	672.38
490.568	680.38
490.786	682.38
491.003	703.38
491.221	698.38
491.439	736.38
491.657	736.38
491.874	731.38
492.092	733.38
492.31	777.38
492.527	726.38
492.745	741.38
492.963	740.38
493.18	776.38
493.398	770.38
493.615	752.38
493.833	748.38
494.05	763.38
494.268	750.38
494.485	730.38
494.703	759.38
494.92	782.38
495.138	749.38
495.355	769.38
495.573	771.38
495.79	759.38
496.008	781.38
496.225	746.38
496.442	745.38
496.66	768.38
496.877	773.38
497.094	780.38
497.312	778.38
497.529	811.38
497.746	798.38
497.963	817.38
498.181	821.38
498.398	849.38
498.615	866.38
498.832	905.38
499.049	922.38
499.267	938.38
499.484	983.38
499.701	1020.38
499.918	1091.38
500.135	1144.38
500.352	1217.38
500.569	1226.38
500.786	1217.38
501.003	1213.38
501.22	1143.38
501.437	1079.38
501.654	1049.38
501.871	1048.38
502.088	968.38
502.305	929.38
502.522	904.38
502.739	897.38
502.956	846.38
503.172	846.38
503.389	817.38
503.606	807.38
503.823	789.38
504.04	780.38
504.256	782.38
504.473	784.38
504.69	784.38
504.907	789.38
505.123	774.38
505.34	767.38
505.557	710.38
505.773	730.38
505.99	725.38
506.207	710.38
506.423	701.38
506.64	723.38
506.856	714.38
507.073	709.38
507.289	718.38
507.506	709.38
507.722	681.38
507.939	682.38
508.155	704.38
508.372	689.38
508.588	683.38
508.805	665.38
509.021	661.38
509.238	703.38
509.454	689.38
509.67	683.38
509.887	673.38
510.103	677.38
510.319	669.38
510.536	724.38
510.752	1077.38
510.968	923.38
511.184	667.38
511.401	617.38
511.617	641.38
511.833	651.38
512.049	640.38
512.265	649.38
512.481	625.38
512.698	635.38
512.914	634.38
513.13	617.38
513.346	610.38
513.562	630.38
513.778	637.38
513.994	623.38
514.21	637.38
514.426	623.38
514.642	679.38
514.858	725.38
515.074	742.38
515.29	818.38
515.506	1104.38
515.721	958.38
515.937	730.38
516.153	698.38
516.369	668.38
516.585	669.38
516.801	682.38
517.016	652.38
517.232	663.38
517.448	682.38
517.664	693.38
517.879	667.38
518.095	681.38
518.311	685.38
518.527	674.38
518.742	667.38
518.958	669.38
519.173	674.38
519.389	656.38
519.605	651.38
519.82	611.38
520.036	645.38
520.251	645.38
520.467	649.38
520.682	680.38
520.898	654.38
521.113	663.38
521.329	702.38
521.544	770.38
521.76	919.38
521.975	1388.38
522.19	1377.38
522.406	846.38
522.621	665.38
522.836	630.38
523.052	605.38
523.267	585.38
523.482	556.38
523.698	562.38
523.913	589.38
524.128	588.38
524.343	557.38
524.559	540.38
524.774	554.38
524.989	556.38
525.204	551.38
525.419	564.38
525.634	553.38
525.849	547.38
526.064	544.38
526.28	549.38
526.495	517.38
526.71	512.38
526.925	533.38
527.14	541.38
527.355	556.38
527.57	522.38
527.785	531.38
527.999	509.38
528.214	531.38
528.429	525.38
528.644	540.38
528.859	534.38
529.074	518.38
529.289	541.38
529.503	603.38
529.718	588.38
529.933	591.38
530.148	560.38
530.363	521.38
530.577	538.38
530.792	503.38
531.007	518.38
531.221	504.38
531.436	521.38
531.651	500.38
531.865	524.38
532.08	511.38
532.295	500.38
532.509	496.38
532.724	498.38
532.938	516.38
533.153	530.38
533.367	513.38
533.582	526.38
533.796	511.38
534.011	521.38
534.225	504.38
534.44	496.38
534.654	495.38
534.868	503.38
535.083	506.38
535.297	494.38
535.511	514.38
535.726	506.38
535.94	518.38
536.154	505.38
536.369	485.38
536.583	481.38
536.797	489.38
537.011	479.38
537.225	475.38
537.44	463.38
537.654	476.38
537.868	482.38
538.082	502.38
538.296	480.38
538.51	510.38
538.724	494.38
538.938	480.38
539.153	481.38
539.367	485.38
539.581	478.38
539.795	485.38
540.009	481.38
540.222	472.38
540.436	497.38
540.65	503.38
540.864	467.38
541.078	490.38
541.292	506.38
541.506	498.38
541.72	499.38
541.934	487.38
542.147	493.38
542.361	470.38
542.575	494.38
542.789	483.38
543.002	480.38
543.216	499.38
543.43	487.38
543.644	515.38
543.857	475.38
544.071	484.38
544.285	494.38
544.498	486.38
544.712	494.38
544.925	490.38
545.139	489.38
545.352	463.38
545.566	497.38
545.779	458.38
545.993	468.38
546.206	483.38
546.42	489.38
546.633	471.38
546.847	461.38
547.06	463.38
547.274	453.38
547.487	474.38
547.7	467.38
547.914	476.38
548.127	474.38
548.34	475.38
548.554	494.38
548.767	469.38
548.98	485.38
549.193	463.38
549.407	470.38
549.62	475.38
549.833	470.38
550.046	477.38
550.259	467.38
550.473	477.38
550.686	469.38
550.899	478.38
551.112	463.38
551.325	456.38
551.538	454.38
551.751	478.38
551.964	485.38
552.177	475.38
552.39	467.38
552.603	467.38
552.816	482.38
553.029	469.38
553.242	475.38
553.455	503.38
553.667	517.38
553.88	483.38
554.093	503.38
554.306	466.38
554.519	455.38
554.732	474.38
554.944	478.38
555.157	470.38
555.37	456.38
555.583	457.38
555.795	457.38
556.008	443.38
556.221	439.38
556.433	437.38
556.646	404.38
556.859	438.38
557.071	421.38
557.284	422.38
557.496	428.38
557.709	413.38
557.921	419.38
558.134	415.38
558.346	413.38
558.559	406.38
558.771	424.38
558.984	412.38
559.196	426.38
559.409	412.38
559.621	435.38
559.833	435.38
560.046	427.38
560.258	407.38
560.47	416.38
560.683	415.38
560.895	413.38
561.107	391.38
561.32	407.38
561.532	398.38
561.744	401.38
561.956	417.38
562.168	402.38
562.381	427.38
562.593	409.38
562.805	403.38
563.017	410.38
563.229	428.38
563.441	435.38
563.653	423.38
563.865	409.38
564.077	427.38
564.289	427.38
564.501	421.38
564.713	418.38
564.925	462.38
565.137	453.38
565.349	453.38
565.561	459.38
565.773	464.38
565.985	495.38
566.197	495.38
566.408	516.38
566.62	516.38
566.832	545.38
567.044	540.38
567.255	546.38
567.467	565.38
567.679	567.38
567.891	613.38
568.102	581.38
568.314	567.38
568.526	552.38
568.737	518.38
568.949	472.38
569.161	471.38
569.372	450.38
569.584	459.38
569.795	421.38
570.007	439.38
570.218	470.38
570.43	447.38
570.641	444.38
570.853	413.38
571.064	424.38
571.276	417.38
571.487	421.38
571.698	418.38
571.91	386.38
572.121	387.38
572.333	378.38
572.544	391.38
572.755	381.38
572.966	386.38
573.178	349.38
573.389	377.38
573.6	362.38
573.811	354.38
574.023	369.38
574.234	369.38
574.445	366.38
574.656	357.38
574.867	340.38
575.078	362.38
575.289	358.38
575.501	362.38
575.712	359.38
575.923	360.38
576.134	353.38
576.345	361.38
576.556	361.38
576.767	357.38
576.978	359.38
577.188	377.38
577.399	335.38
577.61	343.38
577.821	349.38
578.032	345.38
578.243	370.38
578.454	538.38
578.665	429.38
578.875	351.38
579.086	345.38
579.297	323.38
579.508	342.38
579.718	326.38
579.929	322.38
580.14	341.38
580.35	341.38
580.561	341.38
580.772	330.38
580.982	324.38
581.193	340.38
581.403	321.38
581.614	323.38
581.825	312.38
582.035	321.38
582.246	301.38
582.456	319.38
582.667	318.38
582.877	325.38
583.087	315.38
583.298	310.38
583.508	322.38
583.719	329.38
583.929	318.38
584.139	333.38
584.35	310.38
584.56	317.38
584.77	318.38
584.981	327.38
585.191	315.38
585.401	316.38
585.611	319.38
585.821	302.38
586.032	313.38
586.242	322.38
586.452	330.38
586.662	315.38
586.872	325.38
587.082	309.38
587.292	316.38
587.502	331.38
587.713	325.38
587.923	316.38
588.133	315.38
588.343	309.38
588.553	310.38
588.762	305.38
588.972	314.38
589.182	310.38
589.392	293.38
589.602	299.38
589.812	322.38
590.022	333.38
590.232	321.38
590.441	318.38
590.651	320.38
590.861	320.38
591.071	307.38
591.281	317.38
591.49	325.38
591.7	317.38
591.91	350.38
592.119	323.38
592.329	316.38
592.539	341.38
592.748	343.38
592.958	350.38
593.167	350.38
593.377	329.38
593.587	369.38
593.796	334.38
594.006	357.38
594.215	348.38
594.424	359.38
594.634	346.38
594.843	352.38
595.053	344.38
595.262	340.38
595.472	318.38
595.681	318.38
595.89	313.38
596.1	298.38
596.309	286.38
596.518	310.38
596.727	297.38
596.937	294.38
597.146	298.38
597.355	299.38
597.564	292.38
597.774	287.38
597.983	279.38
598.192	315.38
598.401	300.38
598.61	307.38
598.819	282.38
599.028	282.38
599.237	284.38
599.446	301.38
599.655	283.38
599.864	271.38
600.073	287.38
600.282	286.38
600.491	284.38
600.7	282.38
600.909	287.38
601.118	264.38
601.327	259.38
601.536	283.38
601.745	269.38
601.953	267.38
602.162	284.38
602.371	267.38
602.58	289.38
602.789	273.38
602.997	270.38
603.206	259.38
603.415	263.38
603.623	263.38
603.832	271.38
604.041	275.38
604.249	269.38
604.458	259.38
604.666	248.38
604.875	257.38
605.084	257.38
605.292	258.38
605.501	260.38
605.709	263.38
605.918	268.38
606.126	255.38
606.334	251.38
606.543	270.38
606.751	251.38
606.96	248.38
607.168	266.38
607.376	252.38
607.585	269.38
607.793	264.38
608.001	259.38
608.21	250.38
608.418	250.38
608.626	226.38
608.834	247.38
609.043	263.38
609.251	258.38
609.459	259.38
609.667	261.38
609.875	264.38
610.083	257.38
610.291	269.38
610.499	251.38
610.707	245.38
610.916	270.38
611.124	270.38
611.332	276.38
611.54	270.38
611.748	255.38
611.955	254.38
612.163	241.38
612.371	254.38
612.579	263.38
612.787	247.38
612.995	245.38
613.203	258.38
613.411	249.38
613.618	255.38
613.826	249.38
614.034	252.38
614.242	248.38
614.449	241.38
614.657	246.38
614.865	249.38
615.072	253.38
615.28	253.38
615.488	263.38
615.695	261.38
615.903	271.38
616.111	249.38
616.318	269.38
616.526	263.38
616.733	257.38
616.941	236.38
617.148	238.38
617.356	252.38
617.563	258.38
617.771	251.38
617.978	257.38
618.185	243.38
618.393	244.38
618.6	244.38
618.807	244.38
619.015	242.38
619.222	246.38
619.429	257.38
619.637	259.38
619.844	241.38
620.051	242.38
620.258	240.38
620.466	226.38
620.673	224.38
620.88	225.38
621.087	225.38
621.294	244.38
621.501	230.38
621.708	231.38
621.915	250.38
622.122	223.38
622.329	248.38
622.536	245.38
622.743	232.38
622.95	232.38
623.157	234.38
623.364	214.38
623.571	218.38
623.778	227.38
623.985	232.38
624.192	232.38
624.399	238.38
624.606	233.38
624.812	224.38
625.019	242.38
625.226	217.38
625.433	244.38
625.639	216.38
625.846	230.38
626.053	223.38
626.259	217.38
626.466	216.38
626.673	219.38
626.879	218.38
627.086	223.38
627.293	209.38
627.499	211.38
627.706	206.38
627.912	202.38
628.119	214.38
628.325	223.38
628.532	222.38
628.738	225.38
628.945	218.38
629.151	227.38
629.357	212.38
629.564	232.38
629.77	213.38
629.976	215.38
630.183	211.38
630.389	194.38
630.595	203.38
630.802	212.38
631.008	212.38
631.214	210.38
631.42	209.38
631.627	198.38
631.833	203.38
632.039	194.38
632.245	207.38
632.451	215.38
632.657	213.38
632.863	203.38
633.069	214.38
633.275	199.38
633.481	195.38
633.688	190.38
633.893	185.38
634.099	188.38
634.305	192.38
634.511	195.38
634.717	194.38
634.923	194.38
635.129	194.38
635.335	201.38
635.541	179.38
635.747	187.38
635.952	193.38
636.158	201.38
636.364	186.38
636.57	193.38
636.775	205.38
636.981	180.38
637.187	185.38
637.392	192.38
637.598	174.38
637.804	193.38
638.009	189.38
638.215	202.38
638.421	196.38
638.626	182.38
638.832	185.38
639.037	197.38
639.243	203.38
639.448	190.38
639.654	185.38
639.859	175.38
640.065	187.38
640.27	186.38
640.475	179.38
640.681	169.38
640.886	199.38
641.091	187.38
641.297	183.38
641.502	165.38
641.707	186.38
641.913	174.38
642.118	159.38
642.323	171.38
642.528	185.38
642.733	183.38
642.939	172.38
643.144	178.38
643.349	167.38
643.554	187.38
643.759	167.38
643.964	177.38
644.169	179.38
644.374	170.38
644.579	166.38
644.784	175.38
644.989	171.38
645.194	178.38
645.399	186.38
645.604	186.38
645.809	172.38
646.014	183.38
646.219	189.38
646.423	173.38
646.628	166.38
646.833	178.38
647.038	184.38
647.243	172.38
647.447	161.38
647.652	161.38
647.857	183.38
648.062	180.38
648.266	181.38
648.471	181.38
648.676	164.38
648.88	189.38
649.085	170.38
649.289	179.38
649.494	179.38
649.698	207.38
649.903	203.38
650.107	177.38
650.312	171.38
650.516	181.38
650.721	157.38
650.925	175.38
651.13	153.38
651.334	170.38
651.539	174.38
651.743	154.38
651.947	157.38
652.152	158.38
652.356	129.38
652.56	147.38
652.764	141.38
652.969	153.38
653.173	153.38
653.377	149.38
653.581	142.38
653.785	138.38
653.99	152.38
654.194	141.38
654.398	145.38
654.602	142.38
654.806	139.38
655.01	140.38
655.214	143.38
655.418	157.38
655.622	133.38
655.826	146.38
656.03	138.38
656.234	135.38
656.438	133.38
656.642	148.38
656.846	133.38
657.049	125.38
657.253	143.38
657.457	134.38
657.661	130.38
657.865	131.38
658.068	124.38
658.272	122.38
658.476	108.38
658.68	116.38
658.883	101.38
659.087	101.38
659.291	107.38
659.494	98.38
659.698	104.38
659.901	81.38
660.105	91.38
660.309	107.38
660.512	90.38
660.716	105.38
660.919	87.38
661.123	96.38
661.326	92.38
661.53	99.38
661.733	86.38
661.936	97.38
662.14	89.38
662.343	72.38
662.546	93.38
662.75	91.38
662.953	84.38
663.156	79.38
663.36	86.38
663.563	85.38
663.766	84.38
663.969	75.38
664.173	85.38
664.376	85.38
664.579	85.38
664.782	81.38
664.985	75.38
665.188	82.38
665.391	85.38
665.594	81.38
665.797	73.38
666	72.38
666.203	84.38
666.406	75.38
666.609	95.38
666.812	89.38
667.015	85.38
667.218	86.38
667.421	78.38
667.624	72.38
667.827	95.38
668.03	89.38
668.232	76.38
668.435	92.38
668.638	85.38
668.841	84.38
669.043	66.38
669.246	90.38
669.449	77.38
669.651	93.38
669.854	79.38
670.057	90.38
670.259	78.38
670.462	85.38
670.665	77.38
670.867	83.38
671.07	79.38
671.272	90.38
671.475	87.38
671.677	83.38
671.88	81.38
672.082	74.38
672.284	97.38
672.487	87.38
672.689	78.38
672.892	79.38
