Data from 1976.PennyLincolnUp.Lamp.En5.5.200Scan.071719.P1.Changed Mount._HRD10591_16-00-47-861.txt Node
Date: Thu Jul 18 16:00:47 EDT 2019
User: cochatt
Spectrometer: HR+D1059
Trigger mode: 1
Integration Time (sec): 1.000000E-1
Scans to average: 1
Electric dark correction enabled: true
Nonlinearity correction enabled: false
Boxcar width: 0
XAxis mode: Wavelengths
Number of Pixels in Spectrum: 2048
>>>>>Begin Spectral Data<<<<<
223.165	-17.62
223.4	-17.62
223.635	-17.62
223.869	-10.62
224.104	-12.62
224.338	-17.62
224.573	-5.62
224.808	-18.62
225.042	-10.62
225.277	2.38
225.511	-7.62
225.746	-2.62
225.98	1.38
226.215	26.38
226.449	11.38
226.683	8.38
226.918	25.38
227.152	28.38
227.387	34.38
227.621	38.38
227.856	46.38
228.09	43.38
228.324	56.38
228.559	57.38
228.793	57.38
229.027	97.38
229.262	107.38
229.496	108.38
229.73	124.38
229.964	141.38
230.199	133.38
230.433	122.38
230.667	117.38
230.901	104.38
231.136	103.38
231.37	105.38
231.604	111.38
231.838	110.38
232.072	122.38
232.306	116.38
232.541	113.38
232.775	116.38
233.009	124.38
233.243	112.38
233.477	117.38
233.711	119.38
233.945	110.38
234.179	112.38
234.413	130.38
234.647	110.38
234.881	109.38
235.115	120.38
235.349	102.38
235.583	125.38
235.817	111.38
236.051	129.38
236.285	145.38
236.519	117.38
236.753	143.38
236.987	144.38
237.221	185.38
237.455	218.38
237.689	164.38
237.922	145.38
238.156	131.38
238.39	139.38
238.624	132.38
238.858	130.38
239.091	129.38
239.325	133.38
239.559	138.38
239.793	146.38
240.027	135.38
240.26	136.38
240.494	159.38
240.728	163.38
240.961	154.38
241.195	146.38
241.429	162.38
241.662	129.38
241.896	139.38
242.13	143.38
242.363	135.38
242.597	151.38
242.83	137.38
243.064	131.38
243.298	147.38
243.531	134.38
243.765	131.38
243.998	145.38
244.232	128.38
244.465	123.38
244.699	160.38
244.932	151.38
245.166	153.38
245.399	157.38
245.633	156.38
245.866	150.38
246.099	157.38
246.333	149.38
246.566	160.38
246.8	155.38
247.033	149.38
247.266	162.38
247.5	161.38
247.733	164.38
247.966	189.38
248.2	176.38
248.433	173.38
248.666	180.38
248.899	181.38
249.133	203.38
249.366	217.38
249.599	200.38
249.832	186.38
250.066	180.38
250.299	184.38
250.532	199.38
250.765	199.38
250.998	220.38
251.231	217.38
251.465	209.38
251.698	218.38
251.931	189.38
252.164	191.38
252.397	184.38
252.63	189.38
252.863	215.38
253.096	213.38
253.329	221.38
253.562	229.38
253.795	191.38
254.028	230.38
254.261	205.38
254.494	216.38
254.727	268.38
254.96	276.38
255.193	271.38
255.426	258.38
255.659	234.38
255.892	227.38
256.124	244.38
256.357	229.38
256.59	221.38
256.823	221.38
257.056	223.38
257.289	225.38
257.521	220.38
257.754	208.38
257.987	215.38
258.22	223.38
258.452	214.38
258.685	218.38
258.918	225.38
259.151	223.38
259.383	218.38
259.616	233.38
259.849	223.38
260.081	235.38
260.314	261.38
260.547	251.38
260.779	238.38
261.012	221.38
261.244	219.38
261.477	220.38
261.71	214.38
261.942	251.38
262.175	243.38
262.407	233.38
262.64	206.38
262.872	212.38
263.105	228.38
263.337	220.38
263.57	229.38
263.802	230.38
264.035	208.38
264.267	218.38
264.499	213.38
264.732	230.38
264.964	218.38
265.197	227.38
265.429	233.38
265.661	225.38
265.894	240.38
266.126	246.38
266.358	233.38
266.591	209.38
266.823	254.38
267.055	245.38
267.287	247.38
267.52	231.38
267.752	243.38
267.984	235.38
268.216	249.38
268.448	244.38
268.681	241.38
268.913	255.38
269.145	272.38
269.377	284.38
269.609	287.38
269.841	272.38
270.073	268.38
270.306	306.38
270.538	319.38
270.77	322.38
271.002	303.38
271.234	300.38
271.466	286.38
271.698	331.38
271.93	315.38
272.162	331.38
272.394	331.38
272.626	300.38
272.858	307.38
273.09	288.38
273.322	278.38
273.553	282.38
273.785	273.38
274.017	281.38
274.249	268.38
274.481	277.38
274.713	283.38
274.945	285.38
275.176	288.38
275.408	287.38
275.64	273.38
275.872	275.38
276.104	285.38
276.335	281.38
276.567	279.38
276.799	308.38
277.031	323.38
277.262	330.38
277.494	326.38
277.726	313.38
277.957	301.38
278.189	287.38
278.421	278.38
278.652	276.38
278.884	303.38
279.115	264.38
279.347	307.38
279.579	294.38
279.81	301.38
280.042	294.38
280.273	290.38
280.505	281.38
280.736	292.38
280.968	295.38
281.199	277.38
281.431	292.38
281.662	284.38
281.894	281.38
282.125	300.38
282.356	310.38
282.588	329.38
282.819	316.38
283.051	295.38
283.282	300.38
283.513	286.38
283.745	298.38
283.976	296.38
284.207	299.38
284.439	305.38
284.67	314.38
284.901	296.38
285.132	288.38
285.364	311.38
285.595	302.38
285.826	299.38
286.057	291.38
286.288	297.38
286.52	297.38
286.751	294.38
286.982	302.38
287.213	298.38
287.444	312.38
287.675	302.38
287.906	317.38
288.138	325.38
288.369	312.38
288.6	328.38
288.831	318.38
289.062	310.38
289.293	297.38
289.524	303.38
289.755	308.38
289.986	318.38
290.217	309.38
290.448	321.38
290.679	307.38
290.91	316.38
291.141	310.38
291.371	311.38
291.602	304.38
291.833	324.38
292.064	315.38
292.295	308.38
292.526	307.38
292.757	310.38
292.987	320.38
293.218	289.38
293.449	309.38
293.68	301.38
293.91	327.38
294.141	321.38
294.372	313.38
294.603	316.38
294.833	327.38
295.064	309.38
295.295	318.38
295.525	329.38
295.756	322.38
295.987	335.38
296.217	355.38
296.448	329.38
296.679	335.38
296.909	327.38
297.14	328.38
297.37	335.38
297.601	326.38
297.831	326.38
298.062	329.38
298.292	321.38
298.523	321.38
298.753	347.38
298.984	335.38
299.214	325.38
299.445	346.38
299.675	324.38
299.905	326.38
300.136	323.38
300.366	341.38
300.597	341.38
300.827	344.38
301.057	363.38
301.288	346.38
301.518	362.38
301.748	325.38
301.979	349.38
302.209	346.38
302.439	348.38
302.669	355.38
302.9	345.38
303.13	355.38
303.36	362.38
303.59	368.38
303.82	380.38
304.051	363.38
304.281	356.38
304.511	360.38
304.741	351.38
304.971	352.38
305.201	343.38
305.431	368.38
305.661	328.38
305.891	342.38
306.121	353.38
306.352	353.38
306.582	364.38
306.812	344.38
307.042	363.38
307.272	366.38
307.502	345.38
307.731	355.38
307.961	342.38
308.191	352.38
308.421	368.38
308.651	363.38
308.881	347.38
309.111	352.38
309.341	336.38
309.571	375.38
309.8	360.38
310.03	383.38
310.26	383.38
310.49	389.38
310.72	389.38
310.949	394.38
311.179	398.38
311.409	383.38
311.639	382.38
311.868	379.38
312.098	398.38
312.328	393.38
312.557	416.38
312.787	418.38
313.017	423.38
313.246	378.38
313.476	379.38
313.706	410.38
313.935	394.38
314.165	425.38
314.394	427.38
314.624	408.38
314.853	407.38
315.083	397.38
315.312	395.38
315.542	394.38
315.771	379.38
316.001	400.38
316.23	385.38
316.46	396.38
316.689	397.38
316.919	381.38
317.148	404.38
317.377	388.38
317.607	402.38
317.836	406.38
318.065	392.38
318.295	387.38
318.524	389.38
318.753	365.38
318.983	389.38
319.212	400.38
319.441	414.38
319.67	405.38
319.9	405.38
320.129	399.38
320.358	389.38
320.587	399.38
320.816	409.38
321.046	407.38
321.275	421.38
321.504	403.38
321.733	422.38
321.962	419.38
322.191	430.38
322.42	430.38
322.649	425.38
322.878	437.38
323.108	457.38
323.337	457.38
323.566	472.38
323.795	497.38
324.024	526.38
324.253	601.38
324.482	864.38
324.71	1287.38
324.939	1868.38
325.168	1607.38
325.397	839.38
325.626	600.38
325.855	520.38
326.084	503.38
326.313	474.38
326.542	489.38
326.77	525.38
326.999	604.38
327.228	782.38
327.457	1147.38
327.686	1395.38
327.914	925.38
328.143	665.38
328.372	592.38
328.6	545.38
328.829	544.38
329.058	547.38
329.287	542.38
329.515	540.38
329.744	492.38
329.972	505.38
330.201	516.38
330.43	562.38
330.658	538.38
330.887	589.38
331.115	568.38
331.344	527.38
331.572	489.38
331.801	489.38
332.03	492.38
332.258	476.38
332.486	469.38
332.715	488.38
332.943	483.38
333.172	501.38
333.4	465.38
333.629	503.38
333.857	506.38
334.085	542.38
334.314	527.38
334.542	559.38
334.771	573.38
334.999	541.38
335.227	505.38
335.455	488.38
335.684	478.38
335.912	468.38
336.14	464.38
336.369	474.38
336.597	494.38
336.825	478.38
337.053	475.38
337.281	469.38
337.51	465.38
337.738	453.38
337.966	463.38
338.194	483.38
338.422	454.38
338.65	464.38
338.878	468.38
339.106	439.38
339.334	446.38
339.562	481.38
339.79	463.38
340.018	450.38
340.246	449.38
340.474	457.38
340.702	448.38
340.93	451.38
341.158	424.38
341.386	445.38
341.614	449.38
341.842	463.38
342.07	437.38
342.298	435.38
342.526	435.38
342.754	424.38
342.981	449.38
343.209	433.38
343.437	477.38
343.665	442.38
343.893	479.38
344.12	480.38
344.348	453.38
344.576	475.38
344.804	455.38
345.031	470.38
345.259	479.38
345.487	463.38
345.714	440.38
345.942	406.38
346.17	436.38
346.397	443.38
346.625	423.38
346.853	415.38
347.08	429.38
347.308	410.38
347.535	432.38
347.763	441.38
347.99	437.38
348.218	431.38
348.445	439.38
348.673	433.38
348.9	428.38
349.128	439.38
349.355	427.38
349.583	429.38
349.81	403.38
350.037	424.38
350.265	415.38
350.492	414.38
350.72	413.38
350.947	424.38
351.174	437.38
351.402	436.38
351.629	430.38
351.856	442.38
352.083	423.38
352.311	439.38
352.538	449.38
352.765	440.38
352.992	439.38
353.22	425.38
353.447	415.38
353.674	411.38
353.901	392.38
354.128	424.38
354.355	407.38
354.583	411.38
354.81	409.38
355.037	402.38
355.264	425.38
355.491	400.38
355.718	395.38
355.945	402.38
356.172	424.38
356.399	401.38
356.626	401.38
356.853	429.38
357.08	415.38
357.307	399.38
357.534	399.38
357.761	405.38
357.988	389.38
358.215	405.38
358.441	399.38
358.668	387.38
358.895	405.38
359.122	424.38
359.349	416.38
359.576	422.38
359.802	457.38
360.029	456.38
360.256	503.38
360.483	449.38
360.709	423.38
360.936	425.38
361.163	433.38
361.39	436.38
361.616	445.38
361.843	430.38
362.07	413.38
362.296	423.38
362.523	447.38
362.749	427.38
362.976	406.38
363.203	397.38
363.429	420.38
363.656	417.38
363.882	413.38
364.109	426.38
364.335	417.38
364.562	410.38
364.788	413.38
365.015	428.38
365.241	424.38
365.468	425.38
365.694	414.38
365.92	435.38
366.147	425.38
366.373	405.38
366.599	404.38
366.826	414.38
367.052	400.38
367.278	400.38
367.505	421.38
367.731	424.38
367.957	429.38
368.184	439.38
368.41	407.38
368.636	436.38
368.862	430.38
369.089	444.38
369.315	408.38
369.541	413.38
369.767	437.38
369.993	420.38
370.219	395.38
370.445	408.38
370.672	425.38
370.898	421.38
371.124	426.38
371.35	421.38
371.576	431.38
371.802	425.38
372.028	433.38
372.254	437.38
372.48	433.38
372.706	431.38
372.932	439.38
373.158	433.38
373.384	431.38
373.61	424.38
373.835	435.38
374.061	433.38
374.287	439.38
374.513	431.38
374.739	427.38
374.965	421.38
375.191	422.38
375.416	466.38
375.642	429.38
375.868	444.38
376.094	428.38
376.319	422.38
376.545	425.38
376.771	426.38
376.997	421.38
377.222	412.38
377.448	419.38
377.674	416.38
377.899	428.38
378.125	413.38
378.35	418.38
378.576	408.38
378.802	399.38
379.027	409.38
379.253	420.38
379.478	435.38
379.704	423.38
379.929	420.38
380.155	432.38
380.38	440.38
380.606	417.38
380.831	429.38
381.057	440.38
381.282	419.38
381.507	435.38
381.733	437.38
381.958	422.38
382.184	441.38
382.409	455.38
382.634	443.38
382.86	447.38
383.085	426.38
383.31	435.38
383.535	422.38
383.761	451.38
383.986	455.38
384.211	444.38
384.436	471.38
384.662	457.38
384.887	477.38
385.112	464.38
385.337	447.38
385.562	451.38
385.787	462.38
386.013	466.38
386.238	480.38
386.463	484.38
386.688	465.38
386.913	460.38
387.138	456.38
387.363	480.38
387.588	473.38
387.813	477.38
388.038	468.38
388.263	462.38
388.488	463.38
388.713	460.38
388.938	463.38
389.163	456.38
389.387	484.38
389.612	470.38
389.837	444.38
390.062	471.38
390.287	455.38
390.512	459.38
390.736	484.38
390.961	479.38
391.186	475.38
391.411	472.38
391.636	489.38
391.86	479.38
392.085	504.38
392.31	499.38
392.534	477.38
392.759	464.38
392.984	485.38
393.208	464.38
393.433	475.38
393.658	488.38
393.882	486.38
394.107	469.38
394.331	465.38
394.556	475.38
394.78	490.38
395.005	499.38
395.229	495.38
395.454	482.38
395.678	503.38
395.903	512.38
396.127	525.38
396.352	509.38
396.576	492.38
396.801	465.38
397.025	482.38
397.249	485.38
397.474	506.38
397.698	484.38
397.922	527.38
398.147	531.38
398.371	555.38
398.595	524.38
398.82	547.38
399.044	567.38
399.268	592.38
399.492	627.38
399.717	659.38
399.941	686.38
400.165	702.38
400.389	694.38
400.613	625.38
400.837	585.38
401.062	564.38
401.286	577.38
401.51	535.38
401.734	575.38
401.958	551.38
402.182	559.38
402.406	571.38
402.63	571.38
402.854	550.38
403.078	553.38
403.302	548.38
403.526	564.38
403.75	583.38
403.974	557.38
404.198	560.38
404.422	579.38
404.645	574.38
404.869	571.38
405.093	623.38
405.317	667.38
405.541	692.38
405.765	612.38
405.988	617.38
406.212	603.38
406.436	628.38
406.66	629.38
406.883	608.38
407.107	659.38
407.331	666.38
407.555	753.38
407.778	745.38
408.002	679.38
408.226	643.38
408.449	622.38
408.673	637.38
408.896	667.38
409.12	682.38
409.344	658.38
409.567	595.38
409.791	601.38
410.014	574.38
410.238	575.38
410.461	567.38
410.685	578.38
410.908	587.38
411.132	620.38
411.355	621.38
411.578	609.38
411.802	569.38
412.025	562.38
412.249	556.38
412.472	608.38
412.695	637.38
412.919	633.38
413.142	590.38
413.365	569.38
413.589	541.38
413.812	545.38
414.035	568.38
414.258	556.38
414.482	531.38
414.705	531.38
414.928	540.38
415.151	533.38
415.374	525.38
415.597	537.38
415.821	538.38
416.044	516.38
416.267	536.38
416.49	510.38
416.713	532.38
416.936	541.38
417.159	544.38
417.382	540.38
417.605	552.38
417.828	551.38
418.051	549.38
418.274	561.38
418.497	532.38
418.72	538.38
418.943	541.38
419.166	545.38
419.389	565.38
419.611	587.38
419.834	577.38
420.057	571.38
420.28	567.38
420.503	573.38
420.726	554.38
420.948	557.38
421.171	610.38
421.394	638.38
421.617	573.38
421.839	539.38
422.062	544.38
422.285	572.38
422.507	624.38
422.73	684.38
422.953	663.38
423.175	571.38
423.398	567.38
423.621	572.38
423.843	588.38
424.066	606.38
424.288	599.38
424.511	597.38
424.733	658.38
424.956	740.38
425.178	710.38
425.401	703.38
425.623	762.38
425.846	645.38
426.068	585.38
426.291	579.38
426.513	564.38
426.735	583.38
426.958	632.38
427.18	692.38
427.402	850.38
427.625	910.38
427.847	745.38
428.069	679.38
428.292	624.38
428.514	570.38
428.736	565.38
428.958	544.38
429.181	553.38
429.403	530.38
429.625	545.38
429.847	567.38
430.069	617.38
430.292	608.38
430.514	557.38
430.736	551.38
430.958	533.38
431.18	523.38
431.402	545.38
431.624	529.38
431.846	517.38
432.068	511.38
432.29	529.38
432.512	507.38
432.734	520.38
432.956	521.38
433.178	550.38
433.4	553.38
433.622	526.38
433.844	528.38
434.066	524.38
434.287	497.38
434.509	501.38
434.731	549.38
434.953	549.38
435.175	542.38
435.397	567.38
435.618	601.38
435.84	617.38
436.062	718.38
436.284	775.38
436.505	637.38
436.727	585.38
436.949	547.38
437.17	526.38
437.392	515.38
437.614	544.38
437.835	591.38
438.057	656.38
438.278	757.38
438.5	769.38
438.721	848.38
438.943	797.38
439.165	633.38
439.386	592.38
439.608	604.38
439.829	570.38
440.05	615.38
440.272	621.38
440.493	596.38
440.715	572.38
440.936	545.38
441.158	580.38
441.379	576.38
441.6	557.38
441.822	580.38
442.043	612.38
442.264	697.38
442.486	752.38
442.707	637.38
442.928	603.38
443.149	579.38
443.371	614.38
443.592	681.38
443.813	757.38
444.034	807.38
444.255	697.38
444.476	636.38
444.698	613.38
444.919	629.38
445.14	750.38
445.361	649.38
445.582	641.38
445.803	687.38
446.024	782.38
446.245	777.38
446.466	737.38
446.687	622.38
446.908	584.38
447.129	549.38
447.35	548.38
447.571	543.38
447.792	521.38
448.013	514.38
448.234	537.38
448.455	598.38
448.675	689.38
448.896	831.38
449.117	704.38
449.338	666.38
449.559	749.38
449.779	869.38
450	684.38
450.221	589.38
450.442	542.38
450.662	503.38
450.883	526.38
451.104	501.38
451.324	519.38
451.545	484.38
451.766	497.38
451.986	462.38
452.207	472.38
452.428	465.38
452.648	473.38
452.869	478.38
453.089	469.38
453.31	501.38
453.53	464.38
453.751	488.38
453.971	470.38
454.192	475.38
454.412	500.38
454.633	464.38
454.853	456.38
455.073	465.38
455.294	492.38
455.514	569.38
455.734	553.38
455.955	469.38
456.175	454.38
456.395	441.38
456.616	451.38
456.836	445.38
457.056	476.38
457.276	441.38
457.497	447.38
457.717	472.38
457.937	444.38
458.157	473.38
458.377	465.38
458.598	491.38
458.818	551.38
459.038	619.38
459.258	638.38
459.478	536.38
459.698	502.38
459.918	503.38
460.138	504.38
460.358	523.38
460.578	532.38
460.798	511.38
461.018	565.38
461.238	551.38
461.458	520.38
461.678	519.38
461.898	541.38
462.118	553.38
462.338	566.38
462.558	571.38
462.777	579.38
462.997	591.38
463.217	625.38
463.437	614.38
463.657	608.38
463.876	590.38
464.096	586.38
464.316	589.38
464.536	589.38
464.755	589.38
464.975	587.38
465.195	595.38
465.414	633.38
465.634	576.38
465.854	542.38
466.073	523.38
466.293	524.38
466.512	528.38
466.732	507.38
466.951	484.38
467.171	499.38
467.391	479.38
467.61	505.38
467.829	521.38
468.049	505.38
468.268	503.38
468.488	481.38
468.707	502.38
468.927	480.38
469.146	485.38
469.365	466.38
469.585	473.38
469.804	491.38
470.023	494.38
470.243	516.38
470.462	503.38
470.681	485.38
470.901	511.38
471.12	504.38
471.339	491.38
471.558	529.38
471.777	513.38
471.997	488.38
472.216	491.38
472.435	544.38
472.654	511.38
472.873	501.38
473.092	506.38
473.311	485.38
473.53	513.38
473.749	459.38
473.968	539.38
474.187	629.38
474.406	637.38
474.625	559.38
474.844	503.38
475.063	481.38
475.282	498.38
475.501	509.38
475.72	496.38
475.939	501.38
476.158	511.38
476.377	520.38
476.596	504.38
476.814	532.38
477.033	520.38
477.252	523.38
477.471	537.38
477.69	534.38
477.908	548.38
478.127	543.38
478.346	555.38
478.564	571.38
478.783	567.38
479.002	560.38
479.22	564.38
479.439	605.38
479.658	614.38
479.876	607.38
480.095	600.38
480.313	624.38
480.532	627.38
480.751	606.38
480.969	619.38
481.188	664.38
481.406	661.38
481.624	607.38
481.843	587.38
482.061	578.38
482.28	578.38
482.498	555.38
482.717	585.38
482.935	570.38
483.153	568.38
483.372	591.38
483.59	580.38
483.808	583.38
484.027	592.38
484.245	593.38
484.463	557.38
484.681	593.38
484.9	589.38
485.118	595.38
485.336	560.38
485.554	599.38
485.772	607.38
485.99	604.38
486.209	622.38
486.427	623.38
486.645	612.38
486.863	623.38
487.081	612.38
487.299	600.38
487.517	613.38
487.735	614.38
487.953	624.38
488.171	626.38
488.389	618.38
488.607	604.38
488.825	616.38
489.043	601.38
489.261	634.38
489.479	618.38
489.696	623.38
489.914	633.38
490.132	623.38
490.35	641.38
490.568	655.38
490.786	644.38
491.003	640.38
491.221	656.38
491.439	671.38
491.657	696.38
491.874	703.38
492.092	720.38
492.31	726.38
492.527	735.38
492.745	704.38
492.963	712.38
493.18	715.38
493.398	708.38
493.615	719.38
493.833	711.38
494.05	730.38
494.268	705.38
494.485	715.38
494.703	715.38
494.92	718.38
495.138	719.38
495.355	732.38
495.573	719.38
495.79	713.38
496.008	712.38
496.225	720.38
496.442	739.38
496.66	744.38
496.877	737.38
497.094	747.38
497.312	749.38
497.529	773.38
497.746	763.38
497.963	776.38
498.181	789.38
498.398	819.38
498.615	823.38
498.832	863.38
499.049	900.38
499.267	925.38
499.484	937.38
499.701	1024.38
499.918	1012.38
500.135	1075.38
500.352	1157.38
500.569	1199.38
500.786	1170.38
501.003	1168.38
501.22	1092.38
501.437	1019.38
501.654	998.38
501.871	951.38
502.088	923.38
502.305	889.38
502.522	865.38
502.739	832.38
502.956	841.38
503.172	781.38
503.389	774.38
503.606	765.38
503.823	763.38
504.04	726.38
504.256	753.38
504.473	762.38
504.69	768.38
504.907	744.38
505.123	739.38
505.34	702.38
505.557	687.38
505.773	695.38
505.99	678.38
506.207	712.38
506.423	705.38
506.64	683.38
506.856	695.38
507.073	670.38
507.289	650.38
507.506	683.38
507.722	652.38
507.939	673.38
508.155	635.38
508.372	652.38
508.588	617.38
508.805	632.38
509.021	636.38
509.238	668.38
509.454	681.38
509.67	627.38
509.887	641.38
510.103	643.38
510.319	642.38
510.536	712.38
510.752	1055.38
510.968	873.38
511.184	640.38
511.401	629.38
511.617	612.38
511.833	616.38
512.049	627.38
512.265	619.38
512.481	591.38
512.698	611.38
512.914	603.38
513.13	616.38
513.346	599.38
513.562	591.38
513.778	600.38
513.994	605.38
514.21	623.38
514.426	631.38
514.642	645.38
514.858	672.38
515.074	692.38
515.29	779.38
515.506	1037.38
515.721	848.38
515.937	703.38
516.153	659.38
516.369	655.38
516.585	648.38
516.801	637.38
517.016	657.38
517.232	655.38
517.448	660.38
517.664	647.38
517.879	668.38
518.095	653.38
518.311	655.38
518.527	667.38
518.742	645.38
518.958	624.38
519.173	618.38
519.389	637.38
519.605	612.38
519.82	641.38
520.036	639.38
520.251	634.38
520.467	641.38
520.682	635.38
520.898	645.38
521.113	641.38
521.329	657.38
521.544	737.38
521.76	836.38
521.975	1306.38
522.19	1255.38
522.406	803.38
522.621	653.38
522.836	601.38
523.052	581.38
523.267	577.38
523.482	571.38
523.698	575.38
523.913	573.38
524.128	552.38
524.343	535.38
524.559	557.38
524.774	555.38
524.989	540.38
525.204	533.38
525.419	541.38
525.634	530.38
525.849	537.38
526.064	512.38
526.28	512.38
526.495	523.38
526.71	504.38
526.925	509.38
527.14	524.38
527.355	510.38
527.57	504.38
527.785	503.38
527.999	504.38
528.214	521.38
528.429	516.38
528.644	544.38
528.859	514.38
529.074	492.38
529.289	519.38
529.503	579.38
529.718	552.38
529.933	537.38
530.148	517.38
530.363	520.38
530.577	522.38
530.792	520.38
531.007	511.38
531.221	483.38
531.436	503.38
531.651	463.38
531.865	502.38
532.08	473.38
532.295	491.38
532.509	488.38
532.724	483.38
532.938	476.38
533.153	473.38
533.367	494.38
533.582	504.38
533.796	483.38
534.011	490.38
534.225	479.38
534.44	493.38
534.654	490.38
534.868	479.38
535.083	489.38
535.297	502.38
535.511	469.38
535.726	503.38
535.94	480.38
536.154	483.38
536.369	475.38
536.583	483.38
536.797	471.38
537.011	479.38
537.225	470.38
537.44	456.38
537.654	476.38
537.868	449.38
538.082	469.38
538.296	472.38
538.51	485.38
538.724	469.38
538.938	468.38
539.153	451.38
539.367	484.38
539.581	471.38
539.795	473.38
540.009	484.38
540.222	458.38
540.436	449.38
540.65	455.38
540.864	486.38
541.078	497.38
541.292	484.38
541.506	469.38
541.72	469.38
541.934	463.38
542.147	485.38
542.361	465.38
542.575	471.38
542.789	444.38
543.002	459.38
543.216	493.38
543.43	474.38
543.644	451.38
543.857	462.38
544.071	455.38
544.285	494.38
544.498	468.38
544.712	447.38
544.925	444.38
545.139	455.38
545.352	477.38
545.566	459.38
545.779	456.38
545.993	461.38
546.206	453.38
546.42	428.38
546.633	461.38
546.847	439.38
547.06	462.38
547.274	446.38
547.487	442.38
547.7	455.38
547.914	456.38
548.127	449.38
548.34	468.38
548.554	438.38
548.767	467.38
548.98	456.38
549.193	466.38
549.407	468.38
549.62	465.38
549.833	481.38
550.046	451.38
550.259	460.38
550.473	470.38
550.686	469.38
550.899	474.38
551.112	475.38
551.325	442.38
551.538	442.38
551.751	445.38
551.964	451.38
552.177	448.38
552.39	456.38
552.603	455.38
552.816	460.38
553.029	463.38
553.242	468.38
553.455	469.38
553.667	486.38
553.88	507.38
554.093	476.38
554.306	459.38
554.519	453.38
554.732	449.38
554.944	449.38
555.157	441.38
555.37	454.38
555.583	423.38
555.795	449.38
556.008	432.38
556.221	419.38
556.433	411.38
556.646	412.38
556.859	422.38
557.071	387.38
557.284	407.38
557.496	416.38
557.709	435.38
557.921	414.38
558.134	407.38
558.346	416.38
558.559	399.38
558.771	399.38
558.984	416.38
559.196	393.38
559.409	391.38
559.621	407.38
559.833	401.38
560.046	412.38
560.258	413.38
560.47	399.38
560.683	413.38
560.895	401.38
561.107	394.38
561.32	402.38
561.532	401.38
561.744	419.38
561.956	412.38
562.168	393.38
562.381	401.38
562.593	408.38
562.805	408.38
563.017	424.38
563.229	424.38
563.441	412.38
563.653	421.38
563.865	408.38
564.077	418.38
564.289	417.38
564.501	431.38
564.713	422.38
564.925	443.38
565.137	437.38
565.349	432.38
565.561	427.38
565.773	448.38
565.985	475.38
566.197	494.38
566.408	497.38
566.62	489.38
566.832	521.38
567.044	533.38
567.255	541.38
567.467	527.38
567.679	544.38
567.891	555.38
568.102	573.38
568.314	568.38
568.526	533.38
568.737	514.38
568.949	496.38
569.161	473.38
569.372	452.38
569.584	421.38
569.795	447.38
570.007	427.38
570.218	435.38
570.43	443.38
570.641	416.38
570.853	381.38
571.064	408.38
571.276	409.38
571.487	395.38
571.698	386.38
571.91	399.38
572.121	393.38
572.333	383.38
572.544	370.38
572.755	384.38
572.966	379.38
573.178	364.38
573.389	364.38
573.6	364.38
573.811	359.38
574.023	350.38
574.234	341.38
574.445	333.38
574.656	371.38
574.867	347.38
575.078	357.38
575.289	374.38
575.501	341.38
575.712	331.38
575.923	326.38
576.134	340.38
576.345	344.38
576.556	344.38
576.767	353.38
576.978	363.38
577.188	345.38
577.399	334.38
577.61	339.38
577.821	356.38
578.032	348.38
578.243	353.38
578.454	507.38
578.665	401.38
578.875	330.38
579.086	317.38
579.297	311.38
579.508	332.38
579.718	324.38
579.929	312.38
580.14	328.38
580.35	320.38
580.561	311.38
580.772	333.38
580.982	327.38
581.193	340.38
581.403	322.38
581.614	320.38
581.825	324.38
582.035	327.38
582.246	304.38
582.456	320.38
582.667	328.38
582.877	323.38
583.087	323.38
583.298	315.38
583.508	308.38
583.719	319.38
583.929	309.38
584.139	307.38
584.35	292.38
584.56	307.38
584.77	307.38
584.981	303.38
585.191	316.38
585.401	315.38
585.611	334.38
585.821	299.38
586.032	310.38
586.242	307.38
586.452	329.38
586.662	313.38
586.872	312.38
587.082	335.38
587.292	300.38
587.502	308.38
587.713	320.38
587.923	289.38
588.133	301.38
588.343	311.38
588.553	293.38
588.762	293.38
588.972	315.38
589.182	303.38
589.392	311.38
589.602	301.38
589.812	302.38
590.022	299.38
590.232	309.38
590.441	303.38
590.651	328.38
590.861	309.38
591.071	312.38
591.281	307.38
591.49	311.38
591.7	289.38
591.91	333.38
592.119	317.38
592.329	335.38
592.539	329.38
592.748	325.38
592.958	347.38
593.167	329.38
593.377	329.38
593.587	340.38
593.796	349.38
594.006	349.38
594.215	351.38
594.424	335.38
594.634	350.38
594.843	327.38
595.053	341.38
595.262	325.38
595.472	325.38
595.681	303.38
595.89	312.38
596.1	290.38
596.309	296.38
596.518	302.38
596.727	284.38
596.937	300.38
597.146	291.38
597.355	284.38
597.564	287.38
597.774	303.38
597.983	292.38
598.192	295.38
598.401	285.38
598.61	287.38
598.819	276.38
599.028	265.38
599.237	249.38
599.446	272.38
599.655	291.38
599.864	251.38
600.073	267.38
600.282	277.38
600.491	271.38
600.7	269.38
600.909	271.38
601.118	265.38
601.327	271.38
601.536	270.38
601.745	279.38
601.953	276.38
602.162	261.38
602.371	283.38
602.58	275.38
602.789	257.38
602.997	275.38
603.206	267.38
603.415	263.38
603.623	254.38
603.832	254.38
604.041	252.38
604.249	243.38
604.458	245.38
604.666	261.38
604.875	244.38
605.084	261.38
605.292	256.38
605.501	243.38
605.709	245.38
605.918	247.38
606.126	266.38
606.334	269.38
606.543	278.38
606.751	277.38
606.96	235.38
607.168	251.38
607.376	239.38
607.585	252.38
607.793	262.38
608.001	263.38
608.21	267.38
608.418	247.38
608.626	257.38
608.834	264.38
609.043	261.38
609.251	231.38
609.459	223.38
609.667	252.38
609.875	255.38
610.083	255.38
610.291	259.38
610.499	246.38
610.707	259.38
610.916	251.38
611.124	256.38
611.332	263.38
611.54	268.38
611.748	245.38
611.955	243.38
612.163	253.38
612.371	251.38
612.579	263.38
612.787	249.38
612.995	245.38
613.203	242.38
613.411	243.38
613.618	236.38
613.826	269.38
614.034	239.38
614.242	233.38
614.449	244.38
614.657	245.38
614.865	240.38
615.072	236.38
615.28	226.38
615.488	255.38
615.695	261.38
615.903	263.38
616.111	252.38
616.318	281.38
616.526	267.38
616.733	251.38
616.941	243.38
617.148	235.38
617.356	228.38
617.563	251.38
617.771	246.38
617.978	238.38
618.185	251.38
618.393	237.38
618.6	227.38
618.807	251.38
619.015	229.38
619.222	245.38
619.429	245.38
619.637	244.38
619.844	236.38
620.051	228.38
620.258	243.38
620.466	227.38
620.673	252.38
620.88	239.38
621.087	223.38
621.294	224.38
621.501	226.38
621.708	231.38
621.915	246.38
622.122	225.38
622.329	230.38
622.536	246.38
622.743	234.38
622.95	234.38
623.157	208.38
623.364	233.38
623.571	211.38
623.778	217.38
623.985	226.38
624.192	235.38
624.399	208.38
624.606	223.38
624.812	217.38
625.019	224.38
625.226	225.38
625.433	212.38
625.639	202.38
625.846	207.38
626.053	217.38
626.259	222.38
626.466	223.38
626.673	216.38
626.879	197.38
627.086	202.38
627.293	231.38
627.499	228.38
627.706	218.38
627.912	214.38
628.119	206.38
628.325	214.38
628.532	204.38
628.738	215.38
628.945	210.38
629.151	215.38
629.357	220.38
629.564	206.38
629.77	203.38
629.976	201.38
630.183	229.38
630.389	213.38
630.595	199.38
630.802	204.38
631.008	224.38
631.214	192.38
631.42	207.38
631.627	219.38
631.833	203.38
632.039	192.38
632.245	190.38
632.451	184.38
632.657	206.38
632.863	209.38
633.069	177.38
633.275	200.38
633.481	206.38
633.688	205.38
633.893	207.38
634.099	199.38
634.305	190.38
634.511	183.38
634.717	198.38
634.923	193.38
635.129	189.38
635.335	190.38
635.541	181.38
635.747	201.38
635.952	191.38
636.158	183.38
636.364	200.38
636.57	181.38
636.775	180.38
636.981	203.38
637.187	179.38
637.392	207.38
637.598	195.38
637.804	173.38
638.009	191.38
638.215	191.38
638.421	171.38
638.626	176.38
638.832	171.38
639.037	183.38
639.243	181.38
639.448	188.38
639.654	190.38
639.859	176.38
640.065	183.38
640.27	185.38
640.475	170.38
640.681	171.38
640.886	194.38
641.091	192.38
641.297	181.38
641.502	181.38
641.707	179.38
641.913	161.38
642.118	167.38
642.323	175.38
642.528	181.38
642.733	172.38
642.939	165.38
643.144	173.38
643.349	180.38
643.554	175.38
643.759	170.38
643.964	178.38
644.169	170.38
644.374	171.38
644.579	175.38
644.784	164.38
644.989	185.38
645.194	181.38
645.399	177.38
645.604	164.38
645.809	175.38
646.014	174.38
646.219	163.38
646.423	200.38
646.628	169.38
646.833	181.38
647.038	171.38
647.243	168.38
647.447	172.38
647.652	174.38
647.857	161.38
648.062	179.38
648.266	178.38
648.471	190.38
648.676	168.38
648.88	179.38
649.085	169.38
649.289	169.38
649.494	155.38
649.698	187.38
649.903	186.38
650.107	177.38
650.312	176.38
650.516	174.38
650.721	157.38
650.925	170.38
651.13	150.38
651.334	142.38
651.539	159.38
651.743	163.38
651.947	154.38
652.152	133.38
652.356	166.38
652.56	153.38
652.764	139.38
652.969	146.38
653.173	145.38
653.377	152.38
653.581	139.38
653.785	147.38
653.99	153.38
654.194	132.38
654.398	148.38
654.602	163.38
654.806	142.38
655.01	133.38
655.214	132.38
655.418	138.38
655.622	141.38
655.826	140.38
656.03	151.38
656.234	139.38
656.438	124.38
656.642	145.38
656.846	136.38
657.049	133.38
657.253	143.38
657.457	137.38
657.661	112.38
657.865	125.38
658.068	118.38
658.272	121.38
658.476	125.38
658.68	118.38
658.883	104.38
659.087	102.38
659.291	94.38
659.494	108.38
659.698	103.38
659.901	92.38
660.105	90.38
660.309	100.38
660.512	98.38
660.716	92.38
660.919	87.38
661.123	97.38
661.326	95.38
661.53	101.38
661.733	100.38
661.936	100.38
662.14	74.38
662.343	79.38
662.546	92.38
662.75	93.38
662.953	100.38
663.156	95.38
663.36	88.38
663.563	86.38
663.766	84.38
663.969	89.38
664.173	87.38
664.376	83.38
664.579	91.38
664.782	82.38
664.985	87.38
665.188	93.38
665.391	91.38
665.594	87.38
665.797	76.38
666	75.38
666.203	79.38
666.406	90.38
666.609	75.38
666.812	92.38
667.015	95.38
667.218	87.38
667.421	85.38
667.624	74.38
667.827	71.38
668.03	84.38
668.232	83.38
668.435	75.38
668.638	72.38
668.841	107.38
669.043	80.38
669.246	94.38
669.449	86.38
669.651	84.38
669.854	90.38
670.057	89.38
670.259	85.38
670.462	87.38
670.665	81.38
670.867	88.38
671.07	80.38
671.272	77.38
671.475	85.38
671.677	84.38
671.88	74.38
672.082	80.38
672.284	83.38
672.487	85.38
672.689	76.38
672.892	69.38
