Data from 1976.PennyLincolnUp.Lamp.En5.5.200Scan.071719.P1.Changed Mount._HRD10591_16-00-20-862.txt Node
Date: Thu Jul 18 16:00:20 EDT 2019
User: cochatt
Spectrometer: HR+D1059
Trigger mode: 1
Integration Time (sec): 1.000000E-1
Scans to average: 1
Electric dark correction enabled: true
Nonlinearity correction enabled: false
Boxcar width: 0
XAxis mode: Wavelengths
Number of Pixels in Spectrum: 2048
>>>>>Begin Spectral Data<<<<<
223.165	2.75
223.4	2.75
223.635	2.75
223.869	-9.25
224.104	-18.25
224.338	-12.25
224.573	-18.25
224.808	-6.25
225.042	-20.25
225.277	-11.25
225.511	-7.25
225.746	1.75
225.98	18.75
226.215	2.75
226.449	3.75
226.683	16.75
226.918	29.75
227.152	26.75
227.387	31.75
227.621	25.75
227.856	47.75
228.09	42.75
228.324	40.75
228.559	64.75
228.793	59.75
229.027	103.75
229.262	118.75
229.496	91.75
229.73	117.75
229.964	140.75
230.199	124.75
230.433	102.75
230.667	103.75
230.901	120.75
231.136	102.75
231.37	105.75
231.604	102.75
231.838	107.75
232.072	111.75
232.306	109.75
232.541	108.75
232.775	122.75
233.009	119.75
233.243	109.75
233.477	130.75
233.711	115.75
233.945	121.75
234.179	97.75
234.413	111.75
234.647	100.75
234.881	119.75
235.115	114.75
235.349	121.75
235.583	109.75
235.817	119.75
236.051	123.75
236.285	124.75
236.519	125.75
236.753	115.75
236.987	142.75
237.221	185.75
237.455	217.75
237.689	180.75
237.922	145.75
238.156	137.75
238.39	123.75
238.624	131.75
238.858	122.75
239.091	120.75
239.325	120.75
239.559	127.75
239.793	137.75
240.027	143.75
240.26	129.75
240.494	159.75
240.728	142.75
240.961	137.75
241.195	129.75
241.429	142.75
241.662	146.75
241.896	135.75
242.13	121.75
242.363	116.75
242.597	127.75
242.83	143.75
243.064	130.75
243.298	139.75
243.531	121.75
243.765	130.75
243.998	143.75
244.232	157.75
244.465	138.75
244.699	154.75
244.932	135.75
245.166	158.75
245.399	152.75
245.633	136.75
245.866	135.75
246.099	146.75
246.333	152.75
246.566	151.75
246.8	139.75
247.033	158.75
247.266	163.75
247.5	157.75
247.733	158.75
247.966	166.75
248.2	177.75
248.433	183.75
248.666	182.75
248.899	192.75
249.133	193.75
249.366	192.75
249.599	201.75
249.832	190.75
250.066	157.75
250.299	181.75
250.532	181.75
250.765	211.75
250.998	214.75
251.231	213.75
251.465	193.75
251.698	200.75
251.931	194.75
252.164	194.75
252.397	188.75
252.63	206.75
252.863	183.75
253.096	205.75
253.329	238.75
253.562	238.75
253.795	218.75
254.028	194.75
254.261	214.75
254.494	219.75
254.727	245.75
254.96	274.75
255.193	287.75
255.426	231.75
255.659	205.75
255.892	226.75
256.124	246.75
256.357	241.75
256.59	223.75
256.823	218.75
257.056	215.75
257.289	208.75
257.521	198.75
257.754	208.75
257.987	209.75
258.22	200.75
258.452	209.75
258.685	208.75
258.918	216.75
259.151	213.75
259.383	222.75
259.616	208.75
259.849	219.75
260.081	215.75
260.314	251.75
260.547	251.75
260.779	241.75
261.012	224.75
261.244	227.75
261.477	222.75
261.71	233.75
261.942	218.75
262.175	215.75
262.407	230.75
262.64	215.75
262.872	222.75
263.105	214.75
263.337	194.75
263.57	213.75
263.802	216.75
264.035	225.75
264.267	206.75
264.499	208.75
264.732	234.75
264.964	214.75
265.197	219.75
265.429	225.75
265.661	223.75
265.894	219.75
266.126	219.75
266.358	210.75
266.591	224.75
266.823	223.75
267.055	202.75
267.287	219.75
267.52	229.75
267.752	227.75
267.984	253.75
268.216	270.75
268.448	241.75
268.681	226.75
268.913	261.75
269.145	261.75
269.377	273.75
269.609	287.75
269.841	282.75
270.073	281.75
270.306	294.75
270.538	307.75
270.77	325.75
271.002	303.75
271.234	279.75
271.466	294.75
271.698	297.75
271.93	318.75
272.162	317.75
272.394	322.75
272.626	320.75
272.858	296.75
273.09	281.75
273.322	266.75
273.553	269.75
273.785	267.75
274.017	269.75
274.249	247.75
274.481	282.75
274.713	264.75
274.945	265.75
275.176	280.75
275.408	277.75
275.64	268.75
275.872	294.75
276.104	264.75
276.335	274.75
276.567	296.75
276.799	291.75
277.031	321.75
277.262	328.75
277.494	333.75
277.726	306.75
277.957	278.75
278.189	272.75
278.421	286.75
278.652	277.75
278.884	269.75
279.115	273.75
279.347	285.75
279.579	278.75
279.81	293.75
280.042	304.75
280.273	277.75
280.505	272.75
280.736	268.75
280.968	266.75
281.199	277.75
281.431	287.75
281.662	285.75
281.894	274.75
282.125	293.75
282.356	287.75
282.588	301.75
282.819	299.75
283.051	306.75
283.282	289.75
283.513	280.75
283.745	314.75
283.976	305.75
284.207	298.75
284.439	281.75
284.67	283.75
284.901	292.75
285.132	287.75
285.364	276.75
285.595	301.75
285.826	287.75
286.057	299.75
286.288	296.75
286.52	301.75
286.751	284.75
286.982	305.75
287.213	295.75
287.444	288.75
287.675	305.75
287.906	315.75
288.138	330.75
288.369	319.75
288.6	298.75
288.831	308.75
289.062	314.75
289.293	310.75
289.524	290.75
289.755	299.75
289.986	294.75
290.217	309.75
290.448	317.75
290.679	319.75
290.91	299.75
291.141	298.75
291.371	297.75
291.602	306.75
291.833	288.75
292.064	296.75
292.295	315.75
292.526	321.75
292.757	294.75
292.987	298.75
293.218	310.75
293.449	311.75
293.68	286.75
293.91	315.75
294.141	311.75
294.372	301.75
294.603	305.75
294.833	307.75
295.064	322.75
295.295	310.75
295.525	315.75
295.756	318.75
295.987	318.75
296.217	324.75
296.448	336.75
296.679	323.75
296.909	318.75
297.14	301.75
297.37	339.75
297.601	313.75
297.831	320.75
298.062	309.75
298.292	324.75
298.523	331.75
298.753	340.75
298.984	314.75
299.214	339.75
299.445	335.75
299.675	342.75
299.905	319.75
300.136	325.75
300.366	325.75
300.597	335.75
300.827	326.75
301.057	335.75
301.288	325.75
301.518	338.75
301.748	319.75
301.979	342.75
302.209	344.75
302.439	338.75
302.669	344.75
302.9	338.75
303.13	366.75
303.36	337.75
303.59	319.75
303.82	363.75
304.051	341.75
304.281	356.75
304.511	329.75
304.741	331.75
304.971	373.75
305.201	329.75
305.431	359.75
305.661	332.75
305.891	339.75
306.121	347.75
306.352	352.75
306.582	355.75
306.812	344.75
307.042	352.75
307.272	347.75
307.502	343.75
307.731	349.75
307.961	354.75
308.191	363.75
308.421	353.75
308.651	346.75
308.881	349.75
309.111	349.75
309.341	338.75
309.571	370.75
309.8	374.75
310.03	382.75
310.26	382.75
310.49	377.75
310.72	366.75
310.949	381.75
311.179	399.75
311.409	392.75
311.639	371.75
311.868	367.75
312.098	400.75
312.328	385.75
312.557	367.75
312.787	387.75
313.017	393.75
313.246	391.75
313.476	387.75
313.706	368.75
313.935	383.75
314.165	389.75
314.394	401.75
314.624	402.75
314.853	413.75
315.083	395.75
315.312	394.75
315.542	391.75
315.771	385.75
316.001	376.75
316.23	397.75
316.46	409.75
316.689	393.75
316.919	390.75
317.148	388.75
317.377	404.75
317.607	413.75
317.836	396.75
318.065	379.75
318.295	385.75
318.524	374.75
318.753	387.75
318.983	391.75
319.212	373.75
319.441	376.75
319.67	415.75
319.9	384.75
320.129	385.75
320.358	386.75
320.587	397.75
320.816	419.75
321.046	393.75
321.275	401.75
321.504	412.75
321.733	414.75
321.962	413.75
322.191	407.75
322.42	423.75
322.649	436.75
322.878	437.75
323.108	437.75
323.337	455.75
323.566	441.75
323.795	473.75
324.024	521.75
324.253	605.75
324.482	805.75
324.71	1230.75
324.939	1793.75
325.168	1565.75
325.397	794.75
325.626	550.75
325.855	485.75
326.084	474.75
326.313	475.75
326.542	479.75
326.77	526.75
326.999	592.75
327.228	765.75
327.457	1120.75
327.686	1365.75
327.914	906.75
328.143	633.75
328.372	536.75
328.6	537.75
328.829	521.75
329.058	520.75
329.287	544.75
329.515	518.75
329.744	494.75
329.972	483.75
330.201	490.75
330.43	541.75
330.658	565.75
330.887	562.75
331.115	537.75
331.344	507.75
331.572	490.75
331.801	474.75
332.03	489.75
332.258	462.75
332.486	455.75
332.715	458.75
332.943	471.75
333.172	478.75
333.4	478.75
333.629	498.75
333.857	504.75
334.085	507.75
334.314	520.75
334.542	538.75
334.771	543.75
334.999	521.75
335.227	486.75
335.455	480.75
335.684	469.75
335.912	480.75
336.14	477.75
336.369	451.75
336.597	465.75
336.825	468.75
337.053	460.75
337.281	470.75
337.51	435.75
337.738	442.75
337.966	449.75
338.194	470.75
338.422	447.75
338.65	446.75
338.878	456.75
339.106	461.75
339.334	454.75
339.562	443.75
339.79	454.75
340.018	457.75
340.246	449.75
340.474	435.75
340.702	434.75
340.93	456.75
341.158	446.75
341.386	431.75
341.614	431.75
341.842	426.75
342.07	420.75
342.298	443.75
342.526	429.75
342.754	413.75
342.981	434.75
343.209	430.75
343.437	441.75
343.665	457.75
343.893	471.75
344.12	461.75
344.348	463.75
344.576	455.75
344.804	454.75
345.031	459.75
345.259	461.75
345.487	453.75
345.714	445.75
345.942	437.75
346.17	438.75
346.397	418.75
346.625	429.75
346.853	413.75
347.08	426.75
347.308	433.75
347.535	429.75
347.763	447.75
347.99	438.75
348.218	432.75
348.445	447.75
348.673	427.75
348.9	433.75
349.128	418.75
349.355	412.75
349.583	420.75
349.81	418.75
350.037	405.75
350.265	424.75
350.492	390.75
350.72	407.75
350.947	403.75
351.174	421.75
351.402	416.75
351.629	410.75
351.856	416.75
352.083	437.75
352.311	453.75
352.538	438.75
352.765	416.75
352.992	423.75
353.22	415.75
353.447	419.75
353.674	432.75
353.901	397.75
354.128	423.75
354.355	400.75
354.583	396.75
354.81	409.75
355.037	393.75
355.264	408.75
355.491	401.75
355.718	391.75
355.945	408.75
356.172	401.75
356.399	385.75
356.626	410.75
356.853	401.75
357.08	404.75
357.307	409.75
357.534	405.75
357.761	388.75
357.988	402.75
358.215	396.75
358.441	390.75
358.668	421.75
358.895	415.75
359.122	401.75
359.349	411.75
359.576	437.75
359.802	430.75
360.029	436.75
360.256	445.75
360.483	425.75
360.709	422.75
360.936	440.75
361.163	413.75
361.39	418.75
361.616	433.75
361.843	402.75
362.07	408.75
362.296	399.75
362.523	408.75
362.749	437.75
362.976	433.75
363.203	414.75
363.429	401.75
363.656	407.75
363.882	398.75
364.109	418.75
364.335	413.75
364.562	399.75
364.788	395.75
365.015	414.75
365.241	429.75
365.468	401.75
365.694	432.75
365.92	405.75
366.147	400.75
366.373	405.75
366.599	426.75
366.826	402.75
367.052	398.75
367.278	420.75
367.505	431.75
367.731	406.75
367.957	435.75
368.184	392.75
368.41	390.75
368.636	394.75
368.862	423.75
369.089	420.75
369.315	421.75
369.541	409.75
369.767	414.75
369.993	429.75
370.219	401.75
370.445	427.75
370.672	409.75
370.898	402.75
371.124	395.75
371.35	430.75
371.576	424.75
371.802	403.75
372.028	418.75
372.254	418.75
372.48	414.75
372.706	423.75
372.932	429.75
373.158	425.75
373.384	429.75
373.61	438.75
373.835	440.75
374.061	413.75
374.287	417.75
374.513	425.75
374.739	418.75
374.965	431.75
375.191	439.75
375.416	441.75
375.642	416.75
375.868	431.75
376.094	426.75
376.319	398.75
376.545	421.75
376.771	401.75
376.997	423.75
377.222	424.75
377.448	413.75
377.674	400.75
377.899	401.75
378.125	408.75
378.35	422.75
378.576	404.75
378.802	425.75
379.027	403.75
379.253	408.75
379.478	421.75
379.704	437.75
379.929	391.75
380.155	408.75
380.38	422.75
380.606	432.75
380.831	427.75
381.057	429.75
381.282	411.75
381.507	412.75
381.733	420.75
381.958	418.75
382.184	435.75
382.409	433.75
382.634	431.75
382.86	422.75
383.085	440.75
383.31	430.75
383.535	446.75
383.761	425.75
383.986	445.75
384.211	447.75
384.436	440.75
384.662	432.75
384.887	468.75
385.112	453.75
385.337	467.75
385.562	461.75
385.787	458.75
386.013	474.75
386.238	480.75
386.463	468.75
386.688	466.75
386.913	439.75
387.138	478.75
387.363	465.75
387.588	450.75
387.813	465.75
388.038	469.75
388.263	471.75
388.488	493.75
388.713	464.75
388.938	453.75
389.163	462.75
389.387	451.75
389.612	446.75
389.837	450.75
390.062	460.75
390.287	465.75
390.512	448.75
390.736	452.75
390.961	459.75
391.186	473.75
391.411	456.75
391.636	481.75
391.86	480.75
392.085	494.75
392.31	476.75
392.534	493.75
392.759	485.75
392.984	459.75
393.208	456.75
393.433	471.75
393.658	473.75
393.882	470.75
394.107	478.75
394.331	470.75
394.556	473.75
394.78	474.75
395.005	482.75
395.229	483.75
395.454	496.75
395.678	483.75
395.903	521.75
396.127	519.75
396.352	511.75
396.576	487.75
396.801	517.75
397.025	496.75
397.249	478.75
397.474	493.75
397.698	517.75
397.922	508.75
398.147	522.75
398.371	537.75
398.595	532.75
398.82	523.75
399.044	536.75
399.268	608.75
399.492	626.75
399.717	669.75
399.941	689.75
400.165	675.75
400.389	687.75
400.613	622.75
400.837	573.75
401.062	573.75
401.286	558.75
401.51	561.75
401.734	544.75
401.958	565.75
402.182	569.75
402.406	556.75
402.63	558.75
402.854	557.75
403.078	536.75
403.302	549.75
403.526	560.75
403.75	574.75
403.974	580.75
404.198	593.75
404.422	563.75
404.645	565.75
404.869	576.75
405.093	595.75
405.317	633.75
405.541	678.75
405.765	615.75
405.988	595.75
406.212	601.75
406.436	614.75
406.66	649.75
406.883	602.75
407.107	637.75
407.331	693.75
407.555	743.75
407.778	752.75
408.002	676.75
408.226	624.75
408.449	634.75
408.673	640.75
408.896	638.75
409.12	693.75
409.344	640.75
409.567	590.75
409.791	587.75
410.014	552.75
410.238	584.75
410.461	582.75
410.685	588.75
410.908	568.75
411.132	614.75
411.355	634.75
411.578	612.75
411.802	576.75
412.025	550.75
412.249	572.75
412.472	586.75
412.695	628.75
412.919	621.75
413.142	552.75
413.365	557.75
413.589	557.75
413.812	546.75
414.035	535.75
414.258	538.75
414.482	536.75
414.705	531.75
414.928	527.75
415.151	512.75
415.374	523.75
415.597	547.75
415.821	531.75
416.044	545.75
416.267	554.75
416.49	535.75
416.713	527.75
416.936	534.75
417.159	520.75
417.382	532.75
417.605	539.75
417.828	526.75
418.051	560.75
418.274	571.75
418.497	525.75
418.72	537.75
418.943	543.75
419.166	561.75
419.389	583.75
419.611	554.75
419.834	549.75
420.057	552.75
420.28	574.75
420.503	573.75
420.726	559.75
420.948	554.75
421.171	593.75
421.394	624.75
421.617	581.75
421.839	570.75
422.062	572.75
422.285	565.75
422.507	606.75
422.73	697.75
422.953	658.75
423.175	588.75
423.398	569.75
423.621	574.75
423.843	583.75
424.066	596.75
424.288	583.75
424.511	613.75
424.733	668.75
424.956	704.75
425.178	711.75
425.401	693.75
425.623	718.75
425.846	627.75
426.068	610.75
426.291	563.75
426.513	600.75
426.735	583.75
426.958	616.75
427.18	701.75
427.402	829.75
427.625	913.75
427.847	762.75
428.069	660.75
428.292	604.75
428.514	557.75
428.736	567.75
428.958	551.75
429.181	535.75
429.403	532.75
429.625	546.75
429.847	573.75
430.069	649.75
430.292	638.75
430.514	527.75
430.736	546.75
430.958	530.75
431.18	500.75
431.402	515.75
431.624	522.75
431.846	501.75
432.068	509.75
432.29	527.75
432.512	523.75
432.734	522.75
432.956	531.75
433.178	510.75
433.4	518.75
433.622	528.75
433.844	517.75
434.066	529.75
434.287	513.75
434.509	498.75
434.731	541.75
434.953	529.75
435.175	560.75
435.397	573.75
435.618	575.75
435.84	608.75
436.062	693.75
436.284	757.75
436.505	649.75
436.727	597.75
436.949	547.75
437.17	547.75
437.392	517.75
437.614	543.75
437.835	557.75
438.057	648.75
438.278	757.75
438.5	765.75
438.721	842.75
438.943	791.75
439.165	641.75
439.386	577.75
439.608	585.75
439.829	585.75
440.05	593.75
440.272	643.75
440.493	602.75
440.715	563.75
440.936	541.75
441.158	542.75
441.379	532.75
441.6	557.75
441.822	549.75
442.043	619.75
442.264	685.75
442.486	727.75
442.707	625.75
442.928	581.75
443.149	591.75
443.371	626.75
443.592	659.75
443.813	755.75
444.034	827.75
444.255	686.75
444.476	632.75
444.698	619.75
444.919	595.75
445.14	723.75
445.361	655.75
445.582	628.75
445.803	673.75
446.024	776.75
446.245	779.75
446.466	719.75
446.687	629.75
446.908	572.75
447.129	542.75
447.35	527.75
447.571	531.75
447.792	539.75
448.013	539.75
448.234	551.75
448.455	566.75
448.675	700.75
448.896	819.75
449.117	675.75
449.338	645.75
449.559	751.75
449.779	870.75
450	693.75
450.221	588.75
450.442	530.75
450.662	521.75
450.883	511.75
451.104	515.75
451.324	506.75
451.545	502.75
451.766	470.75
451.986	462.75
452.207	462.75
452.428	448.75
452.648	463.75
452.869	473.75
453.089	467.75
453.31	487.75
453.53	482.75
453.751	482.75
453.971	459.75
454.192	484.75
454.412	465.75
454.633	452.75
454.853	442.75
455.073	457.75
455.294	489.75
455.514	556.75
455.734	537.75
455.955	462.75
456.175	462.75
456.395	458.75
456.616	442.75
456.836	434.75
457.056	449.75
457.276	444.75
457.497	456.75
457.717	447.75
457.937	454.75
458.157	444.75
458.377	453.75
458.598	476.75
458.818	511.75
459.038	585.75
459.258	617.75
459.478	542.75
459.698	495.75
459.918	487.75
460.138	521.75
460.358	547.75
460.578	528.75
460.798	515.75
461.018	518.75
461.238	513.75
461.458	535.75
461.678	538.75
461.898	539.75
462.118	541.75
462.338	558.75
462.558	569.75
462.777	572.75
462.997	585.75
463.217	611.75
463.437	598.75
463.657	575.75
463.876	583.75
464.096	558.75
464.316	579.75
464.536	593.75
464.755	562.75
464.975	567.75
465.195	610.75
465.414	621.75
465.634	572.75
465.854	524.75
466.073	524.75
466.293	501.75
466.512	509.75
466.732	486.75
466.951	483.75
467.171	502.75
467.391	485.75
467.61	489.75
467.829	514.75
468.049	500.75
468.268	471.75
468.488	475.75
468.707	477.75
468.927	492.75
469.146	482.75
469.365	469.75
469.585	465.75
469.804	479.75
470.023	514.75
470.243	467.75
470.462	481.75
470.681	529.75
470.901	522.75
471.12	520.75
471.339	507.75
471.558	488.75
471.777	493.75
471.997	492.75
472.216	499.75
472.435	509.75
472.654	504.75
472.873	479.75
473.092	479.75
473.311	478.75
473.53	505.75
473.749	509.75
473.968	536.75
474.187	623.75
474.406	657.75
474.625	544.75
474.844	501.75
475.063	497.75
475.282	485.75
475.501	493.75
475.72	488.75
475.939	485.75
476.158	498.75
476.377	490.75
476.596	496.75
476.814	524.75
477.033	530.75
477.252	515.75
477.471	524.75
477.69	531.75
477.908	536.75
478.127	545.75
478.346	532.75
478.564	551.75
478.783	557.75
479.002	577.75
479.22	558.75
479.439	566.75
479.658	587.75
479.876	594.75
480.095	599.75
480.313	635.75
480.532	633.75
480.751	616.75
480.969	627.75
481.188	650.75
481.406	675.75
481.624	634.75
481.843	571.75
482.061	590.75
482.28	582.75
482.498	588.75
482.717	585.75
482.935	579.75
483.153	549.75
483.372	578.75
483.59	565.75
483.808	595.75
484.027	581.75
484.245	581.75
484.463	581.75
484.681	608.75
484.9	582.75
485.118	589.75
485.336	577.75
485.554	595.75
485.772	606.75
485.99	594.75
486.209	582.75
486.427	590.75
486.645	599.75
486.863	603.75
487.081	608.75
487.299	616.75
487.517	649.75
487.735	608.75
487.953	612.75
488.171	623.75
488.389	631.75
488.607	617.75
488.825	618.75
489.043	599.75
489.261	629.75
489.479	625.75
489.696	610.75
489.914	607.75
490.132	610.75
490.35	609.75
490.568	652.75
490.786	653.75
491.003	651.75
491.221	665.75
491.439	687.75
491.657	688.75
491.874	714.75
492.092	719.75
492.31	694.75
492.527	711.75
492.745	720.75
492.963	711.75
493.18	711.75
493.398	697.75
493.615	710.75
493.833	714.75
494.05	711.75
494.268	706.75
494.485	743.75
494.703	726.75
494.92	721.75
495.138	738.75
495.355	712.75
495.573	706.75
495.79	705.75
496.008	744.75
496.225	750.75
496.442	737.75
496.66	703.75
496.877	735.75
497.094	734.75
497.312	729.75
497.529	737.75
497.746	785.75
497.963	784.75
498.181	819.75
498.398	800.75
498.615	822.75
498.832	849.75
499.049	875.75
499.267	918.75
499.484	945.75
499.701	969.75
499.918	1047.75
500.135	1100.75
500.352	1155.75
500.569	1167.75
500.786	1193.75
501.003	1116.75
501.22	1082.75
501.437	1062.75
501.654	994.75
501.871	953.75
502.088	930.75
502.305	874.75
502.522	862.75
502.739	856.75
502.956	791.75
503.172	786.75
503.389	742.75
503.606	774.75
503.823	763.75
504.04	748.75
504.256	758.75
504.473	737.75
504.69	759.75
504.907	729.75
505.123	721.75
505.34	719.75
505.557	706.75
505.773	733.75
505.99	687.75
506.207	670.75
506.423	679.75
506.64	681.75
506.856	673.75
507.073	678.75
507.289	649.75
507.506	662.75
507.722	644.75
507.939	666.75
508.155	637.75
508.372	655.75
508.588	608.75
508.805	632.75
509.021	625.75
509.238	641.75
509.454	664.75
509.67	658.75
509.887	651.75
510.103	629.75
510.319	656.75
510.536	705.75
510.752	1023.75
510.968	865.75
511.184	625.75
511.401	607.75
511.617	581.75
511.833	599.75
512.049	613.75
512.265	602.75
512.481	591.75
512.698	617.75
512.914	610.75
513.13	608.75
513.346	588.75
513.562	604.75
513.778	578.75
513.994	591.75
514.21	602.75
514.426	646.75
514.642	601.75
514.858	637.75
515.074	674.75
515.29	741.75
515.506	1002.75
515.721	861.75
515.937	662.75
516.153	658.75
516.369	642.75
516.585	634.75
516.801	634.75
517.016	640.75
517.232	671.75
517.448	652.75
517.664	661.75
517.879	669.75
518.095	645.75
518.311	674.75
518.527	645.75
518.742	634.75
518.958	627.75
519.173	623.75
519.389	585.75
519.605	593.75
519.82	615.75
520.036	600.75
520.251	607.75
520.467	626.75
520.682	628.75
520.898	643.75
521.113	625.75
521.329	650.75
521.544	709.75
521.76	837.75
521.975	1192.75
522.19	1194.75
522.406	745.75
522.621	629.75
522.836	604.75
523.052	580.75
523.267	552.75
523.482	547.75
523.698	522.75
523.913	531.75
524.128	537.75
524.343	531.75
524.559	519.75
524.774	538.75
524.989	529.75
525.204	524.75
525.419	528.75
525.634	531.75
525.849	512.75
526.064	490.75
526.28	503.75
526.495	503.75
526.71	529.75
526.925	507.75
527.14	486.75
527.355	490.75
527.57	502.75
527.785	509.75
527.999	522.75
528.214	472.75
528.429	509.75
528.644	499.75
528.859	515.75
529.074	504.75
529.289	519.75
529.503	571.75
529.718	544.75
529.933	527.75
530.148	535.75
530.363	511.75
530.577	479.75
530.792	496.75
531.007	509.75
531.221	472.75
531.436	490.75
531.651	507.75
531.865	494.75
532.08	475.75
532.295	489.75
532.509	486.75
532.724	494.75
532.938	487.75
533.153	482.75
533.367	497.75
533.582	472.75
533.796	481.75
534.011	488.75
534.225	475.75
534.44	465.75
534.654	463.75
534.868	493.75
535.083	476.75
535.297	475.75
535.511	486.75
535.726	514.75
535.94	499.75
536.154	477.75
536.369	481.75
536.583	462.75
536.797	468.75
537.011	461.75
537.225	467.75
537.44	450.75
537.654	469.75
537.868	477.75
538.082	471.75
538.296	474.75
538.51	448.75
538.724	475.75
538.938	467.75
539.153	455.75
539.367	468.75
539.581	470.75
539.795	468.75
540.009	459.75
540.222	463.75
540.436	480.75
540.65	469.75
540.864	446.75
541.078	453.75
541.292	466.75
541.506	460.75
541.72	472.75
541.934	469.75
542.147	467.75
542.361	442.75
542.575	460.75
542.789	454.75
543.002	465.75
543.216	449.75
543.43	477.75
543.644	448.75
543.857	466.75
544.071	462.75
544.285	467.75
544.498	461.75
544.712	456.75
544.925	479.75
545.139	453.75
545.352	468.75
545.566	447.75
545.779	462.75
545.993	454.75
546.206	466.75
546.42	461.75
546.633	469.75
546.847	460.75
547.06	448.75
547.274	443.75
547.487	458.75
547.7	470.75
547.914	452.75
548.127	447.75
548.34	468.75
548.554	460.75
548.767	446.75
548.98	460.75
549.193	462.75
549.407	460.75
549.62	457.75
549.833	465.75
550.046	443.75
550.259	438.75
550.473	436.75
550.686	464.75
550.899	457.75
551.112	447.75
551.325	445.75
551.538	438.75
551.751	436.75
551.964	442.75
552.177	439.75
552.39	442.75
552.603	439.75
552.816	482.75
553.029	457.75
553.242	444.75
553.455	452.75
553.667	487.75
553.88	485.75
554.093	462.75
554.306	455.75
554.519	449.75
554.732	455.75
554.944	433.75
555.157	441.75
555.37	425.75
555.583	442.75
555.795	431.75
556.008	427.75
556.221	417.75
556.433	417.75
556.646	407.75
556.859	418.75
557.071	401.75
557.284	410.75
557.496	409.75
557.709	401.75
557.921	410.75
558.134	410.75
558.346	402.75
558.559	403.75
558.771	400.75
558.984	409.75
559.196	373.75
559.409	392.75
559.621	422.75
559.833	410.75
560.046	412.75
560.258	366.75
560.47	417.75
560.683	401.75
560.895	379.75
561.107	414.75
561.32	407.75
561.532	404.75
561.744	397.75
561.956	407.75
562.168	389.75
562.381	377.75
562.593	397.75
562.805	404.75
563.017	390.75
563.229	385.75
563.441	405.75
563.653	401.75
563.865	409.75
564.077	418.75
564.289	395.75
564.501	433.75
564.713	421.75
564.925	436.75
565.137	430.75
565.349	474.75
565.561	426.75
565.773	470.75
565.985	480.75
566.197	486.75
566.408	483.75
566.62	493.75
566.832	529.75
567.044	541.75
567.255	518.75
567.467	547.75
567.679	562.75
567.891	567.75
568.102	571.75
568.314	543.75
568.526	529.75
568.737	499.75
568.949	478.75
569.161	461.75
569.372	424.75
569.584	423.75
569.795	421.75
570.007	421.75
570.218	447.75
570.43	430.75
570.641	410.75
570.853	409.75
571.064	387.75
571.276	395.75
571.487	386.75
571.698	376.75
571.91	384.75
572.121	382.75
572.333	376.75
572.544	383.75
572.755	357.75
572.966	353.75
573.178	353.75
573.389	350.75
573.6	342.75
573.811	349.75
574.023	350.75
574.234	360.75
574.445	360.75
574.656	348.75
574.867	331.75
575.078	340.75
575.289	354.75
575.501	335.75
575.712	343.75
575.923	343.75
576.134	340.75
576.345	318.75
576.556	319.75
576.767	325.75
576.978	343.75
577.188	326.75
577.399	329.75
577.61	323.75
577.821	339.75
578.032	322.75
578.243	360.75
578.454	464.75
578.665	375.75
578.875	325.75
579.086	317.75
579.297	320.75
579.508	306.75
579.718	318.75
579.929	330.75
580.14	313.75
580.35	313.75
580.561	323.75
580.772	311.75
580.982	306.75
581.193	324.75
581.403	315.75
581.614	323.75
581.825	304.75
582.035	315.75
582.246	303.75
582.456	316.75
582.667	318.75
582.877	309.75
583.087	315.75
583.298	310.75
583.508	308.75
583.719	305.75
583.929	304.75
584.139	314.75
584.35	292.75
584.56	310.75
584.77	319.75
584.981	311.75
585.191	303.75
585.401	297.75
585.611	306.75
585.821	320.75
586.032	317.75
586.242	308.75
586.452	308.75
586.662	290.75
586.872	306.75
587.082	310.75
587.292	297.75
587.502	309.75
587.713	285.75
587.923	299.75
588.133	325.75
588.343	316.75
588.553	293.75
588.762	277.75
588.972	303.75
589.182	295.75
589.392	283.75
589.602	305.75
589.812	305.75
590.022	299.75
590.232	303.75
590.441	277.75
590.651	286.75
590.861	309.75
591.071	301.75
591.281	306.75
591.49	303.75
591.7	315.75
591.91	309.75
592.119	306.75
592.329	317.75
592.539	325.75
592.748	317.75
592.958	330.75
593.167	320.75
593.377	327.75
593.587	341.75
593.796	339.75
594.006	326.75
594.215	329.75
594.424	329.75
594.634	340.75
594.843	330.75
595.053	336.75
595.262	329.75
595.472	327.75
595.681	311.75
595.89	301.75
596.1	296.75
596.309	297.75
596.518	298.75
596.727	290.75
596.937	289.75
597.146	288.75
597.355	295.75
597.564	291.75
597.774	282.75
597.983	288.75
598.192	287.75
598.401	276.75
598.61	267.75
598.819	259.75
599.028	281.75
599.237	277.75
599.446	274.75
599.655	276.75
599.864	269.75
600.073	267.75
600.282	276.75
600.491	272.75
600.7	260.75
600.909	263.75
601.118	270.75
601.327	268.75
601.536	283.75
601.745	257.75
601.953	267.75
602.162	274.75
602.371	264.75
602.58	253.75
602.789	257.75
602.997	271.75
603.206	269.75
603.415	264.75
603.623	256.75
603.832	267.75
604.041	246.75
604.249	255.75
604.458	248.75
604.666	246.75
604.875	246.75
605.084	254.75
605.292	252.75
605.501	246.75
605.709	261.75
605.918	256.75
606.126	247.75
606.334	256.75
606.543	243.75
606.751	263.75
606.96	269.75
607.168	242.75
607.376	226.75
607.585	251.75
607.793	234.75
608.001	255.75
608.21	257.75
608.418	246.75
608.626	249.75
608.834	264.75
609.043	253.75
609.251	258.75
609.459	237.75
609.667	232.75
609.875	249.75
610.083	230.75
610.291	233.75
610.499	246.75
610.707	269.75
610.916	258.75
611.124	261.75
611.332	263.75
611.54	237.75
611.748	243.75
611.955	234.75
612.163	231.75
612.371	245.75
612.579	240.75
612.787	241.75
612.995	247.75
613.203	239.75
613.411	256.75
613.618	251.75
613.826	232.75
614.034	243.75
614.242	248.75
614.449	238.75
614.657	257.75
614.865	234.75
615.072	225.75
615.28	253.75
615.488	232.75
615.695	235.75
615.903	246.75
616.111	250.75
616.318	247.75
616.526	250.75
616.733	245.75
616.941	243.75
617.148	234.75
617.356	242.75
617.563	225.75
617.771	245.75
617.978	242.75
618.185	233.75
618.393	226.75
618.6	243.75
618.807	223.75
619.015	240.75
619.222	244.75
619.429	218.75
619.637	256.75
619.844	241.75
620.051	226.75
620.258	232.75
620.466	221.75
620.673	208.75
620.88	235.75
621.087	210.75
621.294	240.75
621.501	224.75
621.708	233.75
621.915	243.75
622.122	208.75
622.329	250.75
622.536	205.75
622.743	233.75
622.95	204.75
623.157	232.75
623.364	213.75
623.571	192.75
623.778	224.75
623.985	207.75
624.192	222.75
624.399	216.75
624.606	233.75
624.812	200.75
625.019	222.75
625.226	219.75
625.433	212.75
625.639	227.75
625.846	209.75
626.053	205.75
626.259	209.75
626.466	205.75
626.673	217.75
626.879	198.75
627.086	218.75
627.293	218.75
627.499	199.75
627.706	214.75
627.912	211.75
628.119	222.75
628.325	210.75
628.532	200.75
628.738	202.75
628.945	204.75
629.151	206.75
629.357	211.75
629.564	204.75
629.77	192.75
629.976	192.75
630.183	192.75
630.389	196.75
630.595	185.75
630.802	207.75
631.008	197.75
631.214	178.75
631.42	197.75
631.627	200.75
631.833	202.75
632.039	212.75
632.245	191.75
632.451	193.75
632.657	197.75
632.863	177.75
633.069	202.75
633.275	201.75
633.481	195.75
633.688	195.75
633.893	185.75
634.099	193.75
634.305	206.75
634.511	183.75
634.717	181.75
634.923	180.75
635.129	198.75
635.335	197.75
635.541	180.75
635.747	201.75
635.952	168.75
636.158	178.75
636.364	189.75
636.57	206.75
636.775	192.75
636.981	188.75
637.187	180.75
637.392	187.75
637.598	182.75
637.804	182.75
638.009	188.75
638.215	186.75
638.421	167.75
638.626	177.75
638.832	175.75
639.037	170.75
639.243	185.75
639.448	171.75
639.654	177.75
639.859	181.75
640.065	173.75
640.27	186.75
640.475	175.75
640.681	169.75
640.886	179.75
641.091	162.75
641.297	169.75
641.502	169.75
641.707	165.75
641.913	180.75
642.118	179.75
642.323	177.75
642.528	171.75
642.733	175.75
642.939	173.75
643.144	165.75
643.349	168.75
643.554	153.75
643.759	176.75
643.964	159.75
644.169	190.75
644.374	186.75
644.579	161.75
644.784	175.75
644.989	165.75
645.194	183.75
645.399	174.75
645.604	171.75
645.809	167.75
646.014	155.75
646.219	173.75
646.423	177.75
646.628	169.75
646.833	169.75
647.038	171.75
647.243	161.75
647.447	174.75
647.652	181.75
647.857	177.75
648.062	165.75
648.266	150.75
648.471	181.75
648.676	185.75
648.88	179.75
649.085	182.75
649.289	177.75
649.494	168.75
649.698	186.75
649.903	193.75
650.107	170.75
650.312	179.75
650.516	167.75
650.721	150.75
650.925	158.75
651.13	147.75
651.334	135.75
651.539	157.75
651.743	150.75
651.947	155.75
652.152	145.75
652.356	155.75
652.56	146.75
652.764	149.75
652.969	137.75
653.173	147.75
653.377	130.75
653.581	128.75
653.785	133.75
653.99	140.75
654.194	156.75
654.398	132.75
654.602	135.75
654.806	143.75
655.01	142.75
655.214	136.75
655.418	139.75
655.622	126.75
655.826	122.75
656.03	133.75
656.234	150.75
656.438	140.75
656.642	136.75
656.846	137.75
657.049	136.75
657.253	121.75
657.457	111.75
657.661	119.75
657.865	121.75
658.068	114.75
658.272	109.75
658.476	97.75
658.68	99.75
658.883	106.75
659.087	96.75
659.291	97.75
659.494	99.75
659.698	88.75
659.901	98.75
660.105	92.75
660.309	92.75
660.512	92.75
660.716	97.75
660.919	99.75
661.123	83.75
661.326	86.75
661.53	93.75
661.733	101.75
661.936	88.75
662.14	82.75
662.343	85.75
662.546	80.75
662.75	73.75
662.953	96.75
663.156	78.75
663.36	75.75
663.563	79.75
663.766	80.75
663.969	78.75
664.173	73.75
664.376	73.75
664.579	91.75
664.782	75.75
664.985	71.75
665.188	72.75
665.391	79.75
665.594	88.75
665.797	79.75
666	70.75
666.203	81.75
666.406	73.75
666.609	76.75
666.812	78.75
667.015	68.75
667.218	85.75
667.421	87.75
667.624	78.75
667.827	71.75
668.03	72.75
668.232	82.75
668.435	84.75
668.638	81.75
668.841	91.75
669.043	81.75
669.246	68.75
669.449	80.75
669.651	76.75
669.854	85.75
670.057	82.75
670.259	69.75
670.462	77.75
670.665	80.75
670.867	71.75
671.07	69.75
671.272	83.75
671.475	76.75
671.677	77.75
671.88	71.75
672.082	72.75
672.284	86.75
672.487	82.75
672.689	90.75
672.892	86.75
