Data from 1976.PennyLincolnUp.Lamp.En5.5.200Scan.071719.P1.Changed Mount._HRD10591_16-00-04-861.txt Node
Date: Thu Jul 18 16:00:04 EDT 2019
User: cochatt
Spectrometer: HR+D1059
Trigger mode: 1
Integration Time (sec): 1.000000E-1
Scans to average: 1
Electric dark correction enabled: true
Nonlinearity correction enabled: false
Boxcar width: 0
XAxis mode: Wavelengths
Number of Pixels in Spectrum: 2048
>>>>>Begin Spectral Data<<<<<
223.165	-9.75
223.4	-9.75
223.635	-9.75
223.869	-6.75
224.104	-7.75
224.338	-15.75
224.573	-10.75
224.808	-20.75
225.042	-11.75
225.277	-13.75
225.511	-0.75
225.746	-0.75
225.98	-0.75
226.215	11.25
226.449	11.25
226.683	16.25
226.918	24.25
227.152	36.25
227.387	37.25
227.621	21.25
227.856	39.25
228.09	43.25
228.324	39.25
228.559	62.25
228.793	70.25
229.027	90.25
229.262	111.25
229.496	112.25
229.73	126.25
229.964	133.25
230.199	119.25
230.433	101.25
230.667	111.25
230.901	105.25
231.136	112.25
231.37	116.25
231.604	104.25
231.838	118.25
232.072	123.25
232.306	123.25
232.541	108.25
232.775	110.25
233.009	124.25
233.243	108.25
233.477	111.25
233.711	109.25
233.945	120.25
234.179	107.25
234.413	119.25
234.647	116.25
234.881	125.25
235.115	120.25
235.349	114.25
235.583	123.25
235.817	130.25
236.051	118.25
236.285	120.25
236.519	126.25
236.753	140.25
236.987	139.25
237.221	164.25
237.455	213.25
237.689	182.25
237.922	150.25
238.156	132.25
238.39	136.25
238.624	129.25
238.858	125.25
239.091	125.25
239.325	129.25
239.559	125.25
239.793	139.25
240.027	132.25
240.26	130.25
240.494	147.25
240.728	147.25
240.961	143.25
241.195	145.25
241.429	133.25
241.662	137.25
241.896	131.25
242.13	134.25
242.363	128.25
242.597	147.25
242.83	140.25
243.064	124.25
243.298	137.25
243.531	128.25
243.765	148.25
243.998	148.25
244.232	133.25
244.465	141.25
244.699	155.25
244.932	142.25
245.166	133.25
245.399	154.25
245.633	155.25
245.866	139.25
246.099	148.25
246.333	156.25
246.566	161.25
246.8	141.25
247.033	148.25
247.266	151.25
247.5	147.25
247.733	173.25
247.966	164.25
248.2	180.25
248.433	182.25
248.666	164.25
248.899	184.25
249.133	187.25
249.366	198.25
249.599	190.25
249.832	182.25
250.066	186.25
250.299	185.25
250.532	204.25
250.765	197.25
250.998	229.25
251.231	231.25
251.465	208.25
251.698	206.25
251.931	190.25
252.164	174.25
252.397	189.25
252.63	188.25
252.863	213.25
253.096	203.25
253.329	226.25
253.562	218.25
253.795	202.25
254.028	205.25
254.261	206.25
254.494	214.25
254.727	244.25
254.96	258.25
255.193	244.25
255.426	234.25
255.659	225.25
255.892	218.25
256.124	218.25
256.357	224.25
256.59	206.25
256.823	211.25
257.056	212.25
257.289	209.25
257.521	213.25
257.754	205.25
257.987	206.25
258.22	217.25
258.452	197.25
258.685	205.25
258.918	190.25
259.151	210.25
259.383	213.25
259.616	234.25
259.849	208.25
260.081	235.25
260.314	256.25
260.547	260.25
260.779	237.25
261.012	233.25
261.244	221.25
261.477	233.25
261.71	235.25
261.942	220.25
262.175	221.25
262.407	233.25
262.64	219.25
262.872	227.25
263.105	216.25
263.337	211.25
263.57	221.25
263.802	224.25
264.035	220.25
264.267	205.25
264.499	210.25
264.732	202.25
264.964	233.25
265.197	213.25
265.429	214.25
265.661	227.25
265.894	222.25
266.126	225.25
266.358	232.25
266.591	226.25
266.823	229.25
267.055	222.25
267.287	234.25
267.52	232.25
267.752	216.25
267.984	240.25
268.216	230.25
268.448	247.25
268.681	235.25
268.913	236.25
269.145	247.25
269.377	284.25
269.609	249.25
269.841	281.25
270.073	265.25
270.306	281.25
270.538	279.25
270.77	316.25
271.002	308.25
271.234	290.25
271.466	300.25
271.698	299.25
271.93	309.25
272.162	323.25
272.394	304.25
272.626	292.25
272.858	288.25
273.09	284.25
273.322	267.25
273.553	276.25
273.785	257.25
274.017	264.25
274.249	263.25
274.481	263.25
274.713	267.25
274.945	272.25
275.176	258.25
275.408	274.25
275.64	272.25
275.872	280.25
276.104	284.25
276.335	276.25
276.567	278.25
276.799	288.25
277.031	298.25
277.262	320.25
277.494	305.25
277.726	306.25
277.957	289.25
278.189	285.25
278.421	295.25
278.652	284.25
278.884	266.25
279.115	284.25
279.347	296.25
279.579	284.25
279.81	282.25
280.042	275.25
280.273	267.25
280.505	264.25
280.736	268.25
280.968	269.25
281.199	280.25
281.431	272.25
281.662	273.25
281.894	280.25
282.125	286.25
282.356	268.25
282.588	310.25
282.819	308.25
283.051	284.25
283.282	280.25
283.513	296.25
283.745	291.25
283.976	288.25
284.207	303.25
284.439	284.25
284.67	298.25
284.901	291.25
285.132	275.25
285.364	274.25
285.595	286.25
285.826	275.25
286.057	291.25
286.288	297.25
286.52	283.25
286.751	290.25
286.982	284.25
287.213	284.25
287.444	294.25
287.675	307.25
287.906	327.25
288.138	315.25
288.369	304.25
288.6	309.25
288.831	316.25
289.062	303.25
289.293	308.25
289.524	321.25
289.755	313.25
289.986	299.25
290.217	300.25
290.448	300.25
290.679	299.25
290.91	306.25
291.141	283.25
291.371	326.25
291.602	298.25
291.833	302.25
292.064	316.25
292.295	299.25
292.526	289.25
292.757	292.25
292.987	302.25
293.218	281.25
293.449	308.25
293.68	293.25
293.91	291.25
294.141	295.25
294.372	288.25
294.603	310.25
294.833	297.25
295.064	310.25
295.295	307.25
295.525	297.25
295.756	308.25
295.987	309.25
296.217	336.25
296.448	342.25
296.679	330.25
296.909	328.25
297.14	298.25
297.37	325.25
297.601	326.25
297.831	320.25
298.062	313.25
298.292	301.25
298.523	322.25
298.753	316.25
298.984	322.25
299.214	342.25
299.445	320.25
299.675	309.25
299.905	332.25
300.136	314.25
300.366	318.25
300.597	326.25
300.827	309.25
301.057	340.25
301.288	345.25
301.518	344.25
301.748	314.25
301.979	349.25
302.209	345.25
302.439	357.25
302.669	355.25
302.9	349.25
303.13	331.25
303.36	321.25
303.59	338.25
303.82	342.25
304.051	352.25
304.281	331.25
304.511	341.25
304.741	334.25
304.971	341.25
305.201	337.25
305.431	341.25
305.661	344.25
305.891	357.25
306.121	354.25
306.352	342.25
306.582	348.25
306.812	321.25
307.042	350.25
307.272	347.25
307.502	331.25
307.731	363.25
307.961	356.25
308.191	341.25
308.421	343.25
308.651	346.25
308.881	327.25
309.111	366.25
309.341	352.25
309.571	354.25
309.8	352.25
310.03	351.25
310.26	378.25
310.49	351.25
310.72	367.25
310.949	388.25
311.179	382.25
311.409	371.25
311.639	368.25
311.868	363.25
312.098	392.25
312.328	392.25
312.557	372.25
312.787	398.25
313.017	393.25
313.246	390.25
313.476	388.25
313.706	376.25
313.935	377.25
314.165	384.25
314.394	386.25
314.624	411.25
314.853	372.25
315.083	382.25
315.312	389.25
315.542	380.25
315.771	380.25
316.001	384.25
316.23	390.25
316.46	393.25
316.689	380.25
316.919	402.25
317.148	391.25
317.377	388.25
317.607	367.25
317.836	391.25
318.065	380.25
318.295	389.25
318.524	404.25
318.753	389.25
318.983	388.25
319.212	377.25
319.441	384.25
319.67	388.25
319.9	389.25
320.129	378.25
320.358	376.25
320.587	372.25
320.816	381.25
321.046	403.25
321.275	419.25
321.504	388.25
321.733	390.25
321.962	381.25
322.191	402.25
322.42	418.25
322.649	421.25
322.878	414.25
323.108	430.25
323.337	445.25
323.566	471.25
323.795	474.25
324.024	496.25
324.253	587.25
324.482	822.25
324.71	1256.25
324.939	1750.25
325.168	1586.25
325.397	800.25
325.626	570.25
325.855	509.25
326.084	467.25
326.313	471.25
326.542	453.25
326.77	489.25
326.999	553.25
327.228	758.25
327.457	1105.25
327.686	1356.25
327.914	908.25
328.143	604.25
328.372	553.25
328.6	519.25
328.829	511.25
329.058	538.25
329.287	541.25
329.515	511.25
329.744	480.25
329.972	462.25
330.201	481.25
330.43	532.25
330.658	534.25
330.887	567.25
331.115	534.25
331.344	492.25
331.572	484.25
331.801	484.25
332.03	470.25
332.258	461.25
332.486	473.25
332.715	444.25
332.943	461.25
333.172	468.25
333.4	478.25
333.629	473.25
333.857	482.25
334.085	508.25
334.314	498.25
334.542	525.25
334.771	526.25
334.999	501.25
335.227	502.25
335.455	495.25
335.684	479.25
335.912	479.25
336.14	478.25
336.369	473.25
336.597	460.25
336.825	469.25
337.053	469.25
337.281	426.25
337.51	451.25
337.738	448.25
337.966	446.25
338.194	453.25
338.422	468.25
338.65	471.25
338.878	442.25
339.106	443.25
339.334	444.25
339.562	440.25
339.79	440.25
340.018	418.25
340.246	440.25
340.474	450.25
340.702	432.25
340.93	435.25
341.158	448.25
341.386	452.25
341.614	428.25
341.842	418.25
342.07	406.25
342.298	430.25
342.526	426.25
342.754	418.25
342.981	409.25
343.209	430.25
343.437	434.25
343.665	426.25
343.893	439.25
344.12	476.25
344.348	464.25
344.576	454.25
344.804	456.25
345.031	450.25
345.259	460.25
345.487	446.25
345.714	438.25
345.942	418.25
346.17	429.25
346.397	428.25
346.625	443.25
346.853	415.25
347.08	406.25
347.308	429.25
347.535	429.25
347.763	413.25
347.99	420.25
348.218	427.25
348.445	445.25
348.673	424.25
348.9	426.25
349.128	408.25
349.355	410.25
349.583	407.25
349.81	405.25
350.037	428.25
350.265	402.25
350.492	404.25
350.72	397.25
350.947	420.25
351.174	411.25
351.402	438.25
351.629	410.25
351.856	414.25
352.083	436.25
352.311	436.25
352.538	423.25
352.765	424.25
352.992	423.25
353.22	423.25
353.447	409.25
353.674	407.25
353.901	407.25
354.128	402.25
354.355	400.25
354.583	394.25
354.81	423.25
355.037	419.25
355.264	391.25
355.491	387.25
355.718	385.25
355.945	404.25
356.172	391.25
356.399	404.25
356.626	410.25
356.853	380.25
357.08	396.25
357.307	388.25
357.534	418.25
357.761	416.25
357.988	402.25
358.215	400.25
358.441	412.25
358.668	373.25
358.895	423.25
359.122	392.25
359.349	410.25
359.576	406.25
359.802	428.25
360.029	431.25
360.256	454.25
360.483	425.25
360.709	432.25
360.936	406.25
361.163	410.25
361.39	416.25
361.616	418.25
361.843	421.25
362.07	411.25
362.296	422.25
362.523	420.25
362.749	406.25
362.976	413.25
363.203	404.25
363.429	404.25
363.656	414.25
363.882	423.25
364.109	410.25
364.335	423.25
364.562	379.25
364.788	379.25
365.015	408.25
365.241	405.25
365.468	414.25
365.694	408.25
365.92	404.25
366.147	398.25
366.373	418.25
366.599	404.25
366.826	420.25
367.052	404.25
367.278	411.25
367.505	419.25
367.731	406.25
367.957	393.25
368.184	413.25
368.41	423.25
368.636	405.25
368.862	432.25
369.089	422.25
369.315	412.25
369.541	408.25
369.767	391.25
369.993	405.25
370.219	415.25
370.445	416.25
370.672	398.25
370.898	425.25
371.124	393.25
371.35	417.25
371.576	406.25
371.802	409.25
372.028	395.25
372.254	425.25
372.48	411.25
372.706	423.25
372.932	408.25
373.158	406.25
373.384	412.25
373.61	403.25
373.835	402.25
374.061	432.25
374.287	415.25
374.513	422.25
374.739	434.25
374.965	430.25
375.191	420.25
375.416	419.25
375.642	417.25
375.868	420.25
376.094	432.25
376.319	421.25
376.545	407.25
376.771	407.25
376.997	415.25
377.222	412.25
377.448	414.25
377.674	416.25
377.899	412.25
378.125	407.25
378.35	386.25
378.576	390.25
378.802	417.25
379.027	437.25
379.253	420.25
379.478	426.25
379.704	419.25
379.929	432.25
380.155	410.25
380.38	416.25
380.606	418.25
380.831	432.25
381.057	414.25
381.282	416.25
381.507	412.25
381.733	427.25
381.958	428.25
382.184	422.25
382.409	417.25
382.634	435.25
382.86	409.25
383.085	392.25
383.31	428.25
383.535	421.25
383.761	457.25
383.986	413.25
384.211	441.25
384.436	445.25
384.662	433.25
384.887	434.25
385.112	467.25
385.337	444.25
385.562	451.25
385.787	458.25
386.013	444.25
386.238	467.25
386.463	478.25
386.688	461.25
386.913	475.25
387.138	477.25
387.363	468.25
387.588	453.25
387.813	460.25
388.038	467.25
388.263	472.25
388.488	456.25
388.713	472.25
388.938	470.25
389.163	468.25
389.387	468.25
389.612	457.25
389.837	463.25
390.062	455.25
390.287	450.25
390.512	457.25
390.736	463.25
390.961	447.25
391.186	453.25
391.411	472.25
391.636	498.25
391.86	467.25
392.085	497.25
392.31	481.25
392.534	486.25
392.759	441.25
392.984	473.25
393.208	468.25
393.433	483.25
393.658	482.25
393.882	464.25
394.107	469.25
394.331	461.25
394.556	463.25
394.78	468.25
395.005	471.25
395.229	474.25
395.454	486.25
395.678	487.25
395.903	492.25
396.127	522.25
396.352	533.25
396.576	493.25
396.801	476.25
397.025	467.25
397.249	496.25
397.474	496.25
397.698	492.25
397.922	511.25
398.147	518.25
398.371	525.25
398.595	520.25
398.82	541.25
399.044	540.25
399.268	572.25
399.492	604.25
399.717	656.25
399.941	670.25
400.165	696.25
400.389	670.25
400.613	612.25
400.837	570.25
401.062	562.25
401.286	527.25
401.51	528.25
401.734	542.25
401.958	553.25
402.182	550.25
402.406	558.25
402.63	538.25
402.854	518.25
403.078	524.25
403.302	532.25
403.526	554.25
403.75	588.25
403.974	590.25
404.198	545.25
404.422	574.25
404.645	569.25
404.869	580.25
405.093	593.25
405.317	633.25
405.541	646.25
405.765	619.25
405.988	609.25
406.212	602.25
406.436	595.25
406.66	596.25
406.883	617.25
407.107	612.25
407.331	654.25
407.555	731.25
407.778	697.25
408.002	666.25
408.226	630.25
408.449	621.25
408.673	597.25
408.896	644.25
409.12	664.25
409.344	668.25
409.567	600.25
409.791	604.25
410.014	562.25
410.238	544.25
410.461	552.25
410.685	563.25
410.908	570.25
411.132	600.25
411.355	634.25
411.578	610.25
411.802	571.25
412.025	550.25
412.249	550.25
412.472	596.25
412.695	631.25
412.919	598.25
413.142	576.25
413.365	553.25
413.589	540.25
413.812	528.25
414.035	536.25
414.258	523.25
414.482	531.25
414.705	538.25
414.928	541.25
415.151	545.25
415.374	547.25
415.597	530.25
415.821	523.25
416.044	520.25
416.267	513.25
416.49	524.25
416.713	518.25
416.936	510.25
417.159	503.25
417.382	539.25
417.605	524.25
417.828	545.25
418.051	554.25
418.274	543.25
418.497	524.25
418.72	518.25
418.943	517.25
419.166	539.25
419.389	576.25
419.611	560.25
419.834	575.25
420.057	543.25
420.28	563.25
420.503	539.25
420.726	556.25
420.948	551.25
421.171	612.25
421.394	634.25
421.617	568.25
421.839	541.25
422.062	544.25
422.285	544.25
422.507	592.25
422.73	679.25
422.953	670.25
423.175	588.25
423.398	583.25
423.621	570.25
423.843	578.25
424.066	604.25
424.288	581.25
424.511	601.25
424.733	648.25
424.956	716.25
425.178	686.25
425.401	677.25
425.623	723.25
425.846	610.25
426.068	571.25
426.291	588.25
426.513	562.25
426.735	572.25
426.958	584.25
427.18	670.25
427.402	820.25
427.625	904.25
427.847	744.25
428.069	660.25
428.292	600.25
428.514	569.25
428.736	544.25
428.958	530.25
429.181	524.25
429.403	520.25
429.625	540.25
429.847	578.25
430.069	634.25
430.292	619.25
430.514	549.25
430.736	535.25
430.958	496.25
431.18	515.25
431.402	489.25
431.624	476.25
431.846	495.25
432.068	498.25
432.29	521.25
432.512	510.25
432.734	502.25
432.956	515.25
433.178	510.25
433.4	505.25
433.622	504.25
433.844	517.25
434.066	507.25
434.287	499.25
434.509	519.25
434.731	531.25
434.953	521.25
435.175	553.25
435.397	564.25
435.618	586.25
435.84	607.25
436.062	716.25
436.284	771.25
436.505	608.25
436.727	572.25
436.949	542.25
437.17	518.25
437.392	540.25
437.614	541.25
437.835	563.25
438.057	617.25
438.278	758.25
438.5	714.25
438.721	840.25
438.943	819.25
439.165	634.25
439.386	572.25
439.608	564.25
439.829	577.25
440.05	608.25
440.272	626.25
440.493	596.25
440.715	561.25
440.936	535.25
441.158	547.25
441.379	546.25
441.6	576.25
441.822	557.25
442.043	608.25
442.264	677.25
442.486	718.25
442.707	616.25
442.928	591.25
443.149	601.25
443.371	600.25
443.592	645.25
443.813	765.25
444.034	808.25
444.255	668.25
444.476	614.25
444.698	606.25
444.919	581.25
445.14	741.25
445.361	649.25
445.582	602.25
445.803	658.25
446.024	754.25
446.245	741.25
446.466	702.25
446.687	609.25
446.908	586.25
447.129	512.25
447.35	517.25
447.571	525.25
447.792	511.25
448.013	503.25
448.234	527.25
448.455	596.25
448.675	711.25
448.896	808.25
449.117	675.25
449.338	642.25
449.559	741.25
449.779	869.25
450	682.25
450.221	550.25
450.442	524.25
450.662	519.25
450.883	501.25
451.104	530.25
451.324	509.25
451.545	491.25
451.766	460.25
451.986	480.25
452.207	472.25
452.428	482.25
452.648	456.25
452.869	476.25
453.089	478.25
453.31	474.25
453.53	472.25
453.751	453.25
453.971	481.25
454.192	466.25
454.412	454.25
454.633	459.25
454.853	466.25
455.073	473.25
455.294	485.25
455.514	565.25
455.734	565.25
455.955	500.25
456.175	466.25
456.395	439.25
456.616	436.25
456.836	438.25
457.056	437.25
457.276	420.25
457.497	429.25
457.717	452.25
457.937	448.25
458.157	429.25
458.377	449.25
458.598	485.25
458.818	528.25
459.038	568.25
459.258	583.25
459.478	532.25
459.698	493.25
459.918	492.25
460.138	489.25
460.358	508.25
460.578	516.25
460.798	521.25
461.018	547.25
461.238	518.25
461.458	539.25
461.678	518.25
461.898	528.25
462.118	520.25
462.338	538.25
462.558	573.25
462.777	576.25
462.997	571.25
463.217	598.25
463.437	617.25
463.657	577.25
463.876	560.25
464.096	561.25
464.316	576.25
464.536	568.25
464.755	560.25
464.975	534.25
465.195	578.25
465.414	613.25
465.634	565.25
465.854	548.25
466.073	520.25
466.293	483.25
466.512	492.25
466.732	506.25
466.951	475.25
467.171	487.25
467.391	505.25
467.61	505.25
467.829	499.25
468.049	485.25
468.268	493.25
468.488	456.25
468.707	495.25
468.927	469.25
469.146	454.25
469.365	477.25
469.585	471.25
469.804	457.25
470.023	506.25
470.243	496.25
470.462	488.25
470.681	497.25
470.901	492.25
471.12	483.25
471.339	475.25
471.558	486.25
471.777	483.25
471.997	473.25
472.216	489.25
472.435	534.25
472.654	484.25
472.873	491.25
473.092	487.25
473.311	465.25
473.53	474.25
473.749	503.25
473.968	502.25
474.187	600.25
474.406	605.25
474.625	535.25
474.844	488.25
475.063	484.25
475.282	481.25
475.501	507.25
475.72	482.25
475.939	504.25
476.158	512.25
476.377	492.25
476.596	505.25
476.814	530.25
477.033	506.25
477.252	512.25
477.471	522.25
477.69	529.25
477.908	514.25
478.127	552.25
478.346	547.25
478.564	550.25
478.783	557.25
479.002	563.25
479.22	560.25
479.439	586.25
479.658	558.25
479.876	579.25
480.095	586.25
480.313	616.25
480.532	618.25
480.751	609.25
480.969	586.25
481.188	636.25
481.406	670.25
481.624	600.25
481.843	588.25
482.061	564.25
482.28	554.25
482.498	588.25
482.717	560.25
482.935	565.25
483.153	568.25
483.372	565.25
483.59	566.25
483.808	549.25
484.027	578.25
484.245	571.25
484.463	575.25
484.681	584.25
484.9	563.25
485.118	568.25
485.336	602.25
485.554	602.25
485.772	591.25
485.99	581.25
486.209	611.25
486.427	615.25
486.645	606.25
486.863	613.25
487.081	609.25
487.299	584.25
487.517	610.25
487.735	601.25
487.953	616.25
488.171	613.25
488.389	570.25
488.607	601.25
488.825	603.25
489.043	619.25
489.261	610.25
489.479	614.25
489.696	629.25
489.914	613.25
490.132	648.25
490.35	636.25
490.568	645.25
490.786	666.25
491.003	668.25
491.221	653.25
491.439	664.25
491.657	688.25
491.874	697.25
492.092	678.25
492.31	681.25
492.527	683.25
492.745	690.25
492.963	700.25
493.18	678.25
493.398	686.25
493.615	701.25
493.833	697.25
494.05	734.25
494.268	710.25
494.485	729.25
494.703	709.25
494.92	691.25
495.138	732.25
495.355	691.25
495.573	720.25
495.79	716.25
496.008	732.25
496.225	726.25
496.442	732.25
496.66	728.25
496.877	708.25
497.094	720.25
497.312	729.25
497.529	743.25
497.746	776.25
497.963	758.25
498.181	775.25
498.398	808.25
498.615	820.25
498.832	837.25
499.049	848.25
499.267	898.25
499.484	923.25
499.701	950.25
499.918	1003.25
500.135	1061.25
500.352	1141.25
500.569	1164.25
500.786	1159.25
501.003	1115.25
501.22	1065.25
501.437	1020.25
501.654	1019.25
501.871	964.25
502.088	908.25
502.305	892.25
502.522	871.25
502.739	813.25
502.956	783.25
503.172	770.25
503.389	755.25
503.606	760.25
503.823	757.25
504.04	730.25
504.256	734.25
504.473	719.25
504.69	746.25
504.907	736.25
505.123	702.25
505.34	700.25
505.557	676.25
505.773	691.25
505.99	696.25
506.207	655.25
506.423	685.25
506.64	654.25
506.856	663.25
507.073	650.25
507.289	670.25
507.506	661.25
507.722	655.25
507.939	684.25
508.155	627.25
508.372	628.25
508.588	626.25
508.805	638.25
509.021	653.25
509.238	637.25
509.454	604.25
509.67	640.25
509.887	636.25
510.103	605.25
510.319	617.25
510.536	692.25
510.752	973.25
510.968	850.25
511.184	631.25
511.401	609.25
511.617	615.25
511.833	593.25
512.049	587.25
512.265	590.25
512.481	569.25
512.698	584.25
512.914	602.25
513.13	602.25
513.346	580.25
513.562	588.25
513.778	585.25
513.994	566.25
514.21	578.25
514.426	629.25
514.642	617.25
514.858	636.25
515.074	665.25
515.29	734.25
515.506	997.25
515.721	852.25
515.937	673.25
516.153	663.25
516.369	621.25
516.585	628.25
516.801	615.25
517.016	620.25
517.232	632.25
517.448	651.25
517.664	645.25
517.879	634.25
518.095	622.25
518.311	650.25
518.527	642.25
518.742	627.25
518.958	617.25
519.173	602.25
519.389	593.25
519.605	613.25
519.82	596.25
520.036	601.25
520.251	601.25
520.467	627.25
520.682	600.25
520.898	624.25
521.113	615.25
521.329	642.25
521.544	709.25
521.76	840.25
521.975	1213.25
522.19	1174.25
522.406	747.25
522.621	626.25
522.836	602.25
523.052	568.25
523.267	581.25
523.482	546.25
523.698	538.25
523.913	556.25
524.128	544.25
524.343	527.25
524.559	537.25
524.774	530.25
524.989	517.25
525.204	533.25
525.419	504.25
525.634	498.25
525.849	501.25
526.064	514.25
526.28	506.25
526.495	519.25
526.71	491.25
526.925	489.25
527.14	524.25
527.355	489.25
527.57	505.25
527.785	503.25
527.999	502.25
528.214	502.25
528.429	514.25
528.644	517.25
528.859	494.25
529.074	506.25
529.289	504.25
529.503	552.25
529.718	571.25
529.933	524.25
530.148	523.25
530.363	492.25
530.577	488.25
530.792	509.25
531.007	499.25
531.221	484.25
531.436	483.25
531.651	489.25
531.865	467.25
532.08	474.25
532.295	493.25
532.509	463.25
532.724	472.25
532.938	469.25
533.153	487.25
533.367	487.25
533.582	475.25
533.796	470.25
534.011	485.25
534.225	481.25
534.44	481.25
534.654	469.25
534.868	456.25
535.083	461.25
535.297	472.25
535.511	450.25
535.726	478.25
535.94	482.25
536.154	460.25
536.369	469.25
536.583	473.25
536.797	481.25
537.011	477.25
537.225	459.25
537.44	437.25
537.654	452.25
537.868	444.25
538.082	477.25
538.296	461.25
538.51	459.25
538.724	444.25
538.938	464.25
539.153	459.25
539.367	458.25
539.581	470.25
539.795	452.25
540.009	443.25
540.222	438.25
540.436	481.25
540.65	456.25
540.864	450.25
541.078	480.25
541.292	491.25
541.506	453.25
541.72	452.25
541.934	458.25
542.147	456.25
542.361	447.25
542.575	455.25
542.789	461.25
543.002	462.25
543.216	460.25
543.43	460.25
543.644	457.25
543.857	448.25
544.071	462.25
544.285	488.25
544.498	462.25
544.712	473.25
544.925	450.25
545.139	455.25
545.352	461.25
545.566	462.25
545.779	456.25
545.993	453.25
546.206	441.25
546.42	470.25
546.633	445.25
546.847	457.25
547.06	457.25
547.274	459.25
547.487	449.25
547.7	467.25
547.914	461.25
548.127	447.25
548.34	447.25
548.554	431.25
548.767	457.25
548.98	457.25
549.193	439.25
549.407	449.25
549.62	459.25
549.833	459.25
550.046	439.25
550.259	439.25
550.473	445.25
550.686	440.25
550.899	454.25
551.112	441.25
551.325	435.25
551.538	439.25
551.751	473.25
551.964	448.25
552.177	446.25
552.39	442.25
552.603	460.25
552.816	440.25
553.029	471.25
553.242	479.25
553.455	468.25
553.667	477.25
553.88	475.25
554.093	448.25
554.306	475.25
554.519	461.25
554.732	460.25
554.944	425.25
555.157	424.25
555.37	423.25
555.583	427.25
555.795	455.25
556.008	414.25
556.221	400.25
556.433	411.25
556.646	405.25
556.859	419.25
557.071	412.25
557.284	402.25
557.496	405.25
557.709	404.25
557.921	395.25
558.134	408.25
558.346	404.25
558.559	397.25
558.771	394.25
558.984	401.25
559.196	383.25
559.409	396.25
559.621	408.25
559.833	406.25
560.046	382.25
560.258	398.25
560.47	388.25
560.683	361.25
560.895	384.25
561.107	386.25
561.32	390.25
561.532	386.25
561.744	406.25
561.956	392.25
562.168	401.25
562.381	424.25
562.593	416.25
562.805	409.25
563.017	388.25
563.229	405.25
563.441	383.25
563.653	414.25
563.865	418.25
564.077	406.25
564.289	419.25
564.501	410.25
564.713	411.25
564.925	414.25
565.137	440.25
565.349	422.25
565.561	438.25
565.773	448.25
565.985	444.25
566.197	481.25
566.408	467.25
566.62	482.25
566.832	504.25
567.044	531.25
567.255	511.25
567.467	533.25
567.679	539.25
567.891	544.25
568.102	568.25
568.314	558.25
568.526	524.25
568.737	491.25
568.949	478.25
569.161	451.25
569.372	432.25
569.584	422.25
569.795	422.25
570.007	440.25
570.218	412.25
570.43	456.25
570.641	420.25
570.853	399.25
571.064	375.25
571.276	393.25
571.487	404.25
571.698	376.25
571.91	376.25
572.121	382.25
572.333	364.25
572.544	357.25
572.755	365.25
572.966	354.25
573.178	362.25
573.389	329.25
573.6	368.25
573.811	356.25
574.023	364.25
574.234	349.25
574.445	352.25
574.656	340.25
574.867	345.25
575.078	353.25
575.289	349.25
575.501	347.25
575.712	302.25
575.923	337.25
576.134	328.25
576.345	336.25
576.556	338.25
576.767	354.25
576.978	335.25
577.188	346.25
577.399	353.25
577.61	347.25
577.821	328.25
578.032	323.25
578.243	360.25
578.454	483.25
578.665	382.25
578.875	336.25
579.086	324.25
579.297	314.25
579.508	305.25
579.718	324.25
579.929	320.25
580.14	321.25
580.35	328.25
580.561	329.25
580.772	329.25
580.982	320.25
581.193	323.25
581.403	326.25
581.614	309.25
581.825	332.25
582.035	298.25
582.246	315.25
582.456	304.25
582.667	306.25
582.877	305.25
583.087	304.25
583.298	305.25
583.508	323.25
583.719	310.25
583.929	304.25
584.139	306.25
584.35	319.25
584.56	291.25
584.77	324.25
584.981	326.25
585.191	313.25
585.401	304.25
585.611	295.25
585.821	287.25
586.032	301.25
586.242	305.25
586.452	301.25
586.662	296.25
586.872	296.25
587.082	297.25
587.292	312.25
587.502	294.25
587.713	289.25
587.923	301.25
588.133	306.25
588.343	292.25
588.553	297.25
588.762	298.25
588.972	292.25
589.182	301.25
589.392	301.25
589.602	289.25
589.812	312.25
590.022	308.25
590.232	320.25
590.441	291.25
590.651	299.25
590.861	302.25
591.071	302.25
591.281	292.25
591.49	311.25
591.7	311.25
591.91	319.25
592.119	303.25
592.329	323.25
592.539	324.25
592.748	335.25
592.958	328.25
593.167	330.25
593.377	343.25
593.587	342.25
593.796	336.25
594.006	325.25
594.215	338.25
594.424	334.25
594.634	328.25
594.843	313.25
595.053	322.25
595.262	315.25
595.472	306.25
595.681	301.25
595.89	318.25
596.1	275.25
596.309	309.25
596.518	290.25
596.727	316.25
596.937	281.25
597.146	285.25
597.355	294.25
597.564	285.25
597.774	285.25
597.983	287.25
598.192	276.25
598.401	280.25
598.61	265.25
598.819	268.25
599.028	252.25
599.237	267.25
599.446	262.25
599.655	263.25
599.864	278.25
600.073	293.25
600.282	269.25
600.491	270.25
600.7	256.25
600.909	280.25
601.118	256.25
601.327	280.25
601.536	270.25
601.745	266.25
601.953	270.25
602.162	273.25
602.371	288.25
602.58	269.25
602.789	268.25
602.997	257.25
603.206	240.25
603.415	266.25
603.623	246.25
603.832	260.25
604.041	251.25
604.249	252.25
604.458	254.25
604.666	250.25
604.875	252.25
605.084	264.25
605.292	261.25
605.501	265.25
605.709	246.25
605.918	261.25
606.126	256.25
606.334	247.25
606.543	254.25
606.751	236.25
606.96	243.25
607.168	273.25
607.376	244.25
607.585	255.25
607.793	251.25
608.001	258.25
608.21	250.25
608.418	254.25
608.626	246.25
608.834	244.25
609.043	251.25
609.251	243.25
609.459	240.25
609.667	244.25
609.875	241.25
610.083	225.25
610.291	256.25
610.499	252.25
610.707	239.25
610.916	242.25
611.124	248.25
611.332	252.25
611.54	264.25
611.748	245.25
611.955	253.25
612.163	257.25
612.371	228.25
612.579	247.25
612.787	248.25
612.995	246.25
613.203	247.25
613.411	238.25
613.618	245.25
613.826	237.25
614.034	227.25
614.242	257.25
614.449	258.25
614.657	243.25
614.865	218.25
615.072	248.25
615.28	249.25
615.488	234.25
615.695	237.25
615.903	251.25
616.111	256.25
616.318	244.25
616.526	236.25
616.733	237.25
616.941	237.25
617.148	230.25
617.356	238.25
617.563	229.25
617.771	233.25
617.978	243.25
618.185	251.25
618.393	237.25
618.6	232.25
618.807	248.25
619.015	223.25
619.222	228.25
619.429	241.25
619.637	227.25
619.844	219.25
620.051	217.25
620.258	249.25
620.466	229.25
620.673	222.25
620.88	218.25
621.087	230.25
621.294	234.25
621.501	216.25
621.708	222.25
621.915	215.25
622.122	237.25
622.329	214.25
622.536	213.25
622.743	216.25
622.95	208.25
623.157	226.25
623.364	216.25
623.571	227.25
623.778	228.25
623.985	222.25
624.192	220.25
624.399	218.25
624.606	212.25
624.812	204.25
625.019	217.25
625.226	228.25
625.433	231.25
625.639	223.25
625.846	210.25
626.053	203.25
626.259	218.25
626.466	213.25
626.673	210.25
626.879	215.25
627.086	218.25
627.293	210.25
627.499	208.25
627.706	187.25
627.912	218.25
628.119	197.25
628.325	202.25
628.532	196.25
628.738	187.25
628.945	192.25
629.151	198.25
629.357	218.25
629.564	190.25
629.77	197.25
629.976	202.25
630.183	190.25
630.389	196.25
630.595	181.25
630.802	197.25
631.008	194.25
631.214	194.25
631.42	201.25
631.627	193.25
631.833	189.25
632.039	187.25
632.245	193.25
632.451	198.25
632.657	211.25
632.863	201.25
633.069	200.25
633.275	185.25
633.481	194.25
633.688	180.25
633.893	197.25
634.099	190.25
634.305	203.25
634.511	183.25
634.717	193.25
634.923	185.25
635.129	180.25
635.335	184.25
635.541	199.25
635.747	194.25
635.952	188.25
636.158	167.25
636.364	201.25
636.57	211.25
636.775	196.25
636.981	188.25
637.187	177.25
637.392	183.25
637.598	186.25
637.804	189.25
638.009	183.25
638.215	190.25
638.421	182.25
638.626	188.25
638.832	171.25
639.037	189.25
639.243	187.25
639.448	177.25
639.654	190.25
639.859	180.25
640.065	173.25
640.27	179.25
640.475	178.25
640.681	184.25
640.886	178.25
641.091	181.25
641.297	190.25
641.502	164.25
641.707	162.25
641.913	169.25
642.118	181.25
642.323	170.25
642.528	169.25
642.733	164.25
642.939	171.25
643.144	170.25
643.349	176.25
643.554	176.25
643.759	164.25
643.964	181.25
644.169	171.25
644.374	199.25
644.579	188.25
644.784	176.25
644.989	168.25
645.194	176.25
645.399	181.25
645.604	167.25
645.809	175.25
646.014	158.25
646.219	170.25
646.423	171.25
646.628	176.25
646.833	156.25
647.038	166.25
647.243	178.25
647.447	168.25
647.652	168.25
647.857	166.25
648.062	170.25
648.266	168.25
648.471	193.25
648.676	178.25
648.88	181.25
649.085	184.25
649.289	176.25
649.494	185.25
649.698	180.25
649.903	203.25
650.107	172.25
650.312	178.25
650.516	173.25
650.721	168.25
650.925	164.25
651.13	164.25
651.334	162.25
651.539	148.25
651.743	145.25
651.947	156.25
652.152	148.25
652.356	150.25
652.56	139.25
652.764	148.25
652.969	146.25
653.173	144.25
653.377	144.25
653.581	135.25
653.785	126.25
653.99	146.25
654.194	124.25
654.398	144.25
654.602	137.25
654.806	137.25
655.01	144.25
655.214	142.25
655.418	130.25
655.622	125.25
655.826	137.25
656.03	128.25
656.234	137.25
656.438	133.25
656.642	137.25
656.846	123.25
657.049	127.25
657.253	128.25
657.457	129.25
657.661	119.25
657.865	127.25
658.068	122.25
658.272	108.25
658.476	117.25
658.68	122.25
658.883	114.25
659.087	108.25
659.291	95.25
659.494	105.25
659.698	87.25
659.901	100.25
660.105	90.25
660.309	99.25
660.512	100.25
660.716	109.25
660.919	99.25
661.123	93.25
661.326	99.25
661.53	78.25
661.733	92.25
661.936	83.25
662.14	91.25
662.343	84.25
662.546	86.25
662.75	86.25
662.953	76.25
663.156	87.25
663.36	93.25
663.563	97.25
663.766	80.25
663.969	94.25
664.173	91.25
664.376	95.25
664.579	76.25
664.782	76.25
664.985	80.25
665.188	80.25
665.391	82.25
665.594	89.25
665.797	90.25
666	73.25
666.203	84.25
666.406	77.25
666.609	77.25
666.812	87.25
667.015	75.25
667.218	79.25
667.421	73.25
667.624	72.25
667.827	97.25
668.03	92.25
668.232	82.25
668.435	82.25
668.638	76.25
668.841	83.25
669.043	81.25
669.246	75.25
669.449	71.25
669.651	92.25
669.854	82.25
670.057	83.25
670.259	86.25
670.462	94.25
670.665	85.25
670.867	84.25
671.07	81.25
671.272	83.25
671.475	82.25
671.677	79.25
671.88	75.25
672.082	76.25
672.284	93.25
672.487	98.25
672.689	79.25
672.892	77.25
