Data from 1976.PennyLincolnUp.Lamp.En5.5.200Scan.071719.P1.Changed Mount._HRD10591_16-01-40-861.txt Node
Date: Thu Jul 18 16:01:40 EDT 2019
User: cochatt
Spectrometer: HR+D1059
Trigger mode: 1
Integration Time (sec): 1.000000E-1
Scans to average: 1
Electric dark correction enabled: true
Nonlinearity correction enabled: false
Boxcar width: 0
XAxis mode: Wavelengths
Number of Pixels in Spectrum: 2048
>>>>>Begin Spectral Data<<<<<
223.165	-11.25
223.4	-11.25
223.635	-11.25
223.869	-34.25
224.104	-14.25
224.338	-21.25
224.573	-9.25
224.808	-9.25
225.042	-3.25
225.277	-5.25
225.511	-0.25
225.746	-0.25
225.98	-6.25
226.215	20.75
226.449	16.75
226.683	12.75
226.918	26.75
227.152	37.75
227.387	37.75
227.621	37.75
227.856	42.75
228.09	37.75
228.324	39.75
228.559	42.75
228.793	64.75
229.027	90.75
229.262	99.75
229.496	109.75
229.73	130.75
229.964	156.75
230.199	130.75
230.433	120.75
230.667	113.75
230.901	119.75
231.136	101.75
231.37	116.75
231.604	119.75
231.838	114.75
232.072	116.75
232.306	110.75
232.541	116.75
232.775	122.75
233.009	113.75
233.243	112.75
233.477	122.75
233.711	116.75
233.945	121.75
234.179	112.75
234.413	106.75
234.647	126.75
234.881	118.75
235.115	120.75
235.349	109.75
235.583	130.75
235.817	120.75
236.051	129.75
236.285	132.75
236.519	120.75
236.753	135.75
236.987	150.75
237.221	202.75
237.455	236.75
237.689	209.75
237.922	146.75
238.156	143.75
238.39	139.75
238.624	123.75
238.858	121.75
239.091	121.75
239.325	146.75
239.559	134.75
239.793	125.75
240.027	145.75
240.26	146.75
240.494	156.75
240.728	141.75
240.961	171.75
241.195	138.75
241.429	149.75
241.662	130.75
241.896	141.75
242.13	147.75
242.363	147.75
242.597	144.75
242.83	139.75
243.064	136.75
243.298	130.75
243.531	147.75
243.765	146.75
243.998	138.75
244.232	138.75
244.465	136.75
244.699	140.75
244.932	153.75
245.166	148.75
245.399	132.75
245.633	152.75
245.866	155.75
246.099	150.75
246.333	163.75
246.566	150.75
246.8	164.75
247.033	162.75
247.266	159.75
247.5	156.75
247.733	177.75
247.966	178.75
248.2	184.75
248.433	173.75
248.666	159.75
248.899	193.75
249.133	202.75
249.366	202.75
249.599	213.75
249.832	186.75
250.066	200.75
250.299	184.75
250.532	206.75
250.765	214.75
250.998	225.75
251.231	228.75
251.465	219.75
251.698	216.75
251.931	195.75
252.164	198.75
252.397	218.75
252.63	211.75
252.863	210.75
253.096	221.75
253.329	221.75
253.562	236.75
253.795	232.75
254.028	228.75
254.261	217.75
254.494	218.75
254.727	245.75
254.96	290.75
255.193	275.75
255.426	247.75
255.659	231.75
255.892	247.75
256.124	228.75
256.357	241.75
256.59	224.75
256.823	219.75
257.056	227.75
257.289	213.75
257.521	212.75
257.754	229.75
257.987	218.75
258.22	213.75
258.452	218.75
258.685	211.75
258.918	206.75
259.151	233.75
259.383	209.75
259.616	227.75
259.849	228.75
260.081	260.75
260.314	267.75
260.547	267.75
260.779	246.75
261.012	244.75
261.244	237.75
261.477	240.75
261.71	250.75
261.942	230.75
262.175	248.75
262.407	227.75
262.64	217.75
262.872	216.75
263.105	218.75
263.337	221.75
263.57	218.75
263.802	226.75
264.035	216.75
264.267	236.75
264.499	204.75
264.732	225.75
264.964	213.75
265.197	220.75
265.429	244.75
265.661	229.75
265.894	215.75
266.126	231.75
266.358	235.75
266.591	234.75
266.823	230.75
267.055	233.75
267.287	241.75
267.52	236.75
267.752	232.75
267.984	241.75
268.216	242.75
268.448	236.75
268.681	242.75
268.913	261.75
269.145	262.75
269.377	296.75
269.609	306.75
269.841	269.75
270.073	295.75
270.306	307.75
270.538	312.75
270.77	337.75
271.002	327.75
271.234	295.75
271.466	301.75
271.698	321.75
271.93	337.75
272.162	351.75
272.394	333.75
272.626	310.75
272.858	284.75
273.09	298.75
273.322	283.75
273.553	264.75
273.785	267.75
274.017	274.75
274.249	280.75
274.481	280.75
274.713	290.75
274.945	296.75
275.176	308.75
275.408	294.75
275.64	283.75
275.872	268.75
276.104	286.75
276.335	277.75
276.567	293.75
276.799	306.75
277.031	318.75
277.262	339.75
277.494	340.75
277.726	322.75
277.957	296.75
278.189	287.75
278.421	278.75
278.652	295.75
278.884	299.75
279.115	291.75
279.347	306.75
279.579	284.75
279.81	272.75
280.042	274.75
280.273	276.75
280.505	280.75
280.736	297.75
280.968	299.75
281.199	293.75
281.431	290.75
281.662	287.75
281.894	308.75
282.125	282.75
282.356	312.75
282.588	338.75
282.819	316.75
283.051	295.75
283.282	291.75
283.513	305.75
283.745	304.75
283.976	314.75
284.207	299.75
284.439	311.75
284.67	301.75
284.901	308.75
285.132	303.75
285.364	289.75
285.595	296.75
285.826	317.75
286.057	314.75
286.288	312.75
286.52	297.75
286.751	319.75
286.982	315.75
287.213	308.75
287.444	297.75
287.675	324.75
287.906	311.75
288.138	323.75
288.369	324.75
288.6	316.75
288.831	320.75
289.062	306.75
289.293	314.75
289.524	321.75
289.755	322.75
289.986	310.75
290.217	305.75
290.448	329.75
290.679	324.75
290.91	323.75
291.141	308.75
291.371	313.75
291.602	331.75
291.833	302.75
292.064	303.75
292.295	294.75
292.526	333.75
292.757	308.75
292.987	312.75
293.218	347.75
293.449	311.75
293.68	317.75
293.91	299.75
294.141	320.75
294.372	325.75
294.603	313.75
294.833	313.75
295.064	310.75
295.295	315.75
295.525	331.75
295.756	325.75
295.987	314.75
296.217	338.75
296.448	344.75
296.679	346.75
296.909	330.75
297.14	326.75
297.37	343.75
297.601	327.75
297.831	331.75
298.062	330.75
298.292	346.75
298.523	330.75
298.753	338.75
298.984	327.75
299.214	342.75
299.445	331.75
299.675	331.75
299.905	348.75
300.136	329.75
300.366	340.75
300.597	354.75
300.827	335.75
301.057	369.75
301.288	362.75
301.518	357.75
301.748	358.75
301.979	362.75
302.209	377.75
302.439	362.75
302.669	368.75
302.9	344.75
303.13	336.75
303.36	346.75
303.59	364.75
303.82	356.75
304.051	360.75
304.281	364.75
304.511	362.75
304.741	345.75
304.971	365.75
305.201	358.75
305.431	345.75
305.661	352.75
305.891	356.75
306.121	351.75
306.352	360.75
306.582	362.75
306.812	356.75
307.042	363.75
307.272	373.75
307.502	362.75
307.731	380.75
307.961	363.75
308.191	355.75
308.421	363.75
308.651	354.75
308.881	362.75
309.111	362.75
309.341	355.75
309.571	380.75
309.8	364.75
310.03	396.75
310.26	393.75
310.49	376.75
310.72	397.75
310.949	401.75
311.179	394.75
311.409	386.75
311.639	401.75
311.868	389.75
312.098	392.75
312.328	420.75
312.557	439.75
312.787	440.75
313.017	421.75
313.246	407.75
313.476	398.75
313.706	390.75
313.935	399.75
314.165	408.75
314.394	403.75
314.624	423.75
314.853	424.75
315.083	417.75
315.312	413.75
315.542	395.75
315.771	404.75
316.001	398.75
316.23	404.75
316.46	399.75
316.689	421.75
316.919	396.75
317.148	422.75
317.377	427.75
317.607	421.75
317.836	418.75
318.065	388.75
318.295	428.75
318.524	396.75
318.753	397.75
318.983	405.75
319.212	413.75
319.441	405.75
319.67	392.75
319.9	412.75
320.129	396.75
320.358	395.75
320.587	406.75
320.816	403.75
321.046	417.75
321.275	434.75
321.504	414.75
321.733	432.75
321.962	394.75
322.191	429.75
322.42	466.75
322.649	469.75
322.878	460.75
323.108	436.75
323.337	498.75
323.566	500.75
323.795	526.75
324.024	541.75
324.253	642.75
324.482	896.75
324.71	1374.75
324.939	2026.75
325.168	1772.75
325.397	896.75
325.626	650.75
325.855	564.75
326.084	521.75
326.313	503.75
326.542	491.75
326.77	525.75
326.999	617.75
327.228	852.75
327.457	1240.75
327.686	1549.75
327.914	1008.75
328.143	668.75
328.372	590.75
328.6	554.75
328.829	562.75
329.058	560.75
329.287	583.75
329.515	557.75
329.744	514.75
329.972	515.75
330.201	514.75
330.43	560.75
330.658	582.75
330.887	606.75
331.115	610.75
331.344	538.75
331.572	501.75
331.801	508.75
332.03	512.75
332.258	494.75
332.486	482.75
332.715	491.75
332.943	477.75
333.172	480.75
333.4	467.75
333.629	500.75
333.857	530.75
334.085	550.75
334.314	547.75
334.542	565.75
334.771	590.75
334.999	532.75
335.227	530.75
335.455	529.75
335.684	497.75
335.912	492.75
336.14	499.75
336.369	487.75
336.597	474.75
336.825	492.75
337.053	461.75
337.281	471.75
337.51	466.75
337.738	456.75
337.966	477.75
338.194	479.75
338.422	460.75
338.65	465.75
338.878	470.75
339.106	453.75
339.334	472.75
339.562	456.75
339.79	463.75
340.018	455.75
340.246	456.75
340.474	473.75
340.702	477.75
340.93	473.75
341.158	457.75
341.386	455.75
341.614	465.75
341.842	458.75
342.07	455.75
342.298	449.75
342.526	447.75
342.754	458.75
342.981	451.75
343.209	462.75
343.437	480.75
343.665	454.75
343.893	481.75
344.12	493.75
344.348	497.75
344.576	478.75
344.804	479.75
345.031	490.75
345.259	463.75
345.487	458.75
345.714	480.75
345.942	443.75
346.17	426.75
346.397	428.75
346.625	441.75
346.853	441.75
347.08	426.75
347.308	459.75
347.535	435.75
347.763	443.75
347.99	465.75
348.218	432.75
348.445	438.75
348.673	465.75
348.9	442.75
349.128	447.75
349.355	434.75
349.583	442.75
349.81	423.75
350.037	437.75
350.265	414.75
350.492	413.75
350.72	422.75
350.947	450.75
351.174	440.75
351.402	440.75
351.629	445.75
351.856	432.75
352.083	458.75
352.311	468.75
352.538	439.75
352.765	452.75
352.992	432.75
353.22	432.75
353.447	450.75
353.674	410.75
353.901	440.75
354.128	446.75
354.355	416.75
354.583	424.75
354.81	421.75
355.037	419.75
355.264	427.75
355.491	397.75
355.718	417.75
355.945	404.75
356.172	395.75
356.399	418.75
356.626	427.75
356.853	439.75
357.08	411.75
357.307	421.75
357.534	411.75
357.761	415.75
357.988	424.75
358.215	430.75
358.441	405.75
358.668	409.75
358.895	429.75
359.122	418.75
359.349	436.75
359.576	420.75
359.802	474.75
360.029	468.75
360.256	466.75
360.483	452.75
360.709	446.75
360.936	423.75
361.163	440.75
361.39	445.75
361.616	457.75
361.843	443.75
362.07	426.75
362.296	434.75
362.523	434.75
362.749	445.75
362.976	434.75
363.203	434.75
363.429	431.75
363.656	444.75
363.882	425.75
364.109	410.75
364.335	444.75
364.562	414.75
364.788	421.75
365.015	416.75
365.241	413.75
365.468	420.75
365.694	442.75
365.92	430.75
366.147	425.75
366.373	419.75
366.599	412.75
366.826	406.75
367.052	418.75
367.278	425.75
367.505	425.75
367.731	416.75
367.957	421.75
368.184	424.75
368.41	441.75
368.636	416.75
368.862	455.75
369.089	418.75
369.315	418.75
369.541	420.75
369.767	395.75
369.993	436.75
370.219	410.75
370.445	411.75
370.672	416.75
370.898	425.75
371.124	424.75
371.35	406.75
371.576	440.75
371.802	439.75
372.028	435.75
372.254	434.75
372.48	436.75
372.706	426.75
372.932	445.75
373.158	448.75
373.384	444.75
373.61	441.75
373.835	448.75
374.061	424.75
374.287	436.75
374.513	421.75
374.739	434.75
374.965	444.75
375.191	457.75
375.416	465.75
375.642	417.75
375.868	462.75
376.094	421.75
376.319	416.75
376.545	438.75
376.771	430.75
376.997	422.75
377.222	424.75
377.448	424.75
377.674	440.75
377.899	422.75
378.125	434.75
378.35	423.75
378.576	424.75
378.802	414.75
379.027	421.75
379.253	427.75
379.478	412.75
379.704	434.75
379.929	430.75
380.155	426.75
380.38	449.75
380.606	418.75
380.831	410.75
381.057	429.75
381.282	441.75
381.507	432.75
381.733	424.75
381.958	439.75
382.184	429.75
382.409	456.75
382.634	454.75
382.86	441.75
383.085	449.75
383.31	459.75
383.535	438.75
383.761	430.75
383.986	456.75
384.211	433.75
384.436	469.75
384.662	450.75
384.887	469.75
385.112	480.75
385.337	470.75
385.562	445.75
385.787	468.75
386.013	452.75
386.238	474.75
386.463	488.75
386.688	466.75
386.913	478.75
387.138	496.75
387.363	471.75
387.588	477.75
387.813	495.75
388.038	508.75
388.263	464.75
388.488	470.75
388.713	467.75
388.938	470.75
389.163	473.75
389.387	465.75
389.612	469.75
389.837	482.75
390.062	458.75
390.287	468.75
390.512	477.75
390.736	493.75
390.961	498.75
391.186	496.75
391.411	492.75
391.636	481.75
391.86	492.75
392.085	472.75
392.31	507.75
392.534	485.75
392.759	484.75
392.984	483.75
393.208	494.75
393.433	488.75
393.658	463.75
393.882	474.75
394.107	482.75
394.331	474.75
394.556	475.75
394.78	502.75
395.005	500.75
395.229	472.75
395.454	500.75
395.678	501.75
395.903	523.75
396.127	536.75
396.352	532.75
396.576	500.75
396.801	510.75
397.025	502.75
397.249	500.75
397.474	499.75
397.698	494.75
397.922	516.75
398.147	536.75
398.371	534.75
398.595	540.75
398.82	540.75
399.044	587.75
399.268	589.75
399.492	618.75
399.717	652.75
399.941	686.75
400.165	716.75
400.389	700.75
400.613	631.75
400.837	599.75
401.062	569.75
401.286	579.75
401.51	578.75
401.734	556.75
401.958	526.75
402.182	547.75
402.406	554.75
402.63	589.75
402.854	571.75
403.078	569.75
403.302	595.75
403.526	594.75
403.75	590.75
403.974	604.75
404.198	589.75
404.422	572.75
404.645	594.75
404.869	613.75
405.093	624.75
405.317	642.75
405.541	690.75
405.765	645.75
405.988	607.75
406.212	622.75
406.436	614.75
406.66	626.75
406.883	604.75
407.107	621.75
407.331	682.75
407.555	777.75
407.778	762.75
408.002	680.75
408.226	654.75
408.449	630.75
408.673	625.75
408.896	673.75
409.12	724.75
409.344	668.75
409.567	597.75
409.791	608.75
410.014	568.75
410.238	583.75
410.461	585.75
410.685	581.75
410.908	593.75
411.132	630.75
411.355	676.75
411.578	627.75
411.802	584.75
412.025	582.75
412.249	613.75
412.472	618.75
412.695	648.75
412.919	640.75
413.142	586.75
413.365	566.75
413.589	552.75
413.812	552.75
414.035	547.75
414.258	546.75
414.482	516.75
414.705	546.75
414.928	540.75
415.151	546.75
415.374	541.75
415.597	523.75
415.821	554.75
416.044	541.75
416.267	573.75
416.49	536.75
416.713	548.75
416.936	546.75
417.159	549.75
417.382	550.75
417.605	552.75
417.828	564.75
418.051	581.75
418.274	567.75
418.497	557.75
418.72	567.75
418.943	547.75
419.166	580.75
419.389	594.75
419.611	581.75
419.834	602.75
420.057	561.75
420.28	570.75
420.503	575.75
420.726	564.75
420.948	590.75
421.171	634.75
421.394	668.75
421.617	606.75
421.839	573.75
422.062	576.75
422.285	582.75
422.507	632.75
422.73	724.75
422.953	681.75
423.175	622.75
423.398	609.75
423.621	585.75
423.843	614.75
424.066	596.75
424.288	603.75
424.511	630.75
424.733	691.75
424.956	728.75
425.178	736.75
425.401	718.75
425.623	748.75
425.846	639.75
426.068	578.75
426.291	577.75
426.513	597.75
426.735	604.75
426.958	668.75
427.18	702.75
427.402	868.75
427.625	969.75
427.847	818.75
428.069	715.75
428.292	619.75
428.514	576.75
428.736	568.75
428.958	562.75
429.181	546.75
429.403	550.75
429.625	566.75
429.847	579.75
430.069	652.75
430.292	667.75
430.514	582.75
430.736	550.75
430.958	533.75
431.18	538.75
431.402	556.75
431.624	519.75
431.846	517.75
432.068	537.75
432.29	515.75
432.512	526.75
432.734	545.75
432.956	533.75
433.178	555.75
433.4	522.75
433.622	529.75
433.844	541.75
434.066	547.75
434.287	530.75
434.509	513.75
434.731	536.75
434.953	536.75
435.175	569.75
435.397	581.75
435.618	622.75
435.84	640.75
436.062	722.75
436.284	788.75
436.505	646.75
436.727	599.75
436.949	564.75
437.17	555.75
437.392	541.75
437.614	580.75
437.835	595.75
438.057	694.75
438.278	776.75
438.5	764.75
438.721	865.75
438.943	871.75
439.165	670.75
439.386	611.75
439.608	602.75
439.829	578.75
440.05	615.75
440.272	669.75
440.493	648.75
440.715	612.75
440.936	591.75
441.158	577.75
441.379	585.75
441.6	576.75
441.822	601.75
442.043	632.75
442.264	717.75
442.486	788.75
442.707	680.75
442.928	600.75
443.149	608.75
443.371	611.75
443.592	675.75
443.813	790.75
444.034	854.75
444.255	714.75
444.476	642.75
444.698	641.75
444.919	638.75
445.14	746.75
445.361	677.75
445.582	664.75
445.803	717.75
446.024	800.75
446.245	798.75
446.466	761.75
446.687	644.75
446.908	599.75
447.129	570.75
447.35	569.75
447.571	556.75
447.792	520.75
448.013	556.75
448.234	556.75
448.455	597.75
448.675	724.75
448.896	856.75
449.117	731.75
449.338	662.75
449.559	770.75
449.779	880.75
450	710.75
450.221	635.75
450.442	542.75
450.662	542.75
450.883	513.75
451.104	548.75
451.324	552.75
451.545	513.75
451.766	518.75
451.986	488.75
452.207	483.75
452.428	473.75
452.648	490.75
452.869	493.75
453.089	505.75
453.31	541.75
453.53	484.75
453.751	488.75
453.971	501.75
454.192	506.75
454.412	497.75
454.633	462.75
454.853	472.75
455.073	477.75
455.294	524.75
455.514	587.75
455.734	562.75
455.955	492.75
456.175	476.75
456.395	473.75
456.616	451.75
456.836	469.75
457.056	466.75
457.276	439.75
457.497	466.75
457.717	470.75
457.937	448.75
458.157	473.75
458.377	491.75
458.598	515.75
458.818	551.75
459.038	614.75
459.258	636.75
459.478	548.75
459.698	534.75
459.918	517.75
460.138	543.75
460.358	544.75
460.578	554.75
460.798	538.75
461.018	563.75
461.238	554.75
461.458	534.75
461.678	534.75
461.898	560.75
462.118	548.75
462.338	588.75
462.558	573.75
462.777	588.75
462.997	589.75
463.217	608.75
463.437	605.75
463.657	621.75
463.876	591.75
464.096	601.75
464.316	598.75
464.536	609.75
464.755	595.75
464.975	593.75
465.195	606.75
465.414	641.75
465.634	592.75
465.854	552.75
466.073	532.75
466.293	515.75
466.512	512.75
466.732	502.75
466.951	511.75
467.171	522.75
467.391	515.75
467.61	514.75
467.829	523.75
468.049	506.75
468.268	489.75
468.488	501.75
468.707	506.75
468.927	498.75
469.146	479.75
469.365	489.75
469.585	501.75
469.804	490.75
470.023	505.75
470.243	523.75
470.462	532.75
470.681	542.75
470.901	505.75
471.12	512.75
471.339	500.75
471.558	498.75
471.777	526.75
471.997	506.75
472.216	525.75
472.435	561.75
472.654	518.75
472.873	518.75
473.092	508.75
473.311	484.75
473.53	499.75
473.749	540.75
473.968	539.75
474.187	639.75
474.406	667.75
474.625	564.75
474.844	493.75
475.063	524.75
475.282	516.75
475.501	533.75
475.72	520.75
475.939	535.75
476.158	526.75
476.377	533.75
476.596	514.75
476.814	556.75
477.033	541.75
477.252	550.75
477.471	539.75
477.69	540.75
477.908	560.75
478.127	565.75
478.346	544.75
478.564	573.75
478.783	588.75
479.002	574.75
479.22	625.75
479.439	582.75
479.658	595.75
479.876	626.75
480.095	618.75
480.313	649.75
480.532	654.75
480.751	658.75
480.969	617.75
481.188	681.75
481.406	681.75
481.624	625.75
481.843	610.75
482.061	609.75
482.28	586.75
482.498	587.75
482.717	567.75
482.935	590.75
483.153	589.75
483.372	590.75
483.59	582.75
483.808	574.75
484.027	595.75
484.245	598.75
484.463	563.75
484.681	607.75
484.9	624.75
485.118	600.75
485.336	600.75
485.554	612.75
485.772	633.75
485.99	621.75
486.209	610.75
486.427	612.75
486.645	628.75
486.863	637.75
487.081	611.75
487.299	628.75
487.517	648.75
487.735	645.75
487.953	650.75
488.171	635.75
488.389	613.75
488.607	613.75
488.825	639.75
489.043	628.75
489.261	626.75
489.479	644.75
489.696	653.75
489.914	653.75
490.132	645.75
490.35	651.75
490.568	659.75
490.786	683.75
491.003	689.75
491.221	676.75
491.439	709.75
491.657	726.75
491.874	730.75
492.092	738.75
492.31	717.75
492.527	733.75
492.745	708.75
492.963	726.75
493.18	736.75
493.398	760.75
493.615	725.75
493.833	739.75
494.05	737.75
494.268	736.75
494.485	741.75
494.703	745.75
494.92	727.75
495.138	743.75
495.355	738.75
495.573	750.75
495.79	752.75
496.008	754.75
496.225	759.75
496.442	748.75
496.66	742.75
496.877	765.75
497.094	774.75
497.312	773.75
497.529	769.75
497.746	780.75
497.963	800.75
498.181	850.75
498.398	835.75
498.615	849.75
498.832	884.75
499.049	921.75
499.267	937.75
499.484	976.75
499.701	1004.75
499.918	1050.75
500.135	1140.75
500.352	1193.75
500.569	1206.75
500.786	1193.75
501.003	1225.75
501.22	1114.75
501.437	1071.75
501.654	1030.75
501.871	994.75
502.088	987.75
502.305	889.75
502.522	884.75
502.739	868.75
502.956	805.75
503.172	818.75
503.389	804.75
503.606	799.75
503.823	768.75
504.04	757.75
504.256	796.75
504.473	770.75
504.69	778.75
504.907	757.75
505.123	733.75
505.34	739.75
505.557	725.75
505.773	708.75
505.99	722.75
506.207	724.75
506.423	713.75
506.64	707.75
506.856	672.75
507.073	686.75
507.289	694.75
507.506	676.75
507.722	694.75
507.939	691.75
508.155	680.75
508.372	666.75
508.588	660.75
508.805	662.75
509.021	677.75
509.238	664.75
509.454	684.75
509.67	671.75
509.887	651.75
510.103	662.75
510.319	662.75
510.536	727.75
510.752	1072.75
510.968	866.75
511.184	647.75
511.401	617.75
511.617	639.75
511.833	628.75
512.049	617.75
512.265	611.75
512.481	620.75
512.698	616.75
512.914	611.75
513.13	600.75
513.346	608.75
513.562	617.75
513.778	626.75
513.994	631.75
514.21	654.75
514.426	656.75
514.642	654.75
514.858	683.75
515.074	719.75
515.29	814.75
515.506	1086.75
515.721	965.75
515.937	718.75
516.153	676.75
516.369	666.75
516.585	662.75
516.801	651.75
517.016	660.75
517.232	650.75
517.448	688.75
517.664	699.75
517.879	663.75
518.095	678.75
518.311	666.75
518.527	675.75
518.742	653.75
518.958	621.75
519.173	653.75
519.389	621.75
519.605	623.75
519.82	616.75
520.036	650.75
520.251	619.75
520.467	672.75
520.682	656.75
520.898	650.75
521.113	668.75
521.329	697.75
521.544	770.75
521.76	896.75
521.975	1366.75
522.19	1326.75
522.406	814.75
522.621	672.75
522.836	621.75
523.052	598.75
523.267	590.75
523.482	572.75
523.698	554.75
523.913	568.75
524.128	576.75
524.343	550.75
524.559	554.75
524.774	549.75
524.989	546.75
525.204	550.75
525.419	569.75
525.634	538.75
525.849	537.75
526.064	549.75
526.28	518.75
526.495	514.75
526.71	528.75
526.925	518.75
527.14	520.75
527.355	517.75
527.57	510.75
527.785	522.75
527.999	517.75
528.214	519.75
528.429	524.75
528.644	515.75
528.859	518.75
529.074	528.75
529.289	539.75
529.503	589.75
529.718	611.75
529.933	542.75
530.148	535.75
530.363	517.75
530.577	521.75
530.792	531.75
531.007	520.75
531.221	500.75
531.436	490.75
531.651	529.75
531.865	500.75
532.08	501.75
532.295	489.75
532.509	499.75
532.724	502.75
532.938	490.75
533.153	523.75
533.367	500.75
533.582	508.75
533.796	514.75
534.011	490.75
534.225	507.75
534.44	489.75
534.654	484.75
534.868	482.75
535.083	466.75
535.297	514.75
535.511	490.75
535.726	514.75
535.94	491.75
536.154	492.75
536.369	475.75
536.583	476.75
536.797	484.75
537.011	488.75
537.225	478.75
537.44	474.75
537.654	462.75
537.868	474.75
538.082	473.75
538.296	486.75
538.51	500.75
538.724	482.75
538.938	474.75
539.153	467.75
539.367	496.75
539.581	493.75
539.795	471.75
540.009	478.75
540.222	470.75
540.436	492.75
540.65	498.75
540.864	458.75
541.078	474.75
541.292	479.75
541.506	473.75
541.72	474.75
541.934	467.75
542.147	456.75
542.361	472.75
542.575	469.75
542.789	480.75
543.002	491.75
543.216	479.75
543.43	473.75
543.644	491.75
543.857	475.75
544.071	460.75
544.285	493.75
544.498	468.75
544.712	470.75
544.925	487.75
545.139	489.75
545.352	464.75
545.566	484.75
545.779	486.75
545.993	486.75
546.206	477.75
546.42	472.75
546.633	466.75
546.847	474.75
547.06	457.75
547.274	466.75
547.487	458.75
547.7	470.75
547.914	463.75
548.127	461.75
548.34	471.75
548.554	470.75
548.767	479.75
548.98	453.75
549.193	456.75
549.407	473.75
549.62	483.75
549.833	489.75
550.046	470.75
550.259	463.75
550.473	474.75
550.686	461.75
550.899	464.75
551.112	466.75
551.325	459.75
551.538	457.75
551.751	449.75
551.964	442.75
552.177	469.75
552.39	448.75
552.603	470.75
552.816	474.75
553.029	483.75
553.242	484.75
553.455	473.75
553.667	472.75
553.88	496.75
554.093	505.75
554.306	467.75
554.519	484.75
554.732	474.75
554.944	473.75
555.157	445.75
555.37	459.75
555.583	446.75
555.795	430.75
556.008	438.75
556.221	411.75
556.433	420.75
556.646	416.75
556.859	435.75
557.071	432.75
557.284	425.75
557.496	425.75
557.709	437.75
557.921	412.75
558.134	387.75
558.346	414.75
558.559	413.75
558.771	426.75
558.984	408.75
559.196	410.75
559.409	411.75
559.621	392.75
559.833	407.75
560.046	380.75
560.258	416.75
560.47	422.75
560.683	384.75
560.895	414.75
561.107	391.75
561.32	382.75
561.532	398.75
561.744	426.75
561.956	418.75
562.168	418.75
562.381	416.75
562.593	403.75
562.805	412.75
563.017	414.75
563.229	427.75
563.441	425.75
563.653	411.75
563.865	425.75
564.077	408.75
564.289	434.75
564.501	416.75
564.713	432.75
564.925	464.75
565.137	468.75
565.349	452.75
565.561	473.75
565.773	466.75
565.985	491.75
566.197	461.75
566.408	504.75
566.62	507.75
566.832	537.75
567.044	530.75
567.255	547.75
567.467	542.75
567.679	560.75
567.891	581.75
568.102	572.75
568.314	580.75
568.526	521.75
568.737	522.75
568.949	480.75
569.161	478.75
569.372	455.75
569.584	451.75
569.795	424.75
570.007	436.75
570.218	467.75
570.43	434.75
570.641	430.75
570.853	397.75
571.064	408.75
571.276	420.75
571.487	398.75
571.698	398.75
571.91	378.75
572.121	392.75
572.333	397.75
572.544	371.75
572.755	365.75
572.966	372.75
573.178	372.75
573.389	348.75
573.6	382.75
573.811	373.75
574.023	365.75
574.234	353.75
574.445	352.75
574.656	368.75
574.867	357.75
575.078	340.75
575.289	378.75
575.501	354.75
575.712	360.75
575.923	350.75
576.134	359.75
576.345	344.75
576.556	346.75
576.767	354.75
576.978	341.75
577.188	344.75
577.399	332.75
577.61	346.75
577.821	328.75
578.032	344.75
578.243	362.75
578.454	542.75
578.665	406.75
578.875	345.75
579.086	346.75
579.297	330.75
579.508	332.75
579.718	342.75
579.929	333.75
580.14	342.75
580.35	325.75
580.561	333.75
580.772	326.75
580.982	298.75
581.193	319.75
581.403	334.75
581.614	328.75
581.825	320.75
582.035	332.75
582.246	344.75
582.456	320.75
582.667	322.75
582.877	315.75
583.087	321.75
583.298	309.75
583.508	332.75
583.719	320.75
583.929	322.75
584.139	320.75
584.35	321.75
584.56	317.75
584.77	336.75
584.981	308.75
585.191	327.75
585.401	312.75
585.611	297.75
585.821	322.75
586.032	320.75
586.242	321.75
586.452	307.75
586.662	296.75
586.872	294.75
587.082	310.75
587.292	320.75
587.502	313.75
587.713	310.75
587.923	307.75
588.133	301.75
588.343	284.75
588.553	308.75
588.762	306.75
588.972	316.75
589.182	299.75
589.392	294.75
589.602	289.75
589.812	324.75
590.022	338.75
590.232	317.75
590.441	311.75
590.651	322.75
590.861	317.75
591.071	310.75
591.281	299.75
591.49	314.75
591.7	304.75
591.91	307.75
592.119	312.75
592.329	329.75
592.539	325.75
592.748	332.75
592.958	333.75
593.167	349.75
593.377	347.75
593.587	338.75
593.796	349.75
594.006	350.75
594.215	340.75
594.424	344.75
594.634	335.75
594.843	325.75
595.053	324.75
595.262	328.75
595.472	312.75
595.681	308.75
595.89	305.75
596.1	306.75
596.309	315.75
596.518	292.75
596.727	282.75
596.937	297.75
597.146	293.75
597.355	303.75
597.564	282.75
597.774	271.75
597.983	280.75
598.192	277.75
598.401	284.75
598.61	285.75
598.819	267.75
599.028	274.75
599.237	291.75
599.446	283.75
599.655	292.75
599.864	277.75
600.073	270.75
600.282	268.75
600.491	284.75
600.7	272.75
600.909	270.75
601.118	280.75
601.327	264.75
601.536	268.75
601.745	269.75
601.953	271.75
602.162	260.75
602.371	260.75
602.58	256.75
602.789	270.75
602.997	271.75
603.206	258.75
603.415	275.75
603.623	295.75
603.832	258.75
604.041	273.75
604.249	271.75
604.458	259.75
604.666	258.75
604.875	264.75
605.084	255.75
605.292	271.75
605.501	251.75
605.709	261.75
605.918	251.75
606.126	271.75
606.334	255.75
606.543	254.75
606.751	260.75
606.96	268.75
607.168	244.75
607.376	239.75
607.585	261.75
607.793	266.75
608.001	249.75
608.21	251.75
608.418	253.75
608.626	260.75
608.834	237.75
609.043	250.75
609.251	250.75
609.459	249.75
609.667	262.75
609.875	250.75
610.083	239.75
610.291	246.75
610.499	246.75
610.707	237.75
610.916	242.75
611.124	240.75
611.332	258.75
611.54	264.75
611.748	266.75
611.955	246.75
612.163	258.75
612.371	268.75
612.579	245.75
612.787	240.75
612.995	250.75
613.203	249.75
613.411	243.75
613.618	234.75
613.826	253.75
614.034	264.75
614.242	258.75
614.449	237.75
614.657	258.75
614.865	236.75
615.072	244.75
615.28	249.75
615.488	245.75
615.695	226.75
615.903	246.75
616.111	258.75
616.318	248.75
616.526	242.75
616.733	233.75
616.941	234.75
617.148	248.75
617.356	269.75
617.563	246.75
617.771	242.75
617.978	248.75
618.185	242.75
618.393	246.75
618.6	249.75
618.807	253.75
619.015	251.75
619.222	248.75
619.429	242.75
619.637	244.75
619.844	255.75
620.051	247.75
620.258	240.75
620.466	238.75
620.673	228.75
620.88	225.75
621.087	228.75
621.294	236.75
621.501	220.75
621.708	241.75
621.915	236.75
622.122	226.75
622.329	234.75
622.536	225.75
622.743	234.75
622.95	218.75
623.157	223.75
623.364	232.75
623.571	216.75
623.778	227.75
623.985	220.75
624.192	218.75
624.399	218.75
624.606	227.75
624.812	235.75
625.019	233.75
625.226	222.75
625.433	222.75
625.639	224.75
625.846	213.75
626.053	206.75
626.259	220.75
626.466	241.75
626.673	204.75
626.879	202.75
627.086	226.75
627.293	206.75
627.499	201.75
627.706	218.75
627.912	208.75
628.119	210.75
628.325	207.75
628.532	202.75
628.738	207.75
628.945	190.75
629.151	210.75
629.357	212.75
629.564	203.75
629.77	238.75
629.976	209.75
630.183	193.75
630.389	219.75
630.595	195.75
630.802	209.75
631.008	210.75
631.214	200.75
631.42	192.75
631.627	217.75
631.833	179.75
632.039	193.75
632.245	192.75
632.451	201.75
632.657	210.75
632.863	182.75
633.069	190.75
633.275	200.75
633.481	201.75
633.688	186.75
633.893	213.75
634.099	202.75
634.305	188.75
634.511	195.75
634.717	203.75
634.923	177.75
635.129	171.75
635.335	188.75
635.541	175.75
635.747	180.75
635.952	179.75
636.158	199.75
636.364	199.75
636.57	208.75
636.775	201.75
636.981	173.75
637.187	183.75
637.392	181.75
637.598	187.75
637.804	186.75
638.009	188.75
638.215	204.75
638.421	186.75
638.626	185.75
638.832	193.75
639.037	183.75
639.243	184.75
639.448	189.75
639.654	189.75
639.859	174.75
640.065	176.75
640.27	177.75
640.475	185.75
640.681	175.75
640.886	174.75
641.091	172.75
641.297	187.75
641.502	192.75
641.707	183.75
641.913	182.75
642.118	180.75
642.323	167.75
642.528	178.75
642.733	178.75
642.939	171.75
643.144	185.75
643.349	178.75
643.554	181.75
643.759	168.75
643.964	165.75
644.169	169.75
644.374	172.75
644.579	167.75
644.784	172.75
644.989	172.75
645.194	189.75
645.399	166.75
645.604	153.75
645.809	178.75
646.014	157.75
646.219	169.75
646.423	171.75
646.628	151.75
646.833	170.75
647.038	166.75
647.243	164.75
647.447	164.75
647.652	172.75
647.857	166.75
648.062	187.75
648.266	172.75
648.471	180.75
648.676	167.75
648.88	179.75
649.085	180.75
649.289	188.75
649.494	186.75
649.698	193.75
649.903	197.75
650.107	170.75
650.312	181.75
650.516	158.75
650.721	167.75
650.925	153.75
651.13	160.75
651.334	157.75
651.539	160.75
651.743	157.75
651.947	148.75
652.152	147.75
652.356	155.75
652.56	151.75
652.764	160.75
652.969	156.75
653.173	160.75
653.377	142.75
653.581	148.75
653.785	132.75
653.99	121.75
654.194	147.75
654.398	129.75
654.602	148.75
654.806	138.75
655.01	139.75
655.214	133.75
655.418	160.75
655.622	146.75
655.826	132.75
656.03	125.75
656.234	131.75
656.438	134.75
656.642	140.75
656.846	126.75
657.049	137.75
657.253	152.75
657.457	119.75
657.661	122.75
657.865	125.75
658.068	106.75
658.272	118.75
658.476	101.75
658.68	118.75
658.883	88.75
659.087	111.75
659.291	103.75
659.494	103.75
659.698	94.75
659.901	105.75
660.105	102.75
660.309	102.75
660.512	91.75
660.716	83.75
660.919	104.75
661.123	81.75
661.326	97.75
661.53	90.75
661.733	81.75
661.936	97.75
662.14	90.75
662.343	82.75
662.546	75.75
662.75	82.75
662.953	80.75
663.156	76.75
663.36	96.75
663.563	83.75
663.766	78.75
663.969	93.75
664.173	87.75
664.376	79.75
664.579	93.75
664.782	91.75
664.985	81.75
665.188	73.75
665.391	80.75
665.594	100.75
665.797	83.75
666	90.75
666.203	74.75
666.406	63.75
666.609	85.75
666.812	73.75
667.015	83.75
667.218	77.75
667.421	93.75
667.624	73.75
667.827	77.75
668.03	72.75
668.232	88.75
668.435	78.75
668.638	78.75
668.841	89.75
669.043	85.75
669.246	87.75
669.449	80.75
669.651	82.75
669.854	81.75
670.057	68.75
670.259	94.75
670.462	85.75
670.665	85.75
670.867	84.75
671.07	83.75
671.272	76.75
671.475	89.75
671.677	73.75
671.88	84.75
672.082	82.75
672.284	82.75
672.487	77.75
672.689	82.75
672.892	89.75
