Data from 1976.PennyLincolnUp.Lamp.En5.5.200Scan.071719.P1.Changed Mount._HRD10591_16-02-08-862.txt Node
Date: Thu Jul 18 16:02:08 EDT 2019
User: cochatt
Spectrometer: HR+D1059
Trigger mode: 1
Integration Time (sec): 1.000000E-1
Scans to average: 1
Electric dark correction enabled: true
Nonlinearity correction enabled: false
Boxcar width: 0
XAxis mode: Wavelengths
Number of Pixels in Spectrum: 2048
>>>>>Begin Spectral Data<<<<<
223.165	-10.62
223.4	-10.62
223.635	-10.62
223.869	-15.62
224.104	-12.62
224.338	-12.62
224.573	6.38
224.808	-10.62
225.042	-19.62
225.277	-4.62
225.511	-10.62
225.746	-5.62
225.98	3.38
226.215	8.38
226.449	16.38
226.683	18.38
226.918	25.38
227.152	24.38
227.387	28.38
227.621	33.38
227.856	48.38
228.09	40.38
228.324	47.38
228.559	67.38
228.793	63.38
229.027	88.38
229.262	108.38
229.496	120.38
229.73	151.38
229.964	161.38
230.199	124.38
230.433	115.38
230.667	107.38
230.901	107.38
231.136	102.38
231.37	117.38
231.604	108.38
231.838	111.38
232.072	111.38
232.306	104.38
232.541	114.38
232.775	115.38
233.009	114.38
233.243	116.38
233.477	109.38
233.711	110.38
233.945	118.38
234.179	114.38
234.413	103.38
234.647	108.38
234.881	111.38
235.115	115.38
235.349	121.38
235.583	118.38
235.817	127.38
236.051	125.38
236.285	127.38
236.519	127.38
236.753	124.38
236.987	140.38
237.221	163.38
237.455	223.38
237.689	184.38
237.922	131.38
238.156	127.38
238.39	138.38
238.624	131.38
238.858	126.38
239.091	117.38
239.325	111.38
239.559	127.38
239.793	131.38
240.027	122.38
240.26	138.38
240.494	153.38
240.728	164.38
240.961	151.38
241.195	131.38
241.429	138.38
241.662	148.38
241.896	118.38
242.13	146.38
242.363	120.38
242.597	124.38
242.83	152.38
243.064	131.38
243.298	135.38
243.531	144.38
243.765	129.38
243.998	152.38
244.232	167.38
244.465	145.38
244.699	153.38
244.932	146.38
245.166	136.38
245.399	159.38
245.633	141.38
245.866	148.38
246.099	148.38
246.333	150.38
246.566	152.38
246.8	163.38
247.033	154.38
247.266	148.38
247.5	162.38
247.733	160.38
247.966	187.38
248.2	183.38
248.433	184.38
248.666	179.38
248.899	194.38
249.133	204.38
249.366	204.38
249.599	196.38
249.832	206.38
250.066	186.38
250.299	187.38
250.532	200.38
250.765	214.38
250.998	231.38
251.231	256.38
251.465	235.38
251.698	214.38
251.931	208.38
252.164	208.38
252.397	206.38
252.63	206.38
252.863	213.38
253.096	218.38
253.329	215.38
253.562	217.38
253.795	208.38
254.028	221.38
254.261	214.38
254.494	244.38
254.727	256.38
254.96	282.38
255.193	268.38
255.426	264.38
255.659	235.38
255.892	243.38
256.124	235.38
256.357	221.38
256.59	225.38
256.823	211.38
257.056	213.38
257.289	208.38
257.521	228.38
257.754	228.38
257.987	214.38
258.22	219.38
258.452	207.38
258.685	217.38
258.918	212.38
259.151	208.38
259.383	241.38
259.616	253.38
259.849	224.38
260.081	258.38
260.314	275.38
260.547	264.38
260.779	266.38
261.012	246.38
261.244	226.38
261.477	249.38
261.71	213.38
261.942	235.38
262.175	226.38
262.407	222.38
262.64	233.38
262.872	234.38
263.105	220.38
263.337	212.38
263.57	233.38
263.802	213.38
264.035	231.38
264.267	228.38
264.499	223.38
264.732	232.38
264.964	245.38
265.197	236.38
265.429	225.38
265.661	232.38
265.894	225.38
266.126	230.38
266.358	216.38
266.591	240.38
266.823	245.38
267.055	238.38
267.287	244.38
267.52	237.38
267.752	230.38
267.984	232.38
268.216	255.38
268.448	249.38
268.681	268.38
268.913	257.38
269.145	280.38
269.377	287.38
269.609	285.38
269.841	293.38
270.073	288.38
270.306	314.38
270.538	330.38
270.77	324.38
271.002	318.38
271.234	290.38
271.466	308.38
271.698	323.38
271.93	345.38
272.162	334.38
272.394	336.38
272.626	321.38
272.858	304.38
273.09	299.38
273.322	288.38
273.553	269.38
273.785	288.38
274.017	279.38
274.249	277.38
274.481	284.38
274.713	268.38
274.945	297.38
275.176	279.38
275.408	268.38
275.64	275.38
275.872	287.38
276.104	267.38
276.335	283.38
276.567	291.38
276.799	293.38
277.031	335.38
277.262	311.38
277.494	330.38
277.726	309.38
277.957	317.38
278.189	297.38
278.421	296.38
278.652	292.38
278.884	280.38
279.115	289.38
279.347	283.38
279.579	298.38
279.81	279.38
280.042	282.38
280.273	290.38
280.505	300.38
280.736	274.38
280.968	296.38
281.199	303.38
281.431	293.38
281.662	300.38
281.894	282.38
282.125	305.38
282.356	317.38
282.588	300.38
282.819	324.38
283.051	307.38
283.282	310.38
283.513	311.38
283.745	293.38
283.976	298.38
284.207	319.38
284.439	309.38
284.67	310.38
284.901	322.38
285.132	303.38
285.364	293.38
285.595	309.38
285.826	305.38
286.057	326.38
286.288	299.38
286.52	308.38
286.751	311.38
286.982	319.38
287.213	315.38
287.444	323.38
287.675	341.38
287.906	317.38
288.138	328.38
288.369	346.38
288.6	312.38
288.831	314.38
289.062	329.38
289.293	303.38
289.524	329.38
289.755	329.38
289.986	307.38
290.217	321.38
290.448	301.38
290.679	314.38
290.91	316.38
291.141	315.38
291.371	325.38
291.602	312.38
291.833	316.38
292.064	316.38
292.295	313.38
292.526	303.38
292.757	310.38
292.987	307.38
293.218	328.38
293.449	324.38
293.68	323.38
293.91	325.38
294.141	315.38
294.372	332.38
294.603	325.38
294.833	320.38
295.064	312.38
295.295	345.38
295.525	317.38
295.756	335.38
295.987	318.38
296.217	330.38
296.448	371.38
296.679	338.38
296.909	318.38
297.14	326.38
297.37	326.38
297.601	339.38
297.831	326.38
298.062	321.38
298.292	327.38
298.523	338.38
298.753	333.38
298.984	331.38
299.214	342.38
299.445	355.38
299.675	343.38
299.905	336.38
300.136	360.38
300.366	334.38
300.597	345.38
300.827	362.38
301.057	340.38
301.288	356.38
301.518	344.38
301.748	356.38
301.979	381.38
302.209	349.38
302.439	361.38
302.669	371.38
302.9	365.38
303.13	367.38
303.36	360.38
303.59	360.38
303.82	363.38
304.051	367.38
304.281	342.38
304.511	385.38
304.741	346.38
304.971	350.38
305.201	334.38
305.431	355.38
305.661	367.38
305.891	350.38
306.121	352.38
306.352	353.38
306.582	361.38
306.812	365.38
307.042	355.38
307.272	352.38
307.502	353.38
307.731	332.38
307.961	349.38
308.191	349.38
308.421	368.38
308.651	363.38
308.881	355.38
309.111	363.38
309.341	379.38
309.571	368.38
309.8	390.38
310.03	380.38
310.26	420.38
310.49	395.38
310.72	407.38
310.949	396.38
311.179	435.38
311.409	415.38
311.639	395.38
311.868	407.38
312.098	398.38
312.328	417.38
312.557	427.38
312.787	424.38
313.017	424.38
313.246	435.38
313.476	392.38
313.706	398.38
313.935	417.38
314.165	397.38
314.394	442.38
314.624	423.38
314.853	415.38
315.083	415.38
315.312	410.38
315.542	395.38
315.771	391.38
316.001	403.38
316.23	373.38
316.46	415.38
316.689	398.38
316.919	403.38
317.148	405.38
317.377	410.38
317.607	423.38
317.836	421.38
318.065	375.38
318.295	400.38
318.524	395.38
318.753	403.38
318.983	403.38
319.212	408.38
319.441	396.38
319.67	392.38
319.9	418.38
320.129	409.38
320.358	412.38
320.587	393.38
320.816	391.38
321.046	422.38
321.275	415.38
321.504	421.38
321.733	412.38
321.962	431.38
322.191	417.38
322.42	427.38
322.649	461.38
322.878	443.38
323.108	455.38
323.337	487.38
323.566	496.38
323.795	533.38
324.024	575.38
324.253	669.38
324.482	923.38
324.71	1424.38
324.939	2108.38
325.168	1827.38
325.397	917.38
325.626	645.38
325.855	549.38
326.084	531.38
326.313	500.38
326.542	503.38
326.77	536.38
326.999	633.38
327.228	837.38
327.457	1290.38
327.686	1571.38
327.914	1084.38
328.143	710.38
328.372	607.38
328.6	581.38
328.829	563.38
329.058	561.38
329.287	550.38
329.515	541.38
329.744	503.38
329.972	533.38
330.201	550.38
330.43	578.38
330.658	565.38
330.887	593.38
331.115	589.38
331.344	550.38
331.572	503.38
331.801	507.38
332.03	491.38
332.258	521.38
332.486	488.38
332.715	487.38
332.943	501.38
333.172	491.38
333.4	511.38
333.629	502.38
333.857	512.38
334.085	526.38
334.314	532.38
334.542	549.38
334.771	573.38
334.999	549.38
335.227	511.38
335.455	499.38
335.684	506.38
335.912	503.38
336.14	492.38
336.369	465.38
336.597	492.38
336.825	503.38
337.053	472.38
337.281	472.38
337.51	469.38
337.738	460.38
337.966	474.38
338.194	485.38
338.422	500.38
338.65	487.38
338.878	467.38
339.106	459.38
339.334	451.38
339.562	480.38
339.79	457.38
340.018	448.38
340.246	467.38
340.474	469.38
340.702	456.38
340.93	458.38
341.158	464.38
341.386	461.38
341.614	449.38
341.842	476.38
342.07	449.38
342.298	456.38
342.526	462.38
342.754	447.38
342.981	432.38
343.209	467.38
343.437	449.38
343.665	455.38
343.893	463.38
344.12	486.38
344.348	475.38
344.576	476.38
344.804	471.38
345.031	470.38
345.259	462.38
345.487	460.38
345.714	454.38
345.942	455.38
346.17	459.38
346.397	443.38
346.625	433.38
346.853	445.38
347.08	449.38
347.308	449.38
347.535	443.38
347.763	467.38
347.99	443.38
348.218	455.38
348.445	447.38
348.673	433.38
348.9	442.38
349.128	431.38
349.355	425.38
349.583	428.38
349.81	413.38
350.037	428.38
350.265	436.38
350.492	422.38
350.72	433.38
350.947	403.38
351.174	445.38
351.402	459.38
351.629	439.38
351.856	424.38
352.083	431.38
352.311	455.38
352.538	436.38
352.765	454.38
352.992	432.38
353.22	439.38
353.447	435.38
353.674	439.38
353.901	412.38
354.128	424.38
354.355	432.38
354.583	431.38
354.81	406.38
355.037	411.38
355.264	410.38
355.491	396.38
355.718	394.38
355.945	406.38
356.172	417.38
356.399	411.38
356.626	410.38
356.853	399.38
357.08	414.38
357.307	415.38
357.534	419.38
357.761	402.38
357.988	403.38
358.215	421.38
358.441	418.38
358.668	438.38
358.895	431.38
359.122	426.38
359.349	441.38
359.576	438.38
359.802	457.38
360.029	457.38
360.256	482.38
360.483	465.38
360.709	462.38
360.936	427.38
361.163	440.38
361.39	443.38
361.616	431.38
361.843	443.38
362.07	443.38
362.296	449.38
362.523	446.38
362.749	440.38
362.976	454.38
363.203	439.38
363.429	406.38
363.656	439.38
363.882	441.38
364.109	441.38
364.335	407.38
364.562	428.38
364.788	435.38
365.015	435.38
365.241	441.38
365.468	440.38
365.694	418.38
365.92	426.38
366.147	417.38
366.373	428.38
366.599	431.38
366.826	419.38
367.052	406.38
367.278	401.38
367.505	421.38
367.731	424.38
367.957	427.38
368.184	415.38
368.41	433.38
368.636	450.38
368.862	429.38
369.089	408.38
369.315	413.38
369.541	445.38
369.767	429.38
369.993	429.38
370.219	407.38
370.445	437.38
370.672	415.38
370.898	421.38
371.124	446.38
371.35	439.38
371.576	422.38
371.802	443.38
372.028	426.38
372.254	429.38
372.48	419.38
372.706	441.38
372.932	443.38
373.158	439.38
373.384	437.38
373.61	425.38
373.835	440.38
374.061	415.38
374.287	448.38
374.513	433.38
374.739	412.38
374.965	431.38
375.191	447.38
375.416	453.38
375.642	435.38
375.868	437.38
376.094	433.38
376.319	423.38
376.545	413.38
376.771	401.38
376.997	416.38
377.222	434.38
377.448	431.38
377.674	431.38
377.899	429.38
378.125	428.38
378.35	434.38
378.576	400.38
378.802	419.38
379.027	425.38
379.253	420.38
379.478	415.38
379.704	403.38
379.929	422.38
380.155	420.38
380.38	434.38
380.606	427.38
380.831	433.38
381.057	411.38
381.282	419.38
381.507	422.38
381.733	431.38
381.958	429.38
382.184	447.38
382.409	444.38
382.634	453.38
382.86	439.38
383.085	438.38
383.31	439.38
383.535	441.38
383.761	453.38
383.986	456.38
384.211	474.38
384.436	454.38
384.662	447.38
384.887	462.38
385.112	439.38
385.337	467.38
385.562	488.38
385.787	480.38
386.013	513.38
386.238	469.38
386.463	484.38
386.688	473.38
386.913	471.38
387.138	479.38
387.363	474.38
387.588	476.38
387.813	464.38
388.038	467.38
388.263	484.38
388.488	499.38
388.713	471.38
388.938	464.38
389.163	458.38
389.387	492.38
389.612	460.38
389.837	472.38
390.062	504.38
390.287	466.38
390.512	464.38
390.736	486.38
390.961	464.38
391.186	484.38
391.411	498.38
391.636	481.38
391.86	504.38
392.085	489.38
392.31	500.38
392.534	497.38
392.759	490.38
392.984	485.38
393.208	486.38
393.433	489.38
393.658	471.38
393.882	475.38
394.107	492.38
394.331	475.38
394.556	476.38
394.78	484.38
395.005	501.38
395.229	471.38
395.454	497.38
395.678	520.38
395.903	526.38
396.127	530.38
396.352	539.38
396.576	515.38
396.801	496.38
397.025	473.38
397.249	515.38
397.474	490.38
397.698	479.38
397.922	511.38
398.147	567.38
398.371	549.38
398.595	549.38
398.82	546.38
399.044	572.38
399.268	575.38
399.492	627.38
399.717	656.38
399.941	687.38
400.165	730.38
400.389	715.38
400.613	637.38
400.837	593.38
401.062	605.38
401.286	584.38
401.51	572.38
401.734	528.38
401.958	549.38
402.182	555.38
402.406	570.38
402.63	593.38
402.854	571.38
403.078	559.38
403.302	569.38
403.526	574.38
403.75	596.38
403.974	598.38
404.198	580.38
404.422	581.38
404.645	611.38
404.869	600.38
405.093	621.38
405.317	654.38
405.541	719.38
405.765	647.38
405.988	606.38
406.212	610.38
406.436	630.38
406.66	625.38
406.883	632.38
407.107	668.38
407.331	698.38
407.555	779.38
407.778	745.38
408.002	713.38
408.226	653.38
408.449	615.38
408.673	647.38
408.896	649.38
409.12	686.38
409.344	671.38
409.567	596.38
409.791	593.38
410.014	582.38
410.238	558.38
410.461	584.38
410.685	598.38
410.908	588.38
411.132	630.38
411.355	677.38
411.578	645.38
411.802	608.38
412.025	573.38
412.249	565.38
412.472	616.38
412.695	636.38
412.919	630.38
413.142	589.38
413.365	551.38
413.589	573.38
413.812	574.38
414.035	548.38
414.258	539.38
414.482	547.38
414.705	589.38
414.928	551.38
415.151	540.38
415.374	548.38
415.597	550.38
415.821	547.38
416.044	542.38
416.267	560.38
416.49	550.38
416.713	537.38
416.936	522.38
417.159	513.38
417.382	547.38
417.605	541.38
417.828	559.38
418.051	561.38
418.274	567.38
418.497	544.38
418.72	547.38
418.943	517.38
419.166	597.38
419.389	612.38
419.611	592.38
419.834	584.38
420.057	566.38
420.28	585.38
420.503	593.38
420.726	584.38
420.948	585.38
421.171	631.38
421.394	653.38
421.617	587.38
421.839	583.38
422.062	556.38
422.285	571.38
422.507	625.38
422.73	731.38
422.953	693.38
423.175	610.38
423.398	584.38
423.621	560.38
423.843	606.38
424.066	614.38
424.288	600.38
424.511	623.38
424.733	697.38
424.956	761.38
425.178	729.38
425.401	732.38
425.623	741.38
425.846	629.38
426.068	588.38
426.291	585.38
426.513	565.38
426.735	588.38
426.958	641.38
427.18	717.38
427.402	881.38
427.625	938.38
427.847	803.38
428.069	702.38
428.292	643.38
428.514	585.38
428.736	563.38
428.958	563.38
429.181	550.38
429.403	561.38
429.625	549.38
429.847	593.38
430.069	642.38
430.292	653.38
430.514	569.38
430.736	512.38
430.958	532.38
431.18	535.38
431.402	533.38
431.624	519.38
431.846	511.38
432.068	504.38
432.29	553.38
432.512	513.38
432.734	529.38
432.956	537.38
433.178	556.38
433.4	528.38
433.622	527.38
433.844	522.38
434.066	551.38
434.287	531.38
434.509	530.38
434.731	533.38
434.953	551.38
435.175	567.38
435.397	596.38
435.618	614.38
435.84	651.38
436.062	738.38
436.284	827.38
436.505	677.38
436.727	597.38
436.949	561.38
437.17	560.38
437.392	576.38
437.614	573.38
437.835	596.38
438.057	671.38
438.278	785.38
438.5	777.38
438.721	881.38
438.943	851.38
439.165	660.38
439.386	600.38
439.608	606.38
439.829	599.38
440.05	616.38
440.272	652.38
440.493	623.38
440.715	597.38
440.936	556.38
441.158	559.38
441.379	587.38
441.6	605.38
441.822	595.38
442.043	662.38
442.264	712.38
442.486	791.38
442.707	671.38
442.928	609.38
443.149	607.38
443.371	623.38
443.592	677.38
443.813	779.38
444.034	857.38
444.255	704.38
444.476	665.38
444.698	650.38
444.919	628.38
445.14	700.38
445.361	681.38
445.582	660.38
445.803	702.38
446.024	825.38
446.245	817.38
446.466	732.38
446.687	653.38
446.908	596.38
447.129	579.38
447.35	570.38
447.571	559.38
447.792	570.38
448.013	545.38
448.234	568.38
448.455	614.38
448.675	743.38
448.896	876.38
449.117	726.38
449.338	668.38
449.559	797.38
449.779	908.38
450	739.38
450.221	574.38
450.442	556.38
450.662	538.38
450.883	551.38
451.104	551.38
451.324	556.38
451.545	519.38
451.766	523.38
451.986	481.38
452.207	502.38
452.428	490.38
452.648	499.38
452.869	470.38
453.089	491.38
453.31	507.38
453.53	498.38
453.751	475.38
453.971	482.38
454.192	496.38
454.412	479.38
454.633	515.38
454.853	458.38
455.073	457.38
455.294	525.38
455.514	588.38
455.734	554.38
455.955	489.38
456.175	462.38
456.395	469.38
456.616	482.38
456.836	448.38
457.056	458.38
457.276	429.38
457.497	462.38
457.717	449.38
457.937	449.38
458.157	477.38
458.377	479.38
458.598	493.38
458.818	548.38
459.038	608.38
459.258	650.38
459.478	582.38
459.698	535.38
459.918	541.38
460.138	516.38
460.358	536.38
460.578	554.38
460.798	545.38
461.018	543.38
461.238	561.38
461.458	551.38
461.678	543.38
461.898	562.38
462.118	537.38
462.338	566.38
462.558	594.38
462.777	575.38
462.997	603.38
463.217	627.38
463.437	632.38
463.657	597.38
463.876	598.38
464.096	592.38
464.316	581.38
464.536	607.38
464.755	583.38
464.975	586.38
465.195	616.38
465.414	653.38
465.634	607.38
465.854	561.38
466.073	529.38
466.293	528.38
466.512	503.38
466.732	516.38
466.951	499.38
467.171	501.38
467.391	500.38
467.61	523.38
467.829	501.38
468.049	518.38
468.268	507.38
468.488	476.38
468.707	493.38
468.927	483.38
469.146	495.38
469.365	508.38
469.585	507.38
469.804	499.38
470.023	516.38
470.243	499.38
470.462	516.38
470.681	497.38
470.901	533.38
471.12	518.38
471.339	511.38
471.558	515.38
471.777	516.38
471.997	490.38
472.216	521.38
472.435	546.38
472.654	532.38
472.873	487.38
473.092	517.38
473.311	515.38
473.53	521.38
473.749	523.38
473.968	559.38
474.187	655.38
474.406	714.38
474.625	567.38
474.844	533.38
475.063	505.38
475.282	530.38
475.501	514.38
475.72	510.38
475.939	527.38
476.158	508.38
476.377	537.38
476.596	525.38
476.814	503.38
477.033	525.38
477.252	541.38
477.471	531.38
477.69	564.38
477.908	563.38
478.127	582.38
478.346	563.38
478.564	551.38
478.783	561.38
479.002	590.38
479.22	598.38
479.439	593.38
479.658	579.38
479.876	613.38
480.095	623.38
480.313	643.38
480.532	649.38
480.751	640.38
480.969	629.38
481.188	682.38
481.406	690.38
481.624	662.38
481.843	629.38
482.061	604.38
482.28	595.38
482.498	590.38
482.717	578.38
482.935	595.38
483.153	597.38
483.372	578.38
483.59	586.38
483.808	572.38
484.027	605.38
484.245	609.38
484.463	583.38
484.681	589.38
484.9	584.38
485.118	578.38
485.336	604.38
485.554	609.38
485.772	616.38
485.99	596.38
486.209	623.38
486.427	633.38
486.645	625.38
486.863	639.38
487.081	636.38
487.299	626.38
487.517	619.38
487.735	625.38
487.953	612.38
488.171	633.38
488.389	637.38
488.607	604.38
488.825	653.38
489.043	655.38
489.261	635.38
489.479	637.38
489.696	640.38
489.914	659.38
490.132	651.38
490.35	662.38
490.568	675.38
490.786	667.38
491.003	674.38
491.221	687.38
491.439	703.38
491.657	720.38
491.874	730.38
492.092	746.38
492.31	731.38
492.527	767.38
492.745	741.38
492.963	739.38
493.18	741.38
493.398	752.38
493.615	752.38
493.833	711.38
494.05	731.38
494.268	759.38
494.485	751.38
494.703	757.38
494.92	738.38
495.138	745.38
495.355	742.38
495.573	748.38
495.79	733.38
496.008	754.38
496.225	735.38
496.442	751.38
496.66	753.38
496.877	736.38
497.094	780.38
497.312	758.38
497.529	773.38
497.746	775.38
497.963	815.38
498.181	845.38
498.398	829.38
498.615	828.38
498.832	885.38
499.049	874.38
499.267	935.38
499.484	961.38
499.701	1016.38
499.918	1033.38
500.135	1112.38
500.352	1201.38
500.569	1219.38
500.786	1200.38
501.003	1184.38
501.22	1127.38
501.437	1109.38
501.654	1040.38
501.871	992.38
502.088	971.38
502.305	915.38
502.522	881.38
502.739	866.38
502.956	840.38
503.172	787.38
503.389	821.38
503.606	818.38
503.823	791.38
504.04	780.38
504.256	777.38
504.473	757.38
504.69	759.38
504.907	753.38
505.123	772.38
505.34	733.38
505.557	724.38
505.773	716.38
505.99	729.38
506.207	711.38
506.423	721.38
506.64	675.38
506.856	719.38
507.073	691.38
507.289	689.38
507.506	695.38
507.722	703.38
507.939	699.38
508.155	694.38
508.372	672.38
508.588	676.38
508.805	653.38
509.021	652.38
509.238	697.38
509.454	704.38
509.67	677.38
509.887	666.38
510.103	659.38
510.319	667.38
510.536	711.38
510.752	1111.38
510.968	917.38
511.184	663.38
511.401	648.38
511.617	621.38
511.833	645.38
512.049	644.38
512.265	628.38
512.481	620.38
512.698	613.38
512.914	629.38
513.13	621.38
513.346	602.38
513.562	608.38
513.778	626.38
513.994	636.38
514.21	624.38
514.426	665.38
514.642	684.38
514.858	688.38
515.074	719.38
515.29	810.38
515.506	1107.38
515.721	920.38
515.937	733.38
516.153	689.38
516.369	659.38
516.585	663.38
516.801	640.38
517.016	667.38
517.232	663.38
517.448	650.38
517.664	672.38
517.879	667.38
518.095	651.38
518.311	663.38
518.527	657.38
518.742	637.38
518.958	658.38
519.173	659.38
519.389	634.38
519.605	639.38
519.82	620.38
520.036	627.38
520.251	634.38
520.467	690.38
520.682	691.38
520.898	668.38
521.113	681.38
521.329	723.38
521.544	768.38
521.76	914.38
521.975	1409.38
522.19	1359.38
522.406	856.38
522.621	667.38
522.836	617.38
523.052	602.38
523.267	602.38
523.482	577.38
523.698	565.38
523.913	566.38
524.128	562.38
524.343	538.38
524.559	545.38
524.774	543.38
524.989	529.38
525.204	527.38
525.419	542.38
525.634	535.38
525.849	521.38
526.064	537.38
526.28	536.38
526.495	515.38
526.71	526.38
526.925	544.38
527.14	519.38
527.355	532.38
527.57	511.38
527.785	530.38
527.999	513.38
528.214	529.38
528.429	514.38
528.644	495.38
528.859	511.38
529.074	519.38
529.289	539.38
529.503	582.38
529.718	588.38
529.933	561.38
530.148	524.38
530.363	529.38
530.577	500.38
530.792	513.38
531.007	501.38
531.221	505.38
531.436	519.38
531.651	503.38
531.865	524.38
532.08	491.38
532.295	511.38
532.509	503.38
532.724	508.38
532.938	482.38
533.153	513.38
533.367	509.38
533.582	520.38
533.796	499.38
534.011	480.38
534.225	496.38
534.44	479.38
534.654	483.38
534.868	506.38
535.083	490.38
535.297	479.38
535.511	508.38
535.726	499.38
535.94	480.38
536.154	504.38
536.369	469.38
536.583	473.38
536.797	456.38
537.011	470.38
537.225	466.38
537.44	483.38
537.654	469.38
537.868	468.38
538.082	475.38
538.296	481.38
538.51	468.38
538.724	483.38
538.938	473.38
539.153	486.38
539.367	492.38
539.581	496.38
539.795	471.38
540.009	468.38
540.222	474.38
540.436	488.38
540.65	452.38
540.864	466.38
541.078	490.38
541.292	477.38
541.506	461.38
541.72	486.38
541.934	469.38
542.147	491.38
542.361	475.38
542.575	468.38
542.789	480.38
543.002	467.38
543.216	468.38
543.43	465.38
543.644	489.38
543.857	473.38
544.071	468.38
544.285	473.38
544.498	469.38
544.712	504.38
544.925	467.38
545.139	475.38
545.352	478.38
545.566	470.38
545.779	476.38
545.993	463.38
546.206	497.38
546.42	482.38
546.633	467.38
546.847	465.38
547.06	463.38
547.274	454.38
547.487	475.38
547.7	477.38
547.914	466.38
548.127	469.38
548.34	487.38
548.554	483.38
548.767	475.38
548.98	472.38
549.193	463.38
549.407	451.38
549.62	469.38
549.833	471.38
550.046	456.38
550.259	474.38
550.473	445.38
550.686	472.38
550.899	459.38
551.112	462.38
551.325	449.38
551.538	449.38
551.751	442.38
551.964	458.38
552.177	453.38
552.39	463.38
552.603	481.38
552.816	468.38
553.029	495.38
553.242	455.38
553.455	476.38
553.667	464.38
553.88	485.38
554.093	485.38
554.306	499.38
554.519	471.38
554.732	455.38
554.944	453.38
555.157	461.38
555.37	427.38
555.583	438.38
555.795	429.38
556.008	429.38
556.221	411.38
556.433	433.38
556.646	419.38
556.859	420.38
557.071	420.38
557.284	424.38
557.496	410.38
557.709	412.38
557.921	421.38
558.134	422.38
558.346	393.38
558.559	406.38
558.771	411.38
558.984	424.38
559.196	405.38
559.409	416.38
559.621	412.38
559.833	400.38
560.046	411.38
560.258	390.38
560.47	401.38
560.683	416.38
560.895	408.38
561.107	397.38
561.32	418.38
561.532	399.38
561.744	411.38
561.956	431.38
562.168	422.38
562.381	416.38
562.593	410.38
562.805	410.38
563.017	408.38
563.229	431.38
563.441	415.38
563.653	403.38
563.865	417.38
564.077	428.38
564.289	420.38
564.501	429.38
564.713	447.38
564.925	447.38
565.137	438.38
565.349	426.38
565.561	444.38
565.773	483.38
565.985	471.38
566.197	472.38
566.408	491.38
566.62	502.38
566.832	531.38
567.044	552.38
567.255	543.38
567.467	549.38
567.679	561.38
567.891	580.38
568.102	569.38
568.314	538.38
568.526	555.38
568.737	499.38
568.949	482.38
569.161	468.38
569.372	450.38
569.584	436.38
569.795	418.38
570.007	428.38
570.218	447.38
570.43	451.38
570.641	421.38
570.853	407.38
571.064	412.38
571.276	389.38
571.487	405.38
571.698	400.38
571.91	380.38
572.121	374.38
572.333	379.38
572.544	368.38
572.755	373.38
572.966	370.38
573.178	383.38
573.389	374.38
573.6	369.38
573.811	357.38
574.023	360.38
574.234	343.38
574.445	349.38
574.656	374.38
574.867	369.38
575.078	345.38
575.289	352.38
575.501	331.38
575.712	346.38
575.923	364.38
576.134	355.38
576.345	345.38
576.556	344.38
576.767	344.38
576.978	333.38
577.188	359.38
577.399	341.38
577.61	338.38
577.821	340.38
578.032	333.38
578.243	377.38
578.454	491.38
578.665	409.38
578.875	348.38
579.086	321.38
579.297	337.38
579.508	337.38
579.718	327.38
579.929	310.38
580.14	329.38
580.35	328.38
580.561	339.38
580.772	328.38
580.982	303.38
581.193	325.38
581.403	328.38
581.614	327.38
581.825	304.38
582.035	311.38
582.246	307.38
582.456	319.38
582.667	306.38
582.877	310.38
583.087	322.38
583.298	299.38
583.508	308.38
583.719	310.38
583.929	332.38
584.139	292.38
584.35	311.38
584.56	329.38
584.77	314.38
584.981	311.38
585.191	300.38
585.401	309.38
585.611	322.38
585.821	319.38
586.032	321.38
586.242	299.38
586.452	322.38
586.662	311.38
586.872	308.38
587.082	299.38
587.292	311.38
587.502	302.38
587.713	308.38
587.923	320.38
588.133	308.38
588.343	325.38
588.553	295.38
588.762	304.38
588.972	305.38
589.182	311.38
589.392	311.38
589.602	315.38
589.812	313.38
590.022	324.38
590.232	335.38
590.441	291.38
590.651	301.38
590.861	313.38
591.071	316.38
591.281	314.38
591.49	298.38
591.7	287.38
591.91	307.38
592.119	345.38
592.329	322.38
592.539	325.38
592.748	330.38
592.958	352.38
593.167	340.38
593.377	343.38
593.587	360.38
593.796	341.38
594.006	354.38
594.215	330.38
594.424	349.38
594.634	353.38
594.843	325.38
595.053	343.38
595.262	309.38
595.472	319.38
595.681	292.38
595.89	307.38
596.1	307.38
596.309	304.38
596.518	300.38
596.727	305.38
596.937	310.38
597.146	307.38
597.355	271.38
597.564	282.38
597.774	280.38
597.983	292.38
598.192	302.38
598.401	283.38
598.61	277.38
598.819	284.38
599.028	275.38
599.237	286.38
599.446	275.38
599.655	270.38
599.864	279.38
600.073	271.38
600.282	280.38
600.491	269.38
600.7	289.38
600.909	277.38
601.118	264.38
601.327	266.38
601.536	267.38
601.745	262.38
601.953	277.38
602.162	266.38
602.371	265.38
602.58	256.38
602.789	260.38
602.997	272.38
603.206	282.38
603.415	273.38
603.623	273.38
603.832	265.38
604.041	249.38
604.249	255.38
604.458	258.38
604.666	247.38
604.875	249.38
605.084	248.38
605.292	256.38
605.501	255.38
605.709	263.38
605.918	246.38
606.126	244.38
606.334	254.38
606.543	245.38
606.751	256.38
606.96	241.38
607.168	258.38
607.376	241.38
607.585	268.38
607.793	259.38
608.001	263.38
608.21	262.38
608.418	259.38
608.626	244.38
608.834	263.38
609.043	259.38
609.251	266.38
609.459	242.38
609.667	256.38
609.875	241.38
610.083	234.38
610.291	265.38
610.499	264.38
610.707	255.38
610.916	253.38
611.124	271.38
611.332	278.38
611.54	255.38
611.748	243.38
611.955	243.38
612.163	234.38
612.371	261.38
612.579	249.38
612.787	270.38
612.995	246.38
613.203	260.38
613.411	245.38
613.618	242.38
613.826	232.38
614.034	241.38
614.242	254.38
614.449	239.38
614.657	255.38
614.865	256.38
615.072	246.38
615.28	262.38
615.488	231.38
615.695	246.38
615.903	259.38
616.111	242.38
616.318	259.38
616.526	227.38
616.733	240.38
616.941	222.38
617.148	248.38
617.356	250.38
617.563	250.38
617.771	233.38
617.978	248.38
618.185	241.38
618.393	250.38
618.6	233.38
618.807	236.38
619.015	230.38
619.222	242.38
619.429	241.38
619.637	226.38
619.844	222.38
620.051	244.38
620.258	227.38
620.466	221.38
620.673	214.38
620.88	219.38
621.087	217.38
621.294	249.38
621.501	236.38
621.708	231.38
621.915	235.38
622.122	247.38
622.329	233.38
622.536	239.38
622.743	232.38
622.95	225.38
623.157	218.38
623.364	224.38
623.571	228.38
623.778	222.38
623.985	225.38
624.192	249.38
624.399	230.38
624.606	220.38
624.812	225.38
625.019	219.38
625.226	234.38
625.433	230.38
625.639	217.38
625.846	220.38
626.053	217.38
626.259	224.38
626.466	205.38
626.673	218.38
626.879	213.38
627.086	195.38
627.293	210.38
627.499	220.38
627.706	223.38
627.912	216.38
628.119	214.38
628.325	223.38
628.532	216.38
628.738	196.38
628.945	201.38
629.151	201.38
629.357	216.38
629.564	209.38
629.77	214.38
629.976	201.38
630.183	207.38
630.389	200.38
630.595	191.38
630.802	211.38
631.008	188.38
631.214	207.38
631.42	197.38
631.627	201.38
631.833	188.38
632.039	191.38
632.245	193.38
632.451	190.38
632.657	198.38
632.863	210.38
633.069	201.38
633.275	191.38
633.481	193.38
633.688	183.38
633.893	210.38
634.099	201.38
634.305	187.38
634.511	189.38
634.717	180.38
634.923	187.38
635.129	180.38
635.335	187.38
635.541	188.38
635.747	193.38
635.952	171.38
636.158	196.38
636.364	171.38
636.57	194.38
636.775	177.38
636.981	184.38
637.187	209.38
637.392	195.38
637.598	179.38
637.804	189.38
638.009	182.38
638.215	186.38
638.421	184.38
638.626	200.38
638.832	194.38
639.037	183.38
639.243	183.38
639.448	186.38
639.654	202.38
639.859	183.38
640.065	197.38
640.27	185.38
640.475	167.38
640.681	176.38
640.886	177.38
641.091	177.38
641.297	176.38
641.502	183.38
641.707	177.38
641.913	180.38
642.118	160.38
642.323	163.38
642.528	168.38
642.733	171.38
642.939	159.38
643.144	172.38
643.349	167.38
643.554	172.38
643.759	167.38
643.964	156.38
644.169	173.38
644.374	164.38
644.579	183.38
644.784	175.38
644.989	161.38
645.194	164.38
645.399	175.38
645.604	178.38
645.809	179.38
646.014	168.38
646.219	167.38
646.423	167.38
646.628	179.38
646.833	170.38
647.038	165.38
647.243	176.38
647.447	193.38
647.652	162.38
647.857	168.38
648.062	171.38
648.266	173.38
648.471	198.38
648.676	169.38
648.88	173.38
649.085	175.38
649.289	175.38
649.494	186.38
649.698	202.38
649.903	198.38
650.107	184.38
650.312	166.38
650.516	168.38
650.721	181.38
650.925	166.38
651.13	155.38
651.334	150.38
651.539	164.38
651.743	150.38
651.947	152.38
652.152	156.38
652.356	149.38
652.56	153.38
652.764	145.38
652.969	147.38
653.173	141.38
653.377	147.38
653.581	133.38
653.785	125.38
653.99	141.38
654.194	150.38
654.398	135.38
654.602	133.38
654.806	141.38
655.01	147.38
655.214	152.38
655.418	140.38
655.622	143.38
655.826	138.38
656.03	131.38
656.234	143.38
656.438	139.38
656.642	131.38
656.846	145.38
657.049	134.38
657.253	131.38
657.457	120.38
657.661	131.38
657.865	127.38
658.068	105.38
658.272	121.38
658.476	106.38
658.68	113.38
658.883	102.38
659.087	92.38
659.291	86.38
659.494	95.38
659.698	96.38
659.901	100.38
660.105	107.38
660.309	105.38
660.512	95.38
660.716	88.38
660.919	87.38
661.123	78.38
661.326	77.38
661.53	85.38
661.733	100.38
661.936	86.38
662.14	85.38
662.343	83.38
662.546	81.38
662.75	74.38
662.953	89.38
663.156	88.38
663.36	80.38
663.563	83.38
663.766	82.38
663.969	87.38
664.173	88.38
664.376	82.38
664.579	83.38
664.782	65.38
664.985	88.38
665.188	77.38
665.391	89.38
665.594	89.38
665.797	100.38
666	77.38
666.203	77.38
666.406	77.38
666.609	74.38
666.812	92.38
667.015	80.38
667.218	77.38
667.421	64.38
667.624	73.38
667.827	75.38
668.03	77.38
668.232	92.38
668.435	73.38
668.638	71.38
668.841	87.38
669.043	79.38
669.246	81.38
669.449	76.38
669.651	88.38
669.854	80.38
670.057	82.38
670.259	77.38
670.462	89.38
670.665	88.38
670.867	68.38
671.07	80.38
671.272	91.38
671.475	88.38
671.677	79.38
671.88	81.38
672.082	83.38
672.284	82.38
672.487	81.38
672.689	84.38
672.892	83.38
