Data from 1976.PennyLincolnUp.Lamp.En5.5.200Scan.071719.P1.Changed Mount._HRD10591_16-01-59-861.txt Node
Date: Thu Jul 18 16:01:59 EDT 2019
User: cochatt
Spectrometer: HR+D1059
Trigger mode: 1
Integration Time (sec): 1.000000E-1
Scans to average: 1
Electric dark correction enabled: true
Nonlinearity correction enabled: false
Boxcar width: 0
XAxis mode: Wavelengths
Number of Pixels in Spectrum: 2048
>>>>>Begin Spectral Data<<<<<
223.165	-5.25
223.4	-5.25
223.635	-5.25
223.869	-13.25
224.104	-16.25
224.338	-12.25
224.573	-17.25
224.808	-25.25
225.042	-20.25
225.277	5.75
225.511	-3.25
225.746	-5.25
225.98	6.75
226.215	10.75
226.449	24.75
226.683	15.75
226.918	21.75
227.152	32.75
227.387	31.75
227.621	42.75
227.856	37.75
228.09	43.75
228.324	41.75
228.559	60.75
228.793	69.75
229.027	99.75
229.262	115.75
229.496	112.75
229.73	125.75
229.964	166.75
230.199	133.75
230.433	108.75
230.667	104.75
230.901	124.75
231.136	115.75
231.37	126.75
231.604	106.75
231.838	131.75
232.072	120.75
232.306	133.75
232.541	122.75
232.775	109.75
233.009	129.75
233.243	123.75
233.477	132.75
233.711	131.75
233.945	136.75
234.179	104.75
234.413	123.75
234.647	131.75
234.881	130.75
235.115	122.75
235.349	121.75
235.583	109.75
235.817	129.75
236.051	125.75
236.285	124.75
236.519	130.75
236.753	135.75
236.987	146.75
237.221	185.75
237.455	246.75
237.689	183.75
237.922	156.75
238.156	145.75
238.39	131.75
238.624	135.75
238.858	140.75
239.091	137.75
239.325	137.75
239.559	129.75
239.793	134.75
240.027	132.75
240.26	151.75
240.494	158.75
240.728	153.75
240.961	161.75
241.195	155.75
241.429	138.75
241.662	152.75
241.896	139.75
242.13	139.75
242.363	147.75
242.597	135.75
242.83	145.75
243.064	143.75
243.298	142.75
243.531	143.75
243.765	149.75
243.998	157.75
244.232	161.75
244.465	149.75
244.699	146.75
244.932	163.75
245.166	161.75
245.399	149.75
245.633	150.75
245.866	151.75
246.099	142.75
246.333	149.75
246.566	145.75
246.8	156.75
247.033	158.75
247.266	159.75
247.5	163.75
247.733	175.75
247.966	179.75
248.2	183.75
248.433	207.75
248.666	180.75
248.899	186.75
249.133	214.75
249.366	216.75
249.599	211.75
249.832	200.75
250.066	191.75
250.299	190.75
250.532	212.75
250.765	214.75
250.998	233.75
251.231	234.75
251.465	229.75
251.698	215.75
251.931	212.75
252.164	213.75
252.397	212.75
252.63	230.75
252.863	213.75
253.096	237.75
253.329	239.75
253.562	220.75
253.795	228.75
254.028	223.75
254.261	214.75
254.494	222.75
254.727	269.75
254.96	292.75
255.193	265.75
255.426	247.75
255.659	256.75
255.892	237.75
256.124	246.75
256.357	258.75
256.59	216.75
256.823	230.75
257.056	215.75
257.289	206.75
257.521	219.75
257.754	229.75
257.987	216.75
258.22	227.75
258.452	223.75
258.685	213.75
258.918	203.75
259.151	216.75
259.383	244.75
259.616	231.75
259.849	237.75
260.081	254.75
260.314	244.75
260.547	282.75
260.779	256.75
261.012	260.75
261.244	260.75
261.477	233.75
261.71	231.75
261.942	243.75
262.175	245.75
262.407	251.75
262.64	241.75
262.872	224.75
263.105	239.75
263.337	226.75
263.57	230.75
263.802	228.75
264.035	226.75
264.267	227.75
264.499	229.75
264.732	217.75
264.964	229.75
265.197	222.75
265.429	237.75
265.661	246.75
265.894	248.75
266.126	239.75
266.358	226.75
266.591	223.75
266.823	248.75
267.055	238.75
267.287	246.75
267.52	233.75
267.752	259.75
267.984	250.75
268.216	246.75
268.448	253.75
268.681	268.75
268.913	257.75
269.145	297.75
269.377	303.75
269.609	284.75
269.841	296.75
270.073	296.75
270.306	306.75
270.538	329.75
270.77	347.75
271.002	331.75
271.234	311.75
271.466	316.75
271.698	332.75
271.93	336.75
272.162	335.75
272.394	345.75
272.626	327.75
272.858	313.75
273.09	301.75
273.322	306.75
273.553	300.75
273.785	294.75
274.017	288.75
274.249	296.75
274.481	281.75
274.713	284.75
274.945	283.75
275.176	300.75
275.408	287.75
275.64	296.75
275.872	285.75
276.104	301.75
276.335	283.75
276.567	290.75
276.799	301.75
277.031	330.75
277.262	339.75
277.494	355.75
277.726	342.75
277.957	296.75
278.189	313.75
278.421	309.75
278.652	308.75
278.884	306.75
279.115	296.75
279.347	301.75
279.579	299.75
279.81	279.75
280.042	309.75
280.273	289.75
280.505	313.75
280.736	313.75
280.968	293.75
281.199	290.75
281.431	282.75
281.662	286.75
281.894	296.75
282.125	298.75
282.356	299.75
282.588	322.75
282.819	349.75
283.051	325.75
283.282	286.75
283.513	297.75
283.745	301.75
283.976	304.75
284.207	300.75
284.439	307.75
284.67	311.75
284.901	321.75
285.132	313.75
285.364	307.75
285.595	325.75
285.826	320.75
286.057	316.75
286.288	314.75
286.52	315.75
286.751	330.75
286.982	304.75
287.213	321.75
287.444	327.75
287.675	334.75
287.906	334.75
288.138	324.75
288.369	339.75
288.6	354.75
288.831	314.75
289.062	313.75
289.293	330.75
289.524	319.75
289.755	325.75
289.986	336.75
290.217	318.75
290.448	325.75
290.679	330.75
290.91	333.75
291.141	335.75
291.371	321.75
291.602	337.75
291.833	325.75
292.064	331.75
292.295	329.75
292.526	329.75
292.757	293.75
292.987	333.75
293.218	322.75
293.449	320.75
293.68	338.75
293.91	339.75
294.141	308.75
294.372	334.75
294.603	343.75
294.833	321.75
295.064	339.75
295.295	326.75
295.525	326.75
295.756	319.75
295.987	323.75
296.217	337.75
296.448	376.75
296.679	351.75
296.909	339.75
297.14	332.75
297.37	356.75
297.601	327.75
297.831	324.75
298.062	346.75
298.292	334.75
298.523	328.75
298.753	351.75
298.984	359.75
299.214	344.75
299.445	360.75
299.675	360.75
299.905	355.75
300.136	320.75
300.366	334.75
300.597	356.75
300.827	356.75
301.057	370.75
301.288	375.75
301.518	360.75
301.748	364.75
301.979	356.75
302.209	358.75
302.439	378.75
302.669	369.75
302.9	345.75
303.13	343.75
303.36	367.75
303.59	371.75
303.82	382.75
304.051	379.75
304.281	380.75
304.511	371.75
304.741	372.75
304.971	371.75
305.201	382.75
305.431	361.75
305.661	379.75
305.891	351.75
306.121	358.75
306.352	378.75
306.582	361.75
306.812	369.75
307.042	355.75
307.272	372.75
307.502	377.75
307.731	378.75
307.961	379.75
308.191	357.75
308.421	355.75
308.651	377.75
308.881	369.75
309.111	371.75
309.341	369.75
309.571	386.75
309.8	397.75
310.03	392.75
310.26	388.75
310.49	396.75
310.72	391.75
310.949	412.75
311.179	414.75
311.409	407.75
311.639	411.75
311.868	412.75
312.098	415.75
312.328	414.75
312.557	418.75
312.787	425.75
313.017	435.75
313.246	424.75
313.476	415.75
313.706	423.75
313.935	405.75
314.165	408.75
314.394	414.75
314.624	424.75
314.853	413.75
315.083	435.75
315.312	405.75
315.542	414.75
315.771	391.75
316.001	414.75
316.23	395.75
316.46	403.75
316.689	396.75
316.919	405.75
317.148	426.75
317.377	428.75
317.607	397.75
317.836	420.75
318.065	424.75
318.295	403.75
318.524	422.75
318.753	398.75
318.983	406.75
319.212	399.75
319.441	423.75
319.67	412.75
319.9	412.75
320.129	407.75
320.358	411.75
320.587	405.75
320.816	416.75
321.046	418.75
321.275	434.75
321.504	417.75
321.733	414.75
321.962	455.75
322.191	470.75
322.42	469.75
322.649	473.75
322.878	482.75
323.108	474.75
323.337	482.75
323.566	513.75
323.795	553.75
324.024	592.75
324.253	679.75
324.482	908.75
324.71	1398.75
324.939	2134.75
325.168	1826.75
325.397	936.75
325.626	626.75
325.855	567.75
326.084	541.75
326.313	486.75
326.542	515.75
326.77	553.75
326.999	615.75
327.228	819.75
327.457	1269.75
327.686	1627.75
327.914	1032.75
328.143	712.75
328.372	622.75
328.6	613.75
328.829	569.75
329.058	576.75
329.287	596.75
329.515	566.75
329.744	562.75
329.972	538.75
330.201	552.75
330.43	607.75
330.658	621.75
330.887	617.75
331.115	601.75
331.344	528.75
331.572	524.75
331.801	525.75
332.03	515.75
332.258	489.75
332.486	504.75
332.715	467.75
332.943	514.75
333.172	514.75
333.4	516.75
333.629	524.75
333.857	516.75
334.085	530.75
334.314	552.75
334.542	610.75
334.771	591.75
334.999	557.75
335.227	531.75
335.455	509.75
335.684	488.75
335.912	485.75
336.14	490.75
336.369	478.75
336.597	502.75
336.825	504.75
337.053	497.75
337.281	487.75
337.51	475.75
337.738	478.75
337.966	481.75
338.194	489.75
338.422	489.75
338.65	475.75
338.878	474.75
339.106	482.75
339.334	480.75
339.562	477.75
339.79	479.75
340.018	481.75
340.246	478.75
340.474	491.75
340.702	485.75
340.93	468.75
341.158	452.75
341.386	465.75
341.614	454.75
341.842	458.75
342.07	468.75
342.298	463.75
342.526	443.75
342.754	458.75
342.981	447.75
343.209	447.75
343.437	451.75
343.665	469.75
343.893	451.75
344.12	475.75
344.348	491.75
344.576	498.75
344.804	498.75
345.031	464.75
345.259	480.75
345.487	473.75
345.714	470.75
345.942	468.75
346.17	445.75
346.397	447.75
346.625	449.75
346.853	475.75
347.08	434.75
347.308	451.75
347.535	439.75
347.763	443.75
347.99	454.75
348.218	445.75
348.445	468.75
348.673	462.75
348.9	449.75
349.128	445.75
349.355	415.75
349.583	440.75
349.81	439.75
350.037	427.75
350.265	433.75
350.492	434.75
350.72	446.75
350.947	439.75
351.174	463.75
351.402	459.75
351.629	436.75
351.856	439.75
352.083	458.75
352.311	464.75
352.538	464.75
352.765	468.75
352.992	444.75
353.22	426.75
353.447	433.75
353.674	424.75
353.901	434.75
354.128	415.75
354.355	424.75
354.583	422.75
354.81	430.75
355.037	439.75
355.264	421.75
355.491	418.75
355.718	403.75
355.945	414.75
356.172	409.75
356.399	424.75
356.626	423.75
356.853	419.75
357.08	439.75
357.307	434.75
357.534	439.75
357.761	412.75
357.988	435.75
358.215	429.75
358.441	437.75
358.668	425.75
358.895	429.75
359.122	442.75
359.349	443.75
359.576	439.75
359.802	463.75
360.029	485.75
360.256	492.75
360.483	455.75
360.709	456.75
360.936	430.75
361.163	457.75
361.39	435.75
361.616	447.75
361.843	451.75
362.07	440.75
362.296	447.75
362.523	437.75
362.749	466.75
362.976	433.75
363.203	444.75
363.429	430.75
363.656	425.75
363.882	425.75
364.109	422.75
364.335	437.75
364.562	447.75
364.788	427.75
365.015	436.75
365.241	425.75
365.468	404.75
365.694	429.75
365.92	455.75
366.147	438.75
366.373	438.75
366.599	429.75
366.826	418.75
367.052	437.75
367.278	415.75
367.505	411.75
367.731	429.75
367.957	436.75
368.184	432.75
368.41	443.75
368.636	445.75
368.862	441.75
369.089	430.75
369.315	425.75
369.541	441.75
369.767	431.75
369.993	406.75
370.219	429.75
370.445	430.75
370.672	449.75
370.898	431.75
371.124	439.75
371.35	430.75
371.576	432.75
371.802	446.75
372.028	418.75
372.254	440.75
372.48	438.75
372.706	454.75
372.932	467.75
373.158	431.75
373.384	438.75
373.61	429.75
373.835	444.75
374.061	441.75
374.287	443.75
374.513	436.75
374.739	448.75
374.965	430.75
375.191	466.75
375.416	453.75
375.642	458.75
375.868	442.75
376.094	427.75
376.319	426.75
376.545	436.75
376.771	440.75
376.997	424.75
377.222	427.75
377.448	426.75
377.674	443.75
377.899	449.75
378.125	434.75
378.35	415.75
378.576	434.75
378.802	451.75
379.027	432.75
379.253	436.75
379.478	440.75
379.704	425.75
379.929	430.75
380.155	425.75
380.38	433.75
380.606	430.75
380.831	441.75
381.057	443.75
381.282	431.75
381.507	425.75
381.733	443.75
381.958	434.75
382.184	452.75
382.409	441.75
382.634	448.75
382.86	442.75
383.085	466.75
383.31	458.75
383.535	441.75
383.761	453.75
383.986	464.75
384.211	470.75
384.436	472.75
384.662	461.75
384.887	469.75
385.112	464.75
385.337	468.75
385.562	457.75
385.787	488.75
386.013	471.75
386.238	494.75
386.463	494.75
386.688	491.75
386.913	473.75
387.138	478.75
387.363	491.75
387.588	485.75
387.813	493.75
388.038	473.75
388.263	489.75
388.488	492.75
388.713	494.75
388.938	499.75
389.163	492.75
389.387	490.75
389.612	489.75
389.837	466.75
390.062	487.75
390.287	495.75
390.512	476.75
390.736	475.75
390.961	501.75
391.186	497.75
391.411	480.75
391.636	492.75
391.86	515.75
392.085	512.75
392.31	536.75
392.534	526.75
392.759	507.75
392.984	494.75
393.208	492.75
393.433	494.75
393.658	481.75
393.882	478.75
394.107	491.75
394.331	475.75
394.556	503.75
394.78	499.75
395.005	515.75
395.229	504.75
395.454	502.75
395.678	490.75
395.903	522.75
396.127	581.75
396.352	575.75
396.576	524.75
396.801	487.75
397.025	492.75
397.249	524.75
397.474	517.75
397.698	516.75
397.922	531.75
398.147	545.75
398.371	573.75
398.595	537.75
398.82	569.75
399.044	590.75
399.268	613.75
399.492	637.75
399.717	685.75
399.941	734.75
400.165	735.75
400.389	705.75
400.613	638.75
400.837	615.75
401.062	571.75
401.286	553.75
401.51	559.75
401.734	567.75
401.958	557.75
402.182	590.75
402.406	591.75
402.63	585.75
402.854	611.75
403.078	595.75
403.302	589.75
403.526	588.75
403.75	597.75
403.974	609.75
404.198	602.75
404.422	579.75
404.645	575.75
404.869	594.75
405.093	646.75
405.317	665.75
405.541	699.75
405.765	639.75
405.988	638.75
406.212	628.75
406.436	632.75
406.66	635.75
406.883	613.75
407.107	675.75
407.331	722.75
407.555	793.75
407.778	791.75
408.002	739.75
408.226	682.75
408.449	673.75
408.673	657.75
408.896	675.75
409.12	714.75
409.344	691.75
409.567	616.75
409.791	598.75
410.014	613.75
410.238	578.75
410.461	591.75
410.685	587.75
410.908	589.75
411.132	635.75
411.355	671.75
411.578	653.75
411.802	586.75
412.025	604.75
412.249	595.75
412.472	625.75
412.695	659.75
412.919	653.75
413.142	591.75
413.365	580.75
413.589	583.75
413.812	579.75
414.035	575.75
414.258	564.75
414.482	547.75
414.705	553.75
414.928	560.75
415.151	556.75
415.374	545.75
415.597	577.75
415.821	534.75
416.044	555.75
416.267	571.75
416.49	575.75
416.713	569.75
416.936	549.75
417.159	542.75
417.382	581.75
417.605	561.75
417.828	573.75
418.051	589.75
418.274	568.75
418.497	567.75
418.72	561.75
418.943	542.75
419.166	573.75
419.389	604.75
419.611	598.75
419.834	580.75
420.057	578.75
420.28	582.75
420.503	558.75
420.726	567.75
420.948	599.75
421.171	651.75
421.394	667.75
421.617	572.75
421.839	591.75
422.062	588.75
422.285	574.75
422.507	651.75
422.73	697.75
422.953	695.75
423.175	648.75
423.398	625.75
423.621	588.75
423.843	623.75
424.066	638.75
424.288	647.75
424.511	630.75
424.733	698.75
424.956	777.75
425.178	733.75
425.401	721.75
425.623	771.75
425.846	686.75
426.068	625.75
426.291	615.75
426.513	611.75
426.735	616.75
426.958	674.75
427.18	747.75
427.402	879.75
427.625	963.75
427.847	811.75
428.069	712.75
428.292	636.75
428.514	585.75
428.736	595.75
428.958	578.75
429.181	569.75
429.403	561.75
429.625	563.75
429.847	598.75
430.069	653.75
430.292	655.75
430.514	591.75
430.736	567.75
430.958	567.75
431.18	533.75
431.402	540.75
431.624	510.75
431.846	523.75
432.068	523.75
432.29	505.75
432.512	544.75
432.734	524.75
432.956	562.75
433.178	547.75
433.4	538.75
433.622	531.75
433.844	550.75
434.066	542.75
434.287	526.75
434.509	538.75
434.731	557.75
434.953	569.75
435.175	577.75
435.397	627.75
435.618	599.75
435.84	642.75
436.062	733.75
436.284	824.75
436.505	699.75
436.727	636.75
436.949	588.75
437.17	579.75
437.392	569.75
437.614	580.75
437.835	601.75
438.057	674.75
438.278	804.75
438.5	818.75
438.721	885.75
438.943	849.75
439.165	660.75
439.386	611.75
439.608	627.75
439.829	596.75
440.05	603.75
440.272	700.75
440.493	629.75
440.715	606.75
440.936	587.75
441.158	591.75
441.379	558.75
441.6	582.75
441.822	610.75
442.043	653.75
442.264	737.75
442.486	783.75
442.707	669.75
442.928	628.75
443.149	616.75
443.371	656.75
443.592	681.75
443.813	808.75
444.034	877.75
444.255	714.75
444.476	654.75
444.698	643.75
444.919	634.75
445.14	763.75
445.361	690.75
445.582	691.75
445.803	716.75
446.024	823.75
446.245	842.75
446.466	748.75
446.687	653.75
446.908	604.75
447.129	595.75
447.35	580.75
447.571	579.75
447.792	535.75
448.013	539.75
448.234	567.75
448.455	619.75
448.675	745.75
448.896	857.75
449.117	760.75
449.338	684.75
449.559	825.75
449.779	931.75
450	733.75
450.221	605.75
450.442	549.75
450.662	546.75
450.883	534.75
451.104	540.75
451.324	554.75
451.545	525.75
451.766	505.75
451.986	469.75
452.207	515.75
452.428	481.75
452.648	511.75
452.869	498.75
453.089	498.75
453.31	516.75
453.53	505.75
453.751	494.75
453.971	514.75
454.192	522.75
454.412	506.75
454.633	476.75
454.853	479.75
455.073	482.75
455.294	521.75
455.514	579.75
455.734	573.75
455.955	495.75
456.175	462.75
456.395	468.75
456.616	474.75
456.836	462.75
457.056	463.75
457.276	445.75
457.497	484.75
457.717	478.75
457.937	482.75
458.157	485.75
458.377	477.75
458.598	501.75
458.818	546.75
459.038	620.75
459.258	668.75
459.478	583.75
459.698	537.75
459.918	557.75
460.138	545.75
460.358	545.75
460.578	556.75
460.798	560.75
461.018	563.75
461.238	562.75
461.458	555.75
461.678	553.75
461.898	534.75
462.118	569.75
462.338	589.75
462.558	588.75
462.777	595.75
462.997	596.75
463.217	642.75
463.437	644.75
463.657	609.75
463.876	609.75
464.096	605.75
464.316	611.75
464.536	612.75
464.755	599.75
464.975	603.75
465.195	622.75
465.414	655.75
465.634	609.75
465.854	558.75
466.073	547.75
466.293	533.75
466.512	533.75
466.732	521.75
466.951	492.75
467.171	506.75
467.391	496.75
467.61	535.75
467.829	521.75
468.049	523.75
468.268	534.75
468.488	504.75
468.707	522.75
468.927	497.75
469.146	514.75
469.365	484.75
469.585	495.75
469.804	500.75
470.023	513.75
470.243	533.75
470.462	536.75
470.681	535.75
470.901	531.75
471.12	536.75
471.339	519.75
471.558	523.75
471.777	510.75
471.997	502.75
472.216	509.75
472.435	547.75
472.654	540.75
472.873	513.75
473.092	509.75
473.311	491.75
473.53	506.75
473.749	511.75
473.968	555.75
474.187	663.75
474.406	708.75
474.625	584.75
474.844	533.75
475.063	533.75
475.282	531.75
475.501	533.75
475.72	531.75
475.939	519.75
476.158	542.75
476.377	529.75
476.596	523.75
476.814	521.75
477.033	519.75
477.252	544.75
477.471	533.75
477.69	544.75
477.908	546.75
478.127	561.75
478.346	545.75
478.564	568.75
478.783	590.75
479.002	599.75
479.22	598.75
479.439	602.75
479.658	614.75
479.876	632.75
480.095	647.75
480.313	693.75
480.532	655.75
480.751	662.75
480.969	654.75
481.188	694.75
481.406	702.75
481.624	633.75
481.843	642.75
482.061	645.75
482.28	614.75
482.498	602.75
482.717	587.75
482.935	579.75
483.153	602.75
483.372	606.75
483.59	602.75
483.808	598.75
484.027	603.75
484.245	630.75
484.463	597.75
484.681	616.75
484.9	619.75
485.118	611.75
485.336	603.75
485.554	607.75
485.772	615.75
485.99	628.75
486.209	638.75
486.427	597.75
486.645	626.75
486.863	651.75
487.081	649.75
487.299	652.75
487.517	626.75
487.735	644.75
487.953	634.75
488.171	638.75
488.389	633.75
488.607	654.75
488.825	658.75
489.043	647.75
489.261	653.75
489.479	643.75
489.696	643.75
489.914	653.75
490.132	674.75
490.35	659.75
490.568	644.75
490.786	698.75
491.003	711.75
491.221	721.75
491.439	737.75
491.657	717.75
491.874	731.75
492.092	734.75
492.31	743.75
492.527	754.75
492.745	732.75
492.963	759.75
493.18	719.75
493.398	765.75
493.615	766.75
493.833	770.75
494.05	775.75
494.268	762.75
494.485	732.75
494.703	773.75
494.92	769.75
495.138	733.75
495.355	777.75
495.573	767.75
495.79	777.75
496.008	784.75
496.225	770.75
496.442	751.75
496.66	778.75
496.877	759.75
497.094	787.75
497.312	781.75
497.529	767.75
497.746	814.75
497.963	848.75
498.181	847.75
498.398	830.75
498.615	868.75
498.832	889.75
499.049	918.75
499.267	941.75
499.484	980.75
499.701	1012.75
499.918	1060.75
500.135	1139.75
500.352	1228.75
500.569	1209.75
500.786	1212.75
501.003	1196.75
501.22	1151.75
501.437	1124.75
501.654	1053.75
501.871	1025.75
502.088	990.75
502.305	939.75
502.522	900.75
502.739	869.75
502.956	827.75
503.172	830.75
503.389	830.75
503.606	805.75
503.823	797.75
504.04	789.75
504.256	776.75
504.473	781.75
504.69	788.75
504.907	777.75
505.123	746.75
505.34	730.75
505.557	730.75
505.773	733.75
505.99	719.75
506.207	726.75
506.423	727.75
506.64	728.75
506.856	697.75
507.073	699.75
507.289	691.75
507.506	708.75
507.722	701.75
507.939	693.75
508.155	701.75
508.372	676.75
508.588	687.75
508.805	668.75
509.021	685.75
509.238	685.75
509.454	709.75
509.67	669.75
509.887	672.75
510.103	655.75
510.319	691.75
510.536	723.75
510.752	1101.75
510.968	931.75
511.184	690.75
511.401	625.75
511.617	629.75
511.833	641.75
512.049	621.75
512.265	637.75
512.481	635.75
512.698	651.75
512.914	651.75
513.13	630.75
513.346	621.75
513.562	629.75
513.778	633.75
513.994	630.75
514.21	641.75
514.426	673.75
514.642	698.75
514.858	699.75
515.074	738.75
515.29	837.75
515.506	1130.75
515.721	989.75
515.937	722.75
516.153	687.75
516.369	678.75
516.585	667.75
516.801	652.75
517.016	669.75
517.232	673.75
517.448	680.75
517.664	697.75
517.879	686.75
518.095	706.75
518.311	682.75
518.527	690.75
518.742	673.75
518.958	647.75
519.173	657.75
519.389	644.75
519.605	636.75
519.82	653.75
520.036	643.75
520.251	642.75
520.467	668.75
520.682	686.75
520.898	669.75
521.113	685.75
521.329	718.75
521.544	756.75
521.76	881.75
521.975	1408.75
522.19	1409.75
522.406	866.75
522.621	680.75
522.836	619.75
523.052	639.75
523.267	579.75
523.482	563.75
523.698	592.75
523.913	597.75
524.128	538.75
524.343	557.75
524.559	533.75
524.774	539.75
524.989	533.75
525.204	542.75
525.419	561.75
525.634	565.75
525.849	543.75
526.064	564.75
526.28	532.75
526.495	501.75
526.71	540.75
526.925	519.75
527.14	537.75
527.355	546.75
527.57	518.75
527.785	534.75
527.999	518.75
528.214	535.75
528.429	519.75
528.644	540.75
528.859	532.75
529.074	525.75
529.289	557.75
529.503	622.75
529.718	599.75
529.933	568.75
530.148	533.75
530.363	545.75
530.577	537.75
530.792	520.75
531.007	516.75
531.221	530.75
531.436	520.75
531.651	498.75
531.865	488.75
532.08	471.75
532.295	497.75
532.509	506.75
532.724	524.75
532.938	507.75
533.153	490.75
533.367	511.75
533.582	526.75
533.796	521.75
534.011	510.75
534.225	509.75
534.44	515.75
534.654	498.75
534.868	512.75
535.083	502.75
535.297	505.75
535.511	499.75
535.726	530.75
535.94	507.75
536.154	479.75
536.369	490.75
536.583	501.75
536.797	503.75
537.011	483.75
537.225	485.75
537.44	489.75
537.654	484.75
537.868	469.75
538.082	456.75
538.296	481.75
538.51	482.75
538.724	495.75
538.938	507.75
539.153	515.75
539.367	498.75
539.581	490.75
539.795	482.75
540.009	480.75
540.222	489.75
540.436	469.75
540.65	501.75
540.864	509.75
541.078	489.75
541.292	505.75
541.506	491.75
541.72	460.75
541.934	468.75
542.147	497.75
542.361	491.75
542.575	486.75
542.789	482.75
543.002	468.75
543.216	465.75
543.43	493.75
543.644	485.75
543.857	484.75
544.071	478.75
544.285	460.75
544.498	478.75
544.712	462.75
544.925	487.75
545.139	490.75
545.352	487.75
545.566	484.75
545.779	471.75
545.993	502.75
546.206	478.75
546.42	511.75
546.633	490.75
546.847	490.75
547.06	460.75
547.274	477.75
547.487	497.75
547.7	469.75
547.914	466.75
548.127	465.75
548.34	466.75
548.554	463.75
548.767	477.75
548.98	474.75
549.193	459.75
549.407	478.75
549.62	497.75
549.833	478.75
550.046	471.75
550.259	462.75
550.473	478.75
550.686	476.75
550.899	440.75
551.112	458.75
551.325	473.75
551.538	456.75
551.751	473.75
551.964	469.75
552.177	452.75
552.39	457.75
552.603	489.75
552.816	474.75
553.029	483.75
553.242	481.75
553.455	506.75
553.667	508.75
553.88	494.75
554.093	475.75
554.306	494.75
554.519	473.75
554.732	466.75
554.944	456.75
555.157	461.75
555.37	452.75
555.583	441.75
555.795	453.75
556.008	446.75
556.221	440.75
556.433	437.75
556.646	431.75
556.859	429.75
557.071	427.75
557.284	436.75
557.496	421.75
557.709	411.75
557.921	422.75
558.134	414.75
558.346	413.75
558.559	408.75
558.771	422.75
558.984	417.75
559.196	409.75
559.409	409.75
559.621	421.75
559.833	427.75
560.046	403.75
560.258	425.75
560.47	428.75
560.683	423.75
560.895	411.75
561.107	409.75
561.32	414.75
561.532	413.75
561.744	419.75
561.956	414.75
562.168	441.75
562.381	412.75
562.593	410.75
562.805	433.75
563.017	431.75
563.229	419.75
563.441	420.75
563.653	412.75
563.865	414.75
564.077	435.75
564.289	435.75
564.501	414.75
564.713	435.75
564.925	425.75
565.137	448.75
565.349	455.75
565.561	460.75
565.773	456.75
565.985	480.75
566.197	474.75
566.408	506.75
566.62	523.75
566.832	555.75
567.044	560.75
567.255	549.75
567.467	567.75
567.679	579.75
567.891	598.75
568.102	585.75
568.314	573.75
568.526	551.75
568.737	522.75
568.949	487.75
569.161	460.75
569.372	467.75
569.584	457.75
569.795	437.75
570.007	447.75
570.218	453.75
570.43	433.75
570.641	435.75
570.853	393.75
571.064	414.75
571.276	428.75
571.487	408.75
571.698	397.75
571.91	399.75
572.121	377.75
572.333	389.75
572.544	390.75
572.755	385.75
572.966	371.75
573.178	366.75
573.389	358.75
573.6	364.75
573.811	365.75
574.023	367.75
574.234	366.75
574.445	368.75
574.656	376.75
574.867	356.75
575.078	373.75
575.289	341.75
575.501	361.75
575.712	375.75
575.923	341.75
576.134	359.75
576.345	358.75
576.556	353.75
576.767	352.75
576.978	366.75
577.188	337.75
577.399	349.75
577.61	359.75
577.821	342.75
578.032	348.75
578.243	346.75
578.454	507.75
578.665	416.75
578.875	354.75
579.086	345.75
579.297	334.75
579.508	359.75
579.718	342.75
579.929	327.75
580.14	344.75
580.35	321.75
580.561	317.75
580.772	354.75
580.982	317.75
581.193	317.75
581.403	339.75
581.614	329.75
581.825	329.75
582.035	314.75
582.246	312.75
582.456	341.75
582.667	316.75
582.877	330.75
583.087	308.75
583.298	338.75
583.508	345.75
583.719	319.75
583.929	314.75
584.139	324.75
584.35	323.75
584.56	317.75
584.77	332.75
584.981	335.75
585.191	321.75
585.401	320.75
585.611	332.75
585.821	328.75
586.032	318.75
586.242	314.75
586.452	300.75
586.662	293.75
586.872	318.75
587.082	317.75
587.292	322.75
587.502	317.75
587.713	300.75
587.923	301.75
588.133	309.75
588.343	306.75
588.553	313.75
588.762	307.75
588.972	302.75
589.182	321.75
589.392	296.75
589.602	323.75
589.812	325.75
590.022	321.75
590.232	319.75
590.441	306.75
590.651	320.75
590.861	313.75
591.071	298.75
591.281	334.75
591.49	314.75
591.7	324.75
591.91	324.75
592.119	341.75
592.329	319.75
592.539	339.75
592.748	329.75
592.958	335.75
593.167	351.75
593.377	325.75
593.587	358.75
593.796	339.75
594.006	334.75
594.215	368.75
594.424	344.75
594.634	338.75
594.843	337.75
595.053	325.75
595.262	321.75
595.472	332.75
595.681	324.75
595.89	309.75
596.1	317.75
596.309	322.75
596.518	317.75
596.727	315.75
596.937	302.75
597.146	310.75
597.355	301.75
597.564	285.75
597.774	298.75
597.983	283.75
598.192	275.75
598.401	297.75
598.61	293.75
598.819	291.75
599.028	279.75
599.237	302.75
599.446	279.75
599.655	280.75
599.864	287.75
600.073	258.75
600.282	281.75
600.491	273.75
600.7	293.75
600.909	262.75
601.118	295.75
601.327	285.75
601.536	277.75
601.745	271.75
601.953	256.75
602.162	271.75
602.371	274.75
602.58	268.75
602.789	267.75
602.997	264.75
603.206	274.75
603.415	264.75
603.623	264.75
603.832	261.75
604.041	269.75
604.249	260.75
604.458	250.75
604.666	261.75
604.875	246.75
605.084	263.75
605.292	258.75
605.501	265.75
605.709	252.75
605.918	263.75
606.126	273.75
606.334	275.75
606.543	254.75
606.751	269.75
606.96	276.75
607.168	262.75
607.376	252.75
607.585	259.75
607.793	245.75
608.001	270.75
608.21	239.75
608.418	246.75
608.626	265.75
608.834	261.75
609.043	270.75
609.251	257.75
609.459	254.75
609.667	241.75
609.875	247.75
610.083	261.75
610.291	263.75
610.499	263.75
610.707	238.75
610.916	274.75
611.124	275.75
611.332	266.75
611.54	276.75
611.748	259.75
611.955	262.75
612.163	266.75
612.371	249.75
612.579	246.75
612.787	247.75
612.995	245.75
613.203	264.75
613.411	262.75
613.618	263.75
613.826	248.75
614.034	258.75
614.242	255.75
614.449	263.75
614.657	278.75
614.865	262.75
615.072	249.75
615.28	239.75
615.488	257.75
615.695	250.75
615.903	264.75
616.111	253.75
616.318	257.75
616.526	253.75
616.733	244.75
616.941	257.75
617.148	257.75
617.356	258.75
617.563	238.75
617.771	257.75
617.978	273.75
618.185	254.75
618.393	253.75
618.6	242.75
618.807	253.75
619.015	261.75
619.222	238.75
619.429	258.75
619.637	249.75
619.844	254.75
620.051	250.75
620.258	220.75
620.466	231.75
620.673	249.75
620.88	246.75
621.087	241.75
621.294	230.75
621.501	233.75
621.708	246.75
621.915	243.75
622.122	238.75
622.329	245.75
622.536	237.75
622.743	235.75
622.95	233.75
623.157	238.75
623.364	226.75
623.571	226.75
623.778	234.75
623.985	233.75
624.192	244.75
624.399	222.75
624.606	227.75
624.812	209.75
625.019	223.75
625.226	231.75
625.433	229.75
625.639	217.75
625.846	219.75
626.053	218.75
626.259	211.75
626.466	218.75
626.673	220.75
626.879	215.75
627.086	207.75
627.293	232.75
627.499	223.75
627.706	211.75
627.912	202.75
628.119	209.75
628.325	212.75
628.532	208.75
628.738	211.75
628.945	215.75
629.151	207.75
629.357	191.75
629.564	199.75
629.77	209.75
629.976	197.75
630.183	205.75
630.389	196.75
630.595	199.75
630.802	226.75
631.008	208.75
631.214	213.75
631.42	220.75
631.627	225.75
631.833	207.75
632.039	191.75
632.245	211.75
632.451	191.75
632.657	204.75
632.863	207.75
633.069	197.75
633.275	201.75
633.481	189.75
633.688	206.75
633.893	217.75
634.099	201.75
634.305	197.75
634.511	193.75
634.717	182.75
634.923	193.75
635.129	191.75
635.335	187.75
635.541	203.75
635.747	193.75
635.952	184.75
636.158	191.75
636.364	204.75
636.57	199.75
636.775	195.75
636.981	201.75
637.187	181.75
637.392	205.75
637.598	185.75
637.804	196.75
638.009	171.75
638.215	189.75
638.421	177.75
638.626	183.75
638.832	193.75
639.037	194.75
639.243	187.75
639.448	194.75
639.654	186.75
639.859	182.75
640.065	180.75
640.27	196.75
640.475	200.75
640.681	190.75
640.886	199.75
641.091	175.75
641.297	191.75
641.502	175.75
641.707	192.75
641.913	200.75
642.118	170.75
642.323	182.75
642.528	177.75
642.733	185.75
642.939	195.75
643.144	178.75
643.349	181.75
643.554	195.75
643.759	181.75
643.964	162.75
644.169	182.75
644.374	182.75
644.579	173.75
644.784	183.75
644.989	173.75
645.194	179.75
645.399	164.75
645.604	170.75
645.809	181.75
646.014	177.75
646.219	172.75
646.423	174.75
646.628	177.75
646.833	179.75
647.038	178.75
647.243	180.75
647.447	171.75
647.652	169.75
647.857	169.75
648.062	182.75
648.266	178.75
648.471	157.75
648.676	181.75
648.88	180.75
649.085	167.75
649.289	175.75
649.494	181.75
649.698	198.75
649.903	195.75
650.107	166.75
650.312	173.75
650.516	169.75
650.721	154.75
650.925	160.75
651.13	138.75
651.334	165.75
651.539	173.75
651.743	160.75
651.947	154.75
652.152	160.75
652.356	154.75
652.56	138.75
652.764	143.75
652.969	147.75
653.173	137.75
653.377	153.75
653.581	143.75
653.785	146.75
653.99	129.75
654.194	133.75
654.398	131.75
654.602	148.75
654.806	150.75
655.01	140.75
655.214	153.75
655.418	153.75
655.622	151.75
655.826	161.75
656.03	138.75
656.234	139.75
656.438	155.75
656.642	151.75
656.846	138.75
657.049	133.75
657.253	155.75
657.457	128.75
657.661	124.75
657.865	116.75
658.068	121.75
658.272	120.75
658.476	119.75
658.68	116.75
658.883	115.75
659.087	105.75
659.291	103.75
659.494	117.75
659.698	107.75
659.901	102.75
660.105	95.75
660.309	87.75
660.512	90.75
660.716	98.75
660.919	97.75
661.123	104.75
661.326	83.75
661.53	87.75
661.733	98.75
661.936	86.75
662.14	92.75
662.343	81.75
662.546	76.75
662.75	90.75
662.953	83.75
663.156	77.75
663.36	92.75
663.563	88.75
663.766	87.75
663.969	93.75
664.173	78.75
664.376	78.75
664.579	96.75
664.782	67.75
664.985	84.75
665.188	89.75
665.391	100.75
665.594	83.75
665.797	76.75
666	85.75
666.203	74.75
666.406	92.75
666.609	76.75
666.812	76.75
667.015	90.75
667.218	82.75
667.421	87.75
667.624	73.75
667.827	97.75
668.03	85.75
668.232	88.75
668.435	83.75
668.638	80.75
668.841	92.75
669.043	72.75
669.246	88.75
669.449	80.75
669.651	83.75
669.854	91.75
670.057	82.75
670.259	94.75
670.462	95.75
670.665	77.75
670.867	77.75
671.07	76.75
671.272	87.75
671.475	69.75
671.677	75.75
671.88	78.75
672.082	81.75
672.284	73.75
672.487	69.75
672.689	91.75
672.892	82.75
