Data from 1976.PennyLincolnUp.Lamp.En5.5.200Scan.071719.P1.Changed Mount._HRD10591_16-02-10-862.txt Node
Date: Thu Jul 18 16:02:10 EDT 2019
User: cochatt
Spectrometer: HR+D1059
Trigger mode: 1
Integration Time (sec): 1.000000E-1
Scans to average: 1
Electric dark correction enabled: true
Nonlinearity correction enabled: false
Boxcar width: 0
XAxis mode: Wavelengths
Number of Pixels in Spectrum: 2048
>>>>>Begin Spectral Data<<<<<
223.165	-2.62
223.4	-2.62
223.635	-2.62
223.869	-14.62
224.104	-11.62
224.338	2.38
224.573	-22.62
224.808	-23.62
225.042	-17.62
225.277	-14.62
225.511	-13.62
225.746	14.38
225.98	-1.62
226.215	17.38
226.449	24.38
226.683	15.38
226.918	33.38
227.152	15.38
227.387	31.38
227.621	29.38
227.856	56.38
228.09	52.38
228.324	37.38
228.559	59.38
228.793	71.38
229.027	88.38
229.262	93.38
229.496	103.38
229.73	133.38
229.964	142.38
230.199	140.38
230.433	115.38
230.667	100.38
230.901	108.38
231.136	100.38
231.37	116.38
231.604	109.38
231.838	109.38
232.072	118.38
232.306	136.38
232.541	126.38
232.775	112.38
233.009	118.38
233.243	128.38
233.477	117.38
233.711	126.38
233.945	130.38
234.179	112.38
234.413	115.38
234.647	120.38
234.881	130.38
235.115	138.38
235.349	115.38
235.583	114.38
235.817	123.38
236.051	115.38
236.285	126.38
236.519	138.38
236.753	127.38
236.987	134.38
237.221	183.38
237.455	234.38
237.689	192.38
237.922	141.38
238.156	144.38
238.39	123.38
238.624	140.38
238.858	134.38
239.091	142.38
239.325	126.38
239.559	122.38
239.793	136.38
240.027	126.38
240.26	161.38
240.494	163.38
240.728	159.38
240.961	144.38
241.195	144.38
241.429	134.38
241.662	144.38
241.896	129.38
242.13	145.38
242.363	136.38
242.597	112.38
242.83	146.38
243.064	158.38
243.298	133.38
243.531	144.38
243.765	148.38
243.998	157.38
244.232	154.38
244.465	148.38
244.699	150.38
244.932	159.38
245.166	153.38
245.399	152.38
245.633	156.38
245.866	180.38
246.099	152.38
246.333	151.38
246.566	176.38
246.8	155.38
247.033	153.38
247.266	162.38
247.5	165.38
247.733	171.38
247.966	169.38
248.2	180.38
248.433	175.38
248.666	174.38
248.899	207.38
249.133	202.38
249.366	210.38
249.599	200.38
249.832	193.38
250.066	181.38
250.299	182.38
250.532	200.38
250.765	218.38
250.998	212.38
251.231	229.38
251.465	206.38
251.698	220.38
251.931	206.38
252.164	198.38
252.397	198.38
252.63	198.38
252.863	216.38
253.096	205.38
253.329	230.38
253.562	231.38
253.795	234.38
254.028	227.38
254.261	213.38
254.494	230.38
254.727	270.38
254.96	301.38
255.193	276.38
255.426	258.38
255.659	235.38
255.892	243.38
256.124	235.38
256.357	246.38
256.59	226.38
256.823	214.38
257.056	215.38
257.289	204.38
257.521	221.38
257.754	209.38
257.987	225.38
258.22	219.38
258.452	230.38
258.685	228.38
258.918	208.38
259.151	220.38
259.383	225.38
259.616	233.38
259.849	256.38
260.081	249.38
260.314	255.38
260.547	267.38
260.779	268.38
261.012	237.38
261.244	231.38
261.477	234.38
261.71	227.38
261.942	239.38
262.175	238.38
262.407	223.38
262.64	222.38
262.872	214.38
263.105	224.38
263.337	205.38
263.57	222.38
263.802	219.38
264.035	225.38
264.267	217.38
264.499	224.38
264.732	225.38
264.964	214.38
265.197	236.38
265.429	244.38
265.661	216.38
265.894	236.38
266.126	227.38
266.358	223.38
266.591	222.38
266.823	223.38
267.055	245.38
267.287	247.38
267.52	227.38
267.752	254.38
267.984	244.38
268.216	256.38
268.448	242.38
268.681	247.38
268.913	271.38
269.145	279.38
269.377	283.38
269.609	293.38
269.841	280.38
270.073	282.38
270.306	312.38
270.538	323.38
270.77	316.38
271.002	321.38
271.234	312.38
271.466	323.38
271.698	330.38
271.93	325.38
272.162	322.38
272.394	341.38
272.626	312.38
272.858	289.38
273.09	298.38
273.322	287.38
273.553	295.38
273.785	287.38
274.017	282.38
274.249	284.38
274.481	287.38
274.713	301.38
274.945	286.38
275.176	270.38
275.408	287.38
275.64	306.38
275.872	291.38
276.104	304.38
276.335	290.38
276.567	290.38
276.799	299.38
277.031	333.38
277.262	328.38
277.494	336.38
277.726	311.38
277.957	322.38
278.189	324.38
278.421	316.38
278.652	298.38
278.884	303.38
279.115	294.38
279.347	302.38
279.579	307.38
279.81	288.38
280.042	304.38
280.273	310.38
280.505	289.38
280.736	291.38
280.968	288.38
281.199	299.38
281.431	282.38
281.662	287.38
281.894	279.38
282.125	302.38
282.356	306.38
282.588	318.38
282.819	323.38
283.051	291.38
283.282	298.38
283.513	308.38
283.745	299.38
283.976	294.38
284.207	303.38
284.439	320.38
284.67	319.38
284.901	306.38
285.132	328.38
285.364	312.38
285.595	314.38
285.826	301.38
286.057	301.38
286.288	294.38
286.52	317.38
286.751	316.38
286.982	317.38
287.213	277.38
287.444	320.38
287.675	318.38
287.906	334.38
288.138	330.38
288.369	323.38
288.6	327.38
288.831	336.38
289.062	314.38
289.293	330.38
289.524	318.38
289.755	297.38
289.986	323.38
290.217	330.38
290.448	328.38
290.679	324.38
290.91	320.38
291.141	326.38
291.371	307.38
291.602	304.38
291.833	342.38
292.064	317.38
292.295	306.38
292.526	333.38
292.757	326.38
292.987	308.38
293.218	306.38
293.449	308.38
293.68	318.38
293.91	352.38
294.141	318.38
294.372	304.38
294.603	322.38
294.833	334.38
295.064	323.38
295.295	320.38
295.525	325.38
295.756	319.38
295.987	334.38
296.217	352.38
296.448	351.38
296.679	348.38
296.909	313.38
297.14	310.38
297.37	328.38
297.601	330.38
297.831	328.38
298.062	343.38
298.292	319.38
298.523	322.38
298.753	326.38
298.984	320.38
299.214	324.38
299.445	352.38
299.675	340.38
299.905	347.38
300.136	348.38
300.366	334.38
300.597	322.38
300.827	373.38
301.057	371.38
301.288	360.38
301.518	360.38
301.748	355.38
301.979	370.38
302.209	344.38
302.439	360.38
302.669	344.38
302.9	350.38
303.13	351.38
303.36	360.38
303.59	371.38
303.82	378.38
304.051	356.38
304.281	362.38
304.511	367.38
304.741	354.38
304.971	357.38
305.201	344.38
305.431	347.38
305.661	343.38
305.891	354.38
306.121	355.38
306.352	380.38
306.582	364.38
306.812	359.38
307.042	360.38
307.272	356.38
307.502	341.38
307.731	354.38
307.961	362.38
308.191	346.38
308.421	371.38
308.651	371.38
308.881	371.38
309.111	367.38
309.341	379.38
309.571	363.38
309.8	392.38
310.03	382.38
310.26	379.38
310.49	393.38
310.72	404.38
310.949	415.38
311.179	415.38
311.409	400.38
311.639	405.38
311.868	412.38
312.098	407.38
312.328	412.38
312.557	405.38
312.787	436.38
313.017	434.38
313.246	422.38
313.476	412.38
313.706	412.38
313.935	407.38
314.165	411.38
314.394	434.38
314.624	412.38
314.853	407.38
315.083	410.38
315.312	394.38
315.542	399.38
315.771	401.38
316.001	394.38
316.23	392.38
316.46	395.38
316.689	389.38
316.919	415.38
317.148	422.38
317.377	428.38
317.607	440.38
317.836	413.38
318.065	422.38
318.295	406.38
318.524	404.38
318.753	404.38
318.983	409.38
319.212	406.38
319.441	432.38
319.67	420.38
319.9	397.38
320.129	404.38
320.358	412.38
320.587	416.38
320.816	413.38
321.046	443.38
321.275	423.38
321.504	426.38
321.733	413.38
321.962	411.38
322.191	427.38
322.42	463.38
322.649	465.38
322.878	446.38
323.108	471.38
323.337	484.38
323.566	497.38
323.795	536.38
324.024	550.38
324.253	642.38
324.482	893.38
324.71	1372.38
324.939	2064.38
325.168	1778.38
325.397	898.38
325.626	617.38
325.855	538.38
326.084	505.38
326.313	513.38
326.542	511.38
326.77	556.38
326.999	617.38
327.228	830.38
327.457	1242.38
327.686	1536.38
327.914	1010.38
328.143	702.38
328.372	596.38
328.6	570.38
328.829	563.38
329.058	587.38
329.287	555.38
329.515	554.38
329.744	512.38
329.972	523.38
330.201	547.38
330.43	584.38
330.658	582.38
330.887	598.38
331.115	599.38
331.344	527.38
331.572	503.38
331.801	501.38
332.03	537.38
332.258	492.38
332.486	510.38
332.715	498.38
332.943	500.38
333.172	514.38
333.4	522.38
333.629	524.38
333.857	531.38
334.085	537.38
334.314	565.38
334.542	562.38
334.771	575.38
334.999	539.38
335.227	505.38
335.455	498.38
335.684	502.38
335.912	523.38
336.14	492.38
336.369	486.38
336.597	494.38
336.825	497.38
337.053	495.38
337.281	476.38
337.51	476.38
337.738	471.38
337.966	491.38
338.194	483.38
338.422	475.38
338.65	470.38
338.878	464.38
339.106	475.38
339.334	470.38
339.562	463.38
339.79	454.38
340.018	474.38
340.246	478.38
340.474	471.38
340.702	462.38
340.93	457.38
341.158	449.38
341.386	472.38
341.614	482.38
341.842	452.38
342.07	447.38
342.298	451.38
342.526	450.38
342.754	443.38
342.981	452.38
343.209	471.38
343.437	462.38
343.665	470.38
343.893	480.38
344.12	491.38
344.348	503.38
344.576	483.38
344.804	474.38
345.031	466.38
345.259	502.38
345.487	470.38
345.714	458.38
345.942	445.38
346.17	435.38
346.397	424.38
346.625	451.38
346.853	427.38
347.08	439.38
347.308	442.38
347.535	424.38
347.763	443.38
347.99	442.38
348.218	439.38
348.445	454.38
348.673	450.38
348.9	451.38
349.128	457.38
349.355	426.38
349.583	437.38
349.81	442.38
350.037	432.38
350.265	422.38
350.492	424.38
350.72	434.38
350.947	441.38
351.174	451.38
351.402	436.38
351.629	437.38
351.856	451.38
352.083	454.38
352.311	452.38
352.538	462.38
352.765	451.38
352.992	432.38
353.22	450.38
353.447	446.38
353.674	442.38
353.901	429.38
354.128	420.38
354.355	433.38
354.583	418.38
354.81	416.38
355.037	418.38
355.264	427.38
355.491	398.38
355.718	419.38
355.945	424.38
356.172	407.38
356.399	404.38
356.626	422.38
356.853	417.38
357.08	423.38
357.307	397.38
357.534	421.38
357.761	406.38
357.988	422.38
358.215	423.38
358.441	430.38
358.668	414.38
358.895	405.38
359.122	418.38
359.349	435.38
359.576	428.38
359.802	465.38
360.029	493.38
360.256	494.38
360.483	487.38
360.709	431.38
360.936	434.38
361.163	450.38
361.39	453.38
361.616	471.38
361.843	446.38
362.07	438.38
362.296	448.38
362.523	422.38
362.749	434.38
362.976	438.38
363.203	425.38
363.429	411.38
363.656	414.38
363.882	436.38
364.109	419.38
364.335	419.38
364.562	434.38
364.788	414.38
365.015	408.38
365.241	416.38
365.468	431.38
365.694	455.38
365.92	410.38
366.147	424.38
366.373	417.38
366.599	428.38
366.826	423.38
367.052	408.38
367.278	434.38
367.505	420.38
367.731	422.38
367.957	415.38
368.184	430.38
368.41	433.38
368.636	425.38
368.862	444.38
369.089	421.38
369.315	428.38
369.541	423.38
369.767	412.38
369.993	417.38
370.219	426.38
370.445	410.38
370.672	418.38
370.898	446.38
371.124	398.38
371.35	432.38
371.576	436.38
371.802	449.38
372.028	429.38
372.254	431.38
372.48	413.38
372.706	440.38
372.932	422.38
373.158	441.38
373.384	449.38
373.61	456.38
373.835	442.38
374.061	446.38
374.287	429.38
374.513	436.38
374.739	432.38
374.965	431.38
375.191	434.38
375.416	426.38
375.642	408.38
375.868	445.38
376.094	437.38
376.319	425.38
376.545	419.38
376.771	426.38
376.997	404.38
377.222	431.38
377.448	420.38
377.674	413.38
377.899	432.38
378.125	414.38
378.35	426.38
378.576	419.38
378.802	416.38
379.027	432.38
379.253	438.38
379.478	418.38
379.704	434.38
379.929	440.38
380.155	425.38
380.38	445.38
380.606	416.38
380.831	425.38
381.057	431.38
381.282	446.38
381.507	448.38
381.733	430.38
381.958	436.38
382.184	435.38
382.409	452.38
382.634	448.38
382.86	420.38
383.085	459.38
383.31	431.38
383.535	449.38
383.761	446.38
383.986	471.38
384.211	465.38
384.436	472.38
384.662	477.38
384.887	498.38
385.112	468.38
385.337	477.38
385.562	460.38
385.787	493.38
386.013	480.38
386.238	487.38
386.463	475.38
386.688	475.38
386.913	491.38
387.138	471.38
387.363	487.38
387.588	485.38
387.813	487.38
388.038	470.38
388.263	479.38
388.488	466.38
388.713	483.38
388.938	486.38
389.163	463.38
389.387	500.38
389.612	459.38
389.837	475.38
390.062	492.38
390.287	489.38
390.512	475.38
390.736	460.38
390.961	491.38
391.186	492.38
391.411	502.38
391.636	493.38
391.86	482.38
392.085	509.38
392.31	502.38
392.534	503.38
392.759	510.38
392.984	488.38
393.208	464.38
393.433	493.38
393.658	490.38
393.882	493.38
394.107	456.38
394.331	472.38
394.556	486.38
394.78	478.38
395.005	482.38
395.229	499.38
395.454	495.38
395.678	508.38
395.903	513.38
396.127	526.38
396.352	544.38
396.576	523.38
396.801	496.38
397.025	502.38
397.249	512.38
397.474	529.38
397.698	514.38
397.922	549.38
398.147	538.38
398.371	551.38
398.595	572.38
398.82	557.38
399.044	566.38
399.268	580.38
399.492	637.38
399.717	672.38
399.941	697.38
400.165	726.38
400.389	710.38
400.613	610.38
400.837	605.38
401.062	574.38
401.286	564.38
401.51	551.38
401.734	552.38
401.958	554.38
402.182	559.38
402.406	590.38
402.63	562.38
402.854	557.38
403.078	584.38
403.302	603.38
403.526	583.38
403.75	568.38
403.974	584.38
404.198	591.38
404.422	610.38
404.645	585.38
404.869	599.38
405.093	622.38
405.317	669.38
405.541	707.38
405.765	626.38
405.988	613.38
406.212	621.38
406.436	613.38
406.66	625.38
406.883	642.38
407.107	646.38
407.331	710.38
407.555	770.38
407.778	769.38
408.002	707.38
408.226	623.38
408.449	611.38
408.673	609.38
408.896	669.38
409.12	709.38
409.344	680.38
409.567	589.38
409.791	582.38
410.014	597.38
410.238	614.38
410.461	587.38
410.685	604.38
410.908	610.38
411.132	636.38
411.355	662.38
411.578	640.38
411.802	587.38
412.025	607.38
412.249	602.38
412.472	617.38
412.695	663.38
412.919	640.38
413.142	588.38
413.365	581.38
413.589	580.38
413.812	563.38
414.035	571.38
414.258	551.38
414.482	557.38
414.705	554.38
414.928	540.38
415.151	537.38
415.374	536.38
415.597	535.38
415.821	543.38
416.044	550.38
416.267	554.38
416.49	550.38
416.713	551.38
416.936	558.38
417.159	544.38
417.382	546.38
417.605	572.38
417.828	554.38
418.051	582.38
418.274	588.38
418.497	556.38
418.72	555.38
418.943	552.38
419.166	595.38
419.389	598.38
419.611	579.38
419.834	580.38
420.057	578.38
420.28	591.38
420.503	588.38
420.726	574.38
420.948	594.38
421.171	620.38
421.394	674.38
421.617	612.38
421.839	583.38
422.062	577.38
422.285	595.38
422.507	647.38
422.73	734.38
422.953	690.38
423.175	638.38
423.398	585.38
423.621	596.38
423.843	628.38
424.066	627.38
424.288	601.38
424.511	627.38
424.733	668.38
424.956	761.38
425.178	720.38
425.401	720.38
425.623	760.38
425.846	662.38
426.068	596.38
426.291	591.38
426.513	589.38
426.735	602.38
426.958	662.38
427.18	733.38
427.402	896.38
427.625	960.38
427.847	800.38
428.069	710.38
428.292	658.38
428.514	594.38
428.736	582.38
428.958	553.38
429.181	559.38
429.403	534.38
429.625	546.38
429.847	600.38
430.069	662.38
430.292	640.38
430.514	568.38
430.736	555.38
430.958	556.38
431.18	528.38
431.402	534.38
431.624	511.38
431.846	538.38
432.068	524.38
432.29	535.38
432.512	529.38
432.734	545.38
432.956	553.38
433.178	554.38
433.4	548.38
433.622	551.38
433.844	550.38
434.066	544.38
434.287	526.38
434.509	543.38
434.731	566.38
434.953	571.38
435.175	568.38
435.397	583.38
435.618	594.38
435.84	631.38
436.062	725.38
436.284	809.38
436.505	674.38
436.727	611.38
436.949	553.38
437.17	546.38
437.392	544.38
437.614	568.38
437.835	582.38
438.057	699.38
438.278	792.38
438.5	785.38
438.721	866.38
438.943	842.38
439.165	673.38
439.386	626.38
439.608	590.38
439.829	572.38
440.05	627.38
440.272	676.38
440.493	616.38
440.715	576.38
440.936	566.38
441.158	553.38
441.379	556.38
441.6	592.38
441.822	584.38
442.043	653.38
442.264	729.38
442.486	769.38
442.707	652.38
442.928	595.38
443.149	616.38
443.371	642.38
443.592	685.38
443.813	797.38
444.034	840.38
444.255	704.38
444.476	650.38
444.698	638.38
444.919	614.38
445.14	708.38
445.361	683.38
445.582	651.38
445.803	683.38
446.024	827.38
446.245	809.38
446.466	728.38
446.687	647.38
446.908	586.38
447.129	574.38
447.35	576.38
447.571	536.38
447.792	540.38
448.013	528.38
448.234	573.38
448.455	630.38
448.675	722.38
448.896	856.38
449.117	703.38
449.338	660.38
449.559	788.38
449.779	899.38
450	730.38
450.221	588.38
450.442	557.38
450.662	551.38
450.883	530.38
451.104	581.38
451.324	567.38
451.545	518.38
451.766	515.38
451.986	492.38
452.207	485.38
452.428	482.38
452.648	469.38
452.869	495.38
453.089	478.38
453.31	489.38
453.53	491.38
453.751	484.38
453.971	479.38
454.192	520.38
454.412	502.38
454.633	500.38
454.853	501.38
455.073	477.38
455.294	504.38
455.514	578.38
455.734	570.38
455.955	498.38
456.175	466.38
456.395	462.38
456.616	454.38
456.836	457.38
457.056	478.38
457.276	452.38
457.497	463.38
457.717	459.38
457.937	458.38
458.157	457.38
458.377	483.38
458.598	503.38
458.818	559.38
459.038	607.38
459.258	633.38
459.478	589.38
459.698	535.38
459.918	524.38
460.138	529.38
460.358	540.38
460.578	544.38
460.798	551.38
461.018	553.38
461.238	548.38
461.458	566.38
461.678	546.38
461.898	560.38
462.118	547.38
462.338	554.38
462.558	593.38
462.777	597.38
462.997	591.38
463.217	619.38
463.437	630.38
463.657	600.38
463.876	596.38
464.096	596.38
464.316	591.38
464.536	603.38
464.755	606.38
464.975	596.38
465.195	611.38
465.414	651.38
465.634	598.38
465.854	560.38
466.073	567.38
466.293	531.38
466.512	521.38
466.732	502.38
466.951	486.38
467.171	499.38
467.391	500.38
467.61	520.38
467.829	514.38
468.049	518.38
468.268	520.38
468.488	515.38
468.707	490.38
468.927	507.38
469.146	484.38
469.365	487.38
469.585	484.38
469.804	518.38
470.023	494.38
470.243	509.38
470.462	518.38
470.681	562.38
470.901	535.38
471.12	520.38
471.339	519.38
471.558	514.38
471.777	536.38
471.997	508.38
472.216	528.38
472.435	543.38
472.654	534.38
472.873	499.38
473.092	510.38
473.311	492.38
473.53	500.38
473.749	485.38
473.968	553.38
474.187	670.38
474.406	681.38
474.625	572.38
474.844	518.38
475.063	519.38
475.282	515.38
475.501	510.38
475.72	495.38
475.939	523.38
476.158	508.38
476.377	520.38
476.596	504.38
476.814	510.38
477.033	537.38
477.252	586.38
477.471	574.38
477.69	550.38
477.908	585.38
478.127	543.38
478.346	564.38
478.564	586.38
478.783	592.38
479.002	591.38
479.22	602.38
479.439	605.38
479.658	623.38
479.876	613.38
480.095	622.38
480.313	652.38
480.532	639.38
480.751	604.38
480.969	630.38
481.188	685.38
481.406	691.38
481.624	650.38
481.843	593.38
482.061	599.38
482.28	630.38
482.498	596.38
482.717	585.38
482.935	590.38
483.153	594.38
483.372	603.38
483.59	603.38
483.808	603.38
484.027	600.38
484.245	598.38
484.463	582.38
484.681	609.38
484.9	589.38
485.118	592.38
485.336	601.38
485.554	614.38
485.772	608.38
485.99	624.38
486.209	626.38
486.427	627.38
486.645	616.38
486.863	652.38
487.081	639.38
487.299	609.38
487.517	621.38
487.735	623.38
487.953	634.38
488.171	631.38
488.389	619.38
488.607	674.38
488.825	639.38
489.043	622.38
489.261	642.38
489.479	633.38
489.696	636.38
489.914	666.38
490.132	672.38
490.35	650.38
490.568	681.38
490.786	664.38
491.003	711.38
491.221	713.38
491.439	712.38
491.657	710.38
491.874	730.38
492.092	747.38
492.31	714.38
492.527	746.38
492.745	735.38
492.963	737.38
493.18	742.38
493.398	749.38
493.615	790.38
493.833	760.38
494.05	740.38
494.268	748.38
494.485	725.38
494.703	754.38
494.92	764.38
495.138	762.38
495.355	755.38
495.573	736.38
495.79	767.38
496.008	760.38
496.225	748.38
496.442	765.38
496.66	750.38
496.877	772.38
497.094	735.38
497.312	760.38
497.529	792.38
497.746	781.38
497.963	811.38
498.181	827.38
498.398	843.38
498.615	872.38
498.832	872.38
499.049	910.38
499.267	943.38
499.484	974.38
499.701	990.38
499.918	1042.38
500.135	1118.38
500.352	1163.38
500.569	1222.38
500.786	1182.38
501.003	1189.38
501.22	1133.38
501.437	1098.38
501.654	1066.38
501.871	1019.38
502.088	970.38
502.305	910.38
502.522	882.38
502.739	864.38
502.956	848.38
503.172	810.38
503.389	798.38
503.606	781.38
503.823	796.38
504.04	771.38
504.256	762.38
504.473	766.38
504.69	768.38
504.907	752.38
505.123	759.38
505.34	757.38
505.557	734.38
505.773	734.38
505.99	721.38
506.207	724.38
506.423	727.38
506.64	697.38
506.856	717.38
507.073	669.38
507.289	681.38
507.506	681.38
507.722	706.38
507.939	706.38
508.155	690.38
508.372	668.38
508.588	646.38
508.805	664.38
509.021	654.38
509.238	695.38
509.454	687.38
509.67	695.38
509.887	664.38
510.103	662.38
510.319	691.38
510.536	734.38
510.752	1074.38
510.968	926.38
511.184	662.38
511.401	641.38
511.617	638.38
511.833	621.38
512.049	613.38
512.265	631.38
512.481	630.38
512.698	612.38
512.914	619.38
513.13	635.38
513.346	642.38
513.562	625.38
513.778	608.38
513.994	642.38
514.21	630.38
514.426	643.38
514.642	657.38
514.858	695.38
515.074	695.38
515.29	830.38
515.506	1088.38
515.721	948.38
515.937	714.38
516.153	663.38
516.369	680.38
516.585	671.38
516.801	648.38
517.016	654.38
517.232	666.38
517.448	670.38
517.664	689.38
517.879	704.38
518.095	664.38
518.311	669.38
518.527	655.38
518.742	672.38
518.958	634.38
519.173	650.38
519.389	644.38
519.605	634.38
519.82	639.38
520.036	662.38
520.251	648.38
520.467	645.38
520.682	669.38
520.898	699.38
521.113	680.38
521.329	705.38
521.544	743.38
521.76	897.38
521.975	1330.38
522.19	1358.38
522.406	812.38
522.621	669.38
522.836	598.38
523.052	599.38
523.267	585.38
523.482	567.38
523.698	575.38
523.913	570.38
524.128	569.38
524.343	571.38
524.559	555.38
524.774	537.38
524.989	523.38
525.204	535.38
525.419	538.38
525.634	551.38
525.849	538.38
526.064	508.38
526.28	515.38
526.495	536.38
526.71	508.38
526.925	525.38
527.14	526.38
527.355	520.38
527.57	520.38
527.785	522.38
527.999	515.38
528.214	510.38
528.429	510.38
528.644	519.38
528.859	502.38
529.074	524.38
529.289	519.38
529.503	593.38
529.718	591.38
529.933	548.38
530.148	520.38
530.363	527.38
530.577	514.38
530.792	518.38
531.007	529.38
531.221	503.38
531.436	502.38
531.651	491.38
531.865	518.38
532.08	498.38
532.295	495.38
532.509	491.38
532.724	525.38
532.938	486.38
533.153	506.38
533.367	517.38
533.582	490.38
533.796	502.38
534.011	484.38
534.225	507.38
534.44	500.38
534.654	500.38
534.868	492.38
535.083	501.38
535.297	482.38
535.511	504.38
535.726	502.38
535.94	504.38
536.154	488.38
536.369	494.38
536.583	477.38
536.797	477.38
537.011	480.38
537.225	475.38
537.44	493.38
537.654	484.38
537.868	453.38
538.082	487.38
538.296	481.38
538.51	483.38
538.724	477.38
538.938	489.38
539.153	463.38
539.367	483.38
539.581	487.38
539.795	486.38
540.009	478.38
540.222	454.38
540.436	469.38
540.65	477.38
540.864	491.38
541.078	484.38
541.292	492.38
541.506	479.38
541.72	480.38
541.934	480.38
542.147	475.38
542.361	494.38
542.575	461.38
542.789	468.38
543.002	470.38
543.216	473.38
543.43	474.38
543.644	474.38
543.857	482.38
544.071	466.38
544.285	479.38
544.498	470.38
544.712	473.38
544.925	453.38
545.139	470.38
545.352	468.38
545.566	477.38
545.779	458.38
545.993	473.38
546.206	470.38
546.42	495.38
546.633	454.38
546.847	484.38
547.06	482.38
547.274	450.38
547.487	464.38
547.7	466.38
547.914	474.38
548.127	455.38
548.34	453.38
548.554	463.38
548.767	468.38
548.98	478.38
549.193	471.38
549.407	456.38
549.62	468.38
549.833	467.38
550.046	462.38
550.259	454.38
550.473	444.38
550.686	456.38
550.899	453.38
551.112	447.38
551.325	457.38
551.538	458.38
551.751	468.38
551.964	451.38
552.177	443.38
552.39	472.38
552.603	440.38
552.816	500.38
553.029	475.38
553.242	467.38
553.455	472.38
553.667	483.38
553.88	503.38
554.093	493.38
554.306	459.38
554.519	477.38
554.732	457.38
554.944	463.38
555.157	451.38
555.37	456.38
555.583	437.38
555.795	437.38
556.008	446.38
556.221	426.38
556.433	422.38
556.646	411.38
556.859	439.38
557.071	411.38
557.284	408.38
557.496	427.38
557.709	421.38
557.921	421.38
558.134	423.38
558.346	399.38
558.559	422.38
558.771	417.38
558.984	409.38
559.196	419.38
559.409	398.38
559.621	428.38
559.833	411.38
560.046	417.38
560.258	396.38
560.47	399.38
560.683	403.38
560.895	408.38
561.107	390.38
561.32	401.38
561.532	420.38
561.744	419.38
561.956	419.38
562.168	402.38
562.381	416.38
562.593	408.38
562.805	425.38
563.017	402.38
563.229	407.38
563.441	424.38
563.653	417.38
563.865	407.38
564.077	424.38
564.289	420.38
564.501	435.38
564.713	423.38
564.925	428.38
565.137	430.38
565.349	442.38
565.561	459.38
565.773	463.38
565.985	463.38
566.197	455.38
566.408	503.38
566.62	520.38
566.832	524.38
567.044	535.38
567.255	559.38
567.467	536.38
567.679	557.38
567.891	573.38
568.102	562.38
568.314	562.38
568.526	537.38
568.737	535.38
568.949	486.38
569.161	468.38
569.372	470.38
569.584	437.38
569.795	460.38
570.007	446.38
570.218	444.38
570.43	440.38
570.641	423.38
570.853	404.38
571.064	414.38
571.276	405.38
571.487	440.38
571.698	416.38
571.91	395.38
572.121	373.38
572.333	385.38
572.544	384.38
572.755	386.38
572.966	386.38
573.178	375.38
573.389	361.38
573.6	364.38
573.811	353.38
574.023	356.38
574.234	355.38
574.445	347.38
574.656	358.38
574.867	355.38
575.078	362.38
575.289	337.38
575.501	352.38
575.712	361.38
575.923	338.38
576.134	351.38
576.345	345.38
576.556	364.38
576.767	336.38
576.978	341.38
577.188	358.38
577.399	353.38
577.61	349.38
577.821	336.38
578.032	331.38
578.243	358.38
578.454	506.38
578.665	412.38
578.875	339.38
579.086	325.38
579.297	335.38
579.508	332.38
579.718	325.38
579.929	318.38
580.14	327.38
580.35	322.38
580.561	320.38
580.772	325.38
580.982	328.38
581.193	333.38
581.403	322.38
581.614	317.38
581.825	312.38
582.035	320.38
582.246	321.38
582.456	326.38
582.667	334.38
582.877	320.38
583.087	327.38
583.298	327.38
583.508	309.38
583.719	310.38
583.929	307.38
584.139	303.38
584.35	302.38
584.56	302.38
584.77	332.38
584.981	314.38
585.191	304.38
585.401	327.38
585.611	327.38
585.821	298.38
586.032	327.38
586.242	322.38
586.452	312.38
586.662	311.38
586.872	306.38
587.082	323.38
587.292	324.38
587.502	318.38
587.713	314.38
587.923	306.38
588.133	304.38
588.343	311.38
588.553	312.38
588.762	304.38
588.972	311.38
589.182	298.38
589.392	296.38
589.602	323.38
589.812	318.38
590.022	294.38
590.232	311.38
590.441	318.38
590.651	325.38
590.861	296.38
591.071	301.38
591.281	320.38
591.49	315.38
591.7	333.38
591.91	319.38
592.119	330.38
592.329	326.38
592.539	314.38
592.748	340.38
592.958	329.38
593.167	341.38
593.377	334.38
593.587	352.38
593.796	354.38
594.006	341.38
594.215	351.38
594.424	345.38
594.634	355.38
594.843	333.38
595.053	334.38
595.262	318.38
595.472	334.38
595.681	299.38
595.89	318.38
596.1	312.38
596.309	318.38
596.518	312.38
596.727	307.38
596.937	298.38
597.146	298.38
597.355	302.38
597.564	287.38
597.774	285.38
597.983	283.38
598.192	278.38
598.401	286.38
598.61	296.38
598.819	260.38
599.028	288.38
599.237	278.38
599.446	266.38
599.655	276.38
599.864	268.38
600.073	255.38
600.282	248.38
600.491	280.38
600.7	285.38
600.909	270.38
601.118	278.38
601.327	266.38
601.536	287.38
601.745	266.38
601.953	259.38
602.162	262.38
602.371	257.38
602.58	275.38
602.789	270.38
602.997	264.38
603.206	270.38
603.415	270.38
603.623	273.38
603.832	271.38
604.041	260.38
604.249	247.38
604.458	263.38
604.666	280.38
604.875	269.38
605.084	273.38
605.292	274.38
605.501	267.38
605.709	254.38
605.918	264.38
606.126	264.38
606.334	252.38
606.543	256.38
606.751	259.38
606.96	243.38
607.168	277.38
607.376	244.38
607.585	252.38
607.793	248.38
608.001	237.38
608.21	235.38
608.418	249.38
608.626	261.38
608.834	266.38
609.043	276.38
609.251	244.38
609.459	260.38
609.667	272.38
609.875	273.38
610.083	248.38
610.291	246.38
610.499	260.38
610.707	243.38
610.916	249.38
611.124	248.38
611.332	262.38
611.54	256.38
611.748	264.38
611.955	261.38
612.163	250.38
612.371	245.38
612.579	233.38
612.787	252.38
612.995	253.38
613.203	250.38
613.411	259.38
613.618	253.38
613.826	256.38
614.034	231.38
614.242	238.38
614.449	226.38
614.657	252.38
614.865	251.38
615.072	264.38
615.28	246.38
615.488	247.38
615.695	241.38
615.903	244.38
616.111	278.38
616.318	235.38
616.526	270.38
616.733	264.38
616.941	231.38
617.148	246.38
617.356	238.38
617.563	256.38
617.771	239.38
617.978	227.38
618.185	229.38
618.393	254.38
618.6	238.38
618.807	249.38
619.015	244.38
619.222	238.38
619.429	219.38
619.637	238.38
619.844	231.38
620.051	231.38
620.258	228.38
620.466	230.38
620.673	230.38
620.88	230.38
621.087	242.38
621.294	229.38
621.501	227.38
621.708	226.38
621.915	243.38
622.122	238.38
622.329	223.38
622.536	219.38
622.743	234.38
622.95	245.38
623.157	227.38
623.364	238.38
623.571	224.38
623.778	224.38
623.985	226.38
624.192	231.38
624.399	230.38
624.606	221.38
624.812	231.38
625.019	226.38
625.226	229.38
625.433	221.38
625.639	215.38
625.846	223.38
626.053	214.38
626.259	221.38
626.466	213.38
626.673	226.38
626.879	223.38
627.086	218.38
627.293	224.38
627.499	219.38
627.706	222.38
627.912	207.38
628.119	217.38
628.325	193.38
628.532	199.38
628.738	214.38
628.945	208.38
629.151	217.38
629.357	214.38
629.564	205.38
629.77	213.38
629.976	209.38
630.183	202.38
630.389	200.38
630.595	205.38
630.802	214.38
631.008	189.38
631.214	196.38
631.42	210.38
631.627	198.38
631.833	207.38
632.039	217.38
632.245	194.38
632.451	218.38
632.657	206.38
632.863	179.38
633.069	194.38
633.275	209.38
633.481	190.38
633.688	196.38
633.893	190.38
634.099	184.38
634.305	175.38
634.511	200.38
634.717	187.38
634.923	201.38
635.129	192.38
635.335	194.38
635.541	199.38
635.747	203.38
635.952	196.38
636.158	200.38
636.364	201.38
636.57	202.38
636.775	168.38
636.981	197.38
637.187	198.38
637.392	191.38
637.598	187.38
637.804	195.38
638.009	183.38
638.215	192.38
638.421	180.38
638.626	171.38
638.832	181.38
639.037	190.38
639.243	186.38
639.448	187.38
639.654	189.38
639.859	178.38
640.065	171.38
640.27	194.38
640.475	192.38
640.681	180.38
640.886	178.38
641.091	178.38
641.297	195.38
641.502	179.38
641.707	171.38
641.913	182.38
642.118	166.38
642.323	166.38
642.528	175.38
642.733	180.38
642.939	168.38
643.144	182.38
643.349	174.38
643.554	163.38
643.759	162.38
643.964	163.38
644.169	186.38
644.374	177.38
644.579	180.38
644.784	182.38
644.989	184.38
645.194	170.38
645.399	180.38
645.604	168.38
645.809	180.38
646.014	171.38
646.219	170.38
646.423	160.38
646.628	193.38
646.833	185.38
647.038	177.38
647.243	182.38
647.447	178.38
647.652	194.38
647.857	200.38
648.062	186.38
648.266	168.38
648.471	167.38
648.676	178.38
648.88	180.38
649.085	190.38
649.289	168.38
649.494	189.38
649.698	222.38
649.903	194.38
650.107	178.38
650.312	168.38
650.516	169.38
650.721	158.38
650.925	171.38
651.13	168.38
651.334	155.38
651.539	172.38
651.743	151.38
651.947	172.38
652.152	154.38
652.356	151.38
652.56	146.38
652.764	133.38
652.969	126.38
653.173	145.38
653.377	144.38
653.581	146.38
653.785	144.38
653.99	152.38
654.194	144.38
654.398	153.38
654.602	151.38
654.806	162.38
655.01	140.38
655.214	159.38
655.418	140.38
655.622	136.38
655.826	140.38
656.03	143.38
656.234	140.38
656.438	149.38
656.642	141.38
656.846	150.38
657.049	140.38
657.253	136.38
657.457	129.38
657.661	116.38
657.865	119.38
658.068	116.38
658.272	111.38
658.476	115.38
658.68	113.38
658.883	95.38
659.087	116.38
659.291	104.38
659.494	98.38
659.698	102.38
659.901	94.38
660.105	79.38
660.309	103.38
660.512	100.38
660.716	107.38
660.919	91.38
661.123	93.38
661.326	98.38
661.53	84.38
661.733	87.38
661.936	99.38
662.14	88.38
662.343	79.38
662.546	83.38
662.75	84.38
662.953	79.38
663.156	84.38
663.36	79.38
663.563	83.38
663.766	90.38
663.969	86.38
664.173	82.38
664.376	84.38
664.579	76.38
664.782	75.38
664.985	90.38
665.188	89.38
665.391	86.38
665.594	85.38
665.797	87.38
666	83.38
666.203	90.38
666.406	87.38
666.609	68.38
666.812	77.38
667.015	94.38
667.218	70.38
667.421	75.38
667.624	80.38
667.827	82.38
668.03	88.38
668.232	80.38
668.435	83.38
668.638	78.38
668.841	85.38
669.043	80.38
669.246	74.38
669.449	75.38
669.651	96.38
669.854	95.38
670.057	84.38
670.259	76.38
670.462	77.38
670.665	91.38
670.867	91.38
671.07	85.38
671.272	87.38
671.475	83.38
671.677	86.38
671.88	100.38
672.082	75.38
672.284	99.38
672.487	77.38
672.689	83.38
672.892	78.38
