Data from 1976.PennyLincolnUp.Lamp.En5.5.200Scan.071719.P1.Changed Mount._HRD10591_16-00-02-861.txt Node
Date: Thu Jul 18 16:00:02 EDT 2019
User: cochatt
Spectrometer: HR+D1059
Trigger mode: 1
Integration Time (sec): 1.000000E-1
Scans to average: 1
Electric dark correction enabled: true
Nonlinearity correction enabled: false
Boxcar width: 0
XAxis mode: Wavelengths
Number of Pixels in Spectrum: 2048
>>>>>Begin Spectral Data<<<<<
223.165	-19.06
223.4	-19.06
223.635	-19.06
223.869	-21.06
224.104	-23.06
224.338	-12.06
224.573	-18.06
224.808	-9.06
225.042	-1.06
225.277	-2.06
225.511	5.94
225.746	9.94
225.98	6.94
226.215	8.94
226.449	16.94
226.683	10.94
226.918	27.94
227.152	17.94
227.387	28.94
227.621	45.94
227.856	37.94
228.09	55.94
228.324	45.94
228.559	52.94
228.793	66.94
229.027	103.94
229.262	105.94
229.496	116.94
229.73	133.94
229.964	143.94
230.199	121.94
230.433	125.94
230.667	111.94
230.901	102.94
231.136	99.94
231.37	113.94
231.604	116.94
231.838	103.94
232.072	111.94
232.306	118.94
232.541	99.94
232.775	110.94
233.009	113.94
233.243	109.94
233.477	117.94
233.711	109.94
233.945	101.94
234.179	113.94
234.413	96.94
234.647	105.94
234.881	118.94
235.115	115.94
235.349	124.94
235.583	121.94
235.817	131.94
236.051	138.94
236.285	137.94
236.519	122.94
236.753	126.94
236.987	131.94
237.221	159.94
237.455	221.94
237.689	192.94
237.922	145.94
238.156	131.94
238.39	124.94
238.624	126.94
238.858	135.94
239.091	129.94
239.325	125.94
239.559	130.94
239.793	133.94
240.027	117.94
240.26	149.94
240.494	160.94
240.728	148.94
240.961	150.94
241.195	125.94
241.429	140.94
241.662	154.94
241.896	129.94
242.13	134.94
242.363	118.94
242.597	131.94
242.83	138.94
243.064	129.94
243.298	131.94
243.531	144.94
243.765	138.94
243.998	138.94
244.232	140.94
244.465	163.94
244.699	143.94
244.932	141.94
245.166	149.94
245.399	131.94
245.633	148.94
245.866	147.94
246.099	153.94
246.333	142.94
246.566	147.94
246.8	160.94
247.033	145.94
247.266	166.94
247.5	158.94
247.733	160.94
247.966	163.94
248.2	159.94
248.433	173.94
248.666	163.94
248.899	181.94
249.133	204.94
249.366	214.94
249.599	187.94
249.832	171.94
250.066	194.94
250.299	173.94
250.532	183.94
250.765	186.94
250.998	193.94
251.231	230.94
251.465	215.94
251.698	208.94
251.931	178.94
252.164	194.94
252.397	193.94
252.63	203.94
252.863	185.94
253.096	222.94
253.329	217.94
253.562	215.94
253.795	199.94
254.028	211.94
254.261	215.94
254.494	223.94
254.727	249.94
254.96	276.94
255.193	267.94
255.426	244.94
255.659	234.94
255.892	207.94
256.124	259.94
256.357	226.94
256.59	239.94
256.823	221.94
257.056	223.94
257.289	212.94
257.521	219.94
257.754	218.94
257.987	202.94
258.22	190.94
258.452	209.94
258.685	212.94
258.918	206.94
259.151	225.94
259.383	231.94
259.616	230.94
259.849	223.94
260.081	205.94
260.314	254.94
260.547	265.94
260.779	256.94
261.012	228.94
261.244	201.94
261.477	222.94
261.71	234.94
261.942	239.94
262.175	229.94
262.407	213.94
262.64	200.94
262.872	209.94
263.105	205.94
263.337	226.94
263.57	215.94
263.802	239.94
264.035	224.94
264.267	205.94
264.499	211.94
264.732	230.94
264.964	229.94
265.197	216.94
265.429	230.94
265.661	217.94
265.894	220.94
266.126	241.94
266.358	252.94
266.591	230.94
266.823	228.94
267.055	224.94
267.287	242.94
267.52	226.94
267.752	219.94
267.984	214.94
268.216	245.94
268.448	236.94
268.681	259.94
268.913	233.94
269.145	270.94
269.377	279.94
269.609	268.94
269.841	265.94
270.073	266.94
270.306	295.94
270.538	307.94
270.77	298.94
271.002	305.94
271.234	285.94
271.466	291.94
271.698	301.94
271.93	297.94
272.162	311.94
272.394	321.94
272.626	311.94
272.858	268.94
273.09	279.94
273.322	261.94
273.553	287.94
273.785	264.94
274.017	281.94
274.249	267.94
274.481	267.94
274.713	256.94
274.945	278.94
275.176	284.94
275.408	281.94
275.64	260.94
275.872	276.94
276.104	275.94
276.335	284.94
276.567	278.94
276.799	278.94
277.031	315.94
277.262	321.94
277.494	302.94
277.726	293.94
277.957	280.94
278.189	275.94
278.421	288.94
278.652	265.94
278.884	247.94
279.115	286.94
279.347	283.94
279.579	297.94
279.81	294.94
280.042	281.94
280.273	265.94
280.505	268.94
280.736	274.94
280.968	274.94
281.199	285.94
281.431	270.94
281.662	273.94
281.894	261.94
282.125	288.94
282.356	299.94
282.588	291.94
282.819	307.94
283.051	299.94
283.282	279.94
283.513	278.94
283.745	285.94
283.976	301.94
284.207	298.94
284.439	299.94
284.67	310.94
284.901	289.94
285.132	289.94
285.364	277.94
285.595	278.94
285.826	299.94
286.057	291.94
286.288	290.94
286.52	285.94
286.751	297.94
286.982	298.94
287.213	301.94
287.444	284.94
287.675	290.94
287.906	283.94
288.138	307.94
288.369	311.94
288.6	312.94
288.831	318.94
289.062	309.94
289.293	301.94
289.524	298.94
289.755	298.94
289.986	294.94
290.217	298.94
290.448	305.94
290.679	300.94
290.91	305.94
291.141	295.94
291.371	296.94
291.602	309.94
291.833	291.94
292.064	301.94
292.295	290.94
292.526	285.94
292.757	300.94
292.987	300.94
293.218	296.94
293.449	309.94
293.68	316.94
293.91	316.94
294.141	318.94
294.372	308.94
294.603	295.94
294.833	309.94
295.064	312.94
295.295	322.94
295.525	305.94
295.756	309.94
295.987	311.94
296.217	326.94
296.448	341.94
296.679	321.94
296.909	321.94
297.14	349.94
297.37	302.94
297.601	313.94
297.831	317.94
298.062	335.94
298.292	332.94
298.523	341.94
298.753	318.94
298.984	322.94
299.214	327.94
299.445	328.94
299.675	315.94
299.905	326.94
300.136	332.94
300.366	343.94
300.597	320.94
300.827	349.94
301.057	341.94
301.288	327.94
301.518	327.94
301.748	335.94
301.979	341.94
302.209	335.94
302.439	357.94
302.669	348.94
302.9	351.94
303.13	331.94
303.36	339.94
303.59	351.94
303.82	354.94
304.051	351.94
304.281	335.94
304.511	335.94
304.741	338.94
304.971	342.94
305.201	358.94
305.431	356.94
305.661	355.94
305.891	359.94
306.121	339.94
306.352	328.94
306.582	337.94
306.812	337.94
307.042	341.94
307.272	346.94
307.502	340.94
307.731	327.94
307.961	343.94
308.191	353.94
308.421	327.94
308.651	365.94
308.881	340.94
309.111	348.94
309.341	347.94
309.571	345.94
309.8	358.94
310.03	365.94
310.26	369.94
310.49	364.94
310.72	389.94
310.949	387.94
311.179	401.94
311.409	387.94
311.639	371.94
311.868	370.94
312.098	359.94
312.328	381.94
312.557	385.94
312.787	396.94
313.017	400.94
313.246	368.94
313.476	369.94
313.706	405.94
313.935	387.94
314.165	404.94
314.394	407.94
314.624	410.94
314.853	393.94
315.083	387.94
315.312	392.94
315.542	379.94
315.771	389.94
316.001	387.94
316.23	382.94
316.46	379.94
316.689	370.94
316.919	389.94
317.148	390.94
317.377	398.94
317.607	389.94
317.836	385.94
318.065	379.94
318.295	399.94
318.524	402.94
318.753	370.94
318.983	396.94
319.212	381.94
319.441	403.94
319.67	403.94
319.9	376.94
320.129	384.94
320.358	379.94
320.587	406.94
320.816	393.94
321.046	411.94
321.275	426.94
321.504	414.94
321.733	391.94
321.962	408.94
322.191	406.94
322.42	429.94
322.649	428.94
322.878	429.94
323.108	416.94
323.337	436.94
323.566	458.94
323.795	491.94
324.024	514.94
324.253	576.94
324.482	815.94
324.71	1213.94
324.939	1803.94
325.168	1542.94
325.397	769.94
325.626	563.94
325.855	513.94
326.084	470.94
326.313	465.94
326.542	471.94
326.77	502.94
326.999	572.94
327.228	753.94
327.457	1089.94
327.686	1347.94
327.914	889.94
328.143	598.94
328.372	557.94
328.6	523.94
328.829	517.94
329.058	520.94
329.287	536.94
329.515	519.94
329.744	462.94
329.972	482.94
330.201	492.94
330.43	513.94
330.658	528.94
330.887	553.94
331.115	513.94
331.344	504.94
331.572	475.94
331.801	465.94
332.03	481.94
332.258	481.94
332.486	458.94
332.715	433.94
332.943	462.94
333.172	477.94
333.4	478.94
333.629	500.94
333.857	493.94
334.085	527.94
334.314	510.94
334.542	539.94
334.771	537.94
334.999	530.94
335.227	467.94
335.455	456.94
335.684	462.94
335.912	451.94
336.14	448.94
336.369	435.94
336.597	448.94
336.825	481.94
337.053	446.94
337.281	458.94
337.51	438.94
337.738	448.94
337.966	426.94
338.194	439.94
338.422	461.94
338.65	440.94
338.878	450.94
339.106	435.94
339.334	433.94
339.562	448.94
339.79	443.94
340.018	419.94
340.246	454.94
340.474	441.94
340.702	437.94
340.93	444.94
341.158	425.94
341.386	441.94
341.614	447.94
341.842	437.94
342.07	438.94
342.298	410.94
342.526	423.94
342.754	418.94
342.981	436.94
343.209	439.94
343.437	437.94
343.665	437.94
343.893	458.94
344.12	472.94
344.348	455.94
344.576	469.94
344.804	486.94
345.031	458.94
345.259	467.94
345.487	458.94
345.714	442.94
345.942	420.94
346.17	441.94
346.397	425.94
346.625	433.94
346.853	429.94
347.08	400.94
347.308	414.94
347.535	418.94
347.763	419.94
347.99	403.94
348.218	438.94
348.445	424.94
348.673	434.94
348.9	453.94
349.128	428.94
349.355	421.94
349.583	412.94
349.81	411.94
350.037	407.94
350.265	413.94
350.492	418.94
350.72	421.94
350.947	425.94
351.174	406.94
351.402	441.94
351.629	434.94
351.856	418.94
352.083	426.94
352.311	426.94
352.538	421.94
352.765	414.94
352.992	414.94
353.22	406.94
353.447	429.94
353.674	396.94
353.901	417.94
354.128	421.94
354.355	395.94
354.583	378.94
354.81	387.94
355.037	402.94
355.264	385.94
355.491	399.94
355.718	393.94
355.945	401.94
356.172	407.94
356.399	392.94
356.626	418.94
356.853	409.94
357.08	374.94
357.307	388.94
357.534	404.94
357.761	412.94
357.988	392.94
358.215	411.94
358.441	410.94
358.668	400.94
358.895	402.94
359.122	421.94
359.349	410.94
359.576	426.94
359.802	443.94
360.029	421.94
360.256	452.94
360.483	439.94
360.709	410.94
360.936	417.94
361.163	412.94
361.39	399.94
361.616	405.94
361.843	419.94
362.07	429.94
362.296	404.94
362.523	420.94
362.749	437.94
362.976	414.94
363.203	392.94
363.429	409.94
363.656	391.94
363.882	415.94
364.109	411.94
364.335	397.94
364.562	421.94
364.788	399.94
365.015	413.94
365.241	392.94
365.468	409.94
365.694	398.94
365.92	420.94
366.147	406.94
366.373	400.94
366.599	409.94
366.826	415.94
367.052	412.94
367.278	392.94
367.505	409.94
367.731	404.94
367.957	409.94
368.184	405.94
368.41	406.94
368.636	416.94
368.862	429.94
369.089	418.94
369.315	414.94
369.541	426.94
369.767	420.94
369.993	397.94
370.219	406.94
370.445	414.94
370.672	407.94
370.898	407.94
371.124	419.94
371.35	409.94
371.576	431.94
371.802	407.94
372.028	396.94
372.254	424.94
372.48	411.94
372.706	403.94
372.932	412.94
373.158	418.94
373.384	425.94
373.61	427.94
373.835	422.94
374.061	422.94
374.287	417.94
374.513	417.94
374.739	419.94
374.965	434.94
375.191	424.94
375.416	442.94
375.642	417.94
375.868	424.94
376.094	411.94
376.319	402.94
376.545	406.94
376.771	426.94
376.997	420.94
377.222	435.94
377.448	409.94
377.674	412.94
377.899	415.94
378.125	395.94
378.35	422.94
378.576	412.94
378.802	417.94
379.027	407.94
379.253	402.94
379.478	407.94
379.704	408.94
379.929	430.94
380.155	416.94
380.38	412.94
380.606	449.94
380.831	405.94
381.057	419.94
381.282	409.94
381.507	425.94
381.733	406.94
381.958	406.94
382.184	426.94
382.409	437.94
382.634	428.94
382.86	426.94
383.085	438.94
383.31	431.94
383.535	406.94
383.761	445.94
383.986	438.94
384.211	435.94
384.436	444.94
384.662	437.94
384.887	482.94
385.112	466.94
385.337	436.94
385.562	449.94
385.787	481.94
386.013	474.94
386.238	474.94
386.463	462.94
386.688	467.94
386.913	451.94
387.138	458.94
387.363	468.94
387.588	473.94
387.813	454.94
388.038	473.94
388.263	480.94
388.488	476.94
388.713	476.94
388.938	462.94
389.163	464.94
389.387	458.94
389.612	466.94
389.837	462.94
390.062	459.94
390.287	472.94
390.512	459.94
390.736	465.94
390.961	461.94
391.186	468.94
391.411	482.94
391.636	462.94
391.86	463.94
392.085	492.94
392.31	471.94
392.534	482.94
392.759	493.94
392.984	484.94
393.208	461.94
393.433	463.94
393.658	469.94
393.882	466.94
394.107	475.94
394.331	467.94
394.556	476.94
394.78	458.94
395.005	474.94
395.229	469.94
395.454	477.94
395.678	487.94
395.903	501.94
396.127	514.94
396.352	484.94
396.576	474.94
396.801	475.94
397.025	481.94
397.249	488.94
397.474	492.94
397.698	493.94
397.922	501.94
398.147	513.94
398.371	509.94
398.595	525.94
398.82	527.94
399.044	574.94
399.268	580.94
399.492	599.94
399.717	658.94
399.941	679.94
400.165	678.94
400.389	676.94
400.613	606.94
400.837	575.94
401.062	558.94
401.286	536.94
401.51	537.94
401.734	557.94
401.958	537.94
402.182	538.94
402.406	552.94
402.63	538.94
402.854	535.94
403.078	553.94
403.302	575.94
403.526	582.94
403.75	562.94
403.974	575.94
404.198	553.94
404.422	557.94
404.645	567.94
404.869	566.94
405.093	591.94
405.317	615.94
405.541	683.94
405.765	627.94
405.988	585.94
406.212	603.94
406.436	619.94
406.66	607.94
406.883	601.94
407.107	640.94
407.331	677.94
407.555	742.94
407.778	729.94
408.002	675.94
408.226	610.94
408.449	622.94
408.673	604.94
408.896	633.94
409.12	671.94
409.344	633.94
409.567	579.94
409.791	571.94
410.014	568.94
410.238	509.94
410.461	577.94
410.685	563.94
410.908	586.94
411.132	591.94
411.355	632.94
411.578	607.94
411.802	571.94
412.025	546.94
412.249	565.94
412.472	576.94
412.695	636.94
412.919	636.94
413.142	554.94
413.365	554.94
413.589	548.94
413.812	546.94
414.035	532.94
414.258	524.94
414.482	520.94
414.705	523.94
414.928	552.94
415.151	544.94
415.374	538.94
415.597	507.94
415.821	548.94
416.044	525.94
416.267	503.94
416.49	545.94
416.713	526.94
416.936	511.94
417.159	535.94
417.382	531.94
417.605	523.94
417.828	546.94
418.051	534.94
418.274	544.94
418.497	517.94
418.72	533.94
418.943	515.94
419.166	544.94
419.389	574.94
419.611	585.94
419.834	577.94
420.057	579.94
420.28	558.94
420.503	550.94
420.726	534.94
420.948	562.94
421.171	609.94
421.394	646.94
421.617	580.94
421.839	561.94
422.062	555.94
422.285	565.94
422.507	603.94
422.73	681.94
422.953	655.94
423.175	625.94
423.398	557.94
423.621	549.94
423.843	591.94
424.066	599.94
424.288	597.94
424.511	590.94
424.733	655.94
424.956	732.94
425.178	709.94
425.401	703.94
425.623	698.94
425.846	633.94
426.068	566.94
426.291	581.94
426.513	559.94
426.735	555.94
426.958	587.94
427.18	678.94
427.402	814.94
427.625	899.94
427.847	762.94
428.069	666.94
428.292	600.94
428.514	566.94
428.736	554.94
428.958	542.94
429.181	505.94
429.403	512.94
429.625	519.94
429.847	565.94
430.069	604.94
430.292	625.94
430.514	549.94
430.736	506.94
430.958	495.94
431.18	514.94
431.402	499.94
431.624	487.94
431.846	501.94
432.068	483.94
432.29	526.94
432.512	513.94
432.734	500.94
432.956	497.94
433.178	524.94
433.4	510.94
433.622	501.94
433.844	520.94
434.066	523.94
434.287	516.94
434.509	525.94
434.731	540.94
434.953	540.94
435.175	528.94
435.397	564.94
435.618	574.94
435.84	607.94
436.062	710.94
436.284	774.94
436.505	649.94
436.727	583.94
436.949	571.94
437.17	542.94
437.392	521.94
437.614	520.94
437.835	565.94
438.057	653.94
438.278	735.94
438.5	704.94
438.721	811.94
438.943	790.94
439.165	619.94
439.386	609.94
439.608	572.94
439.829	557.94
440.05	588.94
440.272	627.94
440.493	573.94
440.715	561.94
440.936	554.94
441.158	531.94
441.379	538.94
441.6	556.94
441.822	585.94
442.043	608.94
442.264	703.94
442.486	747.94
442.707	631.94
442.928	598.94
443.149	591.94
443.371	609.94
443.592	667.94
443.813	726.94
444.034	802.94
444.255	674.94
444.476	612.94
444.698	585.94
444.919	591.94
445.14	722.94
445.361	652.94
445.582	618.94
445.803	656.94
446.024	778.94
446.245	757.94
446.466	702.94
446.687	616.94
446.908	570.94
447.129	551.94
447.35	533.94
447.571	517.94
447.792	513.94
448.013	519.94
448.234	552.94
448.455	582.94
448.675	669.94
448.896	795.94
449.117	703.94
449.338	657.94
449.559	733.94
449.779	842.94
450	709.94
450.221	570.94
450.442	537.94
450.662	506.94
450.883	506.94
451.104	507.94
451.324	499.94
451.545	478.94
451.766	488.94
451.986	454.94
452.207	462.94
452.428	466.94
452.648	478.94
452.869	478.94
453.089	465.94
453.31	484.94
453.53	464.94
453.751	467.94
453.971	452.94
454.192	481.94
454.412	486.94
454.633	457.94
454.853	446.94
455.073	462.94
455.294	471.94
455.514	561.94
455.734	524.94
455.955	472.94
456.175	449.94
456.395	462.94
456.616	438.94
456.836	454.94
457.056	438.94
457.276	440.94
457.497	433.94
457.717	445.94
457.937	449.94
458.157	465.94
458.377	452.94
458.598	490.94
458.818	504.94
459.038	595.94
459.258	610.94
459.478	537.94
459.698	529.94
459.918	499.94
460.138	510.94
460.358	502.94
460.578	530.94
460.798	539.94
461.018	551.94
461.238	517.94
461.458	536.94
461.678	526.94
461.898	527.94
462.118	535.94
462.338	533.94
462.558	574.94
462.777	567.94
462.997	581.94
463.217	611.94
463.437	591.94
463.657	596.94
463.876	590.94
464.096	583.94
464.316	550.94
464.536	576.94
464.755	568.94
464.975	580.94
465.195	586.94
465.414	603.94
465.634	556.94
465.854	542.94
466.073	516.94
466.293	502.94
466.512	502.94
466.732	473.94
466.951	488.94
467.171	473.94
467.391	488.94
467.61	500.94
467.829	504.94
468.049	498.94
468.268	497.94
468.488	479.94
468.707	465.94
468.927	479.94
469.146	467.94
469.365	497.94
469.585	490.94
469.804	494.94
470.023	486.94
470.243	502.94
470.462	483.94
470.681	505.94
470.901	497.94
471.12	494.94
471.339	486.94
471.558	484.94
471.777	500.94
471.997	492.94
472.216	501.94
472.435	497.94
472.654	514.94
472.873	487.94
473.092	482.94
473.311	474.94
473.53	484.94
473.749	489.94
473.968	527.94
474.187	604.94
474.406	643.94
474.625	551.94
474.844	517.94
475.063	497.94
475.282	487.94
475.501	505.94
475.72	483.94
475.939	486.94
476.158	501.94
476.377	511.94
476.596	510.94
476.814	525.94
477.033	519.94
477.252	532.94
477.471	516.94
477.69	519.94
477.908	525.94
478.127	522.94
478.346	540.94
478.564	543.94
478.783	563.94
479.002	559.94
479.22	556.94
479.439	586.94
479.658	579.94
479.876	597.94
480.095	599.94
480.313	645.94
480.532	613.94
480.751	603.94
480.969	609.94
481.188	649.94
481.406	663.94
481.624	604.94
481.843	575.94
482.061	564.94
482.28	564.94
482.498	571.94
482.717	564.94
482.935	569.94
483.153	547.94
483.372	557.94
483.59	552.94
483.808	589.94
484.027	543.94
484.245	561.94
484.463	580.94
484.681	604.94
484.9	577.94
485.118	601.94
485.336	562.94
485.554	594.94
485.772	600.94
485.99	588.94
486.209	597.94
486.427	593.94
486.645	594.94
486.863	605.94
487.081	595.94
487.299	618.94
487.517	609.94
487.735	622.94
487.953	624.94
488.171	630.94
488.389	613.94
488.607	599.94
488.825	612.94
489.043	631.94
489.261	612.94
489.479	627.94
489.696	627.94
489.914	605.94
490.132	609.94
490.35	635.94
490.568	643.94
490.786	638.94
491.003	659.94
491.221	676.94
491.439	664.94
491.657	704.94
491.874	684.94
492.092	671.94
492.31	705.94
492.527	682.94
492.745	677.94
492.963	710.94
493.18	717.94
493.398	699.94
493.615	728.94
493.833	699.94
494.05	720.94
494.268	717.94
494.485	731.94
494.703	700.94
494.92	718.94
495.138	705.94
495.355	718.94
495.573	729.94
495.79	700.94
496.008	743.94
496.225	720.94
496.442	709.94
496.66	745.94
496.877	737.94
497.094	732.94
497.312	742.94
497.529	733.94
497.746	784.94
497.963	744.94
498.181	811.94
498.398	811.94
498.615	818.94
498.832	837.94
499.049	887.94
499.267	884.94
499.484	909.94
499.701	961.94
499.918	1018.94
500.135	1071.94
500.352	1141.94
500.569	1159.94
500.786	1157.94
501.003	1145.94
501.22	1102.94
501.437	1049.94
501.654	978.94
501.871	958.94
502.088	937.94
502.305	895.94
502.522	849.94
502.739	808.94
502.956	799.94
503.172	788.94
503.389	763.94
503.606	773.94
503.823	757.94
504.04	732.94
504.256	739.94
504.473	727.94
504.69	756.94
504.907	718.94
505.123	705.94
505.34	697.94
505.557	709.94
505.773	669.94
505.99	677.94
506.207	675.94
506.423	687.94
506.64	683.94
506.856	670.94
507.073	673.94
507.289	659.94
507.506	654.94
507.722	656.94
507.939	675.94
508.155	639.94
508.372	627.94
508.588	626.94
508.805	640.94
509.021	640.94
509.238	655.94
509.454	664.94
509.67	644.94
509.887	636.94
510.103	609.94
510.319	597.94
510.536	673.94
510.752	977.94
510.968	826.94
511.184	637.94
511.401	610.94
511.617	601.94
511.833	592.94
512.049	573.94
512.265	605.94
512.481	612.94
512.698	597.94
512.914	592.94
513.13	584.94
513.346	595.94
513.562	596.94
513.778	587.94
513.994	602.94
514.21	598.94
514.426	601.94
514.642	626.94
514.858	679.94
515.074	663.94
515.29	718.94
515.506	968.94
515.721	847.94
515.937	666.94
516.153	639.94
516.369	631.94
516.585	645.94
516.801	651.94
517.016	625.94
517.232	635.94
517.448	642.94
517.664	642.94
517.879	637.94
518.095	653.94
518.311	662.94
518.527	643.94
518.742	623.94
518.958	616.94
519.173	607.94
519.389	615.94
519.605	610.94
519.82	610.94
520.036	620.94
520.251	602.94
520.467	619.94
520.682	612.94
520.898	628.94
521.113	655.94
521.329	664.94
521.544	695.94
521.76	812.94
521.975	1225.94
522.19	1187.94
522.406	752.94
522.621	612.94
522.836	574.94
523.052	555.94
523.267	545.94
523.482	538.94
523.698	539.94
523.913	528.94
524.128	537.94
524.343	517.94
524.559	512.94
524.774	501.94
524.989	495.94
525.204	514.94
525.419	517.94
525.634	503.94
525.849	519.94
526.064	504.94
526.28	493.94
526.495	501.94
526.71	502.94
526.925	494.94
527.14	513.94
527.355	494.94
527.57	504.94
527.785	501.94
527.999	493.94
528.214	515.94
528.429	515.94
528.644	498.94
528.859	535.94
529.074	498.94
529.289	513.94
529.503	546.94
529.718	527.94
529.933	509.94
530.148	494.94
530.363	489.94
530.577	522.94
530.792	504.94
531.007	490.94
531.221	473.94
531.436	474.94
531.651	478.94
531.865	487.94
532.08	502.94
532.295	500.94
532.509	491.94
532.724	471.94
532.938	479.94
533.153	478.94
533.367	478.94
533.582	473.94
533.796	487.94
534.011	489.94
534.225	489.94
534.44	479.94
534.654	489.94
534.868	471.94
535.083	456.94
535.297	464.94
535.511	464.94
535.726	475.94
535.94	497.94
536.154	460.94
536.369	466.94
536.583	469.94
536.797	461.94
537.011	444.94
537.225	439.94
537.44	439.94
537.654	465.94
537.868	448.94
538.082	475.94
538.296	487.94
538.51	453.94
538.724	468.94
538.938	473.94
539.153	452.94
539.367	449.94
539.581	446.94
539.795	450.94
540.009	440.94
540.222	444.94
540.436	447.94
540.65	474.94
540.864	464.94
541.078	458.94
541.292	489.94
541.506	475.94
541.72	447.94
541.934	471.94
542.147	459.94
542.361	460.94
542.575	461.94
542.789	450.94
543.002	445.94
543.216	470.94
543.43	436.94
543.644	447.94
543.857	468.94
544.071	486.94
544.285	470.94
544.498	458.94
544.712	459.94
544.925	468.94
545.139	461.94
545.352	448.94
545.566	445.94
545.779	454.94
545.993	422.94
546.206	436.94
546.42	465.94
546.633	450.94
546.847	457.94
547.06	457.94
547.274	450.94
547.487	453.94
547.7	452.94
547.914	458.94
548.127	465.94
548.34	464.94
548.554	439.94
548.767	440.94
548.98	451.94
549.193	455.94
549.407	467.94
549.62	441.94
549.833	445.94
550.046	433.94
550.259	435.94
550.473	441.94
550.686	453.94
550.899	441.94
551.112	437.94
551.325	444.94
551.538	431.94
551.751	433.94
551.964	456.94
552.177	451.94
552.39	429.94
552.603	447.94
552.816	454.94
553.029	456.94
553.242	461.94
553.455	473.94
553.667	456.94
553.88	462.94
554.093	442.94
554.306	468.94
554.519	437.94
554.732	446.94
554.944	436.94
555.157	429.94
555.37	423.94
555.583	441.94
555.795	436.94
556.008	413.94
556.221	423.94
556.433	402.94
556.646	392.94
556.859	403.94
557.071	400.94
557.284	389.94
557.496	407.94
557.709	419.94
557.921	395.94
558.134	417.94
558.346	412.94
558.559	423.94
558.771	389.94
558.984	392.94
559.196	397.94
559.409	389.94
559.621	389.94
559.833	382.94
560.046	392.94
560.258	405.94
560.47	407.94
560.683	384.94
560.895	399.94
561.107	391.94
561.32	415.94
561.532	414.94
561.744	395.94
561.956	388.94
562.168	388.94
562.381	400.94
562.593	404.94
562.805	416.94
563.017	428.94
563.229	403.94
563.441	381.94
563.653	409.94
563.865	385.94
564.077	405.94
564.289	420.94
564.501	426.94
564.713	422.94
564.925	394.94
565.137	434.94
565.349	437.94
565.561	451.94
565.773	446.94
565.985	487.94
566.197	464.94
566.408	481.94
566.62	503.94
566.832	537.94
567.044	507.94
567.255	509.94
567.467	538.94
567.679	538.94
567.891	564.94
568.102	550.94
568.314	551.94
568.526	517.94
568.737	518.94
568.949	478.94
569.161	451.94
569.372	442.94
569.584	441.94
569.795	422.94
570.007	429.94
570.218	443.94
570.43	426.94
570.641	417.94
570.853	393.94
571.064	388.94
571.276	405.94
571.487	393.94
571.698	398.94
571.91	380.94
572.121	378.94
572.333	368.94
572.544	355.94
572.755	365.94
572.966	377.94
573.178	364.94
573.389	365.94
573.6	359.94
573.811	336.94
574.023	343.94
574.234	364.94
574.445	357.94
574.656	349.94
574.867	355.94
575.078	353.94
575.289	340.94
575.501	355.94
575.712	349.94
575.923	335.94
576.134	327.94
576.345	342.94
576.556	317.94
576.767	335.94
576.978	339.94
577.188	349.94
577.399	326.94
577.61	338.94
577.821	321.94
578.032	338.94
578.243	338.94
578.454	469.94
578.665	394.94
578.875	315.94
579.086	316.94
579.297	345.94
579.508	328.94
579.718	329.94
579.929	322.94
580.14	318.94
580.35	312.94
580.561	319.94
580.772	326.94
580.982	321.94
581.193	307.94
581.403	322.94
581.614	323.94
581.825	319.94
582.035	317.94
582.246	321.94
582.456	325.94
582.667	315.94
582.877	304.94
583.087	309.94
583.298	310.94
583.508	306.94
583.719	306.94
583.929	319.94
584.139	311.94
584.35	315.94
584.56	308.94
584.77	309.94
584.981	315.94
585.191	308.94
585.401	309.94
585.611	305.94
585.821	313.94
586.032	312.94
586.242	293.94
586.452	300.94
586.662	305.94
586.872	293.94
587.082	312.94
587.292	311.94
587.502	310.94
587.713	299.94
587.923	302.94
588.133	302.94
588.343	299.94
588.553	314.94
588.762	312.94
588.972	302.94
589.182	305.94
589.392	310.94
589.602	284.94
589.812	300.94
590.022	313.94
590.232	299.94
590.441	300.94
590.651	310.94
590.861	302.94
591.071	311.94
591.281	315.94
591.49	309.94
591.7	299.94
591.91	319.94
592.119	326.94
592.329	317.94
592.539	323.94
592.748	327.94
592.958	333.94
593.167	324.94
593.377	322.94
593.587	330.94
593.796	335.94
594.006	344.94
594.215	318.94
594.424	326.94
594.634	325.94
594.843	326.94
595.053	337.94
595.262	323.94
595.472	307.94
595.681	303.94
595.89	311.94
596.1	318.94
596.309	301.94
596.518	295.94
596.727	298.94
596.937	299.94
597.146	275.94
597.355	271.94
597.564	291.94
597.774	281.94
597.983	295.94
598.192	285.94
598.401	271.94
598.61	280.94
598.819	276.94
599.028	264.94
599.237	279.94
599.446	283.94
599.655	275.94
599.864	276.94
600.073	282.94
600.282	273.94
600.491	260.94
600.7	267.94
600.909	269.94
601.118	278.94
601.327	276.94
601.536	269.94
601.745	260.94
601.953	277.94
602.162	263.94
602.371	257.94
602.58	279.94
602.789	253.94
602.997	239.94
603.206	246.94
603.415	254.94
603.623	254.94
603.832	270.94
604.041	270.94
604.249	263.94
604.458	270.94
604.666	255.94
604.875	247.94
605.084	270.94
605.292	253.94
605.501	261.94
605.709	261.94
605.918	259.94
606.126	246.94
606.334	242.94
606.543	262.94
606.751	254.94
606.96	250.94
607.168	242.94
607.376	234.94
607.585	253.94
607.793	248.94
608.001	248.94
608.21	255.94
608.418	267.94
608.626	245.94
608.834	241.94
609.043	233.94
609.251	256.94
609.459	237.94
609.667	261.94
609.875	247.94
610.083	239.94
610.291	247.94
610.499	254.94
610.707	265.94
610.916	263.94
611.124	239.94
611.332	251.94
611.54	243.94
611.748	251.94
611.955	251.94
612.163	249.94
612.371	242.94
612.579	254.94
612.787	237.94
612.995	238.94
613.203	249.94
613.411	241.94
613.618	253.94
613.826	227.94
614.034	253.94
614.242	242.94
614.449	243.94
614.657	243.94
614.865	243.94
615.072	240.94
615.28	248.94
615.488	227.94
615.695	250.94
615.903	254.94
616.111	266.94
616.318	262.94
616.526	257.94
616.733	254.94
616.941	253.94
617.148	237.94
617.356	254.94
617.563	241.94
617.771	244.94
617.978	231.94
618.185	249.94
618.393	235.94
618.6	245.94
618.807	243.94
619.015	239.94
619.222	232.94
619.429	245.94
619.637	227.94
619.844	239.94
620.051	230.94
620.258	235.94
620.466	230.94
620.673	229.94
620.88	217.94
621.087	235.94
621.294	226.94
621.501	232.94
621.708	246.94
621.915	241.94
622.122	246.94
622.329	237.94
622.536	217.94
622.743	228.94
622.95	228.94
623.157	211.94
623.364	222.94
623.571	219.94
623.778	223.94
623.985	225.94
624.192	218.94
624.399	225.94
624.606	227.94
624.812	193.94
625.019	217.94
625.226	221.94
625.433	199.94
625.639	211.94
625.846	218.94
626.053	209.94
626.259	212.94
626.466	217.94
626.673	200.94
626.879	201.94
627.086	214.94
627.293	209.94
627.499	202.94
627.706	210.94
627.912	205.94
628.119	195.94
628.325	214.94
628.532	197.94
628.738	203.94
628.945	197.94
629.151	210.94
629.357	199.94
629.564	194.94
629.77	213.94
629.976	207.94
630.183	210.94
630.389	201.94
630.595	190.94
630.802	183.94
631.008	187.94
631.214	195.94
631.42	202.94
631.627	187.94
631.833	215.94
632.039	212.94
632.245	182.94
632.451	207.94
632.657	205.94
632.863	177.94
633.069	195.94
633.275	190.94
633.481	209.94
633.688	202.94
633.893	186.94
634.099	187.94
634.305	199.94
634.511	198.94
634.717	198.94
634.923	183.94
635.129	209.94
635.335	177.94
635.541	193.94
635.747	179.94
635.952	189.94
636.158	186.94
636.364	190.94
636.57	190.94
636.775	180.94
636.981	195.94
637.187	178.94
637.392	174.94
637.598	177.94
637.804	174.94
638.009	178.94
638.215	191.94
638.421	177.94
638.626	190.94
638.832	186.94
639.037	193.94
639.243	177.94
639.448	179.94
639.654	180.94
639.859	197.94
640.065	183.94
640.27	185.94
640.475	178.94
640.681	186.94
640.886	186.94
641.091	182.94
641.297	193.94
641.502	178.94
641.707	177.94
641.913	164.94
642.118	169.94
642.323	173.94
642.528	167.94
642.733	178.94
642.939	182.94
643.144	179.94
643.349	182.94
643.554	158.94
643.759	166.94
643.964	164.94
644.169	172.94
644.374	186.94
644.579	183.94
644.784	163.94
644.989	176.94
645.194	159.94
645.399	149.94
645.604	163.94
645.809	173.94
646.014	175.94
646.219	164.94
646.423	177.94
646.628	177.94
646.833	168.94
647.038	177.94
647.243	167.94
647.447	165.94
647.652	179.94
647.857	163.94
648.062	179.94
648.266	162.94
648.471	173.94
648.676	178.94
648.88	174.94
649.085	185.94
649.289	181.94
649.494	176.94
649.698	188.94
649.903	195.94
650.107	177.94
650.312	158.94
650.516	170.94
650.721	170.94
650.925	166.94
651.13	160.94
651.334	145.94
651.539	170.94
651.743	167.94
651.947	144.94
652.152	153.94
652.356	153.94
652.56	146.94
652.764	143.94
652.969	157.94
653.173	158.94
653.377	149.94
653.581	154.94
653.785	144.94
653.99	145.94
654.194	151.94
654.398	155.94
654.602	136.94
654.806	139.94
655.01	142.94
655.214	151.94
655.418	145.94
655.622	133.94
655.826	148.94
656.03	141.94
656.234	140.94
656.438	143.94
656.642	128.94
656.846	135.94
657.049	138.94
657.253	135.94
657.457	136.94
657.661	120.94
657.865	137.94
658.068	126.94
658.272	127.94
658.476	119.94
658.68	121.94
658.883	103.94
659.087	113.94
659.291	113.94
659.494	103.94
659.698	121.94
659.901	104.94
660.105	103.94
660.309	90.94
660.512	113.94
660.716	97.94
660.919	108.94
661.123	114.94
661.326	96.94
661.53	97.94
661.733	90.94
661.936	95.94
662.14	87.94
662.343	96.94
662.546	75.94
662.75	92.94
662.953	95.94
663.156	91.94
663.36	88.94
663.563	72.94
663.766	82.94
663.969	92.94
664.173	83.94
664.376	84.94
664.579	78.94
664.782	86.94
664.985	89.94
665.188	81.94
665.391	86.94
665.594	91.94
665.797	91.94
666	78.94
666.203	76.94
666.406	66.94
666.609	87.94
666.812	92.94
667.015	91.94
667.218	83.94
667.421	94.94
667.624	82.94
667.827	78.94
668.03	87.94
668.232	73.94
668.435	79.94
668.638	88.94
668.841	93.94
669.043	86.94
669.246	86.94
669.449	86.94
669.651	89.94
669.854	80.94
670.057	94.94
670.259	75.94
670.462	88.94
670.665	87.94
670.867	83.94
671.07	76.94
671.272	93.94
671.475	80.94
671.677	99.94
671.88	95.94
672.082	86.94
672.284	79.94
672.487	91.94
672.689	84.94
672.892	86.94
