Data from 1976.PennyLincolnUp.Lamp.En5.5.200Scan.071719.P1.Changed Mount._HRD10591_16-01-51-861.txt Node
Date: Thu Jul 18 16:01:51 EDT 2019
User: cochatt
Spectrometer: HR+D1059
Trigger mode: 1
Integration Time (sec): 1.000000E-1
Scans to average: 1
Electric dark correction enabled: true
Nonlinearity correction enabled: false
Boxcar width: 0
XAxis mode: Wavelengths
Number of Pixels in Spectrum: 2048
>>>>>Begin Spectral Data<<<<<
223.165	-17.25
223.4	-17.25
223.635	-17.25
223.869	-15.25
224.104	-6.25
224.338	-27.25
224.573	-13.25
224.808	-9.25
225.042	-5.25
225.277	-10.25
225.511	-8.25
225.746	-0.25
225.98	6.75
226.215	12.75
226.449	20.75
226.683	15.75
226.918	25.75
227.152	30.75
227.387	30.75
227.621	37.75
227.856	43.75
228.09	58.75
228.324	48.75
228.559	60.75
228.793	81.75
229.027	75.75
229.262	103.75
229.496	116.75
229.73	131.75
229.964	153.75
230.199	128.75
230.433	111.75
230.667	107.75
230.901	119.75
231.136	121.75
231.37	114.75
231.604	116.75
231.838	110.75
232.072	116.75
232.306	125.75
232.541	122.75
232.775	112.75
233.009	114.75
233.243	126.75
233.477	125.75
233.711	128.75
233.945	128.75
234.179	123.75
234.413	116.75
234.647	114.75
234.881	111.75
235.115	118.75
235.349	128.75
235.583	130.75
235.817	135.75
236.051	138.75
236.285	131.75
236.519	117.75
236.753	118.75
236.987	140.75
237.221	178.75
237.455	237.75
237.689	198.75
237.922	143.75
238.156	128.75
238.39	141.75
238.624	148.75
238.858	130.75
239.091	114.75
239.325	128.75
239.559	128.75
239.793	145.75
240.027	132.75
240.26	129.75
240.494	150.75
240.728	168.75
240.961	158.75
241.195	162.75
241.429	134.75
241.662	144.75
241.896	156.75
242.13	135.75
242.363	132.75
242.597	129.75
242.83	131.75
243.064	134.75
243.298	148.75
243.531	158.75
243.765	144.75
243.998	152.75
244.232	156.75
244.465	150.75
244.699	150.75
244.932	140.75
245.166	173.75
245.399	152.75
245.633	140.75
245.866	159.75
246.099	165.75
246.333	167.75
246.566	159.75
246.8	144.75
247.033	150.75
247.266	170.75
247.5	167.75
247.733	175.75
247.966	187.75
248.2	175.75
248.433	186.75
248.666	188.75
248.899	186.75
249.133	205.75
249.366	207.75
249.599	212.75
249.832	196.75
250.066	190.75
250.299	194.75
250.532	209.75
250.765	222.75
250.998	218.75
251.231	208.75
251.465	211.75
251.698	215.75
251.931	201.75
252.164	214.75
252.397	210.75
252.63	211.75
252.863	217.75
253.096	217.75
253.329	214.75
253.562	235.75
253.795	229.75
254.028	221.75
254.261	239.75
254.494	232.75
254.727	263.75
254.96	293.75
255.193	263.75
255.426	261.75
255.659	220.75
255.892	257.75
256.124	245.75
256.357	247.75
256.59	237.75
256.823	201.75
257.056	219.75
257.289	211.75
257.521	212.75
257.754	223.75
257.987	222.75
258.22	217.75
258.452	223.75
258.685	217.75
258.918	206.75
259.151	230.75
259.383	238.75
259.616	228.75
259.849	249.75
260.081	236.75
260.314	272.75
260.547	271.75
260.779	267.75
261.012	245.75
261.244	248.75
261.477	236.75
261.71	225.75
261.942	254.75
262.175	239.75
262.407	249.75
262.64	231.75
262.872	226.75
263.105	238.75
263.337	224.75
263.57	229.75
263.802	227.75
264.035	219.75
264.267	226.75
264.499	229.75
264.732	229.75
264.964	220.75
265.197	234.75
265.429	221.75
265.661	231.75
265.894	245.75
266.126	232.75
266.358	222.75
266.591	231.75
266.823	230.75
267.055	247.75
267.287	244.75
267.52	260.75
267.752	229.75
267.984	250.75
268.216	233.75
268.448	268.75
268.681	257.75
268.913	259.75
269.145	292.75
269.377	311.75
269.609	297.75
269.841	284.75
270.073	299.75
270.306	320.75
270.538	332.75
270.77	339.75
271.002	324.75
271.234	318.75
271.466	323.75
271.698	314.75
271.93	333.75
272.162	336.75
272.394	334.75
272.626	319.75
272.858	315.75
273.09	304.75
273.322	306.75
273.553	298.75
273.785	294.75
274.017	298.75
274.249	284.75
274.481	308.75
274.713	280.75
274.945	279.75
275.176	278.75
275.408	296.75
275.64	290.75
275.872	280.75
276.104	284.75
276.335	296.75
276.567	294.75
276.799	310.75
277.031	334.75
277.262	326.75
277.494	351.75
277.726	338.75
277.957	312.75
278.189	311.75
278.421	308.75
278.652	310.75
278.884	283.75
279.115	300.75
279.347	285.75
279.579	297.75
279.81	276.75
280.042	301.75
280.273	289.75
280.505	296.75
280.736	301.75
280.968	293.75
281.199	318.75
281.431	288.75
281.662	293.75
281.894	287.75
282.125	287.75
282.356	307.75
282.588	326.75
282.819	312.75
283.051	311.75
283.282	286.75
283.513	300.75
283.745	303.75
283.976	307.75
284.207	314.75
284.439	324.75
284.67	306.75
284.901	317.75
285.132	318.75
285.364	303.75
285.595	309.75
285.826	307.75
286.057	319.75
286.288	299.75
286.52	324.75
286.751	288.75
286.982	315.75
287.213	316.75
287.444	323.75
287.675	320.75
287.906	330.75
288.138	316.75
288.369	342.75
288.6	325.75
288.831	312.75
289.062	329.75
289.293	326.75
289.524	325.75
289.755	334.75
289.986	327.75
290.217	322.75
290.448	311.75
290.679	301.75
290.91	310.75
291.141	330.75
291.371	329.75
291.602	314.75
291.833	322.75
292.064	337.75
292.295	330.75
292.526	303.75
292.757	309.75
292.987	312.75
293.218	327.75
293.449	336.75
293.68	344.75
293.91	306.75
294.141	316.75
294.372	324.75
294.603	322.75
294.833	327.75
295.064	320.75
295.295	330.75
295.525	331.75
295.756	340.75
295.987	327.75
296.217	366.75
296.448	336.75
296.679	340.75
296.909	317.75
297.14	312.75
297.37	334.75
297.601	323.75
297.831	335.75
298.062	353.75
298.292	318.75
298.523	343.75
298.753	345.75
298.984	362.75
299.214	341.75
299.445	335.75
299.675	350.75
299.905	339.75
300.136	336.75
300.366	349.75
300.597	349.75
300.827	345.75
301.057	341.75
301.288	355.75
301.518	361.75
301.748	360.75
301.979	367.75
302.209	371.75
302.439	362.75
302.669	345.75
302.9	366.75
303.13	360.75
303.36	354.75
303.59	363.75
303.82	367.75
304.051	366.75
304.281	358.75
304.511	355.75
304.741	376.75
304.971	357.75
305.201	358.75
305.431	361.75
305.661	355.75
305.891	359.75
306.121	365.75
306.352	366.75
306.582	363.75
306.812	345.75
307.042	342.75
307.272	357.75
307.502	375.75
307.731	386.75
307.961	377.75
308.191	368.75
308.421	363.75
308.651	379.75
308.881	348.75
309.111	382.75
309.341	368.75
309.571	367.75
309.8	366.75
310.03	383.75
310.26	396.75
310.49	378.75
310.72	414.75
310.949	420.75
311.179	439.75
311.409	410.75
311.639	407.75
311.868	412.75
312.098	404.75
312.328	404.75
312.557	409.75
312.787	428.75
313.017	438.75
313.246	414.75
313.476	403.75
313.706	391.75
313.935	396.75
314.165	400.75
314.394	424.75
314.624	440.75
314.853	416.75
315.083	426.75
315.312	399.75
315.542	419.75
315.771	400.75
316.001	396.75
316.23	409.75
316.46	424.75
316.689	422.75
316.919	427.75
317.148	416.75
317.377	435.75
317.607	415.75
317.836	410.75
318.065	404.75
318.295	400.75
318.524	397.75
318.753	406.75
318.983	402.75
319.212	410.75
319.441	402.75
319.67	413.75
319.9	412.75
320.129	402.75
320.358	410.75
320.587	414.75
320.816	409.75
321.046	434.75
321.275	417.75
321.504	422.75
321.733	420.75
321.962	427.75
322.191	445.75
322.42	435.75
322.649	430.75
322.878	465.75
323.108	478.75
323.337	497.75
323.566	512.75
323.795	544.75
324.024	575.75
324.253	670.75
324.482	903.75
324.71	1428.75
324.939	2068.75
325.168	1813.75
325.397	898.75
325.626	628.75
325.855	541.75
326.084	534.75
326.313	498.75
326.542	504.75
326.77	534.75
326.999	624.75
327.228	842.75
327.457	1238.75
327.686	1578.75
327.914	1071.75
328.143	683.75
328.372	599.75
328.6	576.75
328.829	526.75
329.058	565.75
329.287	574.75
329.515	572.75
329.744	538.75
329.972	520.75
330.201	528.75
330.43	565.75
330.658	604.75
330.887	607.75
331.115	598.75
331.344	530.75
331.572	487.75
331.801	503.75
332.03	514.75
332.258	503.75
332.486	477.75
332.715	483.75
332.943	492.75
333.172	505.75
333.4	524.75
333.629	504.75
333.857	528.75
334.085	529.75
334.314	559.75
334.542	572.75
334.771	587.75
334.999	550.75
335.227	538.75
335.455	518.75
335.684	512.75
335.912	499.75
336.14	492.75
336.369	475.75
336.597	495.75
336.825	505.75
337.053	490.75
337.281	477.75
337.51	478.75
337.738	492.75
337.966	456.75
338.194	453.75
338.422	482.75
338.65	465.75
338.878	482.75
339.106	482.75
339.334	472.75
339.562	446.75
339.79	452.75
340.018	467.75
340.246	462.75
340.474	467.75
340.702	459.75
340.93	472.75
341.158	457.75
341.386	450.75
341.614	467.75
341.842	444.75
342.07	453.75
342.298	455.75
342.526	463.75
342.754	435.75
342.981	451.75
343.209	460.75
343.437	458.75
343.665	473.75
343.893	482.75
344.12	488.75
344.348	488.75
344.576	483.75
344.804	467.75
345.031	469.75
345.259	476.75
345.487	464.75
345.714	464.75
345.942	447.75
346.17	446.75
346.397	440.75
346.625	454.75
346.853	427.75
347.08	432.75
347.308	467.75
347.535	464.75
347.763	461.75
347.99	458.75
348.218	452.75
348.445	459.75
348.673	449.75
348.9	443.75
349.128	443.75
349.355	432.75
349.583	418.75
349.81	443.75
350.037	435.75
350.265	434.75
350.492	428.75
350.72	431.75
350.947	441.75
351.174	441.75
351.402	453.75
351.629	451.75
351.856	439.75
352.083	454.75
352.311	471.75
352.538	456.75
352.765	478.75
352.992	444.75
353.22	444.75
353.447	447.75
353.674	426.75
353.901	422.75
354.128	436.75
354.355	420.75
354.583	424.75
354.81	417.75
355.037	423.75
355.264	448.75
355.491	417.75
355.718	424.75
355.945	403.75
356.172	412.75
356.399	391.75
356.626	434.75
356.853	430.75
357.08	420.75
357.307	415.75
357.534	413.75
357.761	410.75
357.988	446.75
358.215	415.75
358.441	432.75
358.668	428.75
358.895	435.75
359.122	403.75
359.349	432.75
359.576	440.75
359.802	448.75
360.029	485.75
360.256	482.75
360.483	483.75
360.709	468.75
360.936	423.75
361.163	452.75
361.39	453.75
361.616	459.75
361.843	442.75
362.07	448.75
362.296	445.75
362.523	432.75
362.749	443.75
362.976	434.75
363.203	425.75
363.429	414.75
363.656	423.75
363.882	430.75
364.109	441.75
364.335	430.75
364.562	422.75
364.788	411.75
365.015	419.75
365.241	417.75
365.468	429.75
365.694	445.75
365.92	438.75
366.147	440.75
366.373	438.75
366.599	427.75
366.826	418.75
367.052	414.75
367.278	427.75
367.505	439.75
367.731	442.75
367.957	419.75
368.184	422.75
368.41	424.75
368.636	438.75
368.862	447.75
369.089	450.75
369.315	429.75
369.541	440.75
369.767	422.75
369.993	443.75
370.219	429.75
370.445	425.75
370.672	426.75
370.898	414.75
371.124	425.75
371.35	437.75
371.576	408.75
371.802	412.75
372.028	423.75
372.254	421.75
372.48	432.75
372.706	440.75
372.932	414.75
373.158	430.75
373.384	444.75
373.61	442.75
373.835	403.75
374.061	440.75
374.287	438.75
374.513	423.75
374.739	442.75
374.965	458.75
375.191	444.75
375.416	442.75
375.642	453.75
375.868	450.75
376.094	421.75
376.319	439.75
376.545	429.75
376.771	432.75
376.997	428.75
377.222	451.75
377.448	434.75
377.674	424.75
377.899	436.75
378.125	408.75
378.35	418.75
378.576	414.75
378.802	438.75
379.027	444.75
379.253	419.75
379.478	434.75
379.704	434.75
379.929	430.75
380.155	418.75
380.38	410.75
380.606	429.75
380.831	421.75
381.057	411.75
381.282	434.75
381.507	422.75
381.733	448.75
381.958	444.75
382.184	444.75
382.409	456.75
382.634	458.75
382.86	472.75
383.085	450.75
383.31	447.75
383.535	438.75
383.761	452.75
383.986	468.75
384.211	464.75
384.436	452.75
384.662	459.75
384.887	436.75
385.112	466.75
385.337	470.75
385.562	455.75
385.787	510.75
386.013	503.75
386.238	487.75
386.463	488.75
386.688	475.75
386.913	484.75
387.138	476.75
387.363	471.75
387.588	483.75
387.813	479.75
388.038	474.75
388.263	456.75
388.488	459.75
388.713	482.75
388.938	463.75
389.163	504.75
389.387	470.75
389.612	478.75
389.837	457.75
390.062	463.75
390.287	479.75
390.512	454.75
390.736	483.75
390.961	472.75
391.186	485.75
391.411	492.75
391.636	481.75
391.86	496.75
392.085	512.75
392.31	504.75
392.534	507.75
392.759	497.75
392.984	499.75
393.208	500.75
393.433	482.75
393.658	488.75
393.882	484.75
394.107	495.75
394.331	494.75
394.556	479.75
394.78	501.75
395.005	477.75
395.229	481.75
395.454	516.75
395.678	518.75
395.903	513.75
396.127	546.75
396.352	540.75
396.576	499.75
396.801	494.75
397.025	505.75
397.249	508.75
397.474	528.75
397.698	505.75
397.922	542.75
398.147	544.75
398.371	544.75
398.595	542.75
398.82	570.75
399.044	572.75
399.268	583.75
399.492	630.75
399.717	681.75
399.941	692.75
400.165	722.75
400.389	690.75
400.613	635.75
400.837	607.75
401.062	572.75
401.286	568.75
401.51	565.75
401.734	554.75
401.958	556.75
402.182	575.75
402.406	578.75
402.63	572.75
402.854	572.75
403.078	558.75
403.302	596.75
403.526	596.75
403.75	589.75
403.974	599.75
404.198	601.75
404.422	585.75
404.645	585.75
404.869	585.75
405.093	640.75
405.317	672.75
405.541	734.75
405.765	640.75
405.988	612.75
406.212	621.75
406.436	633.75
406.66	646.75
406.883	637.75
407.107	670.75
407.331	701.75
407.555	776.75
407.778	760.75
408.002	704.75
408.226	674.75
408.449	637.75
408.673	640.75
408.896	656.75
409.12	707.75
409.344	663.75
409.567	606.75
409.791	618.75
410.014	591.75
410.238	604.75
410.461	579.75
410.685	588.75
410.908	602.75
411.132	649.75
411.355	649.75
411.578	626.75
411.802	575.75
412.025	584.75
412.249	606.75
412.472	615.75
412.695	654.75
412.919	634.75
413.142	599.75
413.365	596.75
413.589	547.75
413.812	543.75
414.035	550.75
414.258	555.75
414.482	556.75
414.705	535.75
414.928	547.75
415.151	550.75
415.374	550.75
415.597	555.75
415.821	562.75
416.044	571.75
416.267	557.75
416.49	540.75
416.713	544.75
416.936	507.75
417.159	554.75
417.382	554.75
417.605	551.75
417.828	558.75
418.051	583.75
418.274	566.75
418.497	548.75
418.72	559.75
418.943	551.75
419.166	574.75
419.389	621.75
419.611	594.75
419.834	582.75
420.057	606.75
420.28	586.75
420.503	564.75
420.726	573.75
420.948	573.75
421.171	624.75
421.394	655.75
421.617	590.75
421.839	558.75
422.062	576.75
422.285	584.75
422.507	624.75
422.73	719.75
422.953	708.75
423.175	622.75
423.398	615.75
423.621	572.75
423.843	613.75
424.066	612.75
424.288	592.75
424.511	628.75
424.733	671.75
424.956	747.75
425.178	750.75
425.401	732.75
425.623	772.75
425.846	649.75
426.068	598.75
426.291	591.75
426.513	604.75
426.735	608.75
426.958	655.75
427.18	725.75
427.402	856.75
427.625	920.75
427.847	822.75
428.069	726.75
428.292	646.75
428.514	592.75
428.736	579.75
428.958	571.75
429.181	539.75
429.403	556.75
429.625	557.75
429.847	603.75
430.069	646.75
430.292	687.75
430.514	578.75
430.736	541.75
430.958	549.75
431.18	535.75
431.402	536.75
431.624	511.75
431.846	514.75
432.068	550.75
432.29	543.75
432.512	536.75
432.734	540.75
432.956	568.75
433.178	562.75
433.4	568.75
433.622	562.75
433.844	543.75
434.066	520.75
434.287	534.75
434.509	533.75
434.731	541.75
434.953	550.75
435.175	588.75
435.397	597.75
435.618	601.75
435.84	650.75
436.062	709.75
436.284	822.75
436.505	670.75
436.727	606.75
436.949	573.75
437.17	572.75
437.392	575.75
437.614	570.75
437.835	581.75
438.057	696.75
438.278	811.75
438.5	813.75
438.721	892.75
438.943	862.75
439.165	675.75
439.386	636.75
439.608	624.75
439.829	622.75
440.05	632.75
440.272	673.75
440.493	634.75
440.715	588.75
440.936	587.75
441.158	538.75
441.379	551.75
441.6	570.75
441.822	601.75
442.043	652.75
442.264	730.75
442.486	809.75
442.707	687.75
442.928	626.75
443.149	636.75
443.371	650.75
443.592	669.75
443.813	755.75
444.034	858.75
444.255	733.75
444.476	635.75
444.698	642.75
444.919	636.75
445.14	738.75
445.361	671.75
445.582	672.75
445.803	703.75
446.024	831.75
446.245	839.75
446.466	739.75
446.687	640.75
446.908	597.75
447.129	561.75
447.35	559.75
447.571	566.75
447.792	536.75
448.013	545.75
448.234	572.75
448.455	620.75
448.675	733.75
448.896	866.75
449.117	730.75
449.338	699.75
449.559	793.75
449.779	932.75
450	726.75
450.221	602.75
450.442	562.75
450.662	524.75
450.883	523.75
451.104	547.75
451.324	555.75
451.545	511.75
451.766	528.75
451.986	493.75
452.207	475.75
452.428	489.75
452.648	480.75
452.869	472.75
453.089	483.75
453.31	521.75
453.53	490.75
453.751	502.75
453.971	487.75
454.192	500.75
454.412	498.75
454.633	487.75
454.853	498.75
455.073	474.75
455.294	523.75
455.514	590.75
455.734	571.75
455.955	486.75
456.175	485.75
456.395	472.75
456.616	452.75
456.836	473.75
457.056	444.75
457.276	459.75
457.497	462.75
457.717	477.75
457.937	480.75
458.157	487.75
458.377	485.75
458.598	504.75
458.818	529.75
459.038	637.75
459.258	641.75
459.478	564.75
459.698	522.75
459.918	520.75
460.138	528.75
460.358	525.75
460.578	535.75
460.798	529.75
461.018	549.75
461.238	556.75
461.458	564.75
461.678	515.75
461.898	528.75
462.118	553.75
462.338	562.75
462.558	581.75
462.777	585.75
462.997	605.75
463.217	630.75
463.437	606.75
463.657	618.75
463.876	607.75
464.096	598.75
464.316	591.75
464.536	610.75
464.755	598.75
464.975	598.75
465.195	624.75
465.414	635.75
465.634	574.75
465.854	554.75
466.073	529.75
466.293	528.75
466.512	527.75
466.732	520.75
466.951	504.75
467.171	501.75
467.391	526.75
467.61	524.75
467.829	506.75
468.049	524.75
468.268	524.75
468.488	506.75
468.707	514.75
468.927	488.75
469.146	475.75
469.365	512.75
469.585	502.75
469.804	493.75
470.023	525.75
470.243	494.75
470.462	537.75
470.681	548.75
470.901	531.75
471.12	524.75
471.339	507.75
471.558	537.75
471.777	518.75
471.997	500.75
472.216	529.75
472.435	535.75
472.654	539.75
472.873	511.75
473.092	498.75
473.311	524.75
473.53	511.75
473.749	524.75
473.968	565.75
474.187	675.75
474.406	666.75
474.625	573.75
474.844	541.75
475.063	507.75
475.282	515.75
475.501	525.75
475.72	522.75
475.939	534.75
476.158	532.75
476.377	529.75
476.596	538.75
476.814	543.75
477.033	507.75
477.252	546.75
477.471	564.75
477.69	555.75
477.908	559.75
478.127	553.75
478.346	559.75
478.564	575.75
478.783	568.75
479.002	600.75
479.22	591.75
479.439	620.75
479.658	620.75
479.876	619.75
480.095	619.75
480.313	645.75
480.532	648.75
480.751	634.75
480.969	664.75
481.188	666.75
481.406	680.75
481.624	646.75
481.843	612.75
482.061	598.75
482.28	603.75
482.498	605.75
482.717	592.75
482.935	587.75
483.153	622.75
483.372	621.75
483.59	602.75
483.808	606.75
484.027	610.75
484.245	614.75
484.463	593.75
484.681	600.75
484.9	591.75
485.118	602.75
485.336	591.75
485.554	619.75
485.772	631.75
485.99	630.75
486.209	611.75
486.427	605.75
486.645	599.75
486.863	637.75
487.081	634.75
487.299	631.75
487.517	649.75
487.735	616.75
487.953	643.75
488.171	641.75
488.389	652.75
488.607	633.75
488.825	620.75
489.043	640.75
489.261	650.75
489.479	642.75
489.696	643.75
489.914	664.75
490.132	679.75
490.35	661.75
490.568	688.75
490.786	685.75
491.003	674.75
491.221	719.75
491.439	725.75
491.657	712.75
491.874	714.75
492.092	744.75
492.31	715.75
492.527	733.75
492.745	729.75
492.963	748.75
493.18	742.75
493.398	732.75
493.615	751.75
493.833	775.75
494.05	762.75
494.268	756.75
494.485	750.75
494.703	745.75
494.92	734.75
495.138	750.75
495.355	760.75
495.573	754.75
495.79	750.75
496.008	777.75
496.225	743.75
496.442	767.75
496.66	774.75
496.877	777.75
497.094	774.75
497.312	747.75
497.529	806.75
497.746	818.75
497.963	797.75
498.181	827.75
498.398	871.75
498.615	860.75
498.832	880.75
499.049	914.75
499.267	924.75
499.484	986.75
499.701	1027.75
499.918	1074.75
500.135	1123.75
500.352	1190.75
500.569	1230.75
500.786	1211.75
501.003	1220.75
501.22	1157.75
501.437	1109.75
501.654	1013.75
501.871	1014.75
502.088	992.75
502.305	957.75
502.522	891.75
502.739	860.75
502.956	839.75
503.172	827.75
503.389	805.75
503.606	830.75
503.823	798.75
504.04	769.75
504.256	782.75
504.473	776.75
504.69	795.75
504.907	760.75
505.123	741.75
505.34	739.75
505.557	742.75
505.773	729.75
505.99	702.75
506.207	732.75
506.423	731.75
506.64	701.75
506.856	716.75
507.073	714.75
507.289	678.75
507.506	685.75
507.722	690.75
507.939	724.75
508.155	687.75
508.372	665.75
508.588	693.75
508.805	657.75
509.021	666.75
509.238	692.75
509.454	690.75
509.67	677.75
509.887	635.75
510.103	693.75
510.319	658.75
510.536	741.75
510.752	1103.75
510.968	898.75
511.184	662.75
511.401	662.75
511.617	652.75
511.833	652.75
512.049	641.75
512.265	644.75
512.481	630.75
512.698	615.75
512.914	636.75
513.13	613.75
513.346	632.75
513.562	619.75
513.778	605.75
513.994	628.75
514.21	627.75
514.426	642.75
514.642	682.75
514.858	681.75
515.074	732.75
515.29	844.75
515.506	1096.75
515.721	954.75
515.937	731.75
516.153	687.75
516.369	658.75
516.585	660.75
516.801	657.75
517.016	672.75
517.232	670.75
517.448	681.75
517.664	676.75
517.879	687.75
518.095	676.75
518.311	686.75
518.527	667.75
518.742	657.75
518.958	630.75
519.173	652.75
519.389	656.75
519.605	633.75
519.82	639.75
520.036	628.75
520.251	633.75
520.467	682.75
520.682	669.75
520.898	667.75
521.113	667.75
521.329	708.75
521.544	781.75
521.76	895.75
521.975	1376.75
522.19	1378.75
522.406	836.75
522.621	665.75
522.836	609.75
523.052	595.75
523.267	566.75
523.482	583.75
523.698	583.75
523.913	563.75
524.128	577.75
524.343	557.75
524.559	555.75
524.774	555.75
524.989	523.75
525.204	545.75
525.419	556.75
525.634	525.75
525.849	551.75
526.064	520.75
526.28	542.75
526.495	540.75
526.71	503.75
526.925	524.75
527.14	525.75
527.355	509.75
527.57	530.75
527.785	499.75
527.999	539.75
528.214	526.75
528.429	516.75
528.644	550.75
528.859	528.75
529.074	517.75
529.289	551.75
529.503	600.75
529.718	590.75
529.933	568.75
530.148	530.75
530.363	540.75
530.577	526.75
530.792	522.75
531.007	505.75
531.221	484.75
531.436	520.75
531.651	524.75
531.865	514.75
532.08	512.75
532.295	494.75
532.509	512.75
532.724	522.75
532.938	516.75
533.153	525.75
533.367	483.75
533.582	496.75
533.796	495.75
534.011	502.75
534.225	510.75
534.44	506.75
534.654	493.75
534.868	503.75
535.083	487.75
535.297	516.75
535.511	494.75
535.726	484.75
535.94	498.75
536.154	496.75
536.369	493.75
536.583	473.75
536.797	488.75
537.011	486.75
537.225	470.75
537.44	469.75
537.654	486.75
537.868	483.75
538.082	494.75
538.296	480.75
538.51	501.75
538.724	503.75
538.938	514.75
539.153	488.75
539.367	511.75
539.581	486.75
539.795	462.75
540.009	478.75
540.222	455.75
540.436	477.75
540.65	476.75
540.864	508.75
541.078	511.75
541.292	508.75
541.506	479.75
541.72	470.75
541.934	476.75
542.147	474.75
542.361	464.75
542.575	480.75
542.789	454.75
543.002	458.75
543.216	491.75
543.43	483.75
543.644	472.75
543.857	480.75
544.071	490.75
544.285	471.75
544.498	485.75
544.712	474.75
544.925	483.75
545.139	489.75
545.352	477.75
545.566	481.75
545.779	478.75
545.993	446.75
546.206	472.75
546.42	461.75
546.633	460.75
546.847	472.75
547.06	490.75
547.274	464.75
547.487	486.75
547.7	490.75
547.914	461.75
548.127	482.75
548.34	483.75
548.554	474.75
548.767	458.75
548.98	480.75
549.193	471.75
549.407	475.75
549.62	461.75
549.833	479.75
550.046	469.75
550.259	484.75
550.473	474.75
550.686	460.75
550.899	471.75
551.112	440.75
551.325	451.75
551.538	447.75
551.751	468.75
551.964	443.75
552.177	467.75
552.39	468.75
552.603	467.75
552.816	478.75
553.029	487.75
553.242	466.75
553.455	489.75
553.667	503.75
553.88	500.75
554.093	459.75
554.306	473.75
554.519	461.75
554.732	463.75
554.944	462.75
555.157	453.75
555.37	446.75
555.583	448.75
555.795	432.75
556.008	435.75
556.221	423.75
556.433	424.75
556.646	437.75
556.859	412.75
557.071	408.75
557.284	414.75
557.496	428.75
557.709	415.75
557.921	428.75
558.134	418.75
558.346	426.75
558.559	442.75
558.771	414.75
558.984	412.75
559.196	418.75
559.409	425.75
559.621	420.75
559.833	428.75
560.046	403.75
560.258	406.75
560.47	404.75
560.683	415.75
560.895	394.75
561.107	429.75
561.32	421.75
561.532	403.75
561.744	398.75
561.956	421.75
562.168	429.75
562.381	410.75
562.593	412.75
562.805	414.75
563.017	399.75
563.229	418.75
563.441	438.75
563.653	432.75
563.865	410.75
564.077	413.75
564.289	429.75
564.501	431.75
564.713	420.75
564.925	429.75
565.137	454.75
565.349	465.75
565.561	454.75
565.773	457.75
565.985	463.75
566.197	485.75
566.408	515.75
566.62	528.75
566.832	525.75
567.044	540.75
567.255	544.75
567.467	559.75
567.679	570.75
567.891	581.75
568.102	583.75
568.314	544.75
568.526	541.75
568.737	525.75
568.949	490.75
569.161	486.75
569.372	456.75
569.584	438.75
569.795	440.75
570.007	435.75
570.218	454.75
570.43	456.75
570.641	427.75
570.853	432.75
571.064	414.75
571.276	422.75
571.487	393.75
571.698	398.75
571.91	374.75
572.121	393.75
572.333	398.75
572.544	379.75
572.755	382.75
572.966	377.75
573.178	381.75
573.389	348.75
573.6	359.75
573.811	371.75
574.023	364.75
574.234	376.75
574.445	371.75
574.656	354.75
574.867	370.75
575.078	370.75
575.289	369.75
575.501	355.75
575.712	347.75
575.923	344.75
576.134	346.75
576.345	352.75
576.556	358.75
576.767	356.75
576.978	364.75
577.188	346.75
577.399	354.75
577.61	343.75
577.821	342.75
578.032	351.75
578.243	377.75
578.454	536.75
578.665	412.75
578.875	340.75
579.086	346.75
579.297	326.75
579.508	326.75
579.718	339.75
579.929	334.75
580.14	322.75
580.35	334.75
580.561	320.75
580.772	321.75
580.982	332.75
581.193	324.75
581.403	316.75
581.614	315.75
581.825	322.75
582.035	316.75
582.246	332.75
582.456	323.75
582.667	323.75
582.877	308.75
583.087	322.75
583.298	324.75
583.508	330.75
583.719	319.75
583.929	322.75
584.139	315.75
584.35	311.75
584.56	335.75
584.77	314.75
584.981	300.75
585.191	309.75
585.401	312.75
585.611	329.75
585.821	333.75
586.032	308.75
586.242	333.75
586.452	311.75
586.662	332.75
586.872	301.75
587.082	310.75
587.292	329.75
587.502	288.75
587.713	310.75
587.923	324.75
588.133	338.75
588.343	304.75
588.553	293.75
588.762	333.75
588.972	308.75
589.182	310.75
589.392	314.75
589.602	310.75
589.812	306.75
590.022	325.75
590.232	302.75
590.441	325.75
590.651	320.75
590.861	310.75
591.071	318.75
591.281	317.75
591.49	313.75
591.7	330.75
591.91	322.75
592.119	325.75
592.329	326.75
592.539	338.75
592.748	350.75
592.958	328.75
593.167	315.75
593.377	334.75
593.587	354.75
593.796	359.75
594.006	354.75
594.215	348.75
594.424	327.75
594.634	325.75
594.843	323.75
595.053	348.75
595.262	334.75
595.472	316.75
595.681	326.75
595.89	282.75
596.1	314.75
596.309	330.75
596.518	316.75
596.727	314.75
596.937	292.75
597.146	306.75
597.355	298.75
597.564	306.75
597.774	291.75
597.983	290.75
598.192	284.75
598.401	286.75
598.61	271.75
598.819	294.75
599.028	268.75
599.237	282.75
599.446	268.75
599.655	295.75
599.864	260.75
600.073	266.75
600.282	266.75
600.491	271.75
600.7	259.75
600.909	279.75
601.118	280.75
601.327	277.75
601.536	278.75
601.745	269.75
601.953	276.75
602.162	266.75
602.371	283.75
602.58	268.75
602.789	273.75
602.997	258.75
603.206	274.75
603.415	272.75
603.623	272.75
603.832	278.75
604.041	263.75
604.249	260.75
604.458	261.75
604.666	257.75
604.875	262.75
605.084	271.75
605.292	263.75
605.501	261.75
605.709	263.75
605.918	268.75
606.126	264.75
606.334	261.75
606.543	257.75
606.751	248.75
606.96	260.75
607.168	248.75
607.376	269.75
607.585	278.75
607.793	253.75
608.001	260.75
608.21	258.75
608.418	254.75
608.626	256.75
608.834	263.75
609.043	261.75
609.251	242.75
609.459	239.75
609.667	264.75
609.875	241.75
610.083	263.75
610.291	242.75
610.499	260.75
610.707	268.75
610.916	256.75
611.124	262.75
611.332	269.75
611.54	263.75
611.748	251.75
611.955	243.75
612.163	255.75
612.371	248.75
612.579	246.75
612.787	248.75
612.995	269.75
613.203	261.75
613.411	260.75
613.618	245.75
613.826	254.75
614.034	254.75
614.242	234.75
614.449	245.75
614.657	252.75
614.865	249.75
615.072	252.75
615.28	241.75
615.488	229.75
615.695	251.75
615.903	264.75
616.111	242.75
616.318	260.75
616.526	260.75
616.733	277.75
616.941	246.75
617.148	240.75
617.356	230.75
617.563	242.75
617.771	243.75
617.978	260.75
618.185	252.75
618.393	255.75
618.6	255.75
618.807	252.75
619.015	253.75
619.222	236.75
619.429	260.75
619.637	225.75
619.844	228.75
620.051	228.75
620.258	243.75
620.466	240.75
620.673	235.75
620.88	225.75
621.087	232.75
621.294	230.75
621.501	228.75
621.708	227.75
621.915	251.75
622.122	222.75
622.329	232.75
622.536	232.75
622.743	234.75
622.95	214.75
623.157	245.75
623.364	218.75
623.571	250.75
623.778	214.75
623.985	226.75
624.192	236.75
624.399	228.75
624.606	215.75
624.812	227.75
625.019	238.75
625.226	204.75
625.433	224.75
625.639	217.75
625.846	214.75
626.053	219.75
626.259	231.75
626.466	223.75
626.673	214.75
626.879	209.75
627.086	218.75
627.293	217.75
627.499	224.75
627.706	219.75
627.912	205.75
628.119	212.75
628.325	219.75
628.532	206.75
628.738	206.75
628.945	206.75
629.151	197.75
629.357	208.75
629.564	220.75
629.77	214.75
629.976	203.75
630.183	208.75
630.389	207.75
630.595	205.75
630.802	202.75
631.008	205.75
631.214	208.75
631.42	204.75
631.627	213.75
631.833	202.75
632.039	200.75
632.245	202.75
632.451	209.75
632.657	210.75
632.863	186.75
633.069	221.75
633.275	203.75
633.481	203.75
633.688	184.75
633.893	191.75
634.099	201.75
634.305	194.75
634.511	204.75
634.717	208.75
634.923	195.75
635.129	188.75
635.335	202.75
635.541	201.75
635.747	190.75
635.952	179.75
636.158	178.75
636.364	187.75
636.57	194.75
636.775	216.75
636.981	207.75
637.187	194.75
637.392	189.75
637.598	179.75
637.804	195.75
638.009	183.75
638.215	198.75
638.421	178.75
638.626	175.75
638.832	178.75
639.037	184.75
639.243	183.75
639.448	186.75
639.654	180.75
639.859	164.75
640.065	184.75
640.27	174.75
640.475	184.75
640.681	180.75
640.886	192.75
641.091	176.75
641.297	191.75
641.502	182.75
641.707	173.75
641.913	183.75
642.118	167.75
642.323	166.75
642.528	174.75
642.733	176.75
642.939	189.75
643.144	168.75
643.349	169.75
643.554	165.75
643.759	179.75
643.964	170.75
644.169	192.75
644.374	183.75
644.579	178.75
644.784	179.75
644.989	172.75
645.194	168.75
645.399	186.75
645.604	164.75
645.809	180.75
646.014	173.75
646.219	178.75
646.423	158.75
646.628	182.75
646.833	173.75
647.038	174.75
647.243	168.75
647.447	162.75
647.652	185.75
647.857	178.75
648.062	187.75
648.266	174.75
648.471	185.75
648.676	180.75
648.88	176.75
649.085	180.75
649.289	170.75
649.494	180.75
649.698	196.75
649.903	184.75
650.107	179.75
650.312	151.75
650.516	159.75
650.721	163.75
650.925	159.75
651.13	164.75
651.334	158.75
651.539	134.75
651.743	138.75
651.947	164.75
652.152	144.75
652.356	162.75
652.56	140.75
652.764	162.75
652.969	150.75
653.173	142.75
653.377	148.75
653.581	148.75
653.785	137.75
653.99	148.75
654.194	142.75
654.398	142.75
654.602	134.75
654.806	154.75
655.01	145.75
655.214	143.75
655.418	141.75
655.622	143.75
655.826	159.75
656.03	142.75
656.234	138.75
656.438	145.75
656.642	144.75
656.846	139.75
657.049	142.75
657.253	142.75
657.457	118.75
657.661	128.75
657.865	134.75
658.068	122.75
658.272	127.75
658.476	111.75
658.68	102.75
658.883	117.75
659.087	109.75
659.291	109.75
659.494	104.75
659.698	103.75
659.901	103.75
660.105	94.75
660.309	97.75
660.512	104.75
660.716	102.75
660.919	94.75
661.123	98.75
661.326	76.75
661.53	100.75
661.733	107.75
661.936	78.75
662.14	84.75
662.343	93.75
662.546	73.75
662.75	95.75
662.953	87.75
663.156	95.75
663.36	89.75
663.563	91.75
663.766	85.75
663.969	94.75
664.173	77.75
664.376	67.75
664.579	75.75
664.782	82.75
664.985	78.75
665.188	82.75
665.391	77.75
665.594	74.75
665.797	89.75
666	80.75
666.203	79.75
666.406	73.75
666.609	98.75
666.812	75.75
667.015	78.75
667.218	80.75
667.421	74.75
667.624	89.75
667.827	83.75
668.03	97.75
668.232	89.75
668.435	84.75
668.638	76.75
668.841	91.75
669.043	74.75
669.246	88.75
669.449	83.75
669.651	85.75
669.854	90.75
670.057	87.75
670.259	84.75
670.462	79.75
670.665	94.75
670.867	95.75
671.07	80.75
671.272	79.75
671.475	77.75
671.677	83.75
671.88	98.75
672.082	78.75
672.284	92.75
672.487	73.75
672.689	88.75
672.892	80.75
