Data from 1976.PennyLincolnUp.Lamp.En5.5.200Scan.071719.P1.Changed Mount._HRD10591_16-01-45-862.txt Node
Date: Thu Jul 18 16:01:45 EDT 2019
User: cochatt
Spectrometer: HR+D1059
Trigger mode: 1
Integration Time (sec): 1.000000E-1
Scans to average: 1
Electric dark correction enabled: true
Nonlinearity correction enabled: false
Boxcar width: 0
XAxis mode: Wavelengths
Number of Pixels in Spectrum: 2048
>>>>>Begin Spectral Data<<<<<
223.165	1.94
223.4	1.94
223.635	1.94
223.869	-7.06
224.104	5.94
224.338	0.94
224.573	-22.06
224.808	-13.06
225.042	-7.06
225.277	-13.06
225.511	1.94
225.746	-2.06
225.98	1.94
226.215	6.94
226.449	7.94
226.683	1.94
226.918	21.94
227.152	12.94
227.387	38.94
227.621	31.94
227.856	34.94
228.09	36.94
228.324	49.94
228.559	47.94
228.793	65.94
229.027	98.94
229.262	108.94
229.496	115.94
229.73	131.94
229.964	161.94
230.199	133.94
230.433	122.94
230.667	118.94
230.901	118.94
231.136	107.94
231.37	102.94
231.604	112.94
231.838	103.94
232.072	111.94
232.306	126.94
232.541	117.94
232.775	112.94
233.009	124.94
233.243	122.94
233.477	120.94
233.711	121.94
233.945	126.94
234.179	122.94
234.413	122.94
234.647	119.94
234.881	109.94
235.115	120.94
235.349	121.94
235.583	127.94
235.817	143.94
236.051	130.94
236.285	131.94
236.519	132.94
236.753	147.94
236.987	152.94
237.221	173.94
237.455	230.94
237.689	184.94
237.922	145.94
238.156	139.94
238.39	129.94
238.624	139.94
238.858	128.94
239.091	126.94
239.325	141.94
239.559	134.94
239.793	126.94
240.027	131.94
240.26	147.94
240.494	158.94
240.728	154.94
240.961	151.94
241.195	138.94
241.429	129.94
241.662	147.94
241.896	133.94
242.13	130.94
242.363	137.94
242.597	133.94
242.83	154.94
243.064	150.94
243.298	159.94
243.531	157.94
243.765	150.94
243.998	148.94
244.232	154.94
244.465	158.94
244.699	152.94
244.932	142.94
245.166	163.94
245.399	167.94
245.633	150.94
245.866	150.94
246.099	146.94
246.333	165.94
246.566	161.94
246.8	162.94
247.033	165.94
247.266	156.94
247.5	178.94
247.733	186.94
247.966	172.94
248.2	171.94
248.433	184.94
248.666	177.94
248.899	185.94
249.133	197.94
249.366	201.94
249.599	203.94
249.832	188.94
250.066	197.94
250.299	190.94
250.532	205.94
250.765	210.94
250.998	237.94
251.231	249.94
251.465	230.94
251.698	229.94
251.931	204.94
252.164	210.94
252.397	205.94
252.63	215.94
252.863	211.94
253.096	226.94
253.329	254.94
253.562	216.94
253.795	231.94
254.028	227.94
254.261	238.94
254.494	238.94
254.727	268.94
254.96	292.94
255.193	271.94
255.426	278.94
255.659	230.94
255.892	245.94
256.124	243.94
256.357	272.94
256.59	246.94
256.823	225.94
257.056	216.94
257.289	215.94
257.521	222.94
257.754	218.94
257.987	215.94
258.22	230.94
258.452	229.94
258.685	218.94
258.918	215.94
259.151	234.94
259.383	247.94
259.616	236.94
259.849	248.94
260.081	235.94
260.314	277.94
260.547	278.94
260.779	279.94
261.012	279.94
261.244	245.94
261.477	232.94
261.71	236.94
261.942	246.94
262.175	238.94
262.407	245.94
262.64	221.94
262.872	236.94
263.105	222.94
263.337	230.94
263.57	228.94
263.802	226.94
264.035	220.94
264.267	235.94
264.499	218.94
264.732	215.94
264.964	238.94
265.197	227.94
265.429	235.94
265.661	222.94
265.894	226.94
266.126	245.94
266.358	250.94
266.591	249.94
266.823	238.94
267.055	261.94
267.287	242.94
267.52	257.94
267.752	261.94
267.984	238.94
268.216	263.94
268.448	235.94
268.681	251.94
268.913	270.94
269.145	300.94
269.377	293.94
269.609	285.94
269.841	291.94
270.073	282.94
270.306	312.94
270.538	322.94
270.77	344.94
271.002	341.94
271.234	312.94
271.466	317.94
271.698	320.94
271.93	325.94
272.162	333.94
272.394	334.94
272.626	316.94
272.858	305.94
273.09	294.94
273.322	301.94
273.553	281.94
273.785	290.94
274.017	291.94
274.249	287.94
274.481	292.94
274.713	296.94
274.945	290.94
275.176	284.94
275.408	294.94
275.64	303.94
275.872	297.94
276.104	297.94
276.335	299.94
276.567	299.94
276.799	308.94
277.031	333.94
277.262	331.94
277.494	333.94
277.726	323.94
277.957	311.94
278.189	296.94
278.421	300.94
278.652	286.94
278.884	302.94
279.115	281.94
279.347	317.94
279.579	290.94
279.81	299.94
280.042	293.94
280.273	297.94
280.505	311.94
280.736	305.94
280.968	315.94
281.199	286.94
281.431	314.94
281.662	289.94
281.894	290.94
282.125	300.94
282.356	309.94
282.588	326.94
282.819	331.94
283.051	307.94
283.282	324.94
283.513	319.94
283.745	309.94
283.976	295.94
284.207	332.94
284.439	313.94
284.67	307.94
284.901	323.94
285.132	302.94
285.364	296.94
285.595	305.94
285.826	309.94
286.057	310.94
286.288	351.94
286.52	329.94
286.751	328.94
286.982	321.94
287.213	301.94
287.444	289.94
287.675	321.94
287.906	306.94
288.138	348.94
288.369	327.94
288.6	335.94
288.831	341.94
289.062	335.94
289.293	344.94
289.524	331.94
289.755	305.94
289.986	325.94
290.217	326.94
290.448	332.94
290.679	329.94
290.91	334.94
291.141	324.94
291.371	321.94
291.602	329.94
291.833	327.94
292.064	316.94
292.295	329.94
292.526	326.94
292.757	303.94
292.987	350.94
293.218	316.94
293.449	343.94
293.68	361.94
293.91	343.94
294.141	319.94
294.372	309.94
294.603	331.94
294.833	343.94
295.064	354.94
295.295	351.94
295.525	315.94
295.756	353.94
295.987	335.94
296.217	364.94
296.448	358.94
296.679	330.94
296.909	329.94
297.14	321.94
297.37	341.94
297.601	342.94
297.831	330.94
298.062	318.94
298.292	327.94
298.523	336.94
298.753	360.94
298.984	358.94
299.214	350.94
299.445	346.94
299.675	334.94
299.905	366.94
300.136	372.94
300.366	339.94
300.597	377.94
300.827	350.94
301.057	359.94
301.288	370.94
301.518	366.94
301.748	389.94
301.979	365.94
302.209	374.94
302.439	367.94
302.669	376.94
302.9	366.94
303.13	360.94
303.36	379.94
303.59	377.94
303.82	375.94
304.051	379.94
304.281	368.94
304.511	350.94
304.741	363.94
304.971	357.94
305.201	351.94
305.431	343.94
305.661	379.94
305.891	353.94
306.121	374.94
306.352	363.94
306.582	385.94
306.812	392.94
307.042	353.94
307.272	376.94
307.502	369.94
307.731	367.94
307.961	381.94
308.191	355.94
308.421	375.94
308.651	375.94
308.881	373.94
309.111	383.94
309.341	378.94
309.571	393.94
309.8	397.94
310.03	403.94
310.26	396.94
310.49	409.94
310.72	418.94
310.949	437.94
311.179	430.94
311.409	411.94
311.639	399.94
311.868	424.94
312.098	422.94
312.328	389.94
312.557	434.94
312.787	452.94
313.017	412.94
313.246	425.94
313.476	433.94
313.706	411.94
313.935	410.94
314.165	417.94
314.394	419.94
314.624	414.94
314.853	415.94
315.083	425.94
315.312	399.94
315.542	380.94
315.771	429.94
316.001	393.94
316.23	409.94
316.46	437.94
316.689	430.94
316.919	400.94
317.148	421.94
317.377	415.94
317.607	438.94
317.836	417.94
318.065	417.94
318.295	394.94
318.524	409.94
318.753	400.94
318.983	409.94
319.212	411.94
319.441	437.94
319.67	407.94
319.9	402.94
320.129	404.94
320.358	429.94
320.587	403.94
320.816	442.94
321.046	443.94
321.275	426.94
321.504	441.94
321.733	421.94
321.962	427.94
322.191	445.94
322.42	459.94
322.649	466.94
322.878	489.94
323.108	485.94
323.337	513.94
323.566	515.94
323.795	527.94
324.024	582.94
324.253	681.94
324.482	945.94
324.71	1423.94
324.939	2138.94
325.168	1901.94
325.397	929.94
325.626	646.94
325.855	561.94
326.084	509.94
326.313	522.94
326.542	501.94
326.77	540.94
326.999	668.94
327.228	874.94
327.457	1286.94
327.686	1606.94
327.914	1063.94
328.143	688.94
328.372	643.94
328.6	603.94
328.829	574.94
329.058	583.94
329.287	589.94
329.515	566.94
329.744	526.94
329.972	528.94
330.201	533.94
330.43	586.94
330.658	600.94
330.887	631.94
331.115	611.94
331.344	515.94
331.572	528.94
331.801	523.94
332.03	528.94
332.258	533.94
332.486	486.94
332.715	502.94
332.943	513.94
333.172	514.94
333.4	512.94
333.629	537.94
333.857	538.94
334.085	528.94
334.314	549.94
334.542	582.94
334.771	590.94
334.999	552.94
335.227	521.94
335.455	518.94
335.684	501.94
335.912	515.94
336.14	463.94
336.369	499.94
336.597	499.94
336.825	491.94
337.053	486.94
337.281	495.94
337.51	472.94
337.738	480.94
337.966	478.94
338.194	494.94
338.422	476.94
338.65	477.94
338.878	479.94
339.106	477.94
339.334	456.94
339.562	485.94
339.79	485.94
340.018	451.94
340.246	468.94
340.474	458.94
340.702	488.94
340.93	480.94
341.158	472.94
341.386	494.94
341.614	486.94
341.842	470.94
342.07	479.94
342.298	462.94
342.526	464.94
342.754	451.94
342.981	453.94
343.209	462.94
343.437	476.94
343.665	479.94
343.893	491.94
344.12	501.94
344.348	518.94
344.576	478.94
344.804	501.94
345.031	485.94
345.259	490.94
345.487	476.94
345.714	462.94
345.942	473.94
346.17	447.94
346.397	445.94
346.625	442.94
346.853	455.94
347.08	455.94
347.308	458.94
347.535	457.94
347.763	467.94
347.99	478.94
348.218	454.94
348.445	464.94
348.673	452.94
348.9	455.94
349.128	455.94
349.355	461.94
349.583	450.94
349.81	430.94
350.037	406.94
350.265	417.94
350.492	442.94
350.72	419.94
350.947	462.94
351.174	453.94
351.402	454.94
351.629	449.94
351.856	446.94
352.083	468.94
352.311	480.94
352.538	458.94
352.765	480.94
352.992	468.94
353.22	457.94
353.447	453.94
353.674	442.94
353.901	449.94
354.128	437.94
354.355	421.94
354.583	425.94
354.81	439.94
355.037	441.94
355.264	411.94
355.491	419.94
355.718	396.94
355.945	433.94
356.172	427.94
356.399	414.94
356.626	437.94
356.853	433.94
357.08	443.94
357.307	423.94
357.534	419.94
357.761	442.94
357.988	413.94
358.215	415.94
358.441	429.94
358.668	436.94
358.895	441.94
359.122	457.94
359.349	437.94
359.576	451.94
359.802	454.94
360.029	477.94
360.256	497.94
360.483	482.94
360.709	471.94
360.936	464.94
361.163	441.94
361.39	462.94
361.616	441.94
361.843	451.94
362.07	466.94
362.296	468.94
362.523	476.94
362.749	439.94
362.976	460.94
363.203	431.94
363.429	430.94
363.656	442.94
363.882	411.94
364.109	435.94
364.335	422.94
364.562	457.94
364.788	450.94
365.015	449.94
365.241	419.94
365.468	421.94
365.694	413.94
365.92	444.94
366.147	421.94
366.373	422.94
366.599	445.94
366.826	435.94
367.052	444.94
367.278	441.94
367.505	415.94
367.731	418.94
367.957	425.94
368.184	428.94
368.41	434.94
368.636	424.94
368.862	437.94
369.089	435.94
369.315	425.94
369.541	438.94
369.767	442.94
369.993	424.94
370.219	419.94
370.445	457.94
370.672	440.94
370.898	435.94
371.124	408.94
371.35	446.94
371.576	439.94
371.802	428.94
372.028	450.94
372.254	415.94
372.48	435.94
372.706	429.94
372.932	441.94
373.158	426.94
373.384	452.94
373.61	417.94
373.835	437.94
374.061	456.94
374.287	453.94
374.513	445.94
374.739	430.94
374.965	464.94
375.191	444.94
375.416	442.94
375.642	437.94
375.868	434.94
376.094	438.94
376.319	447.94
376.545	463.94
376.771	448.94
376.997	427.94
377.222	410.94
377.448	423.94
377.674	429.94
377.899	455.94
378.125	431.94
378.35	458.94
378.576	442.94
378.802	449.94
379.027	428.94
379.253	425.94
379.478	429.94
379.704	431.94
379.929	430.94
380.155	444.94
380.38	446.94
380.606	437.94
380.831	442.94
381.057	449.94
381.282	435.94
381.507	427.94
381.733	424.94
381.958	455.94
382.184	443.94
382.409	443.94
382.634	440.94
382.86	452.94
383.085	453.94
383.31	446.94
383.535	470.94
383.761	441.94
383.986	463.94
384.211	490.94
384.436	454.94
384.662	475.94
384.887	482.94
385.112	476.94
385.337	469.94
385.562	489.94
385.787	496.94
386.013	487.94
386.238	497.94
386.463	506.94
386.688	509.94
386.913	483.94
387.138	487.94
387.363	458.94
387.588	471.94
387.813	478.94
388.038	477.94
388.263	498.94
388.488	492.94
388.713	493.94
388.938	488.94
389.163	497.94
389.387	484.94
389.612	478.94
389.837	477.94
390.062	484.94
390.287	466.94
390.512	468.94
390.736	471.94
390.961	480.94
391.186	490.94
391.411	503.94
391.636	503.94
391.86	496.94
392.085	511.94
392.31	528.94
392.534	513.94
392.759	503.94
392.984	507.94
393.208	513.94
393.433	476.94
393.658	493.94
393.882	494.94
394.107	507.94
394.331	494.94
394.556	490.94
394.78	505.94
395.005	485.94
395.229	491.94
395.454	516.94
395.678	523.94
395.903	532.94
396.127	534.94
396.352	540.94
396.576	533.94
396.801	489.94
397.025	527.94
397.249	525.94
397.474	548.94
397.698	527.94
397.922	536.94
398.147	555.94
398.371	576.94
398.595	561.94
398.82	566.94
399.044	595.94
399.268	617.94
399.492	638.94
399.717	701.94
399.941	729.94
400.165	716.94
400.389	713.94
400.613	639.94
400.837	602.94
401.062	583.94
401.286	579.94
401.51	567.94
401.734	574.94
401.958	587.94
402.182	578.94
402.406	600.94
402.63	601.94
402.854	590.94
403.078	595.94
403.302	581.94
403.526	598.94
403.75	600.94
403.974	601.94
404.198	554.94
404.422	591.94
404.645	612.94
404.869	608.94
405.093	643.94
405.317	643.94
405.541	715.94
405.765	655.94
405.988	634.94
406.212	636.94
406.436	638.94
406.66	671.94
406.883	647.94
407.107	679.94
407.331	711.94
407.555	782.94
407.778	791.94
408.002	712.94
408.226	653.94
408.449	651.94
408.673	652.94
408.896	693.94
409.12	725.94
409.344	689.94
409.567	627.94
409.791	606.94
410.014	599.94
410.238	570.94
410.461	613.94
410.685	597.94
410.908	596.94
411.132	654.94
411.355	690.94
411.578	663.94
411.802	604.94
412.025	597.94
412.249	604.94
412.472	663.94
412.695	647.94
412.919	650.94
413.142	585.94
413.365	575.94
413.589	577.94
413.812	557.94
414.035	555.94
414.258	553.94
414.482	555.94
414.705	572.94
414.928	563.94
415.151	561.94
415.374	547.94
415.597	550.94
415.821	571.94
416.044	574.94
416.267	543.94
416.49	542.94
416.713	557.94
416.936	564.94
417.159	582.94
417.382	579.94
417.605	556.94
417.828	565.94
418.051	586.94
418.274	575.94
418.497	558.94
418.72	539.94
418.943	538.94
419.166	605.94
419.389	569.94
419.611	602.94
419.834	592.94
420.057	608.94
420.28	581.94
420.503	591.94
420.726	570.94
420.948	588.94
421.171	651.94
421.394	673.94
421.617	606.94
421.839	581.94
422.062	588.94
422.285	590.94
422.507	654.94
422.73	745.94
422.953	728.94
423.175	635.94
423.398	602.94
423.621	592.94
423.843	610.94
424.066	621.94
424.288	606.94
424.511	640.94
424.733	673.94
424.956	784.94
425.178	723.94
425.401	735.94
425.623	783.94
425.846	652.94
426.068	612.94
426.291	635.94
426.513	645.94
426.735	617.94
426.958	659.94
427.18	746.94
427.402	897.94
427.625	963.94
427.847	808.94
428.069	737.94
428.292	681.94
428.514	599.94
428.736	593.94
428.958	579.94
429.181	563.94
429.403	572.94
429.625	560.94
429.847	609.94
430.069	694.94
430.292	685.94
430.514	583.94
430.736	552.94
430.958	553.94
431.18	553.94
431.402	554.94
431.624	520.94
431.846	552.94
432.068	527.94
432.29	541.94
432.512	516.94
432.734	561.94
432.956	542.94
433.178	569.94
433.4	552.94
433.622	541.94
433.844	541.94
434.066	526.94
434.287	544.94
434.509	557.94
434.731	571.94
434.953	565.94
435.175	611.94
435.397	621.94
435.618	621.94
435.84	629.94
436.062	760.94
436.284	828.94
436.505	684.94
436.727	635.94
436.949	569.94
437.17	570.94
437.392	545.94
437.614	591.94
437.835	613.94
438.057	693.94
438.278	782.94
438.5	813.94
438.721	873.94
438.943	865.94
439.165	673.94
439.386	606.94
439.608	616.94
439.829	615.94
440.05	650.94
440.272	695.94
440.493	661.94
440.715	595.94
440.936	577.94
441.158	575.94
441.379	604.94
441.6	588.94
441.822	603.94
442.043	675.94
442.264	742.94
442.486	775.94
442.707	675.94
442.928	618.94
443.149	632.94
443.371	657.94
443.592	697.94
443.813	774.94
444.034	887.94
444.255	747.94
444.476	668.94
444.698	645.94
444.919	646.94
445.14	761.94
445.361	701.94
445.582	654.94
445.803	724.94
446.024	850.94
446.245	840.94
446.466	787.94
446.687	645.94
446.908	626.94
447.129	576.94
447.35	557.94
447.571	557.94
447.792	548.94
448.013	544.94
448.234	608.94
448.455	650.94
448.675	759.94
448.896	868.94
449.117	733.94
449.338	679.94
449.559	774.94
449.779	901.94
450	757.94
450.221	611.94
450.442	584.94
450.662	563.94
450.883	558.94
451.104	547.94
451.324	523.94
451.545	498.94
451.766	517.94
451.986	501.94
452.207	494.94
452.428	503.94
452.648	495.94
452.869	494.94
453.089	478.94
453.31	503.94
453.53	514.94
453.751	484.94
453.971	485.94
454.192	518.94
454.412	517.94
454.633	487.94
454.853	483.94
455.073	484.94
455.294	525.94
455.514	582.94
455.734	555.94
455.955	509.94
456.175	485.94
456.395	465.94
456.616	482.94
456.836	485.94
457.056	449.94
457.276	467.94
457.497	466.94
457.717	474.94
457.937	478.94
458.157	465.94
458.377	511.94
458.598	511.94
458.818	553.94
459.038	631.94
459.258	657.94
459.478	572.94
459.698	555.94
459.918	547.94
460.138	531.94
460.358	559.94
460.578	538.94
460.798	571.94
461.018	572.94
461.238	545.94
461.458	553.94
461.678	551.94
461.898	560.94
462.118	555.94
462.338	563.94
462.558	586.94
462.777	585.94
462.997	634.94
463.217	637.94
463.437	630.94
463.657	627.94
463.876	596.94
464.096	584.94
464.316	591.94
464.536	619.94
464.755	604.94
464.975	588.94
465.195	602.94
465.414	661.94
465.634	614.94
465.854	577.94
466.073	554.94
466.293	531.94
466.512	543.94
466.732	523.94
466.951	513.94
467.171	510.94
467.391	515.94
467.61	536.94
467.829	517.94
468.049	541.94
468.268	508.94
468.488	520.94
468.707	492.94
468.927	499.94
469.146	513.94
469.365	497.94
469.585	485.94
469.804	524.94
470.023	533.94
470.243	531.94
470.462	539.94
470.681	542.94
470.901	531.94
471.12	524.94
471.339	510.94
471.558	503.94
471.777	514.94
471.997	495.94
472.216	528.94
472.435	561.94
472.654	534.94
472.873	528.94
473.092	531.94
473.311	528.94
473.53	531.94
473.749	527.94
473.968	577.94
474.187	643.94
474.406	665.94
474.625	569.94
474.844	549.94
475.063	499.94
475.282	539.94
475.501	505.94
475.72	545.94
475.939	548.94
476.158	549.94
476.377	536.94
476.596	531.94
476.814	547.94
477.033	547.94
477.252	547.94
477.471	556.94
477.69	554.94
477.908	572.94
478.127	588.94
478.346	556.94
478.564	590.94
478.783	587.94
479.002	592.94
479.22	623.94
479.439	637.94
479.658	637.94
479.876	637.94
480.095	633.94
480.313	659.94
480.532	662.94
480.751	646.94
480.969	651.94
481.188	693.94
481.406	737.94
481.624	660.94
481.843	629.94
482.061	598.94
482.28	596.94
482.498	594.94
482.717	570.94
482.935	583.94
483.153	606.94
483.372	583.94
483.59	616.94
483.808	613.94
484.027	610.94
484.245	605.94
484.463	611.94
484.681	615.94
484.9	603.94
485.118	604.94
485.336	647.94
485.554	618.94
485.772	633.94
485.99	606.94
486.209	656.94
486.427	632.94
486.645	668.94
486.863	662.94
487.081	633.94
487.299	637.94
487.517	636.94
487.735	639.94
487.953	625.94
488.171	650.94
488.389	636.94
488.607	651.94
488.825	651.94
489.043	650.94
489.261	663.94
489.479	662.94
489.696	648.94
489.914	653.94
490.132	660.94
490.35	677.94
490.568	661.94
490.786	706.94
491.003	691.94
491.221	722.94
491.439	694.94
491.657	729.94
491.874	725.94
492.092	732.94
492.31	750.94
492.527	745.94
492.745	744.94
492.963	753.94
493.18	773.94
493.398	750.94
493.615	783.94
493.833	799.94
494.05	762.94
494.268	774.94
494.485	754.94
494.703	785.94
494.92	764.94
495.138	738.94
495.355	773.94
495.573	771.94
495.79	762.94
496.008	783.94
496.225	765.94
496.442	765.94
496.66	794.94
496.877	775.94
497.094	782.94
497.312	789.94
497.529	817.94
497.746	820.94
497.963	831.94
498.181	883.94
498.398	867.94
498.615	879.94
498.832	899.94
499.049	947.94
499.267	922.94
499.484	1009.94
499.701	1031.94
499.918	1077.94
500.135	1175.94
500.352	1214.94
500.569	1246.94
500.786	1242.94
501.003	1220.94
501.22	1177.94
501.437	1106.94
501.654	1095.94
501.871	1018.94
502.088	987.94
502.305	940.94
502.522	887.94
502.739	901.94
502.956	862.94
503.172	846.94
503.389	804.94
503.606	821.94
503.823	793.94
504.04	803.94
504.256	796.94
504.473	779.94
504.69	789.94
504.907	784.94
505.123	770.94
505.34	733.94
505.557	732.94
505.773	715.94
505.99	737.94
506.207	713.94
506.423	715.94
506.64	737.94
506.856	710.94
507.073	695.94
507.289	723.94
507.506	682.94
507.722	676.94
507.939	729.94
508.155	702.94
508.372	686.94
508.588	678.94
508.805	679.94
509.021	702.94
509.238	697.94
509.454	678.94
509.67	678.94
509.887	681.94
510.103	672.94
510.319	671.94
510.536	750.94
510.752	1126.94
510.968	938.94
511.184	669.94
511.401	683.94
511.617	643.94
511.833	642.94
512.049	643.94
512.265	651.94
512.481	614.94
512.698	625.94
512.914	643.94
513.13	649.94
513.346	636.94
513.562	635.94
513.778	615.94
513.994	639.94
514.21	663.94
514.426	668.94
514.642	696.94
514.858	701.94
515.074	714.94
515.29	844.94
515.506	1165.94
515.721	1012.94
515.937	738.94
516.153	666.94
516.369	689.94
516.585	699.94
516.801	665.94
517.016	665.94
517.232	666.94
517.448	684.94
517.664	700.94
517.879	702.94
518.095	689.94
518.311	665.94
518.527	667.94
518.742	666.94
518.958	644.94
519.173	648.94
519.389	653.94
519.605	635.94
519.82	651.94
520.036	667.94
520.251	641.94
520.467	695.94
520.682	691.94
520.898	681.94
521.113	659.94
521.329	718.94
521.544	798.94
521.76	926.94
521.975	1417.94
522.19	1405.94
522.406	819.94
522.621	695.94
522.836	642.94
523.052	623.94
523.267	630.94
523.482	597.94
523.698	587.94
523.913	579.94
524.128	571.94
524.343	567.94
524.559	589.94
524.774	572.94
524.989	550.94
525.204	571.94
525.419	578.94
525.634	553.94
525.849	543.94
526.064	538.94
526.28	541.94
526.495	540.94
526.71	563.94
526.925	517.94
527.14	514.94
527.355	525.94
527.57	556.94
527.785	533.94
527.999	531.94
528.214	536.94
528.429	545.94
528.644	553.94
528.859	534.94
529.074	504.94
529.289	558.94
529.503	611.94
529.718	613.94
529.933	567.94
530.148	541.94
530.363	540.94
530.577	513.94
530.792	535.94
531.007	538.94
531.221	504.94
531.436	499.94
531.651	515.94
531.865	523.94
532.08	524.94
532.295	525.94
532.509	533.94
532.724	508.94
532.938	507.94
533.153	514.94
533.367	504.94
533.582	498.94
533.796	510.94
534.011	488.94
534.225	491.94
534.44	518.94
534.654	515.94
534.868	499.94
535.083	519.94
535.297	520.94
535.511	504.94
535.726	518.94
535.94	502.94
536.154	514.94
536.369	476.94
536.583	478.94
536.797	513.94
537.011	493.94
537.225	476.94
537.44	485.94
537.654	509.94
537.868	473.94
538.082	483.94
538.296	475.94
538.51	473.94
538.724	514.94
538.938	483.94
539.153	491.94
539.367	490.94
539.581	510.94
539.795	487.94
540.009	487.94
540.222	489.94
540.436	490.94
540.65	494.94
540.864	523.94
541.078	487.94
541.292	498.94
541.506	470.94
541.72	473.94
541.934	486.94
542.147	469.94
542.361	491.94
542.575	471.94
542.789	469.94
543.002	481.94
543.216	487.94
543.43	481.94
543.644	477.94
543.857	501.94
544.071	500.94
544.285	466.94
544.498	491.94
544.712	494.94
544.925	485.94
545.139	473.94
545.352	474.94
545.566	481.94
545.779	478.94
545.993	469.94
546.206	515.94
546.42	478.94
546.633	477.94
546.847	471.94
547.06	491.94
547.274	475.94
547.487	487.94
547.7	484.94
547.914	490.94
548.127	503.94
548.34	471.94
548.554	471.94
548.767	492.94
548.98	484.94
549.193	493.94
549.407	473.94
549.62	492.94
549.833	481.94
550.046	483.94
550.259	473.94
550.473	486.94
550.686	470.94
550.899	474.94
551.112	476.94
551.325	474.94
551.538	453.94
551.751	449.94
551.964	475.94
552.177	468.94
552.39	463.94
552.603	476.94
552.816	506.94
553.029	485.94
553.242	495.94
553.455	520.94
553.667	490.94
553.88	506.94
554.093	511.94
554.306	470.94
554.519	499.94
554.732	463.94
554.944	483.94
555.157	458.94
555.37	459.94
555.583	454.94
555.795	436.94
556.008	442.94
556.221	454.94
556.433	445.94
556.646	425.94
556.859	418.94
557.071	436.94
557.284	413.94
557.496	413.94
557.709	439.94
557.921	434.94
558.134	425.94
558.346	440.94
558.559	437.94
558.771	423.94
558.984	436.94
559.196	407.94
559.409	410.94
559.621	425.94
559.833	410.94
560.046	393.94
560.258	409.94
560.47	394.94
560.683	426.94
560.895	429.94
561.107	420.94
561.32	423.94
561.532	405.94
561.744	420.94
561.956	412.94
562.168	422.94
562.381	428.94
562.593	425.94
562.805	408.94
563.017	430.94
563.229	407.94
563.441	409.94
563.653	414.94
563.865	437.94
564.077	446.94
564.289	448.94
564.501	450.94
564.713	427.94
564.925	443.94
565.137	450.94
565.349	462.94
565.561	479.94
565.773	458.94
565.985	478.94
566.197	493.94
566.408	525.94
566.62	543.94
566.832	553.94
567.044	543.94
567.255	545.94
567.467	579.94
567.679	580.94
567.891	602.94
568.102	590.94
568.314	598.94
568.526	558.94
568.737	539.94
568.949	523.94
569.161	503.94
569.372	472.94
569.584	455.94
569.795	436.94
570.007	434.94
570.218	462.94
570.43	459.94
570.641	414.94
570.853	439.94
571.064	437.94
571.276	415.94
571.487	411.94
571.698	410.94
571.91	384.94
572.121	381.94
572.333	378.94
572.544	391.94
572.755	395.94
572.966	394.94
573.178	361.94
573.389	376.94
573.6	362.94
573.811	377.94
574.023	385.94
574.234	359.94
574.445	356.94
574.656	371.94
574.867	351.94
575.078	369.94
575.289	372.94
575.501	357.94
575.712	347.94
575.923	354.94
576.134	362.94
576.345	353.94
576.556	348.94
576.767	361.94
576.978	370.94
577.188	357.94
577.399	354.94
577.61	350.94
577.821	357.94
578.032	342.94
578.243	372.94
578.454	539.94
578.665	435.94
578.875	344.94
579.086	336.94
579.297	347.94
579.508	341.94
579.718	335.94
579.929	342.94
580.14	325.94
580.35	335.94
580.561	322.94
580.772	316.94
580.982	343.94
581.193	342.94
581.403	321.94
581.614	328.94
581.825	329.94
582.035	318.94
582.246	335.94
582.456	324.94
582.667	337.94
582.877	331.94
583.087	327.94
583.298	326.94
583.508	313.94
583.719	321.94
583.929	323.94
584.139	329.94
584.35	327.94
584.56	323.94
584.77	319.94
584.981	308.94
585.191	314.94
585.401	335.94
585.611	314.94
585.821	313.94
586.032	313.94
586.242	326.94
586.452	315.94
586.662	317.94
586.872	321.94
587.082	307.94
587.292	308.94
587.502	326.94
587.713	305.94
587.923	312.94
588.133	311.94
588.343	309.94
588.553	318.94
588.762	314.94
588.972	315.94
589.182	325.94
589.392	317.94
589.602	310.94
589.812	311.94
590.022	300.94
590.232	313.94
590.441	316.94
590.651	322.94
590.861	300.94
591.071	315.94
591.281	334.94
591.49	312.94
591.7	325.94
591.91	307.94
592.119	332.94
592.329	334.94
592.539	334.94
592.748	353.94
592.958	352.94
593.167	346.94
593.377	341.94
593.587	347.94
593.796	358.94
594.006	372.94
594.215	347.94
594.424	343.94
594.634	354.94
594.843	335.94
595.053	322.94
595.262	318.94
595.472	330.94
595.681	334.94
595.89	321.94
596.1	320.94
596.309	311.94
596.518	287.94
596.727	294.94
596.937	285.94
597.146	318.94
597.355	310.94
597.564	318.94
597.774	300.94
597.983	278.94
598.192	294.94
598.401	281.94
598.61	275.94
598.819	290.94
599.028	294.94
599.237	286.94
599.446	283.94
599.655	279.94
599.864	290.94
600.073	275.94
600.282	288.94
600.491	278.94
600.7	270.94
600.909	279.94
601.118	281.94
601.327	283.94
601.536	282.94
601.745	264.94
601.953	269.94
602.162	271.94
602.371	264.94
602.58	261.94
602.789	258.94
602.997	263.94
603.206	266.94
603.415	278.94
603.623	267.94
603.832	277.94
604.041	257.94
604.249	283.94
604.458	273.94
604.666	257.94
604.875	277.94
605.084	269.94
605.292	268.94
605.501	263.94
605.709	277.94
605.918	269.94
606.126	262.94
606.334	234.94
606.543	263.94
606.751	254.94
606.96	275.94
607.168	261.94
607.376	275.94
607.585	277.94
607.793	261.94
608.001	274.94
608.21	277.94
608.418	265.94
608.626	257.94
608.834	271.94
609.043	266.94
609.251	258.94
609.459	250.94
609.667	269.94
609.875	267.94
610.083	271.94
610.291	252.94
610.499	269.94
610.707	261.94
610.916	242.94
611.124	264.94
611.332	276.94
611.54	277.94
611.748	268.94
611.955	267.94
612.163	260.94
612.371	241.94
612.579	260.94
612.787	261.94
612.995	251.94
613.203	263.94
613.411	270.94
613.618	259.94
613.826	264.94
614.034	267.94
614.242	248.94
614.449	273.94
614.657	254.94
614.865	263.94
615.072	268.94
615.28	246.94
615.488	260.94
615.695	269.94
615.903	254.94
616.111	266.94
616.318	262.94
616.526	265.94
616.733	259.94
616.941	252.94
617.148	259.94
617.356	254.94
617.563	223.94
617.771	257.94
617.978	247.94
618.185	245.94
618.393	254.94
618.6	239.94
618.807	250.94
619.015	235.94
619.222	240.94
619.429	237.94
619.637	244.94
619.844	242.94
620.051	245.94
620.258	227.94
620.466	248.94
620.673	233.94
620.88	232.94
621.087	239.94
621.294	253.94
621.501	243.94
621.708	253.94
621.915	246.94
622.122	242.94
622.329	229.94
622.536	223.94
622.743	245.94
622.95	236.94
623.157	228.94
623.364	228.94
623.571	230.94
623.778	258.94
623.985	222.94
624.192	237.94
624.399	236.94
624.606	233.94
624.812	209.94
625.019	230.94
625.226	225.94
625.433	219.94
625.639	228.94
625.846	240.94
626.053	225.94
626.259	233.94
626.466	220.94
626.673	220.94
626.879	220.94
627.086	232.94
627.293	210.94
627.499	216.94
627.706	215.94
627.912	201.94
628.119	219.94
628.325	214.94
628.532	221.94
628.738	230.94
628.945	210.94
629.151	231.94
629.357	215.94
629.564	209.94
629.77	214.94
629.976	216.94
630.183	214.94
630.389	229.94
630.595	203.94
630.802	197.94
631.008	198.94
631.214	213.94
631.42	208.94
631.627	201.94
631.833	217.94
632.039	203.94
632.245	205.94
632.451	212.94
632.657	195.94
632.863	202.94
633.069	222.94
633.275	189.94
633.481	205.94
633.688	179.94
633.893	201.94
634.099	201.94
634.305	202.94
634.511	200.94
634.717	195.94
634.923	183.94
635.129	192.94
635.335	181.94
635.541	201.94
635.747	191.94
635.952	174.94
636.158	183.94
636.364	198.94
636.57	197.94
636.775	197.94
636.981	179.94
637.187	195.94
637.392	206.94
637.598	187.94
637.804	197.94
638.009	181.94
638.215	189.94
638.421	173.94
638.626	187.94
638.832	197.94
639.037	179.94
639.243	173.94
639.448	185.94
639.654	179.94
639.859	173.94
640.065	187.94
640.27	182.94
640.475	187.94
640.681	169.94
640.886	189.94
641.091	198.94
641.297	193.94
641.502	174.94
641.707	194.94
641.913	189.94
642.118	178.94
642.323	165.94
642.528	177.94
642.733	185.94
642.939	186.94
643.144	175.94
643.349	172.94
643.554	180.94
643.759	187.94
643.964	173.94
644.169	187.94
644.374	178.94
644.579	197.94
644.784	157.94
644.989	185.94
645.194	182.94
645.399	183.94
645.604	177.94
645.809	181.94
646.014	185.94
646.219	168.94
646.423	169.94
646.628	163.94
646.833	182.94
647.038	173.94
647.243	187.94
647.447	192.94
647.652	170.94
647.857	169.94
648.062	182.94
648.266	177.94
648.471	189.94
648.676	174.94
648.88	181.94
649.085	168.94
649.289	180.94
649.494	190.94
649.698	181.94
649.903	217.94
650.107	200.94
650.312	194.94
650.516	173.94
650.721	161.94
650.925	156.94
651.13	161.94
651.334	159.94
651.539	155.94
651.743	154.94
651.947	158.94
652.152	161.94
652.356	146.94
652.56	141.94
652.764	147.94
652.969	145.94
653.173	148.94
653.377	159.94
653.581	148.94
653.785	131.94
653.99	149.94
654.194	135.94
654.398	152.94
654.602	151.94
654.806	148.94
655.01	158.94
655.214	139.94
655.418	153.94
655.622	137.94
655.826	142.94
656.03	142.94
656.234	164.94
656.438	135.94
656.642	161.94
656.846	146.94
657.049	142.94
657.253	138.94
657.457	131.94
657.661	118.94
657.865	127.94
658.068	126.94
658.272	120.94
658.476	121.94
658.68	123.94
658.883	98.94
659.087	106.94
659.291	110.94
659.494	105.94
659.698	102.94
659.901	93.94
660.105	93.94
660.309	90.94
660.512	103.94
660.716	97.94
660.919	98.94
661.123	85.94
661.326	92.94
661.53	98.94
661.733	108.94
661.936	87.94
662.14	103.94
662.343	99.94
662.546	85.94
662.75	97.94
662.953	87.94
663.156	78.94
663.36	90.94
663.563	97.94
663.766	79.94
663.969	80.94
664.173	86.94
664.376	75.94
664.579	72.94
664.782	71.94
664.985	88.94
665.188	86.94
665.391	78.94
665.594	71.94
665.797	91.94
666	74.94
666.203	78.94
666.406	76.94
666.609	96.94
666.812	79.94
667.015	77.94
667.218	80.94
667.421	85.94
667.624	81.94
667.827	75.94
668.03	78.94
668.232	72.94
668.435	73.94
668.638	85.94
668.841	80.94
669.043	78.94
669.246	92.94
669.449	81.94
669.651	89.94
669.854	83.94
670.057	92.94
670.259	80.94
670.462	75.94
670.665	84.94
670.867	90.94
671.07	81.94
671.272	78.94
671.475	79.94
671.677	93.94
671.88	78.94
672.082	78.94
672.284	87.94
672.487	80.94
672.689	75.94
672.892	93.94
