Data from 1976.PennyLincolnUp.Lamp.En5.5.200Scan.071719.P1.Changed Mount._HRD10591_16-02-01-862.txt Node
Date: Thu Jul 18 16:02:01 EDT 2019
User: cochatt
Spectrometer: HR+D1059
Trigger mode: 1
Integration Time (sec): 1.000000E-1
Scans to average: 1
Electric dark correction enabled: true
Nonlinearity correction enabled: false
Boxcar width: 0
XAxis mode: Wavelengths
Number of Pixels in Spectrum: 2048
>>>>>Begin Spectral Data<<<<<
223.165	-9.12
223.4	-9.12
223.635	-9.12
223.869	-22.12
224.104	-33.12
224.338	-8.12
224.573	-11.12
224.808	-19.12
225.042	-13.12
225.277	-11.12
225.511	-6.12
225.746	11.88
225.98	10.88
226.215	8.88
226.449	20.88
226.683	28.88
226.918	24.88
227.152	26.88
227.387	27.88
227.621	25.88
227.856	31.88
228.09	51.88
228.324	47.88
228.559	56.88
228.793	70.88
229.027	92.88
229.262	104.88
229.496	117.88
229.73	133.88
229.964	135.88
230.199	142.88
230.433	123.88
230.667	113.88
230.901	114.88
231.136	104.88
231.37	109.88
231.604	115.88
231.838	114.88
232.072	104.88
232.306	105.88
232.541	118.88
232.775	121.88
233.009	124.88
233.243	115.88
233.477	106.88
233.711	122.88
233.945	125.88
234.179	118.88
234.413	125.88
234.647	114.88
234.881	115.88
235.115	117.88
235.349	113.88
235.583	126.88
235.817	123.88
236.051	131.88
236.285	123.88
236.519	142.88
236.753	131.88
236.987	148.88
237.221	194.88
237.455	234.88
237.689	196.88
237.922	149.88
238.156	133.88
238.39	146.88
238.624	128.88
238.858	129.88
239.091	132.88
239.325	122.88
239.559	127.88
239.793	137.88
240.027	134.88
240.26	147.88
240.494	173.88
240.728	155.88
240.961	160.88
241.195	147.88
241.429	147.88
241.662	147.88
241.896	126.88
242.13	123.88
242.363	145.88
242.597	134.88
242.83	124.88
243.064	140.88
243.298	124.88
243.531	142.88
243.765	135.88
243.998	136.88
244.232	139.88
244.465	155.88
244.699	145.88
244.932	157.88
245.166	175.88
245.399	161.88
245.633	147.88
245.866	160.88
246.099	165.88
246.333	157.88
246.566	156.88
246.8	146.88
247.033	146.88
247.266	164.88
247.5	186.88
247.733	165.88
247.966	179.88
248.2	187.88
248.433	170.88
248.666	177.88
248.899	181.88
249.133	202.88
249.366	218.88
249.599	179.88
249.832	191.88
250.066	189.88
250.299	193.88
250.532	186.88
250.765	214.88
250.998	217.88
251.231	226.88
251.465	211.88
251.698	232.88
251.931	221.88
252.164	205.88
252.397	215.88
252.63	205.88
252.863	215.88
253.096	227.88
253.329	245.88
253.562	257.88
253.795	230.88
254.028	216.88
254.261	227.88
254.494	249.88
254.727	277.88
254.96	283.88
255.193	254.88
255.426	257.88
255.659	247.88
255.892	234.88
256.124	251.88
256.357	252.88
256.59	246.88
256.823	214.88
257.056	240.88
257.289	214.88
257.521	224.88
257.754	229.88
257.987	219.88
258.22	233.88
258.452	220.88
258.685	221.88
258.918	221.88
259.151	232.88
259.383	234.88
259.616	240.88
259.849	248.88
260.081	265.88
260.314	257.88
260.547	256.88
260.779	266.88
261.012	249.88
261.244	219.88
261.477	249.88
261.71	244.88
261.942	261.88
262.175	210.88
262.407	235.88
262.64	214.88
262.872	212.88
263.105	213.88
263.337	239.88
263.57	221.88
263.802	243.88
264.035	227.88
264.267	232.88
264.499	245.88
264.732	218.88
264.964	243.88
265.197	244.88
265.429	230.88
265.661	228.88
265.894	229.88
266.126	218.88
266.358	224.88
266.591	236.88
266.823	227.88
267.055	245.88
267.287	255.88
267.52	234.88
267.752	228.88
267.984	246.88
268.216	245.88
268.448	247.88
268.681	253.88
268.913	264.88
269.145	287.88
269.377	304.88
269.609	278.88
269.841	279.88
270.073	306.88
270.306	304.88
270.538	338.88
270.77	321.88
271.002	330.88
271.234	319.88
271.466	332.88
271.698	342.88
271.93	352.88
272.162	358.88
272.394	348.88
272.626	333.88
272.858	311.88
273.09	312.88
273.322	276.88
273.553	299.88
273.785	275.88
274.017	306.88
274.249	282.88
274.481	279.88
274.713	275.88
274.945	288.88
275.176	294.88
275.408	274.88
275.64	291.88
275.872	268.88
276.104	279.88
276.335	283.88
276.567	283.88
276.799	300.88
277.031	336.88
277.262	331.88
277.494	338.88
277.726	323.88
277.957	321.88
278.189	304.88
278.421	310.88
278.652	306.88
278.884	315.88
279.115	285.88
279.347	298.88
279.579	293.88
279.81	286.88
280.042	296.88
280.273	304.88
280.505	282.88
280.736	296.88
280.968	280.88
281.199	296.88
281.431	280.88
281.662	292.88
281.894	311.88
282.125	305.88
282.356	329.88
282.588	323.88
282.819	301.88
283.051	293.88
283.282	293.88
283.513	316.88
283.745	309.88
283.976	294.88
284.207	303.88
284.439	324.88
284.67	302.88
284.901	286.88
285.132	293.88
285.364	312.88
285.595	311.88
285.826	303.88
286.057	315.88
286.288	317.88
286.52	312.88
286.751	328.88
286.982	297.88
287.213	316.88
287.444	303.88
287.675	313.88
287.906	318.88
288.138	340.88
288.369	324.88
288.6	324.88
288.831	346.88
289.062	327.88
289.293	330.88
289.524	318.88
289.755	326.88
289.986	319.88
290.217	324.88
290.448	322.88
290.679	306.88
290.91	299.88
291.141	312.88
291.371	319.88
291.602	327.88
291.833	320.88
292.064	318.88
292.295	322.88
292.526	319.88
292.757	339.88
292.987	299.88
293.218	320.88
293.449	349.88
293.68	315.88
293.91	322.88
294.141	320.88
294.372	312.88
294.603	338.88
294.833	328.88
295.064	331.88
295.295	326.88
295.525	337.88
295.756	329.88
295.987	344.88
296.217	352.88
296.448	343.88
296.679	330.88
296.909	309.88
297.14	314.88
297.37	326.88
297.601	335.88
297.831	345.88
298.062	339.88
298.292	324.88
298.523	346.88
298.753	345.88
298.984	344.88
299.214	349.88
299.445	362.88
299.675	349.88
299.905	350.88
300.136	347.88
300.366	344.88
300.597	364.88
300.827	363.88
301.057	372.88
301.288	353.88
301.518	358.88
301.748	361.88
301.979	354.88
302.209	369.88
302.439	371.88
302.669	363.88
302.9	362.88
303.13	371.88
303.36	364.88
303.59	357.88
303.82	365.88
304.051	364.88
304.281	358.88
304.511	360.88
304.741	352.88
304.971	369.88
305.201	361.88
305.431	357.88
305.661	370.88
305.891	369.88
306.121	354.88
306.352	359.88
306.582	375.88
306.812	372.88
307.042	373.88
307.272	381.88
307.502	378.88
307.731	360.88
307.961	361.88
308.191	374.88
308.421	359.88
308.651	379.88
308.881	370.88
309.111	393.88
309.341	377.88
309.571	380.88
309.8	410.88
310.03	409.88
310.26	396.88
310.49	400.88
310.72	419.88
310.949	412.88
311.179	415.88
311.409	410.88
311.639	413.88
311.868	413.88
312.098	416.88
312.328	385.88
312.557	423.88
312.787	416.88
313.017	426.88
313.246	419.88
313.476	410.88
313.706	408.88
313.935	407.88
314.165	424.88
314.394	405.88
314.624	417.88
314.853	424.88
315.083	405.88
315.312	416.88
315.542	435.88
315.771	403.88
316.001	398.88
316.23	420.88
316.46	404.88
316.689	412.88
316.919	412.88
317.148	424.88
317.377	418.88
317.607	419.88
317.836	411.88
318.065	423.88
318.295	417.88
318.524	406.88
318.753	409.88
318.983	401.88
319.212	414.88
319.441	419.88
319.67	415.88
319.9	404.88
320.129	419.88
320.358	412.88
320.587	393.88
320.816	423.88
321.046	439.88
321.275	425.88
321.504	428.88
321.733	448.88
321.962	449.88
322.191	447.88
322.42	450.88
322.649	480.88
322.878	464.88
323.108	476.88
323.337	500.88
323.566	523.88
323.795	533.88
324.024	576.88
324.253	667.88
324.482	927.88
324.71	1401.88
324.939	2126.88
325.168	1857.88
325.397	946.88
325.626	637.88
325.855	542.88
326.084	529.88
326.313	519.88
326.542	520.88
326.77	554.88
326.999	639.88
327.228	846.88
327.457	1259.88
327.686	1594.88
327.914	1057.88
328.143	685.88
328.372	646.88
328.6	573.88
328.829	577.88
329.058	579.88
329.287	575.88
329.515	568.88
329.744	523.88
329.972	517.88
330.201	554.88
330.43	589.88
330.658	610.88
330.887	656.88
331.115	618.88
331.344	523.88
331.572	513.88
331.801	508.88
332.03	521.88
332.258	509.88
332.486	493.88
332.715	477.88
332.943	499.88
333.172	515.88
333.4	505.88
333.629	511.88
333.857	537.88
334.085	565.88
334.314	563.88
334.542	585.88
334.771	589.88
334.999	537.88
335.227	505.88
335.455	492.88
335.684	517.88
335.912	495.88
336.14	476.88
336.369	495.88
336.597	517.88
336.825	506.88
337.053	491.88
337.281	484.88
337.51	475.88
337.738	478.88
337.966	479.88
338.194	468.88
338.422	477.88
338.65	477.88
338.878	460.88
339.106	464.88
339.334	459.88
339.562	471.88
339.79	470.88
340.018	465.88
340.246	474.88
340.474	475.88
340.702	468.88
340.93	463.88
341.158	470.88
341.386	476.88
341.614	473.88
341.842	457.88
342.07	450.88
342.298	467.88
342.526	456.88
342.754	458.88
342.981	449.88
343.209	440.88
343.437	459.88
343.665	472.88
343.893	494.88
344.12	504.88
344.348	484.88
344.576	489.88
344.804	481.88
345.031	499.88
345.259	491.88
345.487	481.88
345.714	469.88
345.942	473.88
346.17	458.88
346.397	467.88
346.625	457.88
346.853	455.88
347.08	454.88
347.308	432.88
347.535	456.88
347.763	461.88
347.99	453.88
348.218	467.88
348.445	445.88
348.673	455.88
348.9	441.88
349.128	449.88
349.355	448.88
349.583	427.88
349.81	433.88
350.037	436.88
350.265	444.88
350.492	425.88
350.72	443.88
350.947	455.88
351.174	466.88
351.402	464.88
351.629	457.88
351.856	463.88
352.083	416.88
352.311	439.88
352.538	450.88
352.765	458.88
352.992	455.88
353.22	443.88
353.447	444.88
353.674	436.88
353.901	436.88
354.128	428.88
354.355	415.88
354.583	434.88
354.81	427.88
355.037	426.88
355.264	428.88
355.491	426.88
355.718	407.88
355.945	423.88
356.172	409.88
356.399	415.88
356.626	423.88
356.853	393.88
357.08	423.88
357.307	428.88
357.534	406.88
357.761	402.88
357.988	419.88
358.215	415.88
358.441	432.88
358.668	404.88
358.895	418.88
359.122	425.88
359.349	460.88
359.576	446.88
359.802	457.88
360.029	479.88
360.256	481.88
360.483	473.88
360.709	450.88
360.936	449.88
361.163	444.88
361.39	451.88
361.616	455.88
361.843	433.88
362.07	443.88
362.296	455.88
362.523	445.88
362.749	431.88
362.976	436.88
363.203	449.88
363.429	417.88
363.656	432.88
363.882	416.88
364.109	426.88
364.335	410.88
364.562	432.88
364.788	437.88
365.015	424.88
365.241	432.88
365.468	426.88
365.694	424.88
365.92	428.88
366.147	424.88
366.373	440.88
366.599	428.88
366.826	431.88
367.052	413.88
367.278	412.88
367.505	421.88
367.731	433.88
367.957	444.88
368.184	389.88
368.41	439.88
368.636	449.88
368.862	438.88
369.089	452.88
369.315	443.88
369.541	400.88
369.767	433.88
369.993	422.88
370.219	413.88
370.445	426.88
370.672	433.88
370.898	415.88
371.124	439.88
371.35	447.88
371.576	417.88
371.802	427.88
372.028	445.88
372.254	447.88
372.48	426.88
372.706	441.88
372.932	452.88
373.158	461.88
373.384	448.88
373.61	420.88
373.835	419.88
374.061	421.88
374.287	434.88
374.513	447.88
374.739	431.88
374.965	450.88
375.191	463.88
375.416	470.88
375.642	449.88
375.868	447.88
376.094	450.88
376.319	451.88
376.545	425.88
376.771	437.88
376.997	435.88
377.222	434.88
377.448	409.88
377.674	423.88
377.899	418.88
378.125	418.88
378.35	419.88
378.576	433.88
378.802	437.88
379.027	425.88
379.253	449.88
379.478	447.88
379.704	446.88
379.929	428.88
380.155	444.88
380.38	441.88
380.606	424.88
380.831	417.88
381.057	428.88
381.282	437.88
381.507	445.88
381.733	434.88
381.958	460.88
382.184	443.88
382.409	450.88
382.634	447.88
382.86	453.88
383.085	439.88
383.31	458.88
383.535	457.88
383.761	458.88
383.986	467.88
384.211	447.88
384.436	463.88
384.662	472.88
384.887	478.88
385.112	480.88
385.337	489.88
385.562	471.88
385.787	483.88
386.013	493.88
386.238	498.88
386.463	495.88
386.688	459.88
386.913	480.88
387.138	486.88
387.363	482.88
387.588	484.88
387.813	476.88
388.038	487.88
388.263	496.88
388.488	503.88
388.713	492.88
388.938	488.88
389.163	487.88
389.387	476.88
389.612	482.88
389.837	484.88
390.062	459.88
390.287	483.88
390.512	470.88
390.736	483.88
390.961	469.88
391.186	488.88
391.411	498.88
391.636	489.88
391.86	491.88
392.085	516.88
392.31	504.88
392.534	493.88
392.759	499.88
392.984	515.88
393.208	470.88
393.433	497.88
393.658	463.88
393.882	464.88
394.107	479.88
394.331	502.88
394.556	472.88
394.78	478.88
395.005	498.88
395.229	530.88
395.454	518.88
395.678	511.88
395.903	526.88
396.127	543.88
396.352	533.88
396.576	511.88
396.801	509.88
397.025	506.88
397.249	524.88
397.474	522.88
397.698	525.88
397.922	549.88
398.147	537.88
398.371	564.88
398.595	561.88
398.82	553.88
399.044	561.88
399.268	617.88
399.492	640.88
399.717	686.88
399.941	705.88
400.165	714.88
400.389	709.88
400.613	621.88
400.837	584.88
401.062	577.88
401.286	569.88
401.51	573.88
401.734	562.88
401.958	566.88
402.182	572.88
402.406	587.88
402.63	570.88
402.854	573.88
403.078	579.88
403.302	576.88
403.526	607.88
403.75	611.88
403.974	601.88
404.198	593.88
404.422	602.88
404.645	604.88
404.869	618.88
405.093	648.88
405.317	693.88
405.541	725.88
405.765	674.88
405.988	639.88
406.212	630.88
406.436	634.88
406.66	664.88
406.883	632.88
407.107	679.88
407.331	726.88
407.555	785.88
407.778	804.88
408.002	710.88
408.226	649.88
408.449	646.88
408.673	635.88
408.896	651.88
409.12	729.88
409.344	681.88
409.567	618.88
409.791	609.88
410.014	610.88
410.238	595.88
410.461	594.88
410.685	599.88
410.908	611.88
411.132	648.88
411.355	663.88
411.578	655.88
411.802	607.88
412.025	579.88
412.249	592.88
412.472	628.88
412.695	645.88
412.919	636.88
413.142	619.88
413.365	565.88
413.589	583.88
413.812	567.88
414.035	551.88
414.258	567.88
414.482	556.88
414.705	562.88
414.928	565.88
415.151	573.88
415.374	543.88
415.597	531.88
415.821	560.88
416.044	534.88
416.267	566.88
416.49	546.88
416.713	534.88
416.936	560.88
417.159	544.88
417.382	547.88
417.605	556.88
417.828	576.88
418.051	580.88
418.274	554.88
418.497	559.88
418.72	559.88
418.943	556.88
419.166	568.88
419.389	620.88
419.611	619.88
419.834	589.88
420.057	609.88
420.28	595.88
420.503	579.88
420.726	581.88
420.948	597.88
421.171	642.88
421.394	659.88
421.617	595.88
421.839	599.88
422.062	578.88
422.285	593.88
422.507	654.88
422.73	725.88
422.953	704.88
423.175	637.88
423.398	607.88
423.621	595.88
423.843	633.88
424.066	615.88
424.288	615.88
424.511	631.88
424.733	688.88
424.956	748.88
425.178	757.88
425.401	745.88
425.623	753.88
425.846	652.88
426.068	626.88
426.291	620.88
426.513	589.88
426.735	627.88
426.958	658.88
427.18	729.88
427.402	857.88
427.625	998.88
427.847	819.88
428.069	714.88
428.292	648.88
428.514	615.88
428.736	591.88
428.958	587.88
429.181	560.88
429.403	573.88
429.625	561.88
429.847	609.88
430.069	667.88
430.292	686.88
430.514	569.88
430.736	584.88
430.958	571.88
431.18	564.88
431.402	552.88
431.624	538.88
431.846	498.88
432.068	549.88
432.29	530.88
432.512	516.88
432.734	550.88
432.956	551.88
433.178	555.88
433.4	544.88
433.622	523.88
433.844	532.88
434.066	527.88
434.287	524.88
434.509	556.88
434.731	565.88
434.953	561.88
435.175	584.88
435.397	614.88
435.618	599.88
435.84	675.88
436.062	748.88
436.284	821.88
436.505	682.88
436.727	624.88
436.949	556.88
437.17	554.88
437.392	533.88
437.614	569.88
437.835	615.88
438.057	699.88
438.278	776.88
438.5	811.88
438.721	865.88
438.943	850.88
439.165	673.88
439.386	605.88
439.608	614.88
439.829	624.88
440.05	636.88
440.272	663.88
440.493	660.88
440.715	579.88
440.936	599.88
441.158	578.88
441.379	556.88
441.6	577.88
441.822	592.88
442.043	662.88
442.264	751.88
442.486	780.88
442.707	682.88
442.928	626.88
443.149	629.88
443.371	654.88
443.592	709.88
443.813	791.88
444.034	850.88
444.255	709.88
444.476	644.88
444.698	630.88
444.919	624.88
445.14	736.88
445.361	697.88
445.582	672.88
445.803	706.88
446.024	828.88
446.245	824.88
446.466	771.88
446.687	676.88
446.908	611.88
447.129	595.88
447.35	559.88
447.571	538.88
447.792	543.88
448.013	570.88
448.234	555.88
448.455	589.88
448.675	752.88
448.896	853.88
449.117	717.88
449.338	690.88
449.559	769.88
449.779	919.88
450	743.88
450.221	611.88
450.442	572.88
450.662	533.88
450.883	539.88
451.104	556.88
451.324	562.88
451.545	531.88
451.766	512.88
451.986	512.88
452.207	508.88
452.428	491.88
452.648	499.88
452.869	486.88
453.089	512.88
453.31	523.88
453.53	496.88
453.751	492.88
453.971	506.88
454.192	516.88
454.412	502.88
454.633	497.88
454.853	507.88
455.073	473.88
455.294	502.88
455.514	597.88
455.734	570.88
455.955	514.88
456.175	454.88
456.395	488.88
456.616	487.88
456.836	479.88
457.056	459.88
457.276	451.88
457.497	489.88
457.717	470.88
457.937	466.88
458.157	497.88
458.377	483.88
458.598	501.88
458.818	544.88
459.038	642.88
459.258	637.88
459.478	573.88
459.698	523.88
459.918	568.88
460.138	548.88
460.358	548.88
460.578	564.88
460.798	546.88
461.018	533.88
461.238	553.88
461.458	548.88
461.678	534.88
461.898	567.88
462.118	584.88
462.338	573.88
462.558	595.88
462.777	599.88
462.997	607.88
463.217	627.88
463.437	641.88
463.657	625.88
463.876	614.88
464.096	612.88
464.316	599.88
464.536	595.88
464.755	602.88
464.975	598.88
465.195	600.88
465.414	674.88
465.634	594.88
465.854	577.88
466.073	554.88
466.293	525.88
466.512	564.88
466.732	511.88
466.951	517.88
467.171	492.88
467.391	547.88
467.61	518.88
467.829	538.88
468.049	505.88
468.268	524.88
468.488	512.88
468.707	485.88
468.927	515.88
469.146	485.88
469.365	516.88
469.585	484.88
469.804	508.88
470.023	500.88
470.243	516.88
470.462	535.88
470.681	539.88
470.901	539.88
471.12	506.88
471.339	531.88
471.558	502.88
471.777	525.88
471.997	500.88
472.216	524.88
472.435	533.88
472.654	536.88
472.873	501.88
473.092	521.88
473.311	517.88
473.53	533.88
473.749	541.88
473.968	537.88
474.187	661.88
474.406	713.88
474.625	596.88
474.844	552.88
475.063	513.88
475.282	501.88
475.501	497.88
475.72	529.88
475.939	553.88
476.158	532.88
476.377	531.88
476.596	519.88
476.814	527.88
477.033	567.88
477.252	533.88
477.471	563.88
477.69	564.88
477.908	576.88
478.127	571.88
478.346	569.88
478.564	560.88
478.783	596.88
479.002	597.88
479.22	585.88
479.439	591.88
479.658	612.88
479.876	627.88
480.095	619.88
480.313	657.88
480.532	655.88
480.751	624.88
480.969	649.88
481.188	697.88
481.406	692.88
481.624	652.88
481.843	612.88
482.061	607.88
482.28	615.88
482.498	595.88
482.717	588.88
482.935	597.88
483.153	614.88
483.372	598.88
483.59	603.88
483.808	595.88
484.027	580.88
484.245	625.88
484.463	598.88
484.681	608.88
484.9	611.88
485.118	636.88
485.336	613.88
485.554	629.88
485.772	637.88
485.99	631.88
486.209	632.88
486.427	625.88
486.645	635.88
486.863	637.88
487.081	640.88
487.299	629.88
487.517	652.88
487.735	619.88
487.953	633.88
488.171	645.88
488.389	629.88
488.607	644.88
488.825	634.88
489.043	668.88
489.261	630.88
489.479	673.88
489.696	648.88
489.914	659.88
490.132	680.88
490.35	665.88
490.568	669.88
490.786	680.88
491.003	695.88
491.221	696.88
491.439	707.88
491.657	719.88
491.874	736.88
492.092	745.88
492.31	740.88
492.527	751.88
492.745	740.88
492.963	755.88
493.18	746.88
493.398	743.88
493.615	759.88
493.833	741.88
494.05	765.88
494.268	737.88
494.485	743.88
494.703	733.88
494.92	768.88
495.138	761.88
495.355	752.88
495.573	764.88
495.79	780.88
496.008	796.88
496.225	745.88
496.442	773.88
496.66	760.88
496.877	760.88
497.094	796.88
497.312	788.88
497.529	791.88
497.746	788.88
497.963	820.88
498.181	838.88
498.398	840.88
498.615	872.88
498.832	902.88
499.049	913.88
499.267	939.88
499.484	969.88
499.701	1000.88
499.918	1095.88
500.135	1149.88
500.352	1182.88
500.569	1221.88
500.786	1258.88
501.003	1198.88
501.22	1148.88
501.437	1105.88
501.654	1063.88
501.871	1031.88
502.088	965.88
502.305	960.88
502.522	907.88
502.739	881.88
502.956	842.88
503.172	824.88
503.389	781.88
503.606	785.88
503.823	832.88
504.04	807.88
504.256	785.88
504.473	767.88
504.69	771.88
504.907	794.88
505.123	767.88
505.34	735.88
505.557	727.88
505.773	743.88
505.99	731.88
506.207	707.88
506.423	722.88
506.64	693.88
506.856	712.88
507.073	717.88
507.289	690.88
507.506	707.88
507.722	685.88
507.939	716.88
508.155	703.88
508.372	696.88
508.588	676.88
508.805	673.88
509.021	673.88
509.238	694.88
509.454	677.88
509.67	674.88
509.887	684.88
510.103	664.88
510.319	651.88
510.536	767.88
510.752	1129.88
510.968	932.88
511.184	686.88
511.401	637.88
511.617	624.88
511.833	630.88
512.049	634.88
512.265	630.88
512.481	666.88
512.698	630.88
512.914	622.88
513.13	625.88
513.346	625.88
513.562	634.88
513.778	617.88
513.994	639.88
514.21	649.88
514.426	662.88
514.642	675.88
514.858	717.88
515.074	763.88
515.29	809.88
515.506	1113.88
515.721	967.88
515.937	739.88
516.153	682.88
516.369	685.88
516.585	675.88
516.801	672.88
517.016	660.88
517.232	692.88
517.448	682.88
517.664	679.88
517.879	661.88
518.095	689.88
518.311	676.88
518.527	689.88
518.742	643.88
518.958	648.88
519.173	671.88
519.389	672.88
519.605	644.88
519.82	638.88
520.036	649.88
520.251	652.88
520.467	675.88
520.682	697.88
520.898	679.88
521.113	678.88
521.329	710.88
521.544	761.88
521.76	940.88
521.975	1371.88
522.19	1378.88
522.406	845.88
522.621	674.88
522.836	616.88
523.052	612.88
523.267	583.88
523.482	565.88
523.698	567.88
523.913	543.88
524.128	579.88
524.343	559.88
524.559	578.88
524.774	517.88
524.989	560.88
525.204	562.88
525.419	545.88
525.634	553.88
525.849	547.88
526.064	547.88
526.28	540.88
526.495	529.88
526.71	511.88
526.925	532.88
527.14	539.88
527.355	519.88
527.57	517.88
527.785	537.88
527.999	525.88
528.214	532.88
528.429	530.88
528.644	546.88
528.859	518.88
529.074	534.88
529.289	534.88
529.503	592.88
529.718	601.88
529.933	547.88
530.148	535.88
530.363	513.88
530.577	521.88
530.792	520.88
531.007	501.88
531.221	515.88
531.436	513.88
531.651	518.88
531.865	526.88
532.08	511.88
532.295	487.88
532.509	477.88
532.724	489.88
532.938	483.88
533.153	512.88
533.367	513.88
533.582	526.88
533.796	517.88
534.011	515.88
534.225	509.88
534.44	497.88
534.654	499.88
534.868	482.88
535.083	498.88
535.297	493.88
535.511	483.88
535.726	524.88
535.94	498.88
536.154	487.88
536.369	513.88
536.583	504.88
536.797	481.88
537.011	499.88
537.225	489.88
537.44	477.88
537.654	480.88
537.868	491.88
538.082	499.88
538.296	491.88
538.51	460.88
538.724	479.88
538.938	491.88
539.153	485.88
539.367	509.88
539.581	473.88
539.795	473.88
540.009	465.88
540.222	465.88
540.436	490.88
540.65	503.88
540.864	496.88
541.078	490.88
541.292	488.88
541.506	491.88
541.72	481.88
541.934	491.88
542.147	500.88
542.361	493.88
542.575	462.88
542.789	475.88
543.002	451.88
543.216	497.88
543.43	499.88
543.644	490.88
543.857	479.88
544.071	491.88
544.285	497.88
544.498	487.88
544.712	474.88
544.925	456.88
545.139	466.88
545.352	467.88
545.566	480.88
545.779	467.88
545.993	472.88
546.206	480.88
546.42	474.88
546.633	477.88
546.847	477.88
547.06	464.88
547.274	469.88
547.487	456.88
547.7	481.88
547.914	458.88
548.127	453.88
548.34	474.88
548.554	465.88
548.767	466.88
548.98	464.88
549.193	439.88
549.407	453.88
549.62	476.88
549.833	486.88
550.046	481.88
550.259	463.88
550.473	473.88
550.686	469.88
550.899	479.88
551.112	467.88
551.325	471.88
551.538	457.88
551.751	462.88
551.964	456.88
552.177	483.88
552.39	466.88
552.603	486.88
552.816	486.88
553.029	477.88
553.242	469.88
553.455	492.88
553.667	488.88
553.88	490.88
554.093	482.88
554.306	506.88
554.519	481.88
554.732	470.88
554.944	458.88
555.157	442.88
555.37	431.88
555.583	456.88
555.795	439.88
556.008	460.88
556.221	443.88
556.433	448.88
556.646	445.88
556.859	434.88
557.071	416.88
557.284	427.88
557.496	413.88
557.709	408.88
557.921	405.88
558.134	424.88
558.346	425.88
558.559	415.88
558.771	408.88
558.984	413.88
559.196	409.88
559.409	427.88
559.621	422.88
559.833	417.88
560.046	419.88
560.258	419.88
560.47	416.88
560.683	416.88
560.895	415.88
561.107	395.88
561.32	407.88
561.532	424.88
561.744	415.88
561.956	394.88
562.168	415.88
562.381	417.88
562.593	419.88
562.805	428.88
563.017	428.88
563.229	408.88
563.441	411.88
563.653	396.88
563.865	425.88
564.077	424.88
564.289	429.88
564.501	425.88
564.713	447.88
564.925	441.88
565.137	476.88
565.349	441.88
565.561	443.88
565.773	452.88
565.985	465.88
566.197	489.88
566.408	506.88
566.62	522.88
566.832	562.88
567.044	548.88
567.255	533.88
567.467	544.88
567.679	559.88
567.891	598.88
568.102	588.88
568.314	571.88
568.526	554.88
568.737	525.88
568.949	501.88
569.161	462.88
569.372	469.88
569.584	442.88
569.795	452.88
570.007	432.88
570.218	458.88
570.43	467.88
570.641	426.88
570.853	424.88
571.064	411.88
571.276	401.88
571.487	405.88
571.698	413.88
571.91	400.88
572.121	394.88
572.333	389.88
572.544	383.88
572.755	378.88
572.966	362.88
573.178	378.88
573.389	364.88
573.6	377.88
573.811	356.88
574.023	370.88
574.234	348.88
574.445	349.88
574.656	382.88
574.867	367.88
575.078	349.88
575.289	353.88
575.501	358.88
575.712	364.88
575.923	345.88
576.134	367.88
576.345	363.88
576.556	332.88
576.767	356.88
576.978	340.88
577.188	348.88
577.399	350.88
577.61	362.88
577.821	354.88
578.032	354.88
578.243	396.88
578.454	499.88
578.665	428.88
578.875	341.88
579.086	325.88
579.297	333.88
579.508	339.88
579.718	325.88
579.929	320.88
580.14	320.88
580.35	334.88
580.561	322.88
580.772	351.88
580.982	323.88
581.193	317.88
581.403	300.88
581.614	331.88
581.825	352.88
582.035	330.88
582.246	305.88
582.456	323.88
582.667	322.88
582.877	319.88
583.087	322.88
583.298	326.88
583.508	310.88
583.719	304.88
583.929	332.88
584.139	311.88
584.35	300.88
584.56	298.88
584.77	321.88
584.981	325.88
585.191	309.88
585.401	304.88
585.611	327.88
585.821	330.88
586.032	311.88
586.242	314.88
586.452	314.88
586.662	317.88
586.872	311.88
587.082	313.88
587.292	304.88
587.502	308.88
587.713	311.88
587.923	328.88
588.133	309.88
588.343	296.88
588.553	303.88
588.762	295.88
588.972	303.88
589.182	316.88
589.392	335.88
589.602	312.88
589.812	311.88
590.022	328.88
590.232	328.88
590.441	314.88
590.651	305.88
590.861	301.88
591.071	308.88
591.281	317.88
591.49	315.88
591.7	322.88
591.91	329.88
592.119	321.88
592.329	338.88
592.539	345.88
592.748	348.88
592.958	330.88
593.167	352.88
593.377	346.88
593.587	345.88
593.796	343.88
594.006	349.88
594.215	342.88
594.424	335.88
594.634	338.88
594.843	339.88
595.053	329.88
595.262	331.88
595.472	312.88
595.681	312.88
595.89	319.88
596.1	314.88
596.309	309.88
596.518	304.88
596.727	313.88
596.937	303.88
597.146	293.88
597.355	296.88
597.564	289.88
597.774	292.88
597.983	278.88
598.192	309.88
598.401	289.88
598.61	270.88
598.819	279.88
599.028	280.88
599.237	292.88
599.446	279.88
599.655	295.88
599.864	275.88
600.073	272.88
600.282	276.88
600.491	260.88
600.7	258.88
600.909	266.88
601.118	263.88
601.327	272.88
601.536	271.88
601.745	279.88
601.953	273.88
602.162	283.88
602.371	291.88
602.58	258.88
602.789	276.88
602.997	261.88
603.206	268.88
603.415	281.88
603.623	261.88
603.832	260.88
604.041	276.88
604.249	252.88
604.458	283.88
604.666	265.88
604.875	267.88
605.084	268.88
605.292	261.88
605.501	255.88
605.709	255.88
605.918	264.88
606.126	255.88
606.334	267.88
606.543	259.88
606.751	269.88
606.96	253.88
607.168	276.88
607.376	267.88
607.585	270.88
607.793	247.88
608.001	261.88
608.21	267.88
608.418	259.88
608.626	277.88
608.834	257.88
609.043	259.88
609.251	250.88
609.459	250.88
609.667	264.88
609.875	240.88
610.083	263.88
610.291	275.88
610.499	267.88
610.707	242.88
610.916	265.88
611.124	246.88
611.332	251.88
611.54	255.88
611.748	244.88
611.955	257.88
612.163	263.88
612.371	259.88
612.579	246.88
612.787	241.88
612.995	242.88
613.203	251.88
613.411	265.88
613.618	259.88
613.826	259.88
614.034	256.88
614.242	236.88
614.449	245.88
614.657	236.88
614.865	242.88
615.072	261.88
615.28	228.88
615.488	260.88
615.695	235.88
615.903	253.88
616.111	244.88
616.318	265.88
616.526	242.88
616.733	259.88
616.941	252.88
617.148	261.88
617.356	248.88
617.563	260.88
617.771	247.88
617.978	226.88
618.185	255.88
618.393	241.88
618.6	261.88
618.807	253.88
619.015	233.88
619.222	224.88
619.429	236.88
619.637	247.88
619.844	250.88
620.051	242.88
620.258	233.88
620.466	233.88
620.673	239.88
620.88	227.88
621.087	216.88
621.294	230.88
621.501	239.88
621.708	231.88
621.915	234.88
622.122	235.88
622.329	215.88
622.536	224.88
622.743	242.88
622.95	215.88
623.157	211.88
623.364	217.88
623.571	232.88
623.778	219.88
623.985	228.88
624.192	216.88
624.399	220.88
624.606	229.88
624.812	228.88
625.019	216.88
625.226	226.88
625.433	231.88
625.639	218.88
625.846	235.88
626.053	214.88
626.259	217.88
626.466	214.88
626.673	181.88
626.879	207.88
627.086	215.88
627.293	217.88
627.499	232.88
627.706	208.88
627.912	232.88
628.119	223.88
628.325	212.88
628.532	231.88
628.738	223.88
628.945	211.88
629.151	205.88
629.357	210.88
629.564	203.88
629.77	211.88
629.976	205.88
630.183	213.88
630.389	204.88
630.595	205.88
630.802	192.88
631.008	215.88
631.214	216.88
631.42	181.88
631.627	207.88
631.833	209.88
632.039	187.88
632.245	205.88
632.451	183.88
632.657	203.88
632.863	213.88
633.069	192.88
633.275	197.88
633.481	197.88
633.688	188.88
633.893	190.88
634.099	187.88
634.305	198.88
634.511	190.88
634.717	194.88
634.923	175.88
635.129	187.88
635.335	197.88
635.541	189.88
635.747	182.88
635.952	200.88
636.158	199.88
636.364	197.88
636.57	188.88
636.775	181.88
636.981	182.88
637.187	207.88
637.392	188.88
637.598	188.88
637.804	187.88
638.009	191.88
638.215	207.88
638.421	185.88
638.626	188.88
638.832	167.88
639.037	185.88
639.243	190.88
639.448	188.88
639.654	187.88
639.859	177.88
640.065	181.88
640.27	186.88
640.475	177.88
640.681	187.88
640.886	170.88
641.091	178.88
641.297	182.88
641.502	183.88
641.707	182.88
641.913	177.88
642.118	178.88
642.323	170.88
642.528	179.88
642.733	175.88
642.939	181.88
643.144	179.88
643.349	172.88
643.554	157.88
643.759	159.88
643.964	167.88
644.169	178.88
644.374	168.88
644.579	177.88
644.784	177.88
644.989	176.88
645.194	170.88
645.399	166.88
645.604	165.88
645.809	181.88
646.014	155.88
646.219	175.88
646.423	172.88
646.628	172.88
646.833	176.88
647.038	160.88
647.243	178.88
647.447	167.88
647.652	163.88
647.857	169.88
648.062	162.88
648.266	176.88
648.471	195.88
648.676	183.88
648.88	167.88
649.085	174.88
649.289	170.88
649.494	189.88
649.698	195.88
649.903	207.88
650.107	197.88
650.312	178.88
650.516	172.88
650.721	172.88
650.925	163.88
651.13	160.88
651.334	166.88
651.539	156.88
651.743	154.88
651.947	144.88
652.152	151.88
652.356	155.88
652.56	154.88
652.764	153.88
652.969	148.88
653.173	147.88
653.377	147.88
653.581	138.88
653.785	143.88
653.99	149.88
654.194	136.88
654.398	141.88
654.602	147.88
654.806	133.88
655.01	143.88
655.214	137.88
655.418	135.88
655.622	145.88
655.826	144.88
656.03	137.88
656.234	140.88
656.438	139.88
656.642	133.88
656.846	153.88
657.049	136.88
657.253	126.88
657.457	128.88
657.661	112.88
657.865	111.88
658.068	110.88
658.272	122.88
658.476	116.88
658.68	107.88
658.883	119.88
659.087	106.88
659.291	111.88
659.494	99.88
659.698	98.88
659.901	104.88
660.105	96.88
660.309	100.88
660.512	96.88
660.716	92.88
660.919	102.88
661.123	83.88
661.326	85.88
661.53	66.88
661.733	109.88
661.936	79.88
662.14	83.88
662.343	94.88
662.546	95.88
662.75	82.88
662.953	88.88
663.156	87.88
663.36	98.88
663.563	85.88
663.766	73.88
663.969	81.88
664.173	83.88
664.376	77.88
664.579	81.88
664.782	92.88
664.985	88.88
665.188	88.88
665.391	74.88
665.594	83.88
665.797	70.88
666	77.88
666.203	77.88
666.406	89.88
666.609	84.88
666.812	93.88
667.015	82.88
667.218	75.88
667.421	88.88
667.624	82.88
667.827	67.88
668.03	87.88
668.232	73.88
668.435	84.88
668.638	79.88
668.841	70.88
669.043	54.88
669.246	78.88
669.449	77.88
669.651	83.88
669.854	77.88
670.057	89.88
670.259	74.88
670.462	89.88
670.665	84.88
670.867	77.88
671.07	74.88
671.272	92.88
671.475	87.88
671.677	88.88
671.88	80.88
672.082	78.88
672.284	77.88
672.487	80.88
672.689	74.88
672.892	87.88
