Data from 1976.PennyLincolnUp.Lamp.En5.5.200Scan.071719.P1.Changed Mount._HRD10591_16-02-11-862.txt Node
Date: Thu Jul 18 16:02:11 EDT 2019
User: cochatt
Spectrometer: HR+D1059
Trigger mode: 1
Integration Time (sec): 1.000000E-1
Scans to average: 1
Electric dark correction enabled: true
Nonlinearity correction enabled: false
Boxcar width: 0
XAxis mode: Wavelengths
Number of Pixels in Spectrum: 2048
>>>>>Begin Spectral Data<<<<<
223.165	-21.31
223.4	-21.31
223.635	-21.31
223.869	-15.31
224.104	-12.31
224.338	-8.31
224.573	-4.31
224.808	-15.31
225.042	-9.31
225.277	-8.31
225.511	-4.31
225.746	-1.31
225.98	4.69
226.215	9.69
226.449	11.69
226.683	15.69
226.918	37.69
227.152	20.69
227.387	29.69
227.621	37.69
227.856	46.69
228.09	46.69
228.324	49.69
228.559	64.69
228.793	54.69
229.027	77.69
229.262	112.69
229.496	118.69
229.73	124.69
229.964	157.69
230.199	124.69
230.433	121.69
230.667	118.69
230.901	122.69
231.136	120.69
231.37	111.69
231.604	124.69
231.838	118.69
232.072	105.69
232.306	111.69
232.541	106.69
232.775	115.69
233.009	114.69
233.243	121.69
233.477	123.69
233.711	116.69
233.945	128.69
234.179	131.69
234.413	127.69
234.647	130.69
234.881	138.69
235.115	127.69
235.349	126.69
235.583	115.69
235.817	112.69
236.051	105.69
236.285	130.69
236.519	110.69
236.753	140.69
236.987	149.69
237.221	186.69
237.455	230.69
237.689	183.69
237.922	157.69
238.156	133.69
238.39	125.69
238.624	130.69
238.858	131.69
239.091	119.69
239.325	109.69
239.559	124.69
239.793	143.69
240.027	134.69
240.26	146.69
240.494	164.69
240.728	162.69
240.961	156.69
241.195	150.69
241.429	139.69
241.662	134.69
241.896	135.69
242.13	139.69
242.363	142.69
242.597	123.69
242.83	154.69
243.064	145.69
243.298	154.69
243.531	148.69
243.765	131.69
243.998	149.69
244.232	136.69
244.465	132.69
244.699	150.69
244.932	154.69
245.166	157.69
245.399	148.69
245.633	162.69
245.866	150.69
246.099	135.69
246.333	154.69
246.566	159.69
246.8	173.69
247.033	152.69
247.266	156.69
247.5	158.69
247.733	169.69
247.966	189.69
248.2	178.69
248.433	172.69
248.666	180.69
248.899	179.69
249.133	214.69
249.366	204.69
249.599	206.69
249.832	189.69
250.066	194.69
250.299	180.69
250.532	194.69
250.765	211.69
250.998	219.69
251.231	242.69
251.465	219.69
251.698	217.69
251.931	192.69
252.164	207.69
252.397	213.69
252.63	202.69
252.863	215.69
253.096	228.69
253.329	218.69
253.562	228.69
253.795	225.69
254.028	238.69
254.261	239.69
254.494	233.69
254.727	255.69
254.96	282.69
255.193	276.69
255.426	259.69
255.659	248.69
255.892	233.69
256.124	230.69
256.357	244.69
256.59	226.69
256.823	225.69
257.056	225.69
257.289	213.69
257.521	205.69
257.754	211.69
257.987	217.69
258.22	229.69
258.452	223.69
258.685	220.69
258.918	227.69
259.151	207.69
259.383	218.69
259.616	239.69
259.849	217.69
260.081	242.69
260.314	255.69
260.547	261.69
260.779	252.69
261.012	258.69
261.244	235.69
261.477	234.69
261.71	221.69
261.942	238.69
262.175	236.69
262.407	250.69
262.64	233.69
262.872	225.69
263.105	229.69
263.337	218.69
263.57	234.69
263.802	224.69
264.035	207.69
264.267	221.69
264.499	221.69
264.732	217.69
264.964	229.69
265.197	231.69
265.429	223.69
265.661	236.69
265.894	209.69
266.126	240.69
266.358	240.69
266.591	240.69
266.823	260.69
267.055	223.69
267.287	239.69
267.52	244.69
267.752	245.69
267.984	260.69
268.216	238.69
268.448	246.69
268.681	246.69
268.913	269.69
269.145	267.69
269.377	293.69
269.609	267.69
269.841	294.69
270.073	296.69
270.306	314.69
270.538	335.69
270.77	335.69
271.002	317.69
271.234	320.69
271.466	317.69
271.698	335.69
271.93	317.69
272.162	327.69
272.394	331.69
272.626	300.69
272.858	326.69
273.09	300.69
273.322	280.69
273.553	286.69
273.785	269.69
274.017	285.69
274.249	282.69
274.481	297.69
274.713	263.69
274.945	281.69
275.176	279.69
275.408	294.69
275.64	284.69
275.872	288.69
276.104	293.69
276.335	285.69
276.567	274.69
276.799	294.69
277.031	317.69
277.262	338.69
277.494	328.69
277.726	336.69
277.957	311.69
278.189	286.69
278.421	291.69
278.652	299.69
278.884	286.69
279.115	280.69
279.347	298.69
279.579	294.69
279.81	310.69
280.042	282.69
280.273	301.69
280.505	285.69
280.736	307.69
280.968	290.69
281.199	293.69
281.431	297.69
281.662	304.69
281.894	284.69
282.125	292.69
282.356	322.69
282.588	343.69
282.819	326.69
283.051	296.69
283.282	294.69
283.513	287.69
283.745	285.69
283.976	306.69
284.207	308.69
284.439	305.69
284.67	306.69
284.901	325.69
285.132	291.69
285.364	296.69
285.595	287.69
285.826	301.69
286.057	289.69
286.288	316.69
286.52	297.69
286.751	312.69
286.982	327.69
287.213	316.69
287.444	312.69
287.675	295.69
287.906	322.69
288.138	326.69
288.369	320.69
288.6	330.69
288.831	332.69
289.062	333.69
289.293	317.69
289.524	306.69
289.755	323.69
289.986	325.69
290.217	318.69
290.448	318.69
290.679	327.69
290.91	303.69
291.141	332.69
291.371	342.69
291.602	322.69
291.833	311.69
292.064	328.69
292.295	313.69
292.526	317.69
292.757	316.69
292.987	324.69
293.218	308.69
293.449	330.69
293.68	314.69
293.91	318.69
294.141	341.69
294.372	310.69
294.603	317.69
294.833	333.69
295.064	325.69
295.295	315.69
295.525	329.69
295.756	329.69
295.987	336.69
296.217	340.69
296.448	347.69
296.679	332.69
296.909	339.69
297.14	327.69
297.37	336.69
297.601	353.69
297.831	333.69
298.062	315.69
298.292	343.69
298.523	344.69
298.753	349.69
298.984	337.69
299.214	346.69
299.445	323.69
299.675	331.69
299.905	329.69
300.136	318.69
300.366	336.69
300.597	358.69
300.827	342.69
301.057	362.69
301.288	356.69
301.518	333.69
301.748	355.69
301.979	347.69
302.209	362.69
302.439	353.69
302.669	359.69
302.9	354.69
303.13	357.69
303.36	364.69
303.59	386.69
303.82	374.69
304.051	378.69
304.281	368.69
304.511	390.69
304.741	370.69
304.971	379.69
305.201	372.69
305.431	349.69
305.661	365.69
305.891	364.69
306.121	368.69
306.352	355.69
306.582	365.69
306.812	355.69
307.042	367.69
307.272	375.69
307.502	349.69
307.731	347.69
307.961	364.69
308.191	354.69
308.421	343.69
308.651	361.69
308.881	358.69
309.111	379.69
309.341	374.69
309.571	373.69
309.8	391.69
310.03	409.69
310.26	386.69
310.49	380.69
310.72	390.69
310.949	412.69
311.179	402.69
311.409	396.69
311.639	400.69
311.868	416.69
312.098	399.69
312.328	411.69
312.557	424.69
312.787	423.69
313.017	416.69
313.246	415.69
313.476	388.69
313.706	398.69
313.935	380.69
314.165	422.69
314.394	410.69
314.624	425.69
314.853	387.69
315.083	418.69
315.312	416.69
315.542	385.69
315.771	400.69
316.001	407.69
316.23	395.69
316.46	398.69
316.689	402.69
316.919	444.69
317.148	409.69
317.377	420.69
317.607	406.69
317.836	408.69
318.065	409.69
318.295	403.69
318.524	406.69
318.753	403.69
318.983	410.69
319.212	414.69
319.441	421.69
319.67	414.69
319.9	403.69
320.129	382.69
320.358	397.69
320.587	411.69
320.816	400.69
321.046	406.69
321.275	421.69
321.504	421.69
321.733	446.69
321.962	422.69
322.191	434.69
322.42	426.69
322.649	455.69
322.878	452.69
323.108	478.69
323.337	491.69
323.566	510.69
323.795	515.69
324.024	553.69
324.253	650.69
324.482	911.69
324.71	1408.69
324.939	2046.69
325.168	1778.69
325.397	913.69
325.626	658.69
325.855	531.69
326.084	512.69
326.313	505.69
326.542	491.69
326.77	538.69
326.999	627.69
327.228	845.69
327.457	1238.69
327.686	1554.69
327.914	1032.69
328.143	700.69
328.372	616.69
328.6	563.69
328.829	565.69
329.058	565.69
329.287	572.69
329.515	546.69
329.744	546.69
329.972	532.69
330.201	548.69
330.43	539.69
330.658	590.69
330.887	598.69
331.115	581.69
331.344	553.69
331.572	516.69
331.801	493.69
332.03	526.69
332.258	487.69
332.486	498.69
332.715	479.69
332.943	500.69
333.172	488.69
333.4	510.69
333.629	519.69
333.857	514.69
334.085	538.69
334.314	544.69
334.542	562.69
334.771	586.69
334.999	528.69
335.227	505.69
335.455	531.69
335.684	522.69
335.912	504.69
336.14	480.69
336.369	484.69
336.597	501.69
336.825	495.69
337.053	475.69
337.281	488.69
337.51	477.69
337.738	473.69
337.966	475.69
338.194	474.69
338.422	473.69
338.65	487.69
338.878	462.69
339.106	460.69
339.334	461.69
339.562	470.69
339.79	430.69
340.018	468.69
340.246	453.69
340.474	466.69
340.702	459.69
340.93	475.69
341.158	470.69
341.386	480.69
341.614	456.69
341.842	466.69
342.07	462.69
342.298	441.69
342.526	438.69
342.754	442.69
342.981	467.69
343.209	447.69
343.437	435.69
343.665	449.69
343.893	479.69
344.12	502.69
344.348	503.69
344.576	491.69
344.804	495.69
345.031	474.69
345.259	475.69
345.487	460.69
345.714	459.69
345.942	466.69
346.17	451.69
346.397	439.69
346.625	436.69
346.853	467.69
347.08	440.69
347.308	459.69
347.535	463.69
347.763	453.69
347.99	455.69
348.218	440.69
348.445	455.69
348.673	442.69
348.9	440.69
349.128	437.69
349.355	429.69
349.583	427.69
349.81	416.69
350.037	434.69
350.265	432.69
350.492	442.69
350.72	431.69
350.947	433.69
351.174	437.69
351.402	447.69
351.629	444.69
351.856	452.69
352.083	436.69
352.311	426.69
352.538	451.69
352.765	444.69
352.992	454.69
353.22	444.69
353.447	447.69
353.674	448.69
353.901	410.69
354.128	421.69
354.355	396.69
354.583	412.69
354.81	422.69
355.037	418.69
355.264	405.69
355.491	432.69
355.718	429.69
355.945	417.69
356.172	435.69
356.399	396.69
356.626	413.69
356.853	418.69
357.08	404.69
357.307	416.69
357.534	441.69
357.761	417.69
357.988	418.69
358.215	408.69
358.441	406.69
358.668	419.69
358.895	434.69
359.122	426.69
359.349	412.69
359.576	427.69
359.802	469.69
360.029	480.69
360.256	488.69
360.483	447.69
360.709	440.69
360.936	432.69
361.163	430.69
361.39	422.69
361.616	435.69
361.843	435.69
362.07	421.69
362.296	438.69
362.523	435.69
362.749	446.69
362.976	430.69
363.203	434.69
363.429	417.69
363.656	411.69
363.882	425.69
364.109	431.69
364.335	419.69
364.562	421.69
364.788	419.69
365.015	454.69
365.241	408.69
365.468	400.69
365.694	425.69
365.92	438.69
366.147	424.69
366.373	405.69
366.599	442.69
366.826	423.69
367.052	404.69
367.278	412.69
367.505	427.69
367.731	431.69
367.957	429.69
368.184	411.69
368.41	432.69
368.636	429.69
368.862	428.69
369.089	425.69
369.315	431.69
369.541	423.69
369.767	437.69
369.993	433.69
370.219	431.69
370.445	440.69
370.672	423.69
370.898	417.69
371.124	426.69
371.35	446.69
371.576	429.69
371.802	427.69
372.028	419.69
372.254	436.69
372.48	416.69
372.706	432.69
372.932	429.69
373.158	421.69
373.384	436.69
373.61	412.69
373.835	444.69
374.061	427.69
374.287	427.69
374.513	459.69
374.739	454.69
374.965	431.69
375.191	452.69
375.416	448.69
375.642	417.69
375.868	440.69
376.094	428.69
376.319	410.69
376.545	428.69
376.771	411.69
376.997	417.69
377.222	424.69
377.448	438.69
377.674	436.69
377.899	420.69
378.125	421.69
378.35	430.69
378.576	416.69
378.802	438.69
379.027	442.69
379.253	443.69
379.478	430.69
379.704	422.69
379.929	426.69
380.155	410.69
380.38	437.69
380.606	447.69
380.831	425.69
381.057	426.69
381.282	432.69
381.507	419.69
381.733	438.69
381.958	436.69
382.184	428.69
382.409	444.69
382.634	459.69
382.86	436.69
383.085	461.69
383.31	470.69
383.535	441.69
383.761	442.69
383.986	442.69
384.211	450.69
384.436	454.69
384.662	471.69
384.887	460.69
385.112	468.69
385.337	468.69
385.562	468.69
385.787	465.69
386.013	477.69
386.238	489.69
386.463	487.69
386.688	464.69
386.913	457.69
387.138	476.69
387.363	466.69
387.588	495.69
387.813	492.69
388.038	478.69
388.263	468.69
388.488	464.69
388.713	488.69
388.938	502.69
389.163	462.69
389.387	476.69
389.612	471.69
389.837	460.69
390.062	480.69
390.287	471.69
390.512	443.69
390.736	479.69
390.961	485.69
391.186	479.69
391.411	484.69
391.636	479.69
391.86	509.69
392.085	520.69
392.31	502.69
392.534	487.69
392.759	478.69
392.984	464.69
393.208	479.69
393.433	484.69
393.658	482.69
393.882	484.69
394.107	495.69
394.331	492.69
394.556	483.69
394.78	503.69
395.005	501.69
395.229	481.69
395.454	514.69
395.678	484.69
395.903	506.69
396.127	507.69
396.352	543.69
396.576	524.69
396.801	507.69
397.025	520.69
397.249	505.69
397.474	515.69
397.698	513.69
397.922	551.69
398.147	536.69
398.371	534.69
398.595	546.69
398.82	534.69
399.044	566.69
399.268	601.69
399.492	629.69
399.717	669.69
399.941	695.69
400.165	694.69
400.389	687.69
400.613	648.69
400.837	602.69
401.062	566.69
401.286	566.69
401.51	550.69
401.734	552.69
401.958	580.69
402.182	572.69
402.406	582.69
402.63	558.69
402.854	556.69
403.078	581.69
403.302	583.69
403.526	591.69
403.75	590.69
403.974	552.69
404.198	593.69
404.422	604.69
404.645	600.69
404.869	591.69
405.093	626.69
405.317	667.69
405.541	701.69
405.765	643.69
405.988	599.69
406.212	588.69
406.436	627.69
406.66	662.69
406.883	622.69
407.107	648.69
407.331	677.69
407.555	756.69
407.778	774.69
408.002	690.69
408.226	650.69
408.449	653.69
408.673	605.69
408.896	660.69
409.12	708.69
409.344	650.69
409.567	600.69
409.791	582.69
410.014	605.69
410.238	572.69
410.461	605.69
410.685	587.69
410.908	590.69
411.132	630.69
411.355	677.69
411.578	619.69
411.802	598.69
412.025	564.69
412.249	574.69
412.472	611.69
412.695	636.69
412.919	634.69
413.142	597.69
413.365	598.69
413.589	587.69
413.812	565.69
414.035	560.69
414.258	570.69
414.482	527.69
414.705	564.69
414.928	520.69
415.151	559.69
415.374	544.69
415.597	515.69
415.821	537.69
416.044	522.69
416.267	549.69
416.49	557.69
416.713	533.69
416.936	535.69
417.159	534.69
417.382	540.69
417.605	539.69
417.828	564.69
418.051	572.69
418.274	554.69
418.497	540.69
418.72	562.69
418.943	536.69
419.166	577.69
419.389	574.69
419.611	587.69
419.834	571.69
420.057	568.69
420.28	578.69
420.503	588.69
420.726	557.69
420.948	566.69
421.171	642.69
421.394	668.69
421.617	590.69
421.839	572.69
422.062	575.69
422.285	585.69
422.507	660.69
422.73	717.69
422.953	696.69
423.175	623.69
423.398	599.69
423.621	588.69
423.843	608.69
424.066	630.69
424.288	610.69
424.511	628.69
424.733	670.69
424.956	746.69
425.178	710.69
425.401	703.69
425.623	762.69
425.846	657.69
426.068	593.69
426.291	589.69
426.513	607.69
426.735	610.69
426.958	646.69
427.18	726.69
427.402	855.69
427.625	947.69
427.847	805.69
428.069	717.69
428.292	653.69
428.514	611.69
428.736	587.69
428.958	580.69
429.181	559.69
429.403	562.69
429.625	565.69
429.847	620.69
430.069	674.69
430.292	652.69
430.514	570.69
430.736	550.69
430.958	550.69
431.18	537.69
431.402	525.69
431.624	495.69
431.846	511.69
432.068	515.69
432.29	546.69
432.512	516.69
432.734	521.69
432.956	524.69
433.178	523.69
433.4	535.69
433.622	547.69
433.844	518.69
434.066	533.69
434.287	518.69
434.509	540.69
434.731	538.69
434.953	555.69
435.175	544.69
435.397	586.69
435.618	597.69
435.84	634.69
436.062	733.69
436.284	800.69
436.505	674.69
436.727	592.69
436.949	579.69
437.17	562.69
437.392	534.69
437.614	563.69
437.835	600.69
438.057	667.69
438.278	807.69
438.5	803.69
438.721	864.69
438.943	846.69
439.165	683.69
439.386	605.69
439.608	597.69
439.829	601.69
440.05	612.69
440.272	684.69
440.493	618.69
440.715	574.69
440.936	558.69
441.158	564.69
441.379	532.69
441.6	595.69
441.822	566.69
442.043	638.69
442.264	720.69
442.486	782.69
442.707	663.69
442.928	617.69
443.149	620.69
443.371	617.69
443.592	677.69
443.813	792.69
444.034	842.69
444.255	686.69
444.476	634.69
444.698	627.69
444.919	623.69
445.14	693.69
445.361	672.69
445.582	632.69
445.803	692.69
446.024	785.69
446.245	820.69
446.466	772.69
446.687	645.69
446.908	596.69
447.129	565.69
447.35	552.69
447.571	546.69
447.792	540.69
448.013	543.69
448.234	555.69
448.455	598.69
448.675	717.69
448.896	836.69
449.117	703.69
449.338	678.69
449.559	798.69
449.779	918.69
450	710.69
450.221	590.69
450.442	568.69
450.662	536.69
450.883	537.69
451.104	564.69
451.324	541.69
451.545	518.69
451.766	477.69
451.986	504.69
452.207	492.69
452.428	504.69
452.648	483.69
452.869	490.69
453.089	489.69
453.31	514.69
453.53	487.69
453.751	498.69
453.971	498.69
454.192	491.69
454.412	518.69
454.633	464.69
454.853	462.69
455.073	464.69
455.294	499.69
455.514	579.69
455.734	575.69
455.955	479.69
456.175	465.69
456.395	456.69
456.616	468.69
456.836	468.69
457.056	454.69
457.276	454.69
457.497	455.69
457.717	455.69
457.937	444.69
458.157	462.69
458.377	487.69
458.598	489.69
458.818	557.69
459.038	618.69
459.258	662.69
459.478	573.69
459.698	527.69
459.918	519.69
460.138	523.69
460.358	526.69
460.578	540.69
460.798	535.69
461.018	551.69
461.238	543.69
461.458	532.69
461.678	544.69
461.898	544.69
462.118	531.69
462.338	551.69
462.558	587.69
462.777	587.69
462.997	593.69
463.217	602.69
463.437	624.69
463.657	596.69
463.876	594.69
464.096	603.69
464.316	592.69
464.536	600.69
464.755	572.69
464.975	594.69
465.195	597.69
465.414	654.69
465.634	588.69
465.854	554.69
466.073	536.69
466.293	522.69
466.512	506.69
466.732	504.69
466.951	512.69
467.171	495.69
467.391	474.69
467.61	529.69
467.829	527.69
468.049	492.69
468.268	511.69
468.488	483.69
468.707	488.69
468.927	486.69
469.146	485.69
469.365	478.69
469.585	475.69
469.804	470.69
470.023	509.69
470.243	532.69
470.462	523.69
470.681	543.69
470.901	536.69
471.12	526.69
471.339	519.69
471.558	523.69
471.777	498.69
471.997	507.69
472.216	526.69
472.435	542.69
472.654	518.69
472.873	494.69
473.092	495.69
473.311	515.69
473.53	495.69
473.749	518.69
473.968	552.69
474.187	639.69
474.406	681.69
474.625	574.69
474.844	516.69
475.063	529.69
475.282	524.69
475.501	488.69
475.72	526.69
475.939	504.69
476.158	517.69
476.377	532.69
476.596	521.69
476.814	527.69
477.033	538.69
477.252	532.69
477.471	548.69
477.69	539.69
477.908	562.69
478.127	578.69
478.346	558.69
478.564	574.69
478.783	553.69
479.002	587.69
479.22	597.69
479.439	624.69
479.658	607.69
479.876	610.69
480.095	628.69
480.313	659.69
480.532	636.69
480.751	631.69
480.969	614.69
481.188	671.69
481.406	690.69
481.624	646.69
481.843	622.69
482.061	590.69
482.28	597.69
482.498	610.69
482.717	591.69
482.935	578.69
483.153	574.69
483.372	607.69
483.59	570.69
483.808	574.69
484.027	608.69
484.245	596.69
484.463	580.69
484.681	594.69
484.9	602.69
485.118	614.69
485.336	591.69
485.554	625.69
485.772	606.69
485.99	600.69
486.209	600.69
486.427	598.69
486.645	641.69
486.863	631.69
487.081	630.69
487.299	630.69
487.517	617.69
487.735	634.69
487.953	637.69
488.171	626.69
488.389	637.69
488.607	642.69
488.825	634.69
489.043	641.69
489.261	630.69
489.479	636.69
489.696	659.69
489.914	638.69
490.132	644.69
490.35	659.69
490.568	681.69
490.786	702.69
491.003	692.69
491.221	731.69
491.439	717.69
491.657	727.69
491.874	702.69
492.092	738.69
492.31	735.69
492.527	717.69
492.745	728.69
492.963	709.69
493.18	714.69
493.398	743.69
493.615	744.69
493.833	771.69
494.05	714.69
494.268	748.69
494.485	736.69
494.703	731.69
494.92	722.69
495.138	751.69
495.355	772.69
495.573	763.69
495.79	749.69
496.008	734.69
496.225	732.69
496.442	741.69
496.66	726.69
496.877	738.69
497.094	763.69
497.312	795.69
497.529	762.69
497.746	774.69
497.963	804.69
498.181	843.69
498.398	842.69
498.615	859.69
498.832	896.69
499.049	918.69
499.267	909.69
499.484	980.69
499.701	992.69
499.918	1035.69
500.135	1120.69
500.352	1190.69
500.569	1194.69
500.786	1196.69
501.003	1210.69
501.22	1149.69
501.437	1084.69
501.654	1012.69
501.871	1015.69
502.088	954.69
502.305	911.69
502.522	882.69
502.739	854.69
502.956	837.69
503.172	815.69
503.389	772.69
503.606	796.69
503.823	785.69
504.04	773.69
504.256	772.69
504.473	736.69
504.69	769.69
504.907	778.69
505.123	731.69
505.34	736.69
505.557	723.69
505.773	717.69
505.99	716.69
506.207	685.69
506.423	712.69
506.64	698.69
506.856	676.69
507.073	719.69
507.289	669.69
507.506	686.69
507.722	702.69
507.939	679.69
508.155	701.69
508.372	665.69
508.588	668.69
508.805	679.69
509.021	662.69
509.238	672.69
509.454	672.69
509.67	659.69
509.887	656.69
510.103	676.69
510.319	666.69
510.536	729.69
510.752	1093.69
510.968	912.69
511.184	658.69
511.401	642.69
511.617	640.69
511.833	629.69
512.049	647.69
512.265	615.69
512.481	618.69
512.698	621.69
512.914	610.69
513.13	616.69
513.346	627.69
513.562	606.69
513.778	618.69
513.994	626.69
514.21	628.69
514.426	657.69
514.642	688.69
514.858	685.69
515.074	720.69
515.29	803.69
515.506	1070.69
515.721	937.69
515.937	717.69
516.153	683.69
516.369	678.69
516.585	688.69
516.801	669.69
517.016	652.69
517.232	632.69
517.448	662.69
517.664	668.69
517.879	674.69
518.095	672.69
518.311	679.69
518.527	668.69
518.742	633.69
518.958	646.69
519.173	640.69
519.389	635.69
519.605	640.69
519.82	623.69
520.036	638.69
520.251	652.69
520.467	667.69
520.682	638.69
520.898	650.69
521.113	658.69
521.329	700.69
521.544	741.69
521.76	896.69
521.975	1355.69
522.19	1352.69
522.406	809.69
522.621	690.69
522.836	616.69
523.052	602.69
523.267	591.69
523.482	574.69
523.698	568.69
523.913	547.69
524.128	560.69
524.343	582.69
524.559	552.69
524.774	539.69
524.989	574.69
525.204	554.69
525.419	548.69
525.634	537.69
525.849	526.69
526.064	524.69
526.28	520.69
526.495	513.69
526.71	525.69
526.925	519.69
527.14	526.69
527.355	516.69
527.57	524.69
527.785	516.69
527.999	525.69
528.214	520.69
528.429	521.69
528.644	522.69
528.859	510.69
529.074	508.69
529.289	551.69
529.503	592.69
529.718	580.69
529.933	571.69
530.148	536.69
530.363	521.69
530.577	498.69
530.792	521.69
531.007	506.69
531.221	499.69
531.436	512.69
531.651	517.69
531.865	508.69
532.08	504.69
532.295	479.69
532.509	486.69
532.724	522.69
532.938	507.69
533.153	490.69
533.367	504.69
533.582	516.69
533.796	526.69
534.011	506.69
534.225	476.69
534.44	486.69
534.654	482.69
534.868	471.69
535.083	480.69
535.297	472.69
535.511	512.69
535.726	512.69
535.94	502.69
536.154	496.69
536.369	475.69
536.583	504.69
536.797	486.69
537.011	490.69
537.225	476.69
537.44	484.69
537.654	444.69
537.868	483.69
538.082	498.69
538.296	493.69
538.51	486.69
538.724	477.69
538.938	473.69
539.153	484.69
539.367	498.69
539.581	479.69
539.795	473.69
540.009	453.69
540.222	474.69
540.436	498.69
540.65	486.69
540.864	491.69
541.078	499.69
541.292	485.69
541.506	460.69
541.72	476.69
541.934	493.69
542.147	486.69
542.361	479.69
542.575	458.69
542.789	475.69
543.002	480.69
543.216	483.69
543.43	496.69
543.644	489.69
543.857	450.69
544.071	504.69
544.285	484.69
544.498	480.69
544.712	470.69
544.925	487.69
545.139	487.69
545.352	465.69
545.566	493.69
545.779	479.69
545.993	492.69
546.206	478.69
546.42	467.69
546.633	480.69
546.847	477.69
547.06	470.69
547.274	475.69
547.487	468.69
547.7	454.69
547.914	468.69
548.127	452.69
548.34	464.69
548.554	485.69
548.767	467.69
548.98	461.69
549.193	459.69
549.407	481.69
549.62	439.69
549.833	466.69
550.046	462.69
550.259	462.69
550.473	452.69
550.686	457.69
550.899	444.69
551.112	446.69
551.325	464.69
551.538	453.69
551.751	469.69
551.964	464.69
552.177	450.69
552.39	445.69
552.603	459.69
552.816	470.69
553.029	468.69
553.242	495.69
553.455	492.69
553.667	488.69
553.88	492.69
554.093	456.69
554.306	480.69
554.519	494.69
554.732	461.69
554.944	451.69
555.157	444.69
555.37	456.69
555.583	454.69
555.795	426.69
556.008	417.69
556.221	407.69
556.433	426.69
556.646	417.69
556.859	400.69
557.071	429.69
557.284	415.69
557.496	431.69
557.709	432.69
557.921	415.69
558.134	417.69
558.346	407.69
558.559	404.69
558.771	413.69
558.984	416.69
559.196	407.69
559.409	416.69
559.621	400.69
559.833	416.69
560.046	410.69
560.258	407.69
560.47	418.69
560.683	428.69
560.895	399.69
561.107	401.69
561.32	412.69
561.532	423.69
561.744	407.69
561.956	401.69
562.168	409.69
562.381	420.69
562.593	413.69
562.805	422.69
563.017	407.69
563.229	425.69
563.441	411.69
563.653	431.69
563.865	430.69
564.077	412.69
564.289	415.69
564.501	414.69
564.713	418.69
564.925	440.69
565.137	445.69
565.349	446.69
565.561	456.69
565.773	468.69
565.985	482.69
566.197	481.69
566.408	488.69
566.62	534.69
566.832	532.69
567.044	554.69
567.255	546.69
567.467	532.69
567.679	559.69
567.891	590.69
568.102	572.69
568.314	556.69
568.526	530.69
568.737	525.69
568.949	494.69
569.161	461.69
569.372	462.69
569.584	453.69
569.795	412.69
570.007	438.69
570.218	451.69
570.43	443.69
570.641	422.69
570.853	424.69
571.064	418.69
571.276	405.69
571.487	426.69
571.698	430.69
571.91	394.69
572.121	383.69
572.333	381.69
572.544	391.69
572.755	378.69
572.966	373.69
573.178	341.69
573.389	368.69
573.6	359.69
573.811	361.69
574.023	368.69
574.234	362.69
574.445	339.69
574.656	354.69
574.867	348.69
575.078	359.69
575.289	348.69
575.501	339.69
575.712	338.69
575.923	337.69
576.134	361.69
576.345	358.69
576.556	351.69
576.767	364.69
576.978	352.69
577.188	355.69
577.399	336.69
577.61	339.69
577.821	338.69
578.032	342.69
578.243	385.69
578.454	508.69
578.665	423.69
578.875	364.69
579.086	343.69
579.297	344.69
579.508	328.69
579.718	341.69
579.929	322.69
580.14	343.69
580.35	326.69
580.561	343.69
580.772	327.69
580.982	330.69
581.193	324.69
581.403	318.69
581.614	324.69
581.825	316.69
582.035	306.69
582.246	315.69
582.456	321.69
582.667	310.69
582.877	309.69
583.087	323.69
583.298	317.69
583.508	318.69
583.719	320.69
583.929	333.69
584.139	309.69
584.35	312.69
584.56	308.69
584.77	288.69
584.981	308.69
585.191	308.69
585.401	308.69
585.611	306.69
585.821	336.69
586.032	317.69
586.242	316.69
586.452	310.69
586.662	302.69
586.872	301.69
587.082	316.69
587.292	324.69
587.502	319.69
587.713	316.69
587.923	312.69
588.133	320.69
588.343	303.69
588.553	303.69
588.762	303.69
588.972	310.69
589.182	299.69
589.392	301.69
589.602	300.69
589.812	301.69
590.022	296.69
590.232	307.69
590.441	295.69
590.651	309.69
590.861	302.69
591.071	299.69
591.281	326.69
591.49	337.69
591.7	321.69
591.91	330.69
592.119	322.69
592.329	327.69
592.539	334.69
592.748	340.69
592.958	339.69
593.167	332.69
593.377	336.69
593.587	347.69
593.796	344.69
594.006	346.69
594.215	328.69
594.424	322.69
594.634	344.69
594.843	335.69
595.053	343.69
595.262	326.69
595.472	322.69
595.681	315.69
595.89	313.69
596.1	299.69
596.309	303.69
596.518	294.69
596.727	292.69
596.937	294.69
597.146	291.69
597.355	304.69
597.564	271.69
597.774	283.69
597.983	271.69
598.192	287.69
598.401	309.69
598.61	296.69
598.819	269.69
599.028	270.69
599.237	271.69
599.446	269.69
599.655	284.69
599.864	282.69
600.073	272.69
600.282	292.69
600.491	283.69
600.7	272.69
600.909	287.69
601.118	269.69
601.327	278.69
601.536	281.69
601.745	286.69
601.953	279.69
602.162	280.69
602.371	274.69
602.58	272.69
602.789	264.69
602.997	274.69
603.206	270.69
603.415	276.69
603.623	255.69
603.832	254.69
604.041	257.69
604.249	271.69
604.458	263.69
604.666	266.69
604.875	278.69
605.084	271.69
605.292	272.69
605.501	251.69
605.709	251.69
605.918	267.69
606.126	243.69
606.334	234.69
606.543	269.69
606.751	256.69
606.96	269.69
607.168	249.69
607.376	255.69
607.585	272.69
607.793	250.69
608.001	249.69
608.21	269.69
608.418	270.69
608.626	240.69
608.834	251.69
609.043	260.69
609.251	283.69
609.459	251.69
609.667	251.69
609.875	248.69
610.083	259.69
610.291	266.69
610.499	265.69
610.707	250.69
610.916	250.69
611.124	270.69
611.332	263.69
611.54	286.69
611.748	248.69
611.955	260.69
612.163	272.69
612.371	255.69
612.579	244.69
612.787	238.69
612.995	250.69
613.203	260.69
613.411	251.69
613.618	238.69
613.826	231.69
614.034	235.69
614.242	236.69
614.449	246.69
614.657	246.69
614.865	265.69
615.072	263.69
615.28	247.69
615.488	225.69
615.695	235.69
615.903	260.69
616.111	258.69
616.318	267.69
616.526	268.69
616.733	261.69
616.941	244.69
617.148	251.69
617.356	248.69
617.563	238.69
617.771	265.69
617.978	239.69
618.185	262.69
618.393	247.69
618.6	263.69
618.807	248.69
619.015	244.69
619.222	236.69
619.429	247.69
619.637	243.69
619.844	233.69
620.051	238.69
620.258	228.69
620.466	242.69
620.673	228.69
620.88	216.69
621.087	219.69
621.294	235.69
621.501	238.69
621.708	233.69
621.915	231.69
622.122	246.69
622.329	255.69
622.536	241.69
622.743	231.69
622.95	224.69
623.157	221.69
623.364	232.69
623.571	228.69
623.778	228.69
623.985	243.69
624.192	241.69
624.399	226.69
624.606	226.69
624.812	215.69
625.019	223.69
625.226	219.69
625.433	228.69
625.639	208.69
625.846	225.69
626.053	220.69
626.259	219.69
626.466	216.69
626.673	232.69
626.879	221.69
627.086	202.69
627.293	206.69
627.499	190.69
627.706	224.69
627.912	223.69
628.119	216.69
628.325	214.69
628.532	212.69
628.738	222.69
628.945	229.69
629.151	203.69
629.357	194.69
629.564	216.69
629.77	227.69
629.976	211.69
630.183	206.69
630.389	203.69
630.595	220.69
630.802	220.69
631.008	216.69
631.214	193.69
631.42	217.69
631.627	208.69
631.833	212.69
632.039	192.69
632.245	212.69
632.451	205.69
632.657	196.69
632.863	203.69
633.069	197.69
633.275	188.69
633.481	191.69
633.688	204.69
633.893	204.69
634.099	178.69
634.305	190.69
634.511	189.69
634.717	186.69
634.923	180.69
635.129	173.69
635.335	187.69
635.541	191.69
635.747	187.69
635.952	189.69
636.158	195.69
636.364	186.69
636.57	191.69
636.775	188.69
636.981	198.69
637.187	186.69
637.392	194.69
637.598	186.69
637.804	196.69
638.009	190.69
638.215	200.69
638.421	187.69
638.626	176.69
638.832	182.69
639.037	189.69
639.243	190.69
639.448	192.69
639.654	208.69
639.859	169.69
640.065	175.69
640.27	176.69
640.475	163.69
640.681	173.69
640.886	192.69
641.091	181.69
641.297	171.69
641.502	182.69
641.707	185.69
641.913	180.69
642.118	175.69
642.323	179.69
642.528	159.69
642.733	170.69
642.939	174.69
643.144	178.69
643.349	156.69
643.554	173.69
643.759	177.69
643.964	162.69
644.169	167.69
644.374	173.69
644.579	176.69
644.784	170.69
644.989	179.69
645.194	180.69
645.399	177.69
645.604	173.69
645.809	182.69
646.014	175.69
646.219	163.69
646.423	178.69
646.628	180.69
646.833	177.69
647.038	167.69
647.243	180.69
647.447	181.69
647.652	178.69
647.857	176.69
648.062	163.69
648.266	178.69
648.471	180.69
648.676	181.69
648.88	184.69
649.085	170.69
649.289	148.69
649.494	168.69
649.698	204.69
649.903	188.69
650.107	168.69
650.312	180.69
650.516	172.69
650.721	153.69
650.925	160.69
651.13	168.69
651.334	151.69
651.539	163.69
651.743	144.69
651.947	166.69
652.152	165.69
652.356	154.69
652.56	141.69
652.764	143.69
652.969	142.69
653.173	154.69
653.377	154.69
653.581	146.69
653.785	139.69
653.99	161.69
654.194	168.69
654.398	128.69
654.602	128.69
654.806	140.69
655.01	139.69
655.214	143.69
655.418	152.69
655.622	131.69
655.826	122.69
656.03	127.69
656.234	148.69
656.438	152.69
656.642	152.69
656.846	143.69
657.049	136.69
657.253	138.69
657.457	135.69
657.661	108.69
657.865	116.69
658.068	130.69
658.272	117.69
658.476	115.69
658.68	90.69
658.883	106.69
659.087	106.69
659.291	108.69
659.494	97.69
659.698	109.69
659.901	82.69
660.105	87.69
660.309	87.69
660.512	116.69
660.716	100.69
660.919	97.69
661.123	85.69
661.326	102.69
661.53	94.69
661.733	93.69
661.936	96.69
662.14	97.69
662.343	97.69
662.546	97.69
662.75	90.69
662.953	88.69
663.156	87.69
663.36	86.69
663.563	90.69
663.766	90.69
663.969	75.69
664.173	90.69
664.376	94.69
664.579	93.69
664.782	81.69
664.985	98.69
665.188	86.69
665.391	81.69
665.594	84.69
665.797	84.69
666	89.69
666.203	84.69
666.406	76.69
666.609	88.69
666.812	100.69
667.015	79.69
667.218	86.69
667.421	83.69
667.624	70.69
667.827	94.69
668.03	82.69
668.232	70.69
668.435	75.69
668.638	93.69
668.841	93.69
669.043	96.69
669.246	76.69
669.449	90.69
669.651	96.69
669.854	81.69
670.057	90.69
670.259	78.69
670.462	91.69
670.665	80.69
670.867	78.69
671.07	84.69
671.272	100.69
671.475	94.69
671.677	95.69
671.88	98.69
672.082	77.69
672.284	78.69
672.487	92.69
672.689	99.69
672.892	95.69
