Data from 1976.PennyLincolnUp.Lamp.En5.5.200Scan.071719.P1.Changed Mount._HRD10591_16-00-23-861.txt Node
Date: Thu Jul 18 16:00:23 EDT 2019
User: cochatt
Spectrometer: HR+D1059
Trigger mode: 1
Integration Time (sec): 1.000000E-1
Scans to average: 1
Electric dark correction enabled: true
Nonlinearity correction enabled: false
Boxcar width: 0
XAxis mode: Wavelengths
Number of Pixels in Spectrum: 2048
>>>>>Begin Spectral Data<<<<<
223.165	-26.38
223.4	-26.38
223.635	-26.38
223.869	0.62
224.104	-32.38
224.338	-18.38
224.573	-16.38
224.808	-21.38
225.042	3.62
225.277	7.62
225.511	-11.38
225.746	13.62
225.98	2.62
226.215	8.62
226.449	21.62
226.683	19.62
226.918	18.62
227.152	29.62
227.387	45.62
227.621	38.62
227.856	39.62
228.09	47.62
228.324	39.62
228.559	57.62
228.793	68.62
229.027	80.62
229.262	101.62
229.496	102.62
229.73	122.62
229.964	155.62
230.199	140.62
230.433	114.62
230.667	106.62
230.901	99.62
231.136	99.62
231.37	111.62
231.604	108.62
231.838	105.62
232.072	112.62
232.306	118.62
232.541	107.62
232.775	103.62
233.009	112.62
233.243	111.62
233.477	105.62
233.711	107.62
233.945	107.62
234.179	124.62
234.413	121.62
234.647	127.62
234.881	116.62
235.115	114.62
235.349	115.62
235.583	126.62
235.817	125.62
236.051	125.62
236.285	146.62
236.519	135.62
236.753	123.62
236.987	140.62
237.221	190.62
237.455	220.62
237.689	165.62
237.922	121.62
238.156	117.62
238.39	133.62
238.624	128.62
238.858	127.62
239.091	126.62
239.325	123.62
239.559	114.62
239.793	124.62
240.027	128.62
240.26	136.62
240.494	155.62
240.728	145.62
240.961	137.62
241.195	157.62
241.429	127.62
241.662	129.62
241.896	131.62
242.13	135.62
242.363	137.62
242.597	126.62
242.83	154.62
243.064	127.62
243.298	136.62
243.531	148.62
243.765	147.62
243.998	126.62
244.232	125.62
244.465	131.62
244.699	145.62
244.932	139.62
245.166	141.62
245.399	148.62
245.633	148.62
245.866	150.62
246.099	137.62
246.333	147.62
246.566	157.62
246.8	140.62
247.033	142.62
247.266	153.62
247.5	157.62
247.733	171.62
247.966	162.62
248.2	171.62
248.433	160.62
248.666	179.62
248.899	179.62
249.133	209.62
249.366	201.62
249.599	199.62
249.832	171.62
250.066	175.62
250.299	174.62
250.532	193.62
250.765	201.62
250.998	210.62
251.231	214.62
251.465	200.62
251.698	209.62
251.931	208.62
252.164	191.62
252.397	209.62
252.63	197.62
252.863	197.62
253.096	214.62
253.329	219.62
253.562	230.62
253.795	222.62
254.028	212.62
254.261	220.62
254.494	218.62
254.727	256.62
254.96	255.62
255.193	242.62
255.426	236.62
255.659	221.62
255.892	224.62
256.124	225.62
256.357	235.62
256.59	225.62
256.823	221.62
257.056	202.62
257.289	206.62
257.521	206.62
257.754	211.62
257.987	212.62
258.22	218.62
258.452	196.62
258.685	203.62
258.918	217.62
259.151	200.62
259.383	226.62
259.616	219.62
259.849	233.62
260.081	234.62
260.314	241.62
260.547	262.62
260.779	259.62
261.012	236.62
261.244	219.62
261.477	219.62
261.71	232.62
261.942	216.62
262.175	209.62
262.407	233.62
262.64	216.62
262.872	213.62
263.105	213.62
263.337	218.62
263.57	224.62
263.802	205.62
264.035	231.62
264.267	221.62
264.499	221.62
264.732	223.62
264.964	214.62
265.197	226.62
265.429	231.62
265.661	228.62
265.894	211.62
266.126	218.62
266.358	217.62
266.591	200.62
266.823	232.62
267.055	225.62
267.287	207.62
267.52	239.62
267.752	233.62
267.984	234.62
268.216	224.62
268.448	244.62
268.681	242.62
268.913	234.62
269.145	273.62
269.377	269.62
269.609	267.62
269.841	271.62
270.073	255.62
270.306	287.62
270.538	311.62
270.77	316.62
271.002	303.62
271.234	291.62
271.466	290.62
271.698	303.62
271.93	316.62
272.162	312.62
272.394	310.62
272.626	307.62
272.858	288.62
273.09	263.62
273.322	282.62
273.553	280.62
273.785	258.62
274.017	272.62
274.249	275.62
274.481	276.62
274.713	267.62
274.945	263.62
275.176	262.62
275.408	270.62
275.64	262.62
275.872	247.62
276.104	286.62
276.335	274.62
276.567	256.62
276.799	286.62
277.031	309.62
277.262	315.62
277.494	309.62
277.726	290.62
277.957	281.62
278.189	273.62
278.421	282.62
278.652	282.62
278.884	266.62
279.115	267.62
279.347	267.62
279.579	267.62
279.81	276.62
280.042	284.62
280.273	263.62
280.505	276.62
280.736	270.62
280.968	289.62
281.199	298.62
281.431	283.62
281.662	270.62
281.894	282.62
282.125	273.62
282.356	284.62
282.588	293.62
282.819	307.62
283.051	288.62
283.282	277.62
283.513	308.62
283.745	288.62
283.976	291.62
284.207	305.62
284.439	301.62
284.67	285.62
284.901	294.62
285.132	303.62
285.364	298.62
285.595	285.62
285.826	290.62
286.057	297.62
286.288	303.62
286.52	292.62
286.751	283.62
286.982	293.62
287.213	309.62
287.444	319.62
287.675	303.62
287.906	308.62
288.138	326.62
288.369	317.62
288.6	300.62
288.831	301.62
289.062	299.62
289.293	293.62
289.524	313.62
289.755	300.62
289.986	288.62
290.217	288.62
290.448	297.62
290.679	308.62
290.91	289.62
291.141	306.62
291.371	305.62
291.602	308.62
291.833	311.62
292.064	313.62
292.295	312.62
292.526	305.62
292.757	285.62
292.987	300.62
293.218	309.62
293.449	327.62
293.68	312.62
293.91	294.62
294.141	308.62
294.372	300.62
294.603	305.62
294.833	312.62
295.064	322.62
295.295	323.62
295.525	308.62
295.756	305.62
295.987	311.62
296.217	316.62
296.448	338.62
296.679	298.62
296.909	303.62
297.14	292.62
297.37	296.62
297.601	326.62
297.831	331.62
298.062	324.62
298.292	315.62
298.523	314.62
298.753	315.62
298.984	320.62
299.214	319.62
299.445	344.62
299.675	338.62
299.905	327.62
300.136	322.62
300.366	291.62
300.597	321.62
300.827	339.62
301.057	350.62
301.288	336.62
301.518	339.62
301.748	345.62
301.979	345.62
302.209	335.62
302.439	340.62
302.669	343.62
302.9	348.62
303.13	332.62
303.36	347.62
303.59	336.62
303.82	360.62
304.051	348.62
304.281	322.62
304.511	340.62
304.741	344.62
304.971	362.62
305.201	331.62
305.431	337.62
305.661	345.62
305.891	328.62
306.121	348.62
306.352	345.62
306.582	360.62
306.812	332.62
307.042	335.62
307.272	332.62
307.502	322.62
307.731	342.62
307.961	345.62
308.191	340.62
308.421	335.62
308.651	342.62
308.881	354.62
309.111	357.62
309.341	329.62
309.571	352.62
309.8	351.62
310.03	347.62
310.26	373.62
310.49	376.62
310.72	382.62
310.949	391.62
311.179	407.62
311.409	381.62
311.639	372.62
311.868	392.62
312.098	374.62
312.328	380.62
312.557	393.62
312.787	403.62
313.017	407.62
313.246	383.62
313.476	399.62
313.706	374.62
313.935	375.62
314.165	384.62
314.394	403.62
314.624	385.62
314.853	383.62
315.083	392.62
315.312	381.62
315.542	370.62
315.771	374.62
316.001	363.62
316.23	383.62
316.46	377.62
316.689	390.62
316.919	384.62
317.148	416.62
317.377	389.62
317.607	395.62
317.836	377.62
318.065	367.62
318.295	391.62
318.524	383.62
318.753	380.62
318.983	380.62
319.212	383.62
319.441	393.62
319.67	395.62
319.9	379.62
320.129	385.62
320.358	381.62
320.587	407.62
320.816	381.62
321.046	404.62
321.275	386.62
321.504	384.62
321.733	399.62
321.962	409.62
322.191	424.62
322.42	410.62
322.649	409.62
322.878	443.62
323.108	444.62
323.337	455.62
323.566	473.62
323.795	473.62
324.024	512.62
324.253	590.62
324.482	794.62
324.71	1269.62
324.939	1798.62
325.168	1594.62
325.397	795.62
325.626	581.62
325.855	511.62
326.084	468.62
326.313	479.62
326.542	480.62
326.77	508.62
326.999	559.62
327.228	763.62
327.457	1094.62
327.686	1381.62
327.914	926.62
328.143	612.62
328.372	556.62
328.6	548.62
328.829	521.62
329.058	530.62
329.287	508.62
329.515	504.62
329.744	481.62
329.972	477.62
330.201	490.62
330.43	521.62
330.658	554.62
330.887	537.62
331.115	562.62
331.344	488.62
331.572	462.62
331.801	475.62
332.03	452.62
332.258	450.62
332.486	479.62
332.715	452.62
332.943	465.62
333.172	471.62
333.4	468.62
333.629	468.62
333.857	476.62
334.085	497.62
334.314	508.62
334.542	537.62
334.771	535.62
334.999	490.62
335.227	474.62
335.455	480.62
335.684	475.62
335.912	463.62
336.14	452.62
336.369	459.62
336.597	457.62
336.825	447.62
337.053	459.62
337.281	452.62
337.51	447.62
337.738	456.62
337.966	434.62
338.194	464.62
338.422	454.62
338.65	456.62
338.878	448.62
339.106	443.62
339.334	456.62
339.562	425.62
339.79	439.62
340.018	441.62
340.246	451.62
340.474	422.62
340.702	451.62
340.93	418.62
341.158	428.62
341.386	437.62
341.614	440.62
341.842	458.62
342.07	433.62
342.298	463.62
342.526	431.62
342.754	412.62
342.981	434.62
343.209	421.62
343.437	457.62
343.665	440.62
343.893	453.62
344.12	455.62
344.348	456.62
344.576	447.62
344.804	452.62
345.031	449.62
345.259	453.62
345.487	446.62
345.714	431.62
345.942	416.62
346.17	407.62
346.397	423.62
346.625	427.62
346.853	423.62
347.08	416.62
347.308	416.62
347.535	433.62
347.763	436.62
347.99	420.62
348.218	416.62
348.445	415.62
348.673	423.62
348.9	428.62
349.128	418.62
349.355	427.62
349.583	416.62
349.81	422.62
350.037	394.62
350.265	392.62
350.492	392.62
350.72	393.62
350.947	421.62
351.174	418.62
351.402	416.62
351.629	421.62
351.856	436.62
352.083	427.62
352.311	413.62
352.538	444.62
352.765	435.62
352.992	412.62
353.22	407.62
353.447	421.62
353.674	403.62
353.901	407.62
354.128	400.62
354.355	415.62
354.583	385.62
354.81	403.62
355.037	416.62
355.264	387.62
355.491	399.62
355.718	398.62
355.945	406.62
356.172	394.62
356.399	405.62
356.626	419.62
356.853	389.62
357.08	404.62
357.307	387.62
357.534	385.62
357.761	403.62
357.988	403.62
358.215	397.62
358.441	423.62
358.668	392.62
358.895	404.62
359.122	417.62
359.349	412.62
359.576	424.62
359.802	412.62
360.029	448.62
360.256	451.62
360.483	422.62
360.709	421.62
360.936	416.62
361.163	417.62
361.39	388.62
361.616	436.62
361.843	418.62
362.07	428.62
362.296	415.62
362.523	409.62
362.749	422.62
362.976	411.62
363.203	411.62
363.429	400.62
363.656	408.62
363.882	389.62
364.109	397.62
364.335	412.62
364.562	397.62
364.788	385.62
365.015	395.62
365.241	418.62
365.468	409.62
365.694	376.62
365.92	407.62
366.147	405.62
366.373	396.62
366.599	419.62
366.826	386.62
367.052	412.62
367.278	415.62
367.505	385.62
367.731	381.62
367.957	401.62
368.184	413.62
368.41	408.62
368.636	404.62
368.862	382.62
369.089	387.62
369.315	411.62
369.541	398.62
369.767	410.62
369.993	413.62
370.219	402.62
370.445	410.62
370.672	387.62
370.898	386.62
371.124	383.62
371.35	416.62
371.576	415.62
371.802	415.62
372.028	425.62
372.254	423.62
372.48	416.62
372.706	405.62
372.932	410.62
373.158	446.62
373.384	427.62
373.61	412.62
373.835	419.62
374.061	393.62
374.287	406.62
374.513	411.62
374.739	427.62
374.965	420.62
375.191	412.62
375.416	412.62
375.642	409.62
375.868	407.62
376.094	415.62
376.319	410.62
376.545	420.62
376.771	415.62
376.997	417.62
377.222	404.62
377.448	424.62
377.674	416.62
377.899	416.62
378.125	436.62
378.35	404.62
378.576	405.62
378.802	424.62
379.027	415.62
379.253	403.62
379.478	408.62
379.704	418.62
379.929	425.62
380.155	405.62
380.38	417.62
380.606	411.62
380.831	407.62
381.057	408.62
381.282	411.62
381.507	425.62
381.733	409.62
381.958	417.62
382.184	412.62
382.409	403.62
382.634	409.62
382.86	429.62
383.085	423.62
383.31	432.62
383.535	431.62
383.761	426.62
383.986	425.62
384.211	422.62
384.436	432.62
384.662	434.62
384.887	441.62
385.112	447.62
385.337	434.62
385.562	445.62
385.787	459.62
386.013	482.62
386.238	449.62
386.463	451.62
386.688	467.62
386.913	460.62
387.138	458.62
387.363	440.62
387.588	440.62
387.813	450.62
388.038	455.62
388.263	472.62
388.488	445.62
388.713	460.62
388.938	459.62
389.163	457.62
389.387	450.62
389.612	465.62
389.837	474.62
390.062	452.62
390.287	460.62
390.512	454.62
390.736	481.62
390.961	474.62
391.186	471.62
391.411	476.62
391.636	451.62
391.86	462.62
392.085	479.62
392.31	483.62
392.534	488.62
392.759	466.62
392.984	456.62
393.208	472.62
393.433	446.62
393.658	468.62
393.882	472.62
394.107	462.62
394.331	450.62
394.556	472.62
394.78	463.62
395.005	467.62
395.229	465.62
395.454	475.62
395.678	487.62
395.903	481.62
396.127	538.62
396.352	513.62
396.576	482.62
396.801	463.62
397.025	468.62
397.249	495.62
397.474	474.62
397.698	482.62
397.922	518.62
398.147	508.62
398.371	508.62
398.595	498.62
398.82	538.62
399.044	548.62
399.268	557.62
399.492	598.62
399.717	623.62
399.941	644.62
400.165	683.62
400.389	695.62
400.613	601.62
400.837	572.62
401.062	553.62
401.286	529.62
401.51	515.62
401.734	520.62
401.958	521.62
402.182	534.62
402.406	551.62
402.63	553.62
402.854	553.62
403.078	557.62
403.302	572.62
403.526	558.62
403.75	553.62
403.974	544.62
404.198	553.62
404.422	577.62
404.645	573.62
404.869	576.62
405.093	603.62
405.317	631.62
405.541	669.62
405.765	619.62
405.988	592.62
406.212	562.62
406.436	589.62
406.66	612.62
406.883	613.62
407.107	637.62
407.331	671.62
407.555	726.62
407.778	707.62
408.002	669.62
408.226	622.62
408.449	589.62
408.673	604.62
408.896	627.62
409.12	639.62
409.344	637.62
409.567	592.62
409.791	577.62
410.014	566.62
410.238	571.62
410.461	543.62
410.685	563.62
410.908	568.62
411.132	586.62
411.355	624.62
411.578	599.62
411.802	556.62
412.025	555.62
412.249	557.62
412.472	580.62
412.695	615.62
412.919	621.62
413.142	573.62
413.365	539.62
413.589	535.62
413.812	548.62
414.035	549.62
414.258	530.62
414.482	537.62
414.705	535.62
414.928	520.62
415.151	539.62
415.374	515.62
415.597	511.62
415.821	509.62
416.044	526.62
416.267	514.62
416.49	536.62
416.713	523.62
416.936	508.62
417.159	512.62
417.382	533.62
417.605	555.62
417.828	541.62
418.051	548.62
418.274	546.62
418.497	521.62
418.72	515.62
418.943	521.62
419.166	552.62
419.389	571.62
419.611	572.62
419.834	557.62
420.057	561.62
420.28	543.62
420.503	546.62
420.726	547.62
420.948	550.62
421.171	593.62
421.394	627.62
421.617	560.62
421.839	559.62
422.062	541.62
422.285	556.62
422.507	632.62
422.73	662.62
422.953	643.62
423.175	571.62
423.398	578.62
423.621	567.62
423.843	596.62
424.066	583.62
424.288	561.62
424.511	595.62
424.733	637.62
424.956	707.62
425.178	695.62
425.401	679.62
425.623	703.62
425.846	600.62
426.068	571.62
426.291	583.62
426.513	584.62
426.735	595.62
426.958	619.62
427.18	691.62
427.402	810.62
427.625	872.62
427.847	751.62
428.069	659.62
428.292	580.62
428.514	559.62
428.736	548.62
428.958	541.62
429.181	517.62
429.403	512.62
429.625	538.62
429.847	557.62
430.069	616.62
430.292	619.62
430.514	546.62
430.736	545.62
430.958	524.62
431.18	511.62
431.402	478.62
431.624	483.62
431.846	484.62
432.068	521.62
432.29	519.62
432.512	489.62
432.734	523.62
432.956	499.62
433.178	522.62
433.4	544.62
433.622	495.62
433.844	527.62
434.066	504.62
434.287	499.62
434.509	521.62
434.731	528.62
434.953	532.62
435.175	548.62
435.397	572.62
435.618	581.62
435.84	600.62
436.062	707.62
436.284	773.62
436.505	625.62
436.727	557.62
436.949	531.62
437.17	532.62
437.392	524.62
437.614	531.62
437.835	559.62
438.057	648.62
438.278	748.62
438.5	737.62
438.721	849.62
438.943	789.62
439.165	641.62
439.386	571.62
439.608	557.62
439.829	571.62
440.05	604.62
440.272	610.62
440.493	596.62
440.715	567.62
440.936	545.62
441.158	560.62
441.379	535.62
441.6	545.62
441.822	578.62
442.043	618.62
442.264	660.62
442.486	725.62
442.707	639.62
442.928	583.62
443.149	612.62
443.371	623.62
443.592	641.62
443.813	753.62
444.034	771.62
444.255	675.62
444.476	625.62
444.698	626.62
444.919	593.62
445.14	696.62
445.361	623.62
445.582	607.62
445.803	659.62
446.024	758.62
446.245	777.62
446.466	703.62
446.687	629.62
446.908	575.62
447.129	546.62
447.35	527.62
447.571	524.62
447.792	488.62
448.013	535.62
448.234	535.62
448.455	582.62
448.675	697.62
448.896	811.62
449.117	679.62
449.338	639.62
449.559	731.62
449.779	837.62
450	673.62
450.221	556.62
450.442	531.62
450.662	504.62
450.883	485.62
451.104	503.62
451.324	508.62
451.545	465.62
451.766	486.62
451.986	485.62
452.207	475.62
452.428	463.62
452.648	487.62
452.869	465.62
453.089	469.62
453.31	496.62
453.53	468.62
453.751	461.62
453.971	466.62
454.192	511.62
454.412	473.62
454.633	441.62
454.853	463.62
455.073	461.62
455.294	479.62
455.514	536.62
455.734	524.62
455.955	487.62
456.175	442.62
456.395	448.62
456.616	427.62
456.836	442.62
457.056	440.62
457.276	434.62
457.497	457.62
457.717	439.62
457.937	432.62
458.157	448.62
458.377	451.62
458.598	462.62
458.818	513.62
459.038	577.62
459.258	604.62
459.478	526.62
459.698	498.62
459.918	500.62
460.138	481.62
460.358	493.62
460.578	500.62
460.798	532.62
461.018	535.62
461.238	514.62
461.458	524.62
461.678	512.62
461.898	512.62
462.118	521.62
462.338	554.62
462.558	548.62
462.777	556.62
462.997	582.62
463.217	579.62
463.437	589.62
463.657	594.62
463.876	581.62
464.096	587.62
464.316	572.62
464.536	597.62
464.755	600.62
464.975	564.62
465.195	584.62
465.414	580.62
465.634	571.62
465.854	517.62
466.073	523.62
466.293	490.62
466.512	497.62
466.732	483.62
466.951	473.62
467.171	490.62
467.391	472.62
467.61	513.62
467.829	495.62
468.049	472.62
468.268	483.62
468.488	476.62
468.707	473.62
468.927	475.62
469.146	465.62
469.365	469.62
469.585	474.62
469.804	472.62
470.023	473.62
470.243	495.62
470.462	503.62
470.681	524.62
470.901	488.62
471.12	486.62
471.339	499.62
471.558	505.62
471.777	485.62
471.997	482.62
472.216	504.62
472.435	509.62
472.654	510.62
472.873	487.62
473.092	471.62
473.311	496.62
473.53	479.62
473.749	499.62
473.968	529.62
474.187	629.62
474.406	647.62
474.625	525.62
474.844	496.62
475.063	477.62
475.282	489.62
475.501	482.62
475.72	485.62
475.939	506.62
476.158	513.62
476.377	499.62
476.596	509.62
476.814	498.62
477.033	523.62
477.252	510.62
477.471	515.62
477.69	528.62
477.908	522.62
478.127	556.62
478.346	541.62
478.564	549.62
478.783	541.62
479.002	564.62
479.22	565.62
479.439	544.62
479.658	589.62
479.876	576.62
480.095	589.62
480.313	622.62
480.532	609.62
480.751	610.62
480.969	613.62
481.188	643.62
481.406	669.62
481.624	588.62
481.843	561.62
482.061	593.62
482.28	568.62
482.498	579.62
482.717	554.62
482.935	551.62
483.153	554.62
483.372	571.62
483.59	561.62
483.808	560.62
484.027	565.62
484.245	569.62
484.463	548.62
484.681	585.62
484.9	553.62
485.118	575.62
485.336	596.62
485.554	590.62
485.772	570.62
485.99	561.62
486.209	587.62
486.427	583.62
486.645	600.62
486.863	595.62
487.081	607.62
487.299	597.62
487.517	601.62
487.735	588.62
487.953	597.62
488.171	597.62
488.389	601.62
488.607	615.62
488.825	609.62
489.043	606.62
489.261	614.62
489.479	604.62
489.696	603.62
489.914	610.62
490.132	619.62
490.35	628.62
490.568	617.62
490.786	652.62
491.003	650.62
491.221	681.62
491.439	689.62
491.657	661.62
491.874	665.62
492.092	687.62
492.31	693.62
492.527	692.62
492.745	689.62
492.963	702.62
493.18	679.62
493.398	691.62
493.615	691.62
493.833	708.62
494.05	719.62
494.268	721.62
494.485	707.62
494.703	706.62
494.92	712.62
495.138	720.62
495.355	716.62
495.573	742.62
495.79	725.62
496.008	726.62
496.225	713.62
496.442	693.62
496.66	723.62
496.877	725.62
497.094	717.62
497.312	705.62
497.529	730.62
497.746	746.62
497.963	770.62
498.181	786.62
498.398	786.62
498.615	805.62
498.832	820.62
499.049	837.62
499.267	914.62
499.484	913.62
499.701	963.62
499.918	1001.62
500.135	1074.62
500.352	1116.62
500.569	1135.62
500.786	1157.62
501.003	1137.62
501.22	1087.62
501.437	1032.62
501.654	983.62
501.871	953.62
502.088	940.62
502.305	887.62
502.522	857.62
502.739	843.62
502.956	787.62
503.172	824.62
503.389	755.62
503.606	751.62
503.823	770.62
504.04	736.62
504.256	752.62
504.473	759.62
504.69	742.62
504.907	742.62
505.123	716.62
505.34	687.62
505.557	681.62
505.773	682.62
505.99	689.62
506.207	697.62
506.423	675.62
506.64	653.62
506.856	659.62
507.073	669.62
507.289	648.62
507.506	671.62
507.722	628.62
507.939	636.62
508.155	628.62
508.372	635.62
508.588	635.62
508.805	636.62
509.021	629.62
509.238	631.62
509.454	649.62
509.67	638.62
509.887	649.62
510.103	621.62
510.319	643.62
510.536	689.62
510.752	1012.62
510.968	862.62
511.184	625.62
511.401	611.62
511.617	591.62
511.833	593.62
512.049	592.62
512.265	595.62
512.481	583.62
512.698	564.62
512.914	596.62
513.13	582.62
513.346	582.62
513.562	597.62
513.778	588.62
513.994	585.62
514.21	620.62
514.426	612.62
514.642	646.62
514.858	643.62
515.074	680.62
515.29	763.62
515.506	1009.62
515.721	879.62
515.937	682.62
516.153	634.62
516.369	628.62
516.585	655.62
516.801	631.62
517.016	631.62
517.232	627.62
517.448	675.62
517.664	648.62
517.879	635.62
518.095	637.62
518.311	644.62
518.527	651.62
518.742	620.62
518.958	632.62
519.173	589.62
519.389	611.62
519.605	621.62
519.82	607.62
520.036	583.62
520.251	596.62
520.467	637.62
520.682	614.62
520.898	623.62
521.113	645.62
521.329	663.62
521.544	684.62
521.76	819.62
521.975	1239.62
522.19	1233.62
522.406	758.62
522.621	626.62
522.836	616.62
523.052	577.62
523.267	556.62
523.482	555.62
523.698	549.62
523.913	547.62
524.128	545.62
524.343	528.62
524.559	499.62
524.774	501.62
524.989	528.62
525.204	525.62
525.419	502.62
525.634	507.62
525.849	512.62
526.064	487.62
526.28	500.62
526.495	496.62
526.71	499.62
526.925	511.62
527.14	501.62
527.355	485.62
527.57	483.62
527.785	487.62
527.999	477.62
528.214	508.62
528.429	507.62
528.644	493.62
528.859	489.62
529.074	513.62
529.289	515.62
529.503	554.62
529.718	546.62
529.933	541.62
530.148	499.62
530.363	487.62
530.577	484.62
530.792	475.62
531.007	472.62
531.221	484.62
531.436	445.62
531.651	472.62
531.865	476.62
532.08	483.62
532.295	489.62
532.509	453.62
532.724	470.62
532.938	468.62
533.153	460.62
533.367	468.62
533.582	480.62
533.796	483.62
534.011	455.62
534.225	479.62
534.44	480.62
534.654	462.62
534.868	473.62
535.083	490.62
535.297	492.62
535.511	495.62
535.726	479.62
535.94	488.62
536.154	461.62
536.369	460.62
536.583	461.62
536.797	445.62
537.011	448.62
537.225	464.62
537.44	474.62
537.654	452.62
537.868	439.62
538.082	452.62
538.296	451.62
538.51	449.62
538.724	459.62
538.938	447.62
539.153	453.62
539.367	456.62
539.581	455.62
539.795	463.62
540.009	482.62
540.222	446.62
540.436	470.62
540.65	462.62
540.864	453.62
541.078	452.62
541.292	470.62
541.506	435.62
541.72	458.62
541.934	468.62
542.147	458.62
542.361	435.62
542.575	433.62
542.789	448.62
543.002	444.62
543.216	453.62
543.43	451.62
543.644	463.62
543.857	452.62
544.071	471.62
544.285	467.62
544.498	466.62
544.712	450.62
544.925	459.62
545.139	459.62
545.352	474.62
545.566	441.62
545.779	460.62
545.993	455.62
546.206	473.62
546.42	452.62
546.633	437.62
546.847	444.62
547.06	445.62
547.274	445.62
547.487	442.62
547.7	437.62
547.914	434.62
548.127	441.62
548.34	444.62
548.554	447.62
548.767	452.62
548.98	454.62
549.193	457.62
549.407	438.62
549.62	465.62
549.833	459.62
550.046	458.62
550.259	440.62
550.473	446.62
550.686	445.62
550.899	448.62
551.112	437.62
551.325	426.62
551.538	453.62
551.751	451.62
551.964	421.62
552.177	441.62
552.39	446.62
552.603	455.62
552.816	465.62
553.029	452.62
553.242	460.62
553.455	455.62
553.667	471.62
553.88	466.62
554.093	441.62
554.306	471.62
554.519	464.62
554.732	451.62
554.944	453.62
555.157	424.62
555.37	408.62
555.583	436.62
555.795	429.62
556.008	402.62
556.221	411.62
556.433	394.62
556.646	404.62
556.859	420.62
557.071	400.62
557.284	396.62
557.496	413.62
557.709	389.62
557.921	405.62
558.134	419.62
558.346	385.62
558.559	390.62
558.771	391.62
558.984	379.62
559.196	388.62
559.409	381.62
559.621	384.62
559.833	387.62
560.046	373.62
560.258	381.62
560.47	386.62
560.683	398.62
560.895	397.62
561.107	394.62
561.32	389.62
561.532	391.62
561.744	387.62
561.956	368.62
562.168	388.62
562.381	404.62
562.593	381.62
562.805	416.62
563.017	415.62
563.229	380.62
563.441	398.62
563.653	413.62
563.865	410.62
564.077	405.62
564.289	412.62
564.501	413.62
564.713	393.62
564.925	424.62
565.137	421.62
565.349	437.62
565.561	435.62
565.773	447.62
565.985	440.62
566.197	461.62
566.408	468.62
566.62	511.62
566.832	539.62
567.044	521.62
567.255	535.62
567.467	547.62
567.679	561.62
567.891	556.62
568.102	552.62
568.314	546.62
568.526	525.62
568.737	480.62
568.949	466.62
569.161	466.62
569.372	437.62
569.584	453.62
569.795	413.62
570.007	411.62
570.218	443.62
570.43	446.62
570.641	404.62
570.853	415.62
571.064	386.62
571.276	396.62
571.487	383.62
571.698	387.62
571.91	378.62
572.121	359.62
572.333	352.62
572.544	372.62
572.755	371.62
572.966	348.62
573.178	344.62
573.389	338.62
573.6	355.62
573.811	342.62
574.023	348.62
574.234	341.62
574.445	352.62
574.656	351.62
574.867	342.62
575.078	358.62
575.289	362.62
575.501	335.62
575.712	325.62
575.923	328.62
576.134	343.62
576.345	337.62
576.556	343.62
576.767	322.62
576.978	351.62
577.188	336.62
577.399	339.62
577.61	325.62
577.821	325.62
578.032	315.62
578.243	347.62
578.454	492.62
578.665	382.62
578.875	322.62
579.086	323.62
579.297	329.62
579.508	321.62
579.718	316.62
579.929	313.62
580.14	304.62
580.35	301.62
580.561	307.62
580.772	316.62
580.982	316.62
581.193	309.62
581.403	322.62
581.614	311.62
581.825	312.62
582.035	298.62
582.246	306.62
582.456	328.62
582.667	297.62
582.877	313.62
583.087	311.62
583.298	303.62
583.508	310.62
583.719	309.62
583.929	332.62
584.139	309.62
584.35	308.62
584.56	300.62
584.77	303.62
584.981	294.62
585.191	297.62
585.401	290.62
585.611	292.62
585.821	298.62
586.032	297.62
586.242	304.62
586.452	320.62
586.662	281.62
586.872	297.62
587.082	304.62
587.292	281.62
587.502	314.62
587.713	283.62
587.923	290.62
588.133	290.62
588.343	283.62
588.553	290.62
588.762	273.62
588.972	305.62
589.182	295.62
589.392	295.62
589.602	306.62
589.812	306.62
590.022	294.62
590.232	287.62
590.441	305.62
590.651	316.62
590.861	300.62
591.071	310.62
591.281	293.62
591.49	295.62
591.7	280.62
591.91	309.62
592.119	297.62
592.329	306.62
592.539	305.62
592.748	340.62
592.958	332.62
593.167	328.62
593.377	341.62
593.587	341.62
593.796	343.62
594.006	323.62
594.215	333.62
594.424	342.62
594.634	320.62
594.843	324.62
595.053	309.62
595.262	301.62
595.472	296.62
595.681	299.62
595.89	295.62
596.1	295.62
596.309	282.62
596.518	292.62
596.727	304.62
596.937	280.62
597.146	302.62
597.355	290.62
597.564	283.62
597.774	269.62
597.983	268.62
598.192	269.62
598.401	279.62
598.61	262.62
598.819	271.62
599.028	261.62
599.237	266.62
599.446	263.62
599.655	262.62
599.864	264.62
600.073	269.62
600.282	267.62
600.491	268.62
600.7	279.62
600.909	249.62
601.118	259.62
601.327	247.62
601.536	251.62
601.745	254.62
601.953	247.62
602.162	261.62
602.371	255.62
602.58	260.62
602.789	270.62
602.997	266.62
603.206	266.62
603.415	264.62
603.623	251.62
603.832	251.62
604.041	258.62
604.249	255.62
604.458	247.62
604.666	244.62
604.875	230.62
605.084	251.62
605.292	251.62
605.501	262.62
605.709	257.62
605.918	262.62
606.126	256.62
606.334	250.62
606.543	262.62
606.751	251.62
606.96	227.62
607.168	246.62
607.376	249.62
607.585	255.62
607.793	259.62
608.001	238.62
608.21	234.62
608.418	240.62
608.626	248.62
608.834	243.62
609.043	248.62
609.251	230.62
609.459	241.62
609.667	239.62
609.875	251.62
610.083	255.62
610.291	231.62
610.499	234.62
610.707	242.62
610.916	255.62
611.124	226.62
611.332	243.62
611.54	255.62
611.748	251.62
611.955	240.62
612.163	251.62
612.371	257.62
612.579	216.62
612.787	237.62
612.995	253.62
613.203	253.62
613.411	248.62
613.618	245.62
613.826	234.62
614.034	247.62
614.242	250.62
614.449	237.62
614.657	232.62
614.865	257.62
615.072	242.62
615.28	236.62
615.488	248.62
615.695	240.62
615.903	242.62
616.111	246.62
616.318	232.62
616.526	241.62
616.733	245.62
616.941	244.62
617.148	243.62
617.356	231.62
617.563	223.62
617.771	234.62
617.978	231.62
618.185	240.62
618.393	225.62
618.6	227.62
618.807	228.62
619.015	232.62
619.222	229.62
619.429	229.62
619.637	249.62
619.844	229.62
620.051	208.62
620.258	235.62
620.466	225.62
620.673	213.62
620.88	223.62
621.087	232.62
621.294	255.62
621.501	230.62
621.708	242.62
621.915	223.62
622.122	220.62
622.329	213.62
622.536	220.62
622.743	229.62
622.95	210.62
623.157	218.62
623.364	227.62
623.571	219.62
623.778	233.62
623.985	230.62
624.192	241.62
624.399	233.62
624.606	217.62
624.812	223.62
625.019	208.62
625.226	225.62
625.433	223.62
625.639	215.62
625.846	228.62
626.053	226.62
626.259	230.62
626.466	207.62
626.673	201.62
626.879	191.62
627.086	208.62
627.293	201.62
627.499	185.62
627.706	201.62
627.912	219.62
628.119	213.62
628.325	218.62
628.532	197.62
628.738	212.62
628.945	217.62
629.151	205.62
629.357	200.62
629.564	203.62
629.77	200.62
629.976	202.62
630.183	221.62
630.389	197.62
630.595	195.62
630.802	186.62
631.008	208.62
631.214	191.62
631.42	212.62
631.627	220.62
631.833	200.62
632.039	190.62
632.245	203.62
632.451	191.62
632.657	185.62
632.863	184.62
633.069	191.62
633.275	185.62
633.481	185.62
633.688	189.62
633.893	197.62
634.099	178.62
634.305	200.62
634.511	192.62
634.717	175.62
634.923	173.62
635.129	181.62
635.335	195.62
635.541	200.62
635.747	191.62
635.952	180.62
636.158	173.62
636.364	201.62
636.57	201.62
636.775	180.62
636.981	189.62
637.187	192.62
637.392	181.62
637.598	191.62
637.804	176.62
638.009	176.62
638.215	177.62
638.421	189.62
638.626	164.62
638.832	167.62
639.037	175.62
639.243	172.62
639.448	172.62
639.654	188.62
639.859	184.62
640.065	179.62
640.27	186.62
640.475	188.62
640.681	171.62
640.886	186.62
641.091	165.62
641.297	173.62
641.502	180.62
641.707	192.62
641.913	162.62
642.118	170.62
642.323	167.62
642.528	167.62
642.733	156.62
642.939	178.62
643.144	187.62
643.349	187.62
643.554	184.62
643.759	176.62
643.964	164.62
644.169	168.62
644.374	158.62
644.579	183.62
644.784	172.62
644.989	164.62
645.194	159.62
645.399	150.62
645.604	169.62
645.809	171.62
646.014	167.62
646.219	171.62
646.423	178.62
646.628	173.62
646.833	166.62
647.038	169.62
647.243	160.62
647.447	168.62
647.652	177.62
647.857	187.62
648.062	178.62
648.266	167.62
648.471	170.62
648.676	170.62
648.88	159.62
649.085	183.62
649.289	157.62
649.494	178.62
649.698	171.62
649.903	184.62
650.107	172.62
650.312	174.62
650.516	155.62
650.721	156.62
650.925	151.62
651.13	144.62
651.334	163.62
651.539	145.62
651.743	155.62
651.947	157.62
652.152	163.62
652.356	155.62
652.56	130.62
652.764	143.62
652.969	163.62
653.173	145.62
653.377	141.62
653.581	152.62
653.785	135.62
653.99	149.62
654.194	145.62
654.398	150.62
654.602	143.62
654.806	137.62
655.01	150.62
655.214	142.62
655.418	137.62
655.622	140.62
655.826	141.62
656.03	148.62
656.234	139.62
656.438	123.62
656.642	144.62
656.846	141.62
657.049	140.62
657.253	122.62
657.457	117.62
657.661	115.62
657.865	117.62
658.068	132.62
658.272	114.62
658.476	111.62
658.68	96.62
658.883	98.62
659.087	122.62
659.291	95.62
659.494	89.62
659.698	99.62
659.901	104.62
660.105	101.62
660.309	87.62
660.512	109.62
660.716	107.62
660.919	103.62
661.123	122.62
661.326	96.62
661.53	89.62
661.733	91.62
661.936	91.62
662.14	76.62
662.343	83.62
662.546	91.62
662.75	78.62
662.953	84.62
663.156	84.62
663.36	74.62
663.563	76.62
663.766	98.62
663.969	95.62
664.173	74.62
664.376	85.62
664.579	76.62
664.782	89.62
664.985	73.62
665.188	87.62
665.391	84.62
665.594	85.62
665.797	88.62
666	91.62
666.203	82.62
666.406	86.62
666.609	82.62
666.812	82.62
667.015	72.62
667.218	90.62
667.421	86.62
667.624	78.62
667.827	79.62
668.03	74.62
668.232	91.62
668.435	76.62
668.638	81.62
668.841	70.62
669.043	67.62
669.246	69.62
669.449	81.62
669.651	79.62
669.854	82.62
670.057	81.62
670.259	75.62
670.462	85.62
670.665	90.62
670.867	76.62
671.07	82.62
671.272	93.62
671.475	89.62
671.677	72.62
671.88	83.62
672.082	72.62
672.284	94.62
672.487	75.62
672.689	77.62
672.892	74.62
