Data from 1976.PennyLincolnUp.Lamp.En5.5.200Scan.071719.P1.Changed Mount._HRD10591_16-00-26-861.txt Node
Date: Thu Jul 18 16:00:26 EDT 2019
User: cochatt
Spectrometer: HR+D1059
Trigger mode: 1
Integration Time (sec): 1.000000E-1
Scans to average: 1
Electric dark correction enabled: true
Nonlinearity correction enabled: false
Boxcar width: 0
XAxis mode: Wavelengths
Number of Pixels in Spectrum: 2048
>>>>>Begin Spectral Data<<<<<
223.165	-27.19
223.4	-27.19
223.635	-27.19
223.869	-7.19
224.104	-32.19
224.338	-17.19
224.573	-16.19
224.808	-17.19
225.042	-12.19
225.277	-4.19
225.511	3.81
225.746	8.81
225.98	8.81
226.215	15.81
226.449	23.81
226.683	24.81
226.918	8.81
227.152	38.81
227.387	27.81
227.621	38.81
227.856	36.81
228.09	36.81
228.324	52.81
228.559	50.81
228.793	68.81
229.027	91.81
229.262	94.81
229.496	80.81
229.73	121.81
229.964	152.81
230.199	122.81
230.433	119.81
230.667	116.81
230.901	102.81
231.136	106.81
231.37	109.81
231.604	108.81
231.838	128.81
232.072	114.81
232.306	111.81
232.541	114.81
232.775	112.81
233.009	116.81
233.243	111.81
233.477	112.81
233.711	126.81
233.945	111.81
234.179	109.81
234.413	126.81
234.647	118.81
234.881	114.81
235.115	111.81
235.349	119.81
235.583	102.81
235.817	114.81
236.051	104.81
236.285	114.81
236.519	120.81
236.753	124.81
236.987	152.81
237.221	170.81
237.455	201.81
237.689	170.81
237.922	134.81
238.156	135.81
238.39	125.81
238.624	122.81
238.858	119.81
239.091	114.81
239.325	129.81
239.559	121.81
239.793	132.81
240.027	128.81
240.26	132.81
240.494	145.81
240.728	157.81
240.961	148.81
241.195	143.81
241.429	142.81
241.662	146.81
241.896	124.81
242.13	128.81
242.363	120.81
242.597	145.81
242.83	127.81
243.064	141.81
243.298	118.81
243.531	122.81
243.765	133.81
243.998	130.81
244.232	150.81
244.465	152.81
244.699	140.81
244.932	134.81
245.166	151.81
245.399	159.81
245.633	143.81
245.866	143.81
246.099	147.81
246.333	142.81
246.566	159.81
246.8	151.81
247.033	152.81
247.266	139.81
247.5	172.81
247.733	156.81
247.966	167.81
248.2	159.81
248.433	172.81
248.666	181.81
248.899	180.81
249.133	184.81
249.366	198.81
249.599	188.81
249.832	175.81
250.066	182.81
250.299	172.81
250.532	187.81
250.765	204.81
250.998	203.81
251.231	200.81
251.465	207.81
251.698	176.81
251.931	195.81
252.164	175.81
252.397	198.81
252.63	188.81
252.863	212.81
253.096	217.81
253.329	219.81
253.562	222.81
253.795	215.81
254.028	212.81
254.261	200.81
254.494	222.81
254.727	246.81
254.96	282.81
255.193	263.81
255.426	240.81
255.659	233.81
255.892	216.81
256.124	217.81
256.357	204.81
256.59	202.81
256.823	223.81
257.056	212.81
257.289	215.81
257.521	213.81
257.754	201.81
257.987	208.81
258.22	201.81
258.452	193.81
258.685	210.81
258.918	217.81
259.151	201.81
259.383	210.81
259.616	199.81
259.849	220.81
260.081	220.81
260.314	246.81
260.547	242.81
260.779	238.81
261.012	240.81
261.244	222.81
261.477	228.81
261.71	220.81
261.942	222.81
262.175	224.81
262.407	223.81
262.64	214.81
262.872	222.81
263.105	231.81
263.337	213.81
263.57	203.81
263.802	219.81
264.035	214.81
264.267	214.81
264.499	213.81
264.732	226.81
264.964	224.81
265.197	211.81
265.429	213.81
265.661	188.81
265.894	210.81
266.126	235.81
266.358	207.81
266.591	232.81
266.823	226.81
267.055	224.81
267.287	206.81
267.52	239.81
267.752	229.81
267.984	239.81
268.216	238.81
268.448	235.81
268.681	240.81
268.913	243.81
269.145	264.81
269.377	277.81
269.609	279.81
269.841	250.81
270.073	274.81
270.306	276.81
270.538	289.81
270.77	287.81
271.002	304.81
271.234	277.81
271.466	290.81
271.698	272.81
271.93	318.81
272.162	334.81
272.394	293.81
272.626	279.81
272.858	288.81
273.09	285.81
273.322	282.81
273.553	258.81
273.785	261.81
274.017	262.81
274.249	260.81
274.481	246.81
274.713	258.81
274.945	272.81
275.176	278.81
275.408	256.81
275.64	272.81
275.872	281.81
276.104	259.81
276.335	255.81
276.567	263.81
276.799	284.81
277.031	292.81
277.262	295.81
277.494	318.81
277.726	289.81
277.957	296.81
278.189	271.81
278.421	271.81
278.652	268.81
278.884	278.81
279.115	274.81
279.347	288.81
279.579	266.81
279.81	262.81
280.042	260.81
280.273	257.81
280.505	267.81
280.736	272.81
280.968	280.81
281.199	280.81
281.431	253.81
281.662	274.81
281.894	264.81
282.125	274.81
282.356	285.81
282.588	302.81
282.819	306.81
283.051	280.81
283.282	279.81
283.513	294.81
283.745	279.81
283.976	280.81
284.207	290.81
284.439	298.81
284.67	284.81
284.901	287.81
285.132	270.81
285.364	278.81
285.595	287.81
285.826	276.81
286.057	291.81
286.288	284.81
286.52	285.81
286.751	301.81
286.982	293.81
287.213	294.81
287.444	309.81
287.675	295.81
287.906	304.81
288.138	302.81
288.369	306.81
288.6	298.81
288.831	297.81
289.062	309.81
289.293	301.81
289.524	314.81
289.755	290.81
289.986	285.81
290.217	288.81
290.448	312.81
290.679	279.81
290.91	310.81
291.141	278.81
291.371	298.81
291.602	295.81
291.833	290.81
292.064	280.81
292.295	286.81
292.526	286.81
292.757	290.81
292.987	280.81
293.218	279.81
293.449	308.81
293.68	290.81
293.91	304.81
294.141	301.81
294.372	289.81
294.603	314.81
294.833	278.81
295.064	322.81
295.295	286.81
295.525	302.81
295.756	321.81
295.987	308.81
296.217	304.81
296.448	336.81
296.679	320.81
296.909	305.81
297.14	320.81
297.37	317.81
297.601	316.81
297.831	312.81
298.062	318.81
298.292	306.81
298.523	308.81
298.753	327.81
298.984	327.81
299.214	331.81
299.445	325.81
299.675	319.81
299.905	325.81
300.136	314.81
300.366	319.81
300.597	315.81
300.827	330.81
301.057	321.81
301.288	320.81
301.518	324.81
301.748	335.81
301.979	332.81
302.209	330.81
302.439	348.81
302.669	335.81
302.9	335.81
303.13	328.81
303.36	345.81
303.59	348.81
303.82	331.81
304.051	317.81
304.281	327.81
304.511	307.81
304.741	340.81
304.971	351.81
305.201	336.81
305.431	342.81
305.661	349.81
305.891	332.81
306.121	339.81
306.352	330.81
306.582	351.81
306.812	349.81
307.042	343.81
307.272	341.81
307.502	349.81
307.731	335.81
307.961	333.81
308.191	327.81
308.421	335.81
308.651	355.81
308.881	346.81
309.111	345.81
309.341	339.81
309.571	343.81
309.8	352.81
310.03	354.81
310.26	370.81
310.49	354.81
310.72	354.81
310.949	379.81
311.179	371.81
311.409	386.81
311.639	357.81
311.868	358.81
312.098	382.81
312.328	384.81
312.557	391.81
312.787	392.81
313.017	407.81
313.246	362.81
313.476	382.81
313.706	388.81
313.935	390.81
314.165	383.81
314.394	397.81
314.624	378.81
314.853	372.81
315.083	363.81
315.312	367.81
315.542	374.81
315.771	377.81
316.001	361.81
316.23	359.81
316.46	379.81
316.689	366.81
316.919	386.81
317.148	370.81
317.377	374.81
317.607	378.81
317.836	376.81
318.065	383.81
318.295	370.81
318.524	396.81
318.753	379.81
318.983	375.81
319.212	361.81
319.441	370.81
319.67	381.81
319.9	374.81
320.129	391.81
320.358	392.81
320.587	378.81
320.816	398.81
321.046	383.81
321.275	400.81
321.504	394.81
321.733	377.81
321.962	406.81
322.191	392.81
322.42	414.81
322.649	394.81
322.878	427.81
323.108	425.81
323.337	450.81
323.566	459.81
323.795	491.81
324.024	516.81
324.253	584.81
324.482	792.81
324.71	1195.81
324.939	1708.81
325.168	1511.81
325.397	820.81
325.626	576.81
325.855	487.81
326.084	466.81
326.313	460.81
326.542	463.81
326.77	487.81
326.999	577.81
327.228	737.81
327.457	1067.81
327.686	1327.81
327.914	893.81
328.143	614.81
328.372	547.81
328.6	528.81
328.829	483.81
329.058	514.81
329.287	520.81
329.515	506.81
329.744	473.81
329.972	468.81
330.201	486.81
330.43	514.81
330.658	511.81
330.887	550.81
331.115	528.81
331.344	479.81
331.572	474.81
331.801	467.81
332.03	476.81
332.258	468.81
332.486	458.81
332.715	466.81
332.943	445.81
333.172	443.81
333.4	442.81
333.629	487.81
333.857	487.81
334.085	479.81
334.314	509.81
334.542	526.81
334.771	541.81
334.999	493.81
335.227	483.81
335.455	464.81
335.684	456.81
335.912	461.81
336.14	447.81
336.369	449.81
336.597	437.81
336.825	453.81
337.053	442.81
337.281	442.81
337.51	448.81
337.738	440.81
337.966	421.81
338.194	418.81
338.422	428.81
338.65	420.81
338.878	432.81
339.106	445.81
339.334	431.81
339.562	427.81
339.79	431.81
340.018	412.81
340.246	423.81
340.474	442.81
340.702	420.81
340.93	443.81
341.158	429.81
341.386	436.81
341.614	424.81
341.842	409.81
342.07	423.81
342.298	422.81
342.526	412.81
342.754	429.81
342.981	414.81
343.209	425.81
343.437	419.81
343.665	426.81
343.893	447.81
344.12	459.81
344.348	440.81
344.576	447.81
344.804	457.81
345.031	434.81
345.259	426.81
345.487	453.81
345.714	430.81
345.942	425.81
346.17	406.81
346.397	438.81
346.625	418.81
346.853	400.81
347.08	398.81
347.308	418.81
347.535	417.81
347.763	426.81
347.99	411.81
348.218	432.81
348.445	417.81
348.673	409.81
348.9	418.81
349.128	421.81
349.355	390.81
349.583	398.81
349.81	393.81
350.037	358.81
350.265	390.81
350.492	406.81
350.72	401.81
350.947	421.81
351.174	402.81
351.402	406.81
351.629	394.81
351.856	410.81
352.083	407.81
352.311	430.81
352.538	431.81
352.765	415.81
352.992	438.81
353.22	413.81
353.447	404.81
353.674	406.81
353.901	404.81
354.128	395.81
354.355	406.81
354.583	394.81
354.81	390.81
355.037	391.81
355.264	397.81
355.491	382.81
355.718	404.81
355.945	379.81
356.172	402.81
356.399	398.81
356.626	378.81
356.853	380.81
357.08	392.81
357.307	396.81
357.534	373.81
357.761	382.81
357.988	380.81
358.215	391.81
358.441	387.81
358.668	394.81
358.895	394.81
359.122	401.81
359.349	399.81
359.576	400.81
359.802	415.81
360.029	420.81
360.256	454.81
360.483	430.81
360.709	418.81
360.936	412.81
361.163	413.81
361.39	422.81
361.616	414.81
361.843	413.81
362.07	406.81
362.296	422.81
362.523	408.81
362.749	402.81
362.976	407.81
363.203	390.81
363.429	409.81
363.656	399.81
363.882	397.81
364.109	392.81
364.335	386.81
364.562	398.81
364.788	410.81
365.015	414.81
365.241	380.81
365.468	403.81
365.694	411.81
365.92	396.81
366.147	407.81
366.373	381.81
366.599	402.81
366.826	416.81
367.052	395.81
367.278	392.81
367.505	379.81
367.731	398.81
367.957	406.81
368.184	377.81
368.41	411.81
368.636	398.81
368.862	420.81
369.089	402.81
369.315	413.81
369.541	386.81
369.767	382.81
369.993	382.81
370.219	395.81
370.445	390.81
370.672	413.81
370.898	406.81
371.124	408.81
371.35	405.81
371.576	418.81
371.802	420.81
372.028	392.81
372.254	406.81
372.48	408.81
372.706	409.81
372.932	417.81
373.158	406.81
373.384	399.81
373.61	389.81
373.835	413.81
374.061	390.81
374.287	410.81
374.513	394.81
374.739	410.81
374.965	411.81
375.191	399.81
375.416	428.81
375.642	401.81
375.868	414.81
376.094	398.81
376.319	412.81
376.545	419.81
376.771	406.81
376.997	403.81
377.222	426.81
377.448	392.81
377.674	413.81
377.899	406.81
378.125	400.81
378.35	413.81
378.576	391.81
378.802	410.81
379.027	416.81
379.253	408.81
379.478	390.81
379.704	411.81
379.929	408.81
380.155	396.81
380.38	396.81
380.606	407.81
380.831	393.81
381.057	406.81
381.282	408.81
381.507	415.81
381.733	404.81
381.958	401.81
382.184	424.81
382.409	404.81
382.634	413.81
382.86	427.81
383.085	406.81
383.31	426.81
383.535	406.81
383.761	438.81
383.986	418.81
384.211	434.81
384.436	421.81
384.662	416.81
384.887	443.81
385.112	438.81
385.337	452.81
385.562	438.81
385.787	453.81
386.013	464.81
386.238	458.81
386.463	466.81
386.688	446.81
386.913	455.81
387.138	462.81
387.363	445.81
387.588	440.81
387.813	437.81
388.038	420.81
388.263	460.81
388.488	450.81
388.713	452.81
388.938	450.81
389.163	474.81
389.387	451.81
389.612	470.81
389.837	467.81
390.062	465.81
390.287	440.81
390.512	436.81
390.736	438.81
390.961	455.81
391.186	451.81
391.411	442.81
391.636	471.81
391.86	476.81
392.085	471.81
392.31	466.81
392.534	469.81
392.759	461.81
392.984	461.81
393.208	454.81
393.433	449.81
393.658	454.81
393.882	456.81
394.107	455.81
394.331	445.81
394.556	452.81
394.78	458.81
395.005	464.81
395.229	463.81
395.454	454.81
395.678	492.81
395.903	475.81
396.127	485.81
396.352	518.81
396.576	491.81
396.801	462.81
397.025	469.81
397.249	466.81
397.474	461.81
397.698	484.81
397.922	484.81
398.147	502.81
398.371	505.81
398.595	519.81
398.82	511.81
399.044	509.81
399.268	540.81
399.492	586.81
399.717	638.81
399.941	647.81
400.165	652.81
400.389	663.81
400.613	594.81
400.837	566.81
401.062	549.81
401.286	557.81
401.51	513.81
401.734	501.81
401.958	536.81
402.182	523.81
402.406	539.81
402.63	552.81
402.854	544.81
403.078	526.81
403.302	536.81
403.526	543.81
403.75	534.81
403.974	562.81
404.198	551.81
404.422	546.81
404.645	549.81
404.869	551.81
405.093	578.81
405.317	623.81
405.541	660.81
405.765	611.81
405.988	578.81
406.212	575.81
406.436	578.81
406.66	602.81
406.883	597.81
407.107	602.81
407.331	647.81
407.555	734.81
407.778	724.81
408.002	651.81
408.226	616.81
408.449	596.81
408.673	583.81
408.896	632.81
409.12	656.81
409.344	621.81
409.567	593.81
409.791	560.81
410.014	569.81
410.238	546.81
410.461	559.81
410.685	558.81
410.908	565.81
411.132	596.81
411.355	617.81
411.578	594.81
411.802	550.81
412.025	549.81
412.249	536.81
412.472	573.81
412.695	600.81
412.919	612.81
413.142	563.81
413.365	559.81
413.589	528.81
413.812	534.81
414.035	542.81
414.258	514.81
414.482	523.81
414.705	518.81
414.928	519.81
415.151	527.81
415.374	506.81
415.597	521.81
415.821	518.81
416.044	483.81
416.267	518.81
416.49	512.81
416.713	517.81
416.936	503.81
417.159	502.81
417.382	517.81
417.605	502.81
417.828	533.81
418.051	512.81
418.274	532.81
418.497	530.81
418.72	518.81
418.943	554.81
419.166	562.81
419.389	570.81
419.611	574.81
419.834	537.81
420.057	556.81
420.28	552.81
420.503	538.81
420.726	529.81
420.948	551.81
421.171	559.81
421.394	602.81
421.617	562.81
421.839	548.81
422.062	523.81
422.285	530.81
422.507	570.81
422.73	692.81
422.953	639.81
423.175	572.81
423.398	548.81
423.621	534.81
423.843	580.81
424.066	573.81
424.288	577.81
424.511	584.81
424.733	644.81
424.956	697.81
425.178	696.81
425.401	660.81
425.623	692.81
425.846	600.81
426.068	559.81
426.291	550.81
426.513	548.81
426.735	543.81
426.958	616.81
427.18	685.81
427.402	806.81
427.625	882.81
427.847	731.81
428.069	646.81
428.292	591.81
428.514	532.81
428.736	532.81
428.958	532.81
429.181	498.81
429.403	515.81
429.625	530.81
429.847	564.81
430.069	643.81
430.292	596.81
430.514	532.81
430.736	499.81
430.958	518.81
431.18	504.81
431.402	500.81
431.624	467.81
431.846	510.81
432.068	492.81
432.29	516.81
432.512	476.81
432.734	481.81
432.956	494.81
433.178	498.81
433.4	491.81
433.622	493.81
433.844	478.81
434.066	495.81
434.287	489.81
434.509	495.81
434.731	521.81
434.953	507.81
435.175	548.81
435.397	564.81
435.618	564.81
435.84	591.81
436.062	654.81
436.284	720.81
436.505	591.81
436.727	583.81
436.949	552.81
437.17	535.81
437.392	525.81
437.614	515.81
437.835	546.81
438.057	624.81
438.278	734.81
438.5	724.81
438.721	805.81
438.943	745.81
439.165	596.81
439.386	557.81
439.608	564.81
439.829	562.81
440.05	564.81
440.272	615.81
440.493	557.81
440.715	560.81
440.936	533.81
441.158	516.81
441.379	525.81
441.6	541.81
441.822	564.81
442.043	603.81
442.264	676.81
442.486	699.81
442.707	627.81
442.928	586.81
443.149	574.81
443.371	596.81
443.592	635.81
443.813	726.81
444.034	778.81
444.255	668.81
444.476	591.81
444.698	601.81
444.919	557.81
445.14	674.81
445.361	634.81
445.582	603.81
445.803	630.81
446.024	743.81
446.245	727.81
446.466	671.81
446.687	598.81
446.908	542.81
447.129	512.81
447.35	508.81
447.571	510.81
447.792	499.81
448.013	514.81
448.234	539.81
448.455	557.81
448.675	688.81
448.896	782.81
449.117	675.81
449.338	612.81
449.559	730.81
449.779	835.81
450	668.81
450.221	571.81
450.442	516.81
450.662	482.81
450.883	512.81
451.104	521.81
451.324	483.81
451.545	488.81
451.766	461.81
451.986	455.81
452.207	457.81
452.428	448.81
452.648	455.81
452.869	464.81
453.089	465.81
453.31	473.81
453.53	473.81
453.751	443.81
453.971	442.81
454.192	459.81
454.412	468.81
454.633	449.81
454.853	451.81
455.073	442.81
455.294	461.81
455.514	535.81
455.734	514.81
455.955	468.81
456.175	444.81
456.395	438.81
456.616	426.81
456.836	436.81
457.056	431.81
457.276	424.81
457.497	432.81
457.717	444.81
457.937	439.81
458.157	456.81
458.377	462.81
458.598	473.81
458.818	493.81
459.038	565.81
459.258	607.81
459.478	506.81
459.698	517.81
459.918	494.81
460.138	502.81
460.358	492.81
460.578	507.81
460.798	499.81
461.018	534.81
461.238	534.81
461.458	520.81
461.678	501.81
461.898	520.81
462.118	519.81
462.338	532.81
462.558	532.81
462.777	568.81
462.997	570.81
463.217	590.81
463.437	573.81
463.657	566.81
463.876	560.81
464.096	565.81
464.316	538.81
464.536	574.81
464.755	587.81
464.975	553.81
465.195	578.81
465.414	585.81
465.634	528.81
465.854	507.81
466.073	496.81
466.293	484.81
466.512	470.81
466.732	482.81
466.951	466.81
467.171	476.81
467.391	468.81
467.61	494.81
467.829	489.81
468.049	484.81
468.268	496.81
468.488	472.81
468.707	468.81
468.927	487.81
469.146	479.81
469.365	450.81
469.585	454.81
469.804	488.81
470.023	489.81
470.243	476.81
470.462	472.81
470.681	509.81
470.901	498.81
471.12	492.81
471.339	478.81
471.558	476.81
471.777	495.81
471.997	476.81
472.216	491.81
472.435	507.81
472.654	494.81
472.873	488.81
473.092	483.81
473.311	468.81
473.53	473.81
473.749	474.81
473.968	511.81
474.187	602.81
474.406	623.81
474.625	524.81
474.844	500.81
475.063	493.81
475.282	499.81
475.501	486.81
475.72	468.81
475.939	480.81
476.158	499.81
476.377	503.81
476.596	500.81
476.814	496.81
477.033	510.81
477.252	518.81
477.471	511.81
477.69	520.81
477.908	513.81
478.127	534.81
478.346	542.81
478.564	534.81
478.783	542.81
479.002	554.81
479.22	544.81
479.439	560.81
479.658	569.81
479.876	562.81
480.095	600.81
480.313	606.81
480.532	575.81
480.751	605.81
480.969	581.81
481.188	623.81
481.406	670.81
481.624	605.81
481.843	570.81
482.061	566.81
482.28	559.81
482.498	559.81
482.717	544.81
482.935	568.81
483.153	562.81
483.372	564.81
483.59	558.81
483.808	539.81
484.027	537.81
484.245	536.81
484.463	558.81
484.681	559.81
484.9	575.81
485.118	574.81
485.336	554.81
485.554	578.81
485.772	566.81
485.99	581.81
486.209	599.81
486.427	570.81
486.645	568.81
486.863	566.81
487.081	590.81
487.299	589.81
487.517	590.81
487.735	578.81
487.953	589.81
488.171	592.81
488.389	586.81
488.607	582.81
488.825	606.81
489.043	591.81
489.261	614.81
489.479	607.81
489.696	607.81
489.914	610.81
490.132	588.81
490.35	582.81
490.568	616.81
490.786	633.81
491.003	664.81
491.221	653.81
491.439	639.81
491.657	676.81
491.874	660.81
492.092	683.81
492.31	666.81
492.527	687.81
492.745	684.81
492.963	703.81
493.18	704.81
493.398	673.81
493.615	666.81
493.833	700.81
494.05	708.81
494.268	692.81
494.485	671.81
494.703	707.81
494.92	698.81
495.138	678.81
495.355	702.81
495.573	704.81
495.79	705.81
496.008	709.81
496.225	695.81
496.442	687.81
496.66	696.81
496.877	693.81
497.094	719.81
497.312	732.81
497.529	722.81
497.746	744.81
497.963	758.81
498.181	777.81
498.398	812.81
498.615	778.81
498.832	807.81
499.049	812.81
499.267	876.81
499.484	891.81
499.701	958.81
499.918	981.81
500.135	1016.81
500.352	1071.81
500.569	1109.81
500.786	1108.81
501.003	1080.81
501.22	1069.81
501.437	999.81
501.654	992.81
501.871	928.81
502.088	872.81
502.305	846.81
502.522	851.81
502.739	821.81
502.956	786.81
503.172	756.81
503.389	752.81
503.606	768.81
503.823	751.81
504.04	718.81
504.256	704.81
504.473	719.81
504.69	700.81
504.907	712.81
505.123	672.81
505.34	678.81
505.557	682.81
505.773	658.81
505.99	651.81
506.207	662.81
506.423	662.81
506.64	657.81
506.856	637.81
507.073	651.81
507.289	637.81
507.506	608.81
507.722	620.81
507.939	636.81
508.155	616.81
508.372	625.81
508.588	632.81
508.805	622.81
509.021	620.81
509.238	629.81
509.454	650.81
509.67	640.81
509.887	605.81
510.103	621.81
510.319	599.81
510.536	674.81
510.752	994.81
510.968	833.81
511.184	591.81
511.401	576.81
511.617	596.81
511.833	574.81
512.049	559.81
512.265	585.81
512.481	572.81
512.698	578.81
512.914	574.81
513.13	567.81
513.346	578.81
513.562	571.81
513.778	584.81
513.994	597.81
514.21	596.81
514.426	614.81
514.642	632.81
514.858	619.81
515.074	639.81
515.29	756.81
515.506	999.81
515.721	867.81
515.937	682.81
516.153	615.81
516.369	610.81
516.585	606.81
516.801	602.81
517.016	592.81
517.232	639.81
517.448	634.81
517.664	633.81
517.879	639.81
518.095	633.81
518.311	623.81
518.527	608.81
518.742	622.81
518.958	594.81
519.173	583.81
519.389	601.81
519.605	600.81
519.82	580.81
520.036	618.81
520.251	587.81
520.467	618.81
520.682	581.81
520.898	619.81
521.113	621.81
521.329	632.81
521.544	664.81
521.76	791.81
521.975	1226.81
522.19	1228.81
522.406	743.81
522.621	600.81
522.836	579.81
523.052	541.81
523.267	549.81
523.482	536.81
523.698	505.81
523.913	546.81
524.128	534.81
524.343	527.81
524.559	525.81
524.774	510.81
524.989	520.81
525.204	518.81
525.419	517.81
525.634	487.81
525.849	504.81
526.064	502.81
526.28	516.81
526.495	492.81
526.71	486.81
526.925	478.81
527.14	501.81
527.355	471.81
527.57	475.81
527.785	479.81
527.999	492.81
528.214	476.81
528.429	490.81
528.644	490.81
528.859	491.81
529.074	495.81
529.289	503.81
529.503	560.81
529.718	539.81
529.933	506.81
530.148	470.81
530.363	461.81
530.577	470.81
530.792	471.81
531.007	479.81
531.221	487.81
531.436	455.81
531.651	480.81
531.865	448.81
532.08	461.81
532.295	480.81
532.509	466.81
532.724	464.81
532.938	483.81
533.153	481.81
533.367	487.81
533.582	480.81
533.796	464.81
534.011	461.81
534.225	449.81
534.44	474.81
534.654	473.81
534.868	466.81
535.083	460.81
535.297	450.81
535.511	477.81
535.726	465.81
535.94	464.81
536.154	450.81
536.369	462.81
536.583	443.81
536.797	455.81
537.011	444.81
537.225	440.81
537.44	438.81
537.654	459.81
537.868	460.81
538.082	457.81
538.296	429.81
538.51	456.81
538.724	452.81
538.938	441.81
539.153	456.81
539.367	478.81
539.581	436.81
539.795	463.81
540.009	461.81
540.222	461.81
540.436	437.81
540.65	454.81
540.864	451.81
541.078	440.81
541.292	455.81
541.506	462.81
541.72	472.81
541.934	454.81
542.147	454.81
542.361	455.81
542.575	456.81
542.789	460.81
543.002	443.81
543.216	459.81
543.43	446.81
543.644	450.81
543.857	447.81
544.071	438.81
544.285	444.81
544.498	448.81
544.712	456.81
544.925	443.81
545.139	447.81
545.352	445.81
545.566	439.81
545.779	460.81
545.993	473.81
546.206	444.81
546.42	454.81
546.633	453.81
546.847	462.81
547.06	433.81
547.274	437.81
547.487	443.81
547.7	441.81
547.914	470.81
548.127	443.81
548.34	448.81
548.554	440.81
548.767	449.81
548.98	444.81
549.193	448.81
549.407	434.81
549.62	456.81
549.833	442.81
550.046	424.81
550.259	442.81
550.473	434.81
550.686	437.81
550.899	439.81
551.112	424.81
551.325	428.81
551.538	443.81
551.751	427.81
551.964	427.81
552.177	431.81
552.39	440.81
552.603	445.81
552.816	444.81
553.029	442.81
553.242	453.81
553.455	460.81
553.667	467.81
553.88	488.81
554.093	455.81
554.306	452.81
554.519	468.81
554.732	446.81
554.944	421.81
555.157	427.81
555.37	431.81
555.583	405.81
555.795	423.81
556.008	440.81
556.221	416.81
556.433	405.81
556.646	410.81
556.859	383.81
557.071	392.81
557.284	389.81
557.496	396.81
557.709	396.81
557.921	398.81
558.134	380.81
558.346	399.81
558.559	389.81
558.771	393.81
558.984	414.81
559.196	393.81
559.409	375.81
559.621	382.81
559.833	372.81
560.046	397.81
560.258	390.81
560.47	370.81
560.683	384.81
560.895	403.81
561.107	382.81
561.32	376.81
561.532	394.81
561.744	397.81
561.956	384.81
562.168	404.81
562.381	400.81
562.593	376.81
562.805	388.81
563.017	404.81
563.229	393.81
563.441	400.81
563.653	393.81
563.865	398.81
564.077	403.81
564.289	395.81
564.501	400.81
564.713	412.81
564.925	414.81
565.137	438.81
565.349	432.81
565.561	428.81
565.773	437.81
565.985	442.81
566.197	465.81
566.408	455.81
566.62	495.81
566.832	515.81
567.044	495.81
567.255	492.81
567.467	525.81
567.679	517.81
567.891	552.81
568.102	520.81
568.314	540.81
568.526	532.81
568.737	461.81
568.949	458.81
569.161	441.81
569.372	436.81
569.584	427.81
569.795	419.81
570.007	400.81
570.218	442.81
570.43	422.81
570.641	397.81
570.853	386.81
571.064	373.81
571.276	396.81
571.487	391.81
571.698	363.81
571.91	370.81
572.121	384.81
572.333	370.81
572.544	352.81
572.755	374.81
572.966	374.81
573.178	362.81
573.389	346.81
573.6	328.81
573.811	348.81
574.023	338.81
574.234	331.81
574.445	327.81
574.656	332.81
574.867	335.81
575.078	352.81
575.289	342.81
575.501	331.81
575.712	336.81
575.923	355.81
576.134	352.81
576.345	337.81
576.556	320.81
576.767	336.81
576.978	311.81
577.188	336.81
577.399	327.81
577.61	322.81
577.821	322.81
578.032	335.81
578.243	363.81
578.454	485.81
578.665	397.81
578.875	347.81
579.086	310.81
579.297	332.81
579.508	318.81
579.718	310.81
579.929	300.81
580.14	312.81
580.35	310.81
580.561	317.81
580.772	323.81
580.982	315.81
581.193	309.81
581.403	308.81
581.614	307.81
581.825	292.81
582.035	317.81
582.246	294.81
582.456	306.81
582.667	282.81
582.877	298.81
583.087	300.81
583.298	315.81
583.508	298.81
583.719	316.81
583.929	317.81
584.139	299.81
584.35	311.81
584.56	303.81
584.77	310.81
584.981	290.81
585.191	291.81
585.401	303.81
585.611	302.81
585.821	310.81
586.032	315.81
586.242	294.81
586.452	306.81
586.662	311.81
586.872	312.81
587.082	292.81
587.292	301.81
587.502	291.81
587.713	304.81
587.923	312.81
588.133	296.81
588.343	292.81
588.553	299.81
588.762	310.81
588.972	295.81
589.182	287.81
589.392	286.81
589.602	283.81
589.812	296.81
590.022	295.81
590.232	299.81
590.441	306.81
590.651	285.81
590.861	298.81
591.071	294.81
591.281	293.81
591.49	316.81
591.7	284.81
591.91	290.81
592.119	299.81
592.329	301.81
592.539	322.81
592.748	321.81
592.958	324.81
593.167	331.81
593.377	327.81
593.587	333.81
593.796	330.81
594.006	355.81
594.215	312.81
594.424	337.81
594.634	300.81
594.843	319.81
595.053	328.81
595.262	325.81
595.472	295.81
595.681	321.81
595.89	313.81
596.1	280.81
596.309	314.81
596.518	299.81
596.727	272.81
596.937	282.81
597.146	279.81
597.355	279.81
597.564	277.81
597.774	271.81
597.983	286.81
598.192	265.81
598.401	262.81
598.61	261.81
598.819	283.81
599.028	280.81
599.237	270.81
599.446	263.81
599.655	264.81
599.864	276.81
600.073	261.81
600.282	241.81
600.491	263.81
600.7	253.81
600.909	243.81
601.118	272.81
601.327	267.81
601.536	258.81
601.745	264.81
601.953	269.81
602.162	251.81
602.371	245.81
602.58	268.81
602.789	259.81
602.997	264.81
603.206	262.81
603.415	260.81
603.623	252.81
603.832	238.81
604.041	255.81
604.249	258.81
604.458	255.81
604.666	242.81
604.875	246.81
605.084	255.81
605.292	235.81
605.501	239.81
605.709	248.81
605.918	244.81
606.126	242.81
606.334	247.81
606.543	227.81
606.751	263.81
606.96	253.81
607.168	251.81
607.376	240.81
607.585	249.81
607.793	234.81
608.001	252.81
608.21	233.81
608.418	247.81
608.626	229.81
608.834	247.81
609.043	239.81
609.251	258.81
609.459	243.81
609.667	231.81
609.875	244.81
610.083	268.81
610.291	246.81
610.499	255.81
610.707	261.81
610.916	255.81
611.124	248.81
611.332	243.81
611.54	243.81
611.748	258.81
611.955	236.81
612.163	264.81
612.371	262.81
612.579	229.81
612.787	231.81
612.995	243.81
613.203	235.81
613.411	248.81
613.618	238.81
613.826	234.81
614.034	233.81
614.242	252.81
614.449	234.81
614.657	233.81
614.865	238.81
615.072	230.81
615.28	245.81
615.488	248.81
615.695	223.81
615.903	248.81
616.111	229.81
616.318	227.81
616.526	257.81
616.733	241.81
616.941	232.81
617.148	250.81
617.356	243.81
617.563	213.81
617.771	238.81
617.978	226.81
618.185	246.81
618.393	226.81
618.6	235.81
618.807	237.81
619.015	237.81
619.222	232.81
619.429	232.81
619.637	242.81
619.844	238.81
620.051	228.81
620.258	222.81
620.466	213.81
620.673	229.81
620.88	231.81
621.087	233.81
621.294	222.81
621.501	220.81
621.708	209.81
621.915	216.81
622.122	227.81
622.329	225.81
622.536	228.81
622.743	218.81
622.95	215.81
623.157	216.81
623.364	206.81
623.571	210.81
623.778	211.81
623.985	221.81
624.192	206.81
624.399	215.81
624.606	217.81
624.812	215.81
625.019	206.81
625.226	226.81
625.433	214.81
625.639	230.81
625.846	208.81
626.053	210.81
626.259	209.81
626.466	199.81
626.673	218.81
626.879	214.81
627.086	205.81
627.293	197.81
627.499	206.81
627.706	217.81
627.912	218.81
628.119	186.81
628.325	197.81
628.532	210.81
628.738	197.81
628.945	186.81
629.151	217.81
629.357	212.81
629.564	210.81
629.77	203.81
629.976	184.81
630.183	205.81
630.389	197.81
630.595	187.81
630.802	191.81
631.008	206.81
631.214	196.81
631.42	199.81
631.627	201.81
631.833	200.81
632.039	203.81
632.245	180.81
632.451	204.81
632.657	184.81
632.863	197.81
633.069	189.81
633.275	188.81
633.481	180.81
633.688	201.81
633.893	190.81
634.099	178.81
634.305	186.81
634.511	200.81
634.717	199.81
634.923	177.81
635.129	180.81
635.335	168.81
635.541	190.81
635.747	175.81
635.952	182.81
636.158	184.81
636.364	173.81
636.57	194.81
636.775	190.81
636.981	186.81
637.187	190.81
637.392	179.81
637.598	169.81
637.804	182.81
638.009	198.81
638.215	187.81
638.421	204.81
638.626	197.81
638.832	181.81
639.037	164.81
639.243	178.81
639.448	171.81
639.654	178.81
639.859	173.81
640.065	153.81
640.27	181.81
640.475	184.81
640.681	169.81
640.886	178.81
641.091	162.81
641.297	165.81
641.502	171.81
641.707	182.81
641.913	179.81
642.118	181.81
642.323	164.81
642.528	178.81
642.733	158.81
642.939	179.81
643.144	181.81
643.349	174.81
643.554	172.81
643.759	180.81
643.964	170.81
644.169	162.81
644.374	164.81
644.579	183.81
644.784	173.81
644.989	169.81
645.194	180.81
645.399	176.81
645.604	153.81
645.809	172.81
646.014	178.81
646.219	162.81
646.423	170.81
646.628	187.81
646.833	167.81
647.038	180.81
647.243	179.81
647.447	178.81
647.652	181.81
647.857	180.81
648.062	164.81
648.266	161.81
648.471	169.81
648.676	186.81
648.88	170.81
649.085	166.81
649.289	165.81
649.494	168.81
649.698	175.81
649.903	178.81
650.107	164.81
650.312	174.81
650.516	141.81
650.721	167.81
650.925	165.81
651.13	151.81
651.334	168.81
651.539	172.81
651.743	149.81
651.947	156.81
652.152	164.81
652.356	150.81
652.56	154.81
652.764	136.81
652.969	134.81
653.173	133.81
653.377	134.81
653.581	141.81
653.785	150.81
653.99	140.81
654.194	136.81
654.398	131.81
654.602	149.81
654.806	154.81
655.01	164.81
655.214	140.81
655.418	129.81
655.622	134.81
655.826	128.81
656.03	143.81
656.234	129.81
656.438	148.81
656.642	122.81
656.846	132.81
657.049	118.81
657.253	154.81
657.457	126.81
657.661	126.81
657.865	107.81
658.068	104.81
658.272	99.81
658.476	107.81
658.68	96.81
658.883	93.81
659.087	91.81
659.291	92.81
659.494	105.81
659.698	99.81
659.901	103.81
660.105	80.81
660.309	107.81
660.512	102.81
660.716	101.81
660.919	94.81
661.123	90.81
661.326	87.81
661.53	88.81
661.733	104.81
661.936	90.81
662.14	83.81
662.343	86.81
662.546	88.81
662.75	85.81
662.953	81.81
663.156	80.81
663.36	87.81
663.563	81.81
663.766	84.81
663.969	81.81
664.173	90.81
664.376	83.81
664.579	80.81
664.782	85.81
664.985	81.81
665.188	80.81
665.391	90.81
665.594	86.81
665.797	86.81
666	96.81
666.203	87.81
666.406	78.81
666.609	78.81
666.812	82.81
667.015	98.81
667.218	94.81
667.421	97.81
667.624	89.81
667.827	81.81
668.03	90.81
668.232	88.81
668.435	85.81
668.638	79.81
668.841	109.81
669.043	91.81
669.246	89.81
669.449	95.81
669.651	96.81
669.854	86.81
670.057	83.81
670.259	80.81
670.462	89.81
670.665	68.81
670.867	92.81
671.07	82.81
671.272	89.81
671.475	77.81
671.677	87.81
671.88	91.81
672.082	82.81
672.284	90.81
672.487	93.81
672.689	73.81
672.892	79.81
