Data from 1976.PennyLincolnUp.Lamp.En5.5.200Scan.071719.P1.Changed Mount._HRD10591_16-00-10-860.txt Node
Date: Thu Jul 18 16:00:10 EDT 2019
User: cochatt
Spectrometer: HR+D1059
Trigger mode: 1
Integration Time (sec): 1.000000E-1
Scans to average: 1
Electric dark correction enabled: true
Nonlinearity correction enabled: false
Boxcar width: 0
XAxis mode: Wavelengths
Number of Pixels in Spectrum: 2048
>>>>>Begin Spectral Data<<<<<
223.165	-30.25
223.4	-30.25
223.635	-30.25
223.869	-28.25
224.104	-21.25
224.338	-24.25
224.573	-0.25
224.808	-12.25
225.042	-8.25
225.277	4.75
225.511	-9.25
225.746	1.75
225.98	0.75
226.215	11.75
226.449	15.75
226.683	35.75
226.918	26.75
227.152	36.75
227.387	27.75
227.621	48.75
227.856	38.75
228.09	36.75
228.324	45.75
228.559	57.75
228.793	57.75
229.027	96.75
229.262	94.75
229.496	99.75
229.73	128.75
229.964	128.75
230.199	106.75
230.433	113.75
230.667	113.75
230.901	102.75
231.136	105.75
231.37	114.75
231.604	104.75
231.838	108.75
232.072	101.75
232.306	109.75
232.541	115.75
232.775	110.75
233.009	123.75
233.243	109.75
233.477	115.75
233.711	111.75
233.945	117.75
234.179	114.75
234.413	122.75
234.647	116.75
234.881	121.75
235.115	115.75
235.349	117.75
235.583	113.75
235.817	121.75
236.051	120.75
236.285	126.75
236.519	128.75
236.753	122.75
236.987	134.75
237.221	176.75
237.455	220.75
237.689	168.75
237.922	126.75
238.156	126.75
238.39	118.75
238.624	127.75
238.858	120.75
239.091	130.75
239.325	119.75
239.559	136.75
239.793	126.75
240.027	136.75
240.26	133.75
240.494	148.75
240.728	121.75
240.961	141.75
241.195	133.75
241.429	132.75
241.662	140.75
241.896	144.75
242.13	122.75
242.363	136.75
242.597	134.75
242.83	150.75
243.064	152.75
243.298	137.75
243.531	137.75
243.765	121.75
243.998	142.75
244.232	139.75
244.465	136.75
244.699	144.75
244.932	142.75
245.166	150.75
245.399	129.75
245.633	150.75
245.866	135.75
246.099	156.75
246.333	160.75
246.566	154.75
246.8	148.75
247.033	149.75
247.266	149.75
247.5	141.75
247.733	179.75
247.966	182.75
248.2	166.75
248.433	178.75
248.666	157.75
248.899	172.75
249.133	194.75
249.366	195.75
249.599	184.75
249.832	188.75
250.066	176.75
250.299	185.75
250.532	193.75
250.765	194.75
250.998	216.75
251.231	220.75
251.465	210.75
251.698	210.75
251.931	183.75
252.164	190.75
252.397	181.75
252.63	199.75
252.863	186.75
253.096	201.75
253.329	225.75
253.562	206.75
253.795	205.75
254.028	200.75
254.261	200.75
254.494	202.75
254.727	244.75
254.96	252.75
255.193	253.75
255.426	223.75
255.659	224.75
255.892	201.75
256.124	206.75
256.357	231.75
256.59	221.75
256.823	195.75
257.056	216.75
257.289	182.75
257.521	218.75
257.754	190.75
257.987	217.75
258.22	182.75
258.452	204.75
258.685	204.75
258.918	209.75
259.151	202.75
259.383	211.75
259.616	201.75
259.849	215.75
260.081	227.75
260.314	242.75
260.547	247.75
260.779	213.75
261.012	224.75
261.244	189.75
261.477	219.75
261.71	229.75
261.942	222.75
262.175	217.75
262.407	213.75
262.64	213.75
262.872	205.75
263.105	205.75
263.337	204.75
263.57	197.75
263.802	210.75
264.035	206.75
264.267	205.75
264.499	204.75
264.732	211.75
264.964	217.75
265.197	217.75
265.429	218.75
265.661	213.75
265.894	217.75
266.126	195.75
266.358	201.75
266.591	209.75
266.823	204.75
267.055	237.75
267.287	229.75
267.52	227.75
267.752	225.75
267.984	241.75
268.216	219.75
268.448	217.75
268.681	217.75
268.913	218.75
269.145	258.75
269.377	276.75
269.609	267.75
269.841	244.75
270.073	264.75
270.306	267.75
270.538	286.75
270.77	286.75
271.002	284.75
271.234	276.75
271.466	281.75
271.698	299.75
271.93	296.75
272.162	304.75
272.394	298.75
272.626	309.75
272.858	268.75
273.09	268.75
273.322	275.75
273.553	260.75
273.785	255.75
274.017	249.75
274.249	260.75
274.481	250.75
274.713	250.75
274.945	272.75
275.176	263.75
275.408	244.75
275.64	269.75
275.872	252.75
276.104	245.75
276.335	242.75
276.567	264.75
276.799	260.75
277.031	283.75
277.262	323.75
277.494	309.75
277.726	295.75
277.957	270.75
278.189	270.75
278.421	281.75
278.652	266.75
278.884	262.75
279.115	275.75
279.347	268.75
279.579	277.75
279.81	265.75
280.042	264.75
280.273	274.75
280.505	280.75
280.736	279.75
280.968	277.75
281.199	281.75
281.431	274.75
281.662	282.75
281.894	259.75
282.125	275.75
282.356	292.75
282.588	295.75
282.819	291.75
283.051	266.75
283.282	268.75
283.513	260.75
283.745	267.75
283.976	301.75
284.207	290.75
284.439	284.75
284.67	295.75
284.901	280.75
285.132	268.75
285.364	293.75
285.595	288.75
285.826	274.75
286.057	275.75
286.288	283.75
286.52	289.75
286.751	290.75
286.982	294.75
287.213	291.75
287.444	290.75
287.675	302.75
287.906	314.75
288.138	306.75
288.369	301.75
288.6	298.75
288.831	309.75
289.062	306.75
289.293	306.75
289.524	290.75
289.755	282.75
289.986	293.75
290.217	294.75
290.448	287.75
290.679	285.75
290.91	292.75
291.141	308.75
291.371	285.75
291.602	294.75
291.833	288.75
292.064	304.75
292.295	300.75
292.526	280.75
292.757	306.75
292.987	310.75
293.218	298.75
293.449	295.75
293.68	289.75
293.91	277.75
294.141	286.75
294.372	298.75
294.603	310.75
294.833	320.75
295.064	289.75
295.295	297.75
295.525	306.75
295.756	300.75
295.987	283.75
296.217	320.75
296.448	322.75
296.679	298.75
296.909	302.75
297.14	317.75
297.37	304.75
297.601	304.75
297.831	291.75
298.062	312.75
298.292	300.75
298.523	304.75
298.753	310.75
298.984	287.75
299.214	297.75
299.445	302.75
299.675	297.75
299.905	325.75
300.136	310.75
300.366	313.75
300.597	290.75
300.827	329.75
301.057	328.75
301.288	331.75
301.518	345.75
301.748	314.75
301.979	335.75
302.209	324.75
302.439	340.75
302.669	330.75
302.9	335.75
303.13	352.75
303.36	325.75
303.59	325.75
303.82	341.75
304.051	335.75
304.281	338.75
304.511	329.75
304.741	320.75
304.971	351.75
305.201	332.75
305.431	330.75
305.661	345.75
305.891	332.75
306.121	334.75
306.352	329.75
306.582	350.75
306.812	311.75
307.042	321.75
307.272	328.75
307.502	333.75
307.731	351.75
307.961	327.75
308.191	323.75
308.421	324.75
308.651	335.75
308.881	338.75
309.111	361.75
309.341	350.75
309.571	344.75
309.8	353.75
310.03	352.75
310.26	364.75
310.49	368.75
310.72	373.75
310.949	360.75
311.179	359.75
311.409	360.75
311.639	365.75
311.868	366.75
312.098	348.75
312.328	364.75
312.557	378.75
312.787	392.75
313.017	389.75
313.246	369.75
313.476	372.75
313.706	378.75
313.935	379.75
314.165	384.75
314.394	378.75
314.624	381.75
314.853	374.75
315.083	379.75
315.312	365.75
315.542	364.75
315.771	376.75
316.001	351.75
316.23	356.75
316.46	346.75
316.689	363.75
316.919	380.75
317.148	386.75
317.377	386.75
317.607	370.75
317.836	383.75
318.065	369.75
318.295	349.75
318.524	364.75
318.753	356.75
318.983	373.75
319.212	382.75
319.441	378.75
319.67	388.75
319.9	384.75
320.129	372.75
320.358	374.75
320.587	367.75
320.816	392.75
321.046	377.75
321.275	394.75
321.504	397.75
321.733	397.75
321.962	372.75
322.191	408.75
322.42	409.75
322.649	409.75
322.878	424.75
323.108	421.75
323.337	448.75
323.566	441.75
323.795	452.75
324.024	490.75
324.253	562.75
324.482	771.75
324.71	1167.75
324.939	1696.75
325.168	1481.75
325.397	776.75
325.626	548.75
325.855	477.75
326.084	445.75
326.313	455.75
326.542	466.75
326.77	484.75
326.999	521.75
327.228	711.75
327.457	1033.75
327.686	1272.75
327.914	844.75
328.143	573.75
328.372	532.75
328.6	511.75
328.829	494.75
329.058	504.75
329.287	520.75
329.515	447.75
329.744	466.75
329.972	452.75
330.201	490.75
330.43	496.75
330.658	522.75
330.887	542.75
331.115	535.75
331.344	484.75
331.572	450.75
331.801	453.75
332.03	460.75
332.258	422.75
332.486	429.75
332.715	445.75
332.943	438.75
333.172	444.75
333.4	449.75
333.629	444.75
333.857	477.75
334.085	464.75
334.314	475.75
334.542	502.75
334.771	510.75
334.999	501.75
335.227	472.75
335.455	458.75
335.684	456.75
335.912	445.75
336.14	440.75
336.369	429.75
336.597	448.75
336.825	424.75
337.053	434.75
337.281	445.75
337.51	428.75
337.738	458.75
337.966	458.75
338.194	420.75
338.422	436.75
338.65	420.75
338.878	428.75
339.106	424.75
339.334	451.75
339.562	408.75
339.79	407.75
340.018	416.75
340.246	429.75
340.474	417.75
340.702	425.75
340.93	430.75
341.158	423.75
341.386	442.75
341.614	420.75
341.842	414.75
342.07	423.75
342.298	410.75
342.526	409.75
342.754	411.75
342.981	419.75
343.209	414.75
343.437	433.75
343.665	427.75
343.893	437.75
344.12	437.75
344.348	451.75
344.576	438.75
344.804	438.75
345.031	453.75
345.259	457.75
345.487	407.75
345.714	414.75
345.942	415.75
346.17	420.75
346.397	396.75
346.625	395.75
346.853	420.75
347.08	405.75
347.308	418.75
347.535	425.75
347.763	416.75
347.99	396.75
348.218	423.75
348.445	424.75
348.673	409.75
348.9	418.75
349.128	402.75
349.355	388.75
349.583	380.75
349.81	397.75
350.037	393.75
350.265	391.75
350.492	394.75
350.72	378.75
350.947	394.75
351.174	384.75
351.402	406.75
351.629	409.75
351.856	418.75
352.083	421.75
352.311	420.75
352.538	402.75
352.765	410.75
352.992	412.75
353.22	400.75
353.447	404.75
353.674	421.75
353.901	398.75
354.128	367.75
354.355	402.75
354.583	390.75
354.81	400.75
355.037	397.75
355.264	380.75
355.491	362.75
355.718	394.75
355.945	395.75
356.172	398.75
356.399	410.75
356.626	378.75
356.853	377.75
357.08	378.75
357.307	375.75
357.534	386.75
357.761	377.75
357.988	400.75
358.215	390.75
358.441	372.75
358.668	378.75
358.895	376.75
359.122	380.75
359.349	412.75
359.576	439.75
359.802	414.75
360.029	430.75
360.256	431.75
360.483	418.75
360.709	389.75
360.936	381.75
361.163	413.75
361.39	383.75
361.616	406.75
361.843	377.75
362.07	382.75
362.296	395.75
362.523	389.75
362.749	408.75
362.976	396.75
363.203	381.75
363.429	400.75
363.656	399.75
363.882	379.75
364.109	390.75
364.335	379.75
364.562	403.75
364.788	378.75
365.015	379.75
365.241	385.75
365.468	386.75
365.694	412.75
365.92	387.75
366.147	385.75
366.373	374.75
366.599	392.75
366.826	396.75
367.052	382.75
367.278	384.75
367.505	380.75
367.731	382.75
367.957	382.75
368.184	385.75
368.41	383.75
368.636	404.75
368.862	414.75
369.089	404.75
369.315	393.75
369.541	390.75
369.767	381.75
369.993	389.75
370.219	381.75
370.445	377.75
370.672	411.75
370.898	394.75
371.124	397.75
371.35	388.75
371.576	418.75
371.802	376.75
372.028	402.75
372.254	386.75
372.48	390.75
372.706	377.75
372.932	393.75
373.158	399.75
373.384	406.75
373.61	396.75
373.835	384.75
374.061	407.75
374.287	409.75
374.513	403.75
374.739	422.75
374.965	429.75
375.191	413.75
375.416	386.75
375.642	402.75
375.868	415.75
376.094	406.75
376.319	396.75
376.545	407.75
376.771	391.75
376.997	390.75
377.222	384.75
377.448	398.75
377.674	401.75
377.899	396.75
378.125	386.75
378.35	393.75
378.576	410.75
378.802	388.75
379.027	385.75
379.253	376.75
379.478	367.75
379.704	411.75
379.929	399.75
380.155	409.75
380.38	392.75
380.606	401.75
380.831	426.75
381.057	411.75
381.282	413.75
381.507	392.75
381.733	392.75
381.958	407.75
382.184	404.75
382.409	397.75
382.634	422.75
382.86	412.75
383.085	415.75
383.31	408.75
383.535	440.75
383.761	402.75
383.986	437.75
384.211	437.75
384.436	419.75
384.662	430.75
384.887	455.75
385.112	441.75
385.337	432.75
385.562	433.75
385.787	443.75
386.013	469.75
386.238	444.75
386.463	455.75
386.688	438.75
386.913	434.75
387.138	444.75
387.363	445.75
387.588	425.75
387.813	438.75
388.038	457.75
388.263	438.75
388.488	442.75
388.713	427.75
388.938	438.75
389.163	438.75
389.387	465.75
389.612	445.75
389.837	419.75
390.062	428.75
390.287	433.75
390.512	427.75
390.736	439.75
390.961	444.75
391.186	439.75
391.411	446.75
391.636	462.75
391.86	460.75
392.085	451.75
392.31	456.75
392.534	456.75
392.759	450.75
392.984	441.75
393.208	449.75
393.433	431.75
393.658	434.75
393.882	441.75
394.107	472.75
394.331	456.75
394.556	459.75
394.78	450.75
395.005	444.75
395.229	454.75
395.454	458.75
395.678	464.75
395.903	485.75
396.127	505.75
396.352	487.75
396.576	452.75
396.801	458.75
397.025	455.75
397.249	472.75
397.474	469.75
397.698	478.75
397.922	490.75
398.147	490.75
398.371	498.75
398.595	502.75
398.82	531.75
399.044	532.75
399.268	546.75
399.492	578.75
399.717	621.75
399.941	645.75
400.165	644.75
400.389	642.75
400.613	599.75
400.837	548.75
401.062	518.75
401.286	529.75
401.51	507.75
401.734	507.75
401.958	510.75
402.182	516.75
402.406	527.75
402.63	514.75
402.854	519.75
403.078	564.75
403.302	536.75
403.526	540.75
403.75	562.75
403.974	545.75
404.198	543.75
404.422	546.75
404.645	523.75
404.869	534.75
405.093	585.75
405.317	602.75
405.541	643.75
405.765	616.75
405.988	570.75
406.212	570.75
406.436	597.75
406.66	600.75
406.883	590.75
407.107	596.75
407.331	631.75
407.555	708.75
407.778	721.75
408.002	650.75
408.226	589.75
408.449	604.75
408.673	553.75
408.896	570.75
409.12	620.75
409.344	598.75
409.567	554.75
409.791	553.75
410.014	547.75
410.238	552.75
410.461	546.75
410.685	534.75
410.908	538.75
411.132	581.75
411.355	609.75
411.578	575.75
411.802	544.75
412.025	525.75
412.249	546.75
412.472	569.75
412.695	594.75
412.919	585.75
413.142	552.75
413.365	525.75
413.589	530.75
413.812	513.75
414.035	516.75
414.258	508.75
414.482	510.75
414.705	503.75
414.928	496.75
415.151	492.75
415.374	515.75
415.597	502.75
415.821	501.75
416.044	498.75
416.267	510.75
416.49	492.75
416.713	479.75
416.936	503.75
417.159	500.75
417.382	521.75
417.605	492.75
417.828	506.75
418.051	526.75
418.274	530.75
418.497	489.75
418.72	521.75
418.943	515.75
419.166	535.75
419.389	547.75
419.611	532.75
419.834	530.75
420.057	538.75
420.28	498.75
420.503	524.75
420.726	532.75
420.948	525.75
421.171	599.75
421.394	586.75
421.617	552.75
421.839	522.75
422.062	518.75
422.285	532.75
422.507	596.75
422.73	635.75
422.953	623.75
423.175	576.75
423.398	542.75
423.621	541.75
423.843	548.75
424.066	561.75
424.288	556.75
424.511	586.75
424.733	643.75
424.956	714.75
425.178	676.75
425.401	661.75
425.623	698.75
425.846	600.75
426.068	568.75
426.291	538.75
426.513	524.75
426.735	540.75
426.958	611.75
427.18	675.75
427.402	774.75
427.625	823.75
427.847	734.75
428.069	640.75
428.292	572.75
428.514	527.75
428.736	531.75
428.958	518.75
429.181	512.75
429.403	502.75
429.625	512.75
429.847	542.75
430.069	582.75
430.292	586.75
430.514	535.75
430.736	500.75
430.958	503.75
431.18	503.75
431.402	500.75
431.624	496.75
431.846	484.75
432.068	492.75
432.29	486.75
432.512	468.75
432.734	488.75
432.956	483.75
433.178	500.75
433.4	481.75
433.622	528.75
433.844	506.75
434.066	515.75
434.287	482.75
434.509	487.75
434.731	490.75
434.953	497.75
435.175	513.75
435.397	531.75
435.618	557.75
435.84	583.75
436.062	653.75
436.284	746.75
436.505	610.75
436.727	550.75
436.949	522.75
437.17	526.75
437.392	517.75
437.614	523.75
437.835	518.75
438.057	599.75
438.278	696.75
438.5	713.75
438.721	796.75
438.943	749.75
439.165	597.75
439.386	557.75
439.608	554.75
439.829	550.75
440.05	578.75
440.272	626.75
440.493	590.75
440.715	517.75
440.936	521.75
441.158	496.75
441.379	509.75
441.6	550.75
441.822	517.75
442.043	584.75
442.264	649.75
442.486	691.75
442.707	599.75
442.928	550.75
443.149	556.75
443.371	586.75
443.592	634.75
443.813	696.75
444.034	773.75
444.255	652.75
444.476	579.75
444.698	566.75
444.919	570.75
445.14	690.75
445.361	646.75
445.582	577.75
445.803	643.75
446.024	706.75
446.245	730.75
446.466	670.75
446.687	587.75
446.908	540.75
447.129	516.75
447.35	527.75
447.571	514.75
447.792	490.75
448.013	500.75
448.234	506.75
448.455	564.75
448.675	657.75
448.896	772.75
449.117	634.75
449.338	603.75
449.559	709.75
449.779	802.75
450	634.75
450.221	538.75
450.442	499.75
450.662	497.75
450.883	498.75
451.104	497.75
451.324	489.75
451.545	477.75
451.766	430.75
451.986	437.75
452.207	437.75
452.428	428.75
452.648	443.75
452.869	428.75
453.089	438.75
453.31	461.75
453.53	460.75
453.751	451.75
453.971	453.75
454.192	434.75
454.412	432.75
454.633	425.75
454.853	438.75
455.073	426.75
455.294	470.75
455.514	517.75
455.734	535.75
455.955	456.75
456.175	429.75
456.395	426.75
456.616	411.75
456.836	415.75
457.056	405.75
457.276	418.75
457.497	405.75
457.717	441.75
457.937	439.75
458.157	437.75
458.377	428.75
458.598	476.75
458.818	483.75
459.038	551.75
459.258	595.75
459.478	506.75
459.698	486.75
459.918	491.75
460.138	489.75
460.358	498.75
460.578	505.75
460.798	504.75
461.018	519.75
461.238	527.75
461.458	502.75
461.678	500.75
461.898	506.75
462.118	519.75
462.338	542.75
462.558	541.75
462.777	547.75
462.997	561.75
463.217	566.75
463.437	587.75
463.657	546.75
463.876	546.75
464.096	569.75
464.316	552.75
464.536	558.75
464.755	556.75
464.975	552.75
465.195	573.75
465.414	579.75
465.634	541.75
465.854	529.75
466.073	497.75
466.293	475.75
466.512	488.75
466.732	468.75
466.951	467.75
467.171	456.75
467.391	452.75
467.61	477.75
467.829	474.75
468.049	489.75
468.268	489.75
468.488	453.75
468.707	451.75
468.927	465.75
469.146	441.75
469.365	454.75
469.585	446.75
469.804	458.75
470.023	478.75
470.243	483.75
470.462	489.75
470.681	493.75
470.901	490.75
471.12	461.75
471.339	463.75
471.558	474.75
471.777	468.75
471.997	442.75
472.216	482.75
472.435	486.75
472.654	484.75
472.873	480.75
473.092	465.75
473.311	462.75
473.53	440.75
473.749	477.75
473.968	488.75
474.187	601.75
474.406	632.75
474.625	534.75
474.844	503.75
475.063	461.75
475.282	483.75
475.501	470.75
475.72	483.75
475.939	474.75
476.158	469.75
476.377	482.75
476.596	473.75
476.814	504.75
477.033	520.75
477.252	507.75
477.471	507.75
477.69	494.75
477.908	512.75
478.127	516.75
478.346	506.75
478.564	548.75
478.783	557.75
479.002	529.75
479.22	528.75
479.439	541.75
479.658	566.75
479.876	562.75
480.095	585.75
480.313	605.75
480.532	587.75
480.751	598.75
480.969	576.75
481.188	621.75
481.406	609.75
481.624	593.75
481.843	563.75
482.061	548.75
482.28	550.75
482.498	560.75
482.717	541.75
482.935	552.75
483.153	541.75
483.372	566.75
483.59	522.75
483.808	541.75
484.027	542.75
484.245	550.75
484.463	549.75
484.681	536.75
484.9	560.75
485.118	532.75
485.336	556.75
485.554	553.75
485.772	553.75
485.99	550.75
486.209	576.75
486.427	571.75
486.645	572.75
486.863	565.75
487.081	589.75
487.299	596.75
487.517	570.75
487.735	564.75
487.953	584.75
488.171	578.75
488.389	579.75
488.607	595.75
488.825	578.75
489.043	610.75
489.261	594.75
489.479	589.75
489.696	565.75
489.914	594.75
490.132	569.75
490.35	609.75
490.568	610.75
490.786	620.75
491.003	627.75
491.221	627.75
491.439	660.75
491.657	654.75
491.874	648.75
492.092	664.75
492.31	654.75
492.527	680.75
492.745	666.75
492.963	660.75
493.18	669.75
493.398	657.75
493.615	676.75
493.833	672.75
494.05	675.75
494.268	692.75
494.485	693.75
494.703	674.75
494.92	682.75
495.138	684.75
495.355	664.75
495.573	684.75
495.79	698.75
496.008	688.75
496.225	691.75
496.442	666.75
496.66	703.75
496.877	691.75
497.094	689.75
497.312	700.75
497.529	721.75
497.746	712.75
497.963	738.75
498.181	757.75
498.398	738.75
498.615	779.75
498.832	794.75
499.049	799.75
499.267	852.75
499.484	881.75
499.701	914.75
499.918	958.75
500.135	1034.75
500.352	1073.75
500.569	1131.75
500.786	1102.75
501.003	1079.75
501.22	1033.75
501.437	995.75
501.654	932.75
501.871	916.75
502.088	898.75
502.305	855.75
502.522	805.75
502.739	787.75
502.956	774.75
503.172	752.75
503.389	749.75
503.606	739.75
503.823	730.75
504.04	690.75
504.256	710.75
504.473	722.75
504.69	710.75
504.907	680.75
505.123	686.75
505.34	686.75
505.557	692.75
505.773	684.75
505.99	655.75
506.207	638.75
506.423	645.75
506.64	647.75
506.856	640.75
507.073	634.75
507.289	629.75
507.506	623.75
507.722	606.75
507.939	621.75
508.155	622.75
508.372	604.75
508.588	593.75
508.805	574.75
509.021	607.75
509.238	606.75
509.454	616.75
509.67	608.75
509.887	588.75
510.103	589.75
510.319	612.75
510.536	654.75
510.752	969.75
510.968	796.75
511.184	622.75
511.401	584.75
511.617	568.75
511.833	556.75
512.049	594.75
512.265	560.75
512.481	576.75
512.698	583.75
512.914	567.75
513.13	573.75
513.346	558.75
513.562	559.75
513.778	577.75
513.994	564.75
514.21	605.75
514.426	600.75
514.642	613.75
514.858	632.75
515.074	658.75
515.29	717.75
515.506	980.75
515.721	845.75
515.937	631.75
516.153	618.75
516.369	590.75
516.585	600.75
516.801	596.75
517.016	590.75
517.232	621.75
517.448	618.75
517.664	626.75
517.879	634.75
518.095	619.75
518.311	616.75
518.527	594.75
518.742	610.75
518.958	619.75
519.173	609.75
519.389	576.75
519.605	587.75
519.82	562.75
520.036	586.75
520.251	586.75
520.467	628.75
520.682	592.75
520.898	600.75
521.113	586.75
521.329	624.75
521.544	661.75
521.76	773.75
521.975	1158.75
522.19	1162.75
522.406	729.75
522.621	593.75
522.836	566.75
523.052	542.75
523.267	522.75
523.482	525.75
523.698	525.75
523.913	518.75
524.128	524.75
524.343	499.75
524.559	501.75
524.774	488.75
524.989	510.75
525.204	512.75
525.419	492.75
525.634	502.75
525.849	486.75
526.064	496.75
526.28	467.75
526.495	481.75
526.71	476.75
526.925	488.75
527.14	482.75
527.355	489.75
527.57	498.75
527.785	491.75
527.999	466.75
528.214	476.75
528.429	494.75
528.644	482.75
528.859	484.75
529.074	492.75
529.289	477.75
529.503	539.75
529.718	524.75
529.933	523.75
530.148	480.75
530.363	479.75
530.577	460.75
530.792	453.75
531.007	457.75
531.221	459.75
531.436	463.75
531.651	460.75
531.865	472.75
532.08	466.75
532.295	486.75
532.509	466.75
532.724	464.75
532.938	468.75
533.153	451.75
533.367	438.75
533.582	467.75
533.796	472.75
534.011	458.75
534.225	460.75
534.44	442.75
534.654	459.75
534.868	470.75
535.083	452.75
535.297	445.75
535.511	459.75
535.726	479.75
535.94	459.75
536.154	458.75
536.369	480.75
536.583	434.75
536.797	443.75
537.011	452.75
537.225	443.75
537.44	427.75
537.654	444.75
537.868	456.75
538.082	430.75
538.296	448.75
538.51	451.75
538.724	456.75
538.938	470.75
539.153	439.75
539.367	457.75
539.581	439.75
539.795	437.75
540.009	432.75
540.222	459.75
540.436	431.75
540.65	460.75
540.864	458.75
541.078	433.75
541.292	439.75
541.506	446.75
541.72	457.75
541.934	463.75
542.147	441.75
542.361	451.75
542.575	447.75
542.789	434.75
543.002	443.75
543.216	439.75
543.43	458.75
543.644	444.75
543.857	467.75
544.071	444.75
544.285	437.75
544.498	421.75
544.712	458.75
544.925	433.75
545.139	433.75
545.352	431.75
545.566	428.75
545.779	444.75
545.993	443.75
546.206	458.75
546.42	454.75
546.633	437.75
546.847	445.75
547.06	430.75
547.274	458.75
547.487	426.75
547.7	448.75
547.914	450.75
548.127	439.75
548.34	436.75
548.554	446.75
548.767	440.75
548.98	425.75
549.193	424.75
549.407	433.75
549.62	436.75
549.833	439.75
550.046	437.75
550.259	416.75
550.473	412.75
550.686	460.75
550.899	451.75
551.112	440.75
551.325	426.75
551.538	441.75
551.751	429.75
551.964	423.75
552.177	416.75
552.39	441.75
552.603	430.75
552.816	444.75
553.029	432.75
553.242	446.75
553.455	448.75
553.667	450.75
553.88	466.75
554.093	442.75
554.306	441.75
554.519	447.75
554.732	444.75
554.944	433.75
555.157	424.75
555.37	412.75
555.583	418.75
555.795	392.75
556.008	409.75
556.221	421.75
556.433	411.75
556.646	389.75
556.859	399.75
557.071	396.75
557.284	394.75
557.496	392.75
557.709	358.75
557.921	394.75
558.134	398.75
558.346	384.75
558.559	386.75
558.771	411.75
558.984	390.75
559.196	390.75
559.409	377.75
559.621	390.75
559.833	375.75
560.046	385.75
560.258	382.75
560.47	388.75
560.683	389.75
560.895	373.75
561.107	381.75
561.32	381.75
561.532	378.75
561.744	371.75
561.956	388.75
562.168	388.75
562.381	393.75
562.593	402.75
562.805	389.75
563.017	404.75
563.229	406.75
563.441	398.75
563.653	397.75
563.865	392.75
564.077	391.75
564.289	420.75
564.501	401.75
564.713	416.75
564.925	408.75
565.137	422.75
565.349	417.75
565.561	401.75
565.773	413.75
565.985	417.75
566.197	450.75
566.408	451.75
566.62	469.75
566.832	499.75
567.044	500.75
567.255	507.75
567.467	517.75
567.679	516.75
567.891	554.75
568.102	541.75
568.314	524.75
568.526	498.75
568.737	480.75
568.949	470.75
569.161	425.75
569.372	442.75
569.584	424.75
569.795	409.75
570.007	414.75
570.218	427.75
570.43	414.75
570.641	387.75
570.853	378.75
571.064	392.75
571.276	379.75
571.487	389.75
571.698	392.75
571.91	369.75
572.121	342.75
572.333	365.75
572.544	352.75
572.755	338.75
572.966	372.75
573.178	362.75
573.389	343.75
573.6	348.75
573.811	331.75
574.023	329.75
574.234	331.75
574.445	331.75
574.656	341.75
574.867	337.75
575.078	335.75
575.289	346.75
575.501	326.75
575.712	334.75
575.923	326.75
576.134	330.75
576.345	322.75
576.556	350.75
576.767	327.75
576.978	329.75
577.188	314.75
577.399	323.75
577.61	326.75
577.821	313.75
578.032	302.75
578.243	328.75
578.454	476.75
578.665	367.75
578.875	316.75
579.086	321.75
579.297	320.75
579.508	325.75
579.718	308.75
579.929	297.75
580.14	305.75
580.35	308.75
580.561	295.75
580.772	307.75
580.982	311.75
581.193	281.75
581.403	306.75
581.614	289.75
581.825	290.75
582.035	299.75
582.246	296.75
582.456	309.75
582.667	304.75
582.877	304.75
583.087	304.75
583.298	290.75
583.508	301.75
583.719	282.75
583.929	301.75
584.139	287.75
584.35	306.75
584.56	297.75
584.77	291.75
584.981	286.75
585.191	293.75
585.401	294.75
585.611	281.75
585.821	296.75
586.032	292.75
586.242	277.75
586.452	300.75
586.662	273.75
586.872	290.75
587.082	310.75
587.292	300.75
587.502	315.75
587.713	266.75
587.923	277.75
588.133	295.75
588.343	292.75
588.553	283.75
588.762	288.75
588.972	301.75
589.182	314.75
589.392	288.75
589.602	304.75
589.812	280.75
590.022	310.75
590.232	283.75
590.441	293.75
590.651	289.75
590.861	287.75
591.071	297.75
591.281	288.75
591.49	285.75
591.7	315.75
591.91	296.75
592.119	296.75
592.329	308.75
592.539	318.75
592.748	325.75
592.958	325.75
593.167	323.75
593.377	314.75
593.587	319.75
593.796	321.75
594.006	330.75
594.215	332.75
594.424	304.75
594.634	323.75
594.843	315.75
595.053	305.75
595.262	296.75
595.472	314.75
595.681	302.75
595.89	283.75
596.1	283.75
596.309	292.75
596.518	304.75
596.727	300.75
596.937	286.75
597.146	285.75
597.355	270.75
597.564	285.75
597.774	257.75
597.983	269.75
598.192	245.75
598.401	268.75
598.61	248.75
598.819	276.75
599.028	285.75
599.237	269.75
599.446	276.75
599.655	270.75
599.864	242.75
600.073	254.75
600.282	246.75
600.491	267.75
600.7	246.75
600.909	241.75
601.118	252.75
601.327	260.75
601.536	269.75
601.745	245.75
601.953	255.75
602.162	260.75
602.371	256.75
602.58	245.75
602.789	256.75
602.997	271.75
603.206	253.75
603.415	244.75
603.623	244.75
603.832	240.75
604.041	257.75
604.249	248.75
604.458	257.75
604.666	243.75
604.875	245.75
605.084	252.75
605.292	241.75
605.501	251.75
605.709	234.75
605.918	248.75
606.126	252.75
606.334	240.75
606.543	262.75
606.751	244.75
606.96	231.75
607.168	232.75
607.376	249.75
607.585	250.75
607.793	244.75
608.001	226.75
608.21	233.75
608.418	236.75
608.626	255.75
608.834	260.75
609.043	237.75
609.251	254.75
609.459	243.75
609.667	230.75
609.875	246.75
610.083	232.75
610.291	238.75
610.499	231.75
610.707	251.75
610.916	237.75
611.124	256.75
611.332	258.75
611.54	263.75
611.748	248.75
611.955	234.75
612.163	237.75
612.371	232.75
612.579	248.75
612.787	250.75
612.995	257.75
613.203	247.75
613.411	240.75
613.618	234.75
613.826	221.75
614.034	230.75
614.242	231.75
614.449	245.75
614.657	224.75
614.865	231.75
615.072	232.75
615.28	248.75
615.488	221.75
615.695	235.75
615.903	227.75
616.111	231.75
616.318	237.75
616.526	242.75
616.733	238.75
616.941	222.75
617.148	226.75
617.356	240.75
617.563	237.75
617.771	220.75
617.978	233.75
618.185	239.75
618.393	218.75
618.6	221.75
618.807	223.75
619.015	232.75
619.222	231.75
619.429	232.75
619.637	237.75
619.844	236.75
620.051	211.75
620.258	223.75
620.466	228.75
620.673	218.75
620.88	202.75
621.087	229.75
621.294	231.75
621.501	217.75
621.708	217.75
621.915	232.75
622.122	230.75
622.329	231.75
622.536	225.75
622.743	207.75
622.95	203.75
623.157	222.75
623.364	227.75
623.571	216.75
623.778	223.75
623.985	210.75
624.192	228.75
624.399	202.75
624.606	213.75
624.812	202.75
625.019	216.75
625.226	221.75
625.433	221.75
625.639	219.75
625.846	198.75
626.053	200.75
626.259	190.75
626.466	194.75
626.673	201.75
626.879	196.75
627.086	204.75
627.293	195.75
627.499	196.75
627.706	213.75
627.912	197.75
628.119	222.75
628.325	205.75
628.532	218.75
628.738	206.75
628.945	186.75
629.151	201.75
629.357	204.75
629.564	210.75
629.77	204.75
629.976	186.75
630.183	202.75
630.389	186.75
630.595	190.75
630.802	184.75
631.008	184.75
631.214	196.75
631.42	200.75
631.627	201.75
631.833	197.75
632.039	182.75
632.245	184.75
632.451	188.75
632.657	177.75
632.863	185.75
633.069	195.75
633.275	183.75
633.481	184.75
633.688	177.75
633.893	191.75
634.099	192.75
634.305	195.75
634.511	193.75
634.717	187.75
634.923	178.75
635.129	186.75
635.335	188.75
635.541	184.75
635.747	177.75
635.952	191.75
636.158	183.75
636.364	194.75
636.57	185.75
636.775	187.75
636.981	184.75
637.187	186.75
637.392	176.75
637.598	186.75
637.804	174.75
638.009	158.75
638.215	185.75
638.421	169.75
638.626	161.75
638.832	181.75
639.037	146.75
639.243	183.75
639.448	169.75
639.654	176.75
639.859	162.75
640.065	168.75
640.27	169.75
640.475	160.75
640.681	160.75
640.886	173.75
641.091	177.75
641.297	164.75
641.502	161.75
641.707	190.75
641.913	174.75
642.118	178.75
642.323	168.75
642.528	160.75
642.733	152.75
642.939	168.75
643.144	161.75
643.349	167.75
643.554	174.75
643.759	168.75
643.964	146.75
644.169	163.75
644.374	168.75
644.579	178.75
644.784	153.75
644.989	172.75
645.194	173.75
645.399	160.75
645.604	169.75
645.809	173.75
646.014	185.75
646.219	164.75
646.423	160.75
646.628	185.75
646.833	162.75
647.038	164.75
647.243	162.75
647.447	161.75
647.652	165.75
647.857	160.75
648.062	162.75
648.266	171.75
648.471	168.75
648.676	167.75
648.88	168.75
649.085	168.75
649.289	162.75
649.494	164.75
649.698	198.75
649.903	187.75
650.107	173.75
650.312	164.75
650.516	159.75
650.721	156.75
650.925	170.75
651.13	153.75
651.334	159.75
651.539	155.75
651.743	139.75
651.947	130.75
652.152	138.75
652.356	141.75
652.56	135.75
652.764	154.75
652.969	136.75
653.173	142.75
653.377	144.75
653.581	137.75
653.785	160.75
653.99	143.75
654.194	134.75
654.398	145.75
654.602	136.75
654.806	134.75
655.01	142.75
655.214	137.75
655.418	131.75
655.622	129.75
655.826	130.75
656.03	128.75
656.234	114.75
656.438	124.75
656.642	128.75
656.846	152.75
657.049	141.75
657.253	128.75
657.457	129.75
657.661	100.75
657.865	114.75
658.068	123.75
658.272	123.75
658.476	108.75
658.68	111.75
658.883	112.75
659.087	103.75
659.291	98.75
659.494	113.75
659.698	103.75
659.901	99.75
660.105	98.75
660.309	94.75
660.512	101.75
660.716	104.75
660.919	100.75
661.123	96.75
661.326	77.75
661.53	86.75
661.733	81.75
661.936	91.75
662.14	90.75
662.343	83.75
662.546	88.75
662.75	78.75
662.953	91.75
663.156	83.75
663.36	86.75
663.563	79.75
663.766	89.75
663.969	87.75
664.173	87.75
664.376	76.75
664.579	70.75
664.782	76.75
664.985	80.75
665.188	82.75
665.391	76.75
665.594	70.75
665.797	82.75
666	77.75
666.203	82.75
666.406	80.75
666.609	69.75
666.812	81.75
667.015	68.75
667.218	86.75
667.421	87.75
667.624	60.75
667.827	81.75
668.03	71.75
668.232	74.75
668.435	71.75
668.638	95.75
668.841	80.75
669.043	71.75
669.246	77.75
669.449	66.75
669.651	86.75
669.854	79.75
670.057	78.75
670.259	76.75
670.462	72.75
670.665	85.75
670.867	85.75
671.07	78.75
671.272	79.75
671.475	90.75
671.677	74.75
671.88	83.75
672.082	65.75
672.284	78.75
672.487	91.75
672.689	72.75
672.892	86.75
