Data from 1976.PennyLincolnUp.Lamp.En5.5.200Scan.071719.P1.Changed Mount._HRD10591_16-02-39-862.txt Node
Date: Thu Jul 18 16:02:39 EDT 2019
User: cochatt
Spectrometer: HR+D1059
Trigger mode: 1
Integration Time (sec): 1.000000E-1
Scans to average: 1
Electric dark correction enabled: true
Nonlinearity correction enabled: false
Boxcar width: 0
XAxis mode: Wavelengths
Number of Pixels in Spectrum: 2048
>>>>>Begin Spectral Data<<<<<
223.165	-3.12
223.4	-3.12
223.635	-3.12
223.869	-26.12
224.104	-22.12
224.338	-12.12
224.573	-20.12
224.808	-21.12
225.042	-0.12
225.277	-12.12
225.511	3.88
225.746	3.88
225.98	14.88
226.215	10.88
226.449	13.88
226.683	17.88
226.918	32.88
227.152	18.88
227.387	30.88
227.621	34.88
227.856	37.88
228.09	43.88
228.324	57.88
228.559	71.88
228.793	62.88
229.027	109.88
229.262	112.88
229.496	113.88
229.73	135.88
229.964	155.88
230.199	126.88
230.433	111.88
230.667	123.88
230.901	113.88
231.136	132.88
231.37	121.88
231.604	117.88
231.838	105.88
232.072	94.88
232.306	115.88
232.541	103.88
232.775	111.88
233.009	106.88
233.243	114.88
233.477	118.88
233.711	117.88
233.945	126.88
234.179	123.88
234.413	117.88
234.647	121.88
234.881	114.88
235.115	127.88
235.349	122.88
235.583	114.88
235.817	123.88
236.051	140.88
236.285	136.88
236.519	133.88
236.753	125.88
236.987	143.88
237.221	178.88
237.455	227.88
237.689	186.88
237.922	147.88
238.156	129.88
238.39	144.88
238.624	129.88
238.858	115.88
239.091	141.88
239.325	133.88
239.559	133.88
239.793	138.88
240.027	132.88
240.26	155.88
240.494	157.88
240.728	158.88
240.961	152.88
241.195	157.88
241.429	144.88
241.662	148.88
241.896	132.88
242.13	153.88
242.363	133.88
242.597	153.88
242.83	152.88
243.064	155.88
243.298	155.88
243.531	134.88
243.765	153.88
243.998	149.88
244.232	144.88
244.465	154.88
244.699	152.88
244.932	152.88
245.166	142.88
245.399	142.88
245.633	132.88
245.866	145.88
246.099	160.88
246.333	151.88
246.566	173.88
246.8	150.88
247.033	153.88
247.266	169.88
247.5	158.88
247.733	163.88
247.966	172.88
248.2	167.88
248.433	165.88
248.666	195.88
248.899	189.88
249.133	206.88
249.366	197.88
249.599	200.88
249.832	191.88
250.066	183.88
250.299	192.88
250.532	207.88
250.765	218.88
250.998	224.88
251.231	244.88
251.465	225.88
251.698	224.88
251.931	215.88
252.164	200.88
252.397	217.88
252.63	205.88
252.863	194.88
253.096	224.88
253.329	238.88
253.562	228.88
253.795	220.88
254.028	232.88
254.261	222.88
254.494	234.88
254.727	272.88
254.96	287.88
255.193	290.88
255.426	246.88
255.659	239.88
255.892	243.88
256.124	240.88
256.357	244.88
256.59	243.88
256.823	228.88
257.056	217.88
257.289	204.88
257.521	215.88
257.754	222.88
257.987	232.88
258.22	228.88
258.452	220.88
258.685	211.88
258.918	203.88
259.151	224.88
259.383	214.88
259.616	234.88
259.849	259.88
260.081	245.88
260.314	264.88
260.547	273.88
260.779	266.88
261.012	241.88
261.244	264.88
261.477	253.88
261.71	238.88
261.942	234.88
262.175	227.88
262.407	244.88
262.64	230.88
262.872	234.88
263.105	226.88
263.337	220.88
263.57	225.88
263.802	227.88
264.035	236.88
264.267	242.88
264.499	226.88
264.732	233.88
264.964	234.88
265.197	223.88
265.429	227.88
265.661	239.88
265.894	251.88
266.126	252.88
266.358	224.88
266.591	243.88
266.823	239.88
267.055	235.88
267.287	242.88
267.52	245.88
267.752	257.88
267.984	242.88
268.216	243.88
268.448	263.88
268.681	247.88
268.913	262.88
269.145	278.88
269.377	281.88
269.609	300.88
269.841	302.88
270.073	286.88
270.306	307.88
270.538	325.88
270.77	339.88
271.002	320.88
271.234	315.88
271.466	317.88
271.698	316.88
271.93	331.88
272.162	334.88
272.394	350.88
272.626	328.88
272.858	319.88
273.09	325.88
273.322	287.88
273.553	277.88
273.785	299.88
274.017	277.88
274.249	278.88
274.481	268.88
274.713	289.88
274.945	302.88
275.176	293.88
275.408	269.88
275.64	266.88
275.872	291.88
276.104	271.88
276.335	287.88
276.567	302.88
276.799	303.88
277.031	314.88
277.262	341.88
277.494	347.88
277.726	329.88
277.957	314.88
278.189	294.88
278.421	302.88
278.652	307.88
278.884	302.88
279.115	285.88
279.347	284.88
279.579	300.88
279.81	278.88
280.042	286.88
280.273	290.88
280.505	297.88
280.736	306.88
280.968	279.88
281.199	291.88
281.431	293.88
281.662	298.88
281.894	309.88
282.125	298.88
282.356	299.88
282.588	325.88
282.819	320.88
283.051	311.88
283.282	311.88
283.513	307.88
283.745	300.88
283.976	302.88
284.207	286.88
284.439	308.88
284.67	315.88
284.901	324.88
285.132	310.88
285.364	283.88
285.595	317.88
285.826	303.88
286.057	312.88
286.288	303.88
286.52	315.88
286.751	309.88
286.982	312.88
287.213	316.88
287.444	307.88
287.675	310.88
287.906	317.88
288.138	342.88
288.369	329.88
288.6	347.88
288.831	321.88
289.062	331.88
289.293	318.88
289.524	317.88
289.755	314.88
289.986	298.88
290.217	320.88
290.448	319.88
290.679	314.88
290.91	305.88
291.141	324.88
291.371	317.88
291.602	333.88
291.833	319.88
292.064	326.88
292.295	313.88
292.526	305.88
292.757	327.88
292.987	324.88
293.218	316.88
293.449	330.88
293.68	308.88
293.91	313.88
294.141	317.88
294.372	309.88
294.603	329.88
294.833	341.88
295.064	336.88
295.295	333.88
295.525	311.88
295.756	317.88
295.987	338.88
296.217	340.88
296.448	349.88
296.679	329.88
296.909	318.88
297.14	325.88
297.37	328.88
297.601	332.88
297.831	344.88
298.062	333.88
298.292	331.88
298.523	358.88
298.753	340.88
298.984	344.88
299.214	322.88
299.445	319.88
299.675	345.88
299.905	356.88
300.136	341.88
300.366	346.88
300.597	339.88
300.827	350.88
301.057	356.88
301.288	363.88
301.518	349.88
301.748	347.88
301.979	352.88
302.209	363.88
302.439	373.88
302.669	360.88
302.9	359.88
303.13	371.88
303.36	362.88
303.59	367.88
303.82	366.88
304.051	388.88
304.281	352.88
304.511	358.88
304.741	359.88
304.971	355.88
305.201	339.88
305.431	353.88
305.661	365.88
305.891	354.88
306.121	345.88
306.352	373.88
306.582	349.88
306.812	376.88
307.042	366.88
307.272	341.88
307.502	365.88
307.731	353.88
307.961	363.88
308.191	344.88
308.421	375.88
308.651	372.88
308.881	369.88
309.111	380.88
309.341	365.88
309.571	370.88
309.8	390.88
310.03	405.88
310.26	411.88
310.49	403.88
310.72	403.88
310.949	397.88
311.179	418.88
311.409	403.88
311.639	390.88
311.868	405.88
312.098	398.88
312.328	426.88
312.557	419.88
312.787	421.88
313.017	439.88
313.246	415.88
313.476	394.88
313.706	400.88
313.935	407.88
314.165	391.88
314.394	412.88
314.624	439.88
314.853	423.88
315.083	411.88
315.312	396.88
315.542	398.88
315.771	395.88
316.001	394.88
316.23	419.88
316.46	405.88
316.689	417.88
316.919	413.88
317.148	414.88
317.377	425.88
317.607	415.88
317.836	406.88
318.065	409.88
318.295	395.88
318.524	412.88
318.753	396.88
318.983	401.88
319.212	413.88
319.441	413.88
319.67	433.88
319.9	390.88
320.129	395.88
320.358	414.88
320.587	420.88
320.816	419.88
321.046	424.88
321.275	423.88
321.504	422.88
321.733	419.88
321.962	421.88
322.191	427.88
322.42	459.88
322.649	446.88
322.878	462.88
323.108	464.88
323.337	482.88
323.566	499.88
323.795	548.88
324.024	543.88
324.253	650.88
324.482	902.88
324.71	1402.88
324.939	2067.88
325.168	1809.88
325.397	921.88
325.626	621.88
325.855	531.88
326.084	524.88
326.313	524.88
326.542	507.88
326.77	547.88
326.999	630.88
327.228	843.88
327.457	1294.88
327.686	1559.88
327.914	1041.88
328.143	694.88
328.372	613.88
328.6	589.88
328.829	562.88
329.058	574.88
329.287	578.88
329.515	565.88
329.744	529.88
329.972	545.88
330.201	548.88
330.43	574.88
330.658	585.88
330.887	596.88
331.115	579.88
331.344	545.88
331.572	512.88
331.801	486.88
332.03	526.88
332.258	510.88
332.486	489.88
332.715	485.88
332.943	501.88
333.172	487.88
333.4	514.88
333.629	540.88
333.857	527.88
334.085	537.88
334.314	545.88
334.542	571.88
334.771	568.88
334.999	539.88
335.227	536.88
335.455	496.88
335.684	486.88
335.912	485.88
336.14	492.88
336.369	463.88
336.597	485.88
336.825	487.88
337.053	473.88
337.281	480.88
337.51	486.88
337.738	465.88
337.966	498.88
338.194	463.88
338.422	473.88
338.65	467.88
338.878	462.88
339.106	447.88
339.334	490.88
339.562	437.88
339.79	465.88
340.018	459.88
340.246	449.88
340.474	453.88
340.702	486.88
340.93	466.88
341.158	466.88
341.386	463.88
341.614	455.88
341.842	457.88
342.07	453.88
342.298	450.88
342.526	429.88
342.754	448.88
342.981	437.88
343.209	439.88
343.437	456.88
343.665	466.88
343.893	470.88
344.12	487.88
344.348	484.88
344.576	471.88
344.804	471.88
345.031	479.88
345.259	491.88
345.487	459.88
345.714	448.88
345.942	457.88
346.17	464.88
346.397	458.88
346.625	448.88
346.853	434.88
347.08	443.88
347.308	452.88
347.535	452.88
347.763	451.88
347.99	428.88
348.218	443.88
348.445	441.88
348.673	446.88
348.9	423.88
349.128	439.88
349.355	424.88
349.583	447.88
349.81	448.88
350.037	429.88
350.265	437.88
350.492	425.88
350.72	418.88
350.947	445.88
351.174	437.88
351.402	463.88
351.629	449.88
351.856	445.88
352.083	449.88
352.311	465.88
352.538	447.88
352.765	434.88
352.992	439.88
353.22	421.88
353.447	422.88
353.674	437.88
353.901	417.88
354.128	415.88
354.355	441.88
354.583	411.88
354.81	424.88
355.037	430.88
355.264	441.88
355.491	405.88
355.718	428.88
355.945	423.88
356.172	415.88
356.399	419.88
356.626	408.88
356.853	407.88
357.08	425.88
357.307	400.88
357.534	411.88
357.761	409.88
357.988	424.88
358.215	419.88
358.441	404.88
358.668	407.88
358.895	409.88
359.122	426.88
359.349	411.88
359.576	443.88
359.802	442.88
360.029	483.88
360.256	478.88
360.483	453.88
360.709	449.88
360.936	430.88
361.163	433.88
361.39	454.88
361.616	465.88
361.843	443.88
362.07	449.88
362.296	444.88
362.523	447.88
362.749	426.88
362.976	426.88
363.203	437.88
363.429	415.88
363.656	422.88
363.882	422.88
364.109	433.88
364.335	431.88
364.562	431.88
364.788	428.88
365.015	414.88
365.241	438.88
365.468	426.88
365.694	416.88
365.92	421.88
366.147	440.88
366.373	429.88
366.599	406.88
366.826	404.88
367.052	399.88
367.278	409.88
367.505	420.88
367.731	443.88
367.957	431.88
368.184	430.88
368.41	426.88
368.636	421.88
368.862	434.88
369.089	437.88
369.315	426.88
369.541	423.88
369.767	426.88
369.993	425.88
370.219	422.88
370.445	445.88
370.672	425.88
370.898	420.88
371.124	430.88
371.35	423.88
371.576	429.88
371.802	415.88
372.028	435.88
372.254	420.88
372.48	440.88
372.706	443.88
372.932	443.88
373.158	432.88
373.384	431.88
373.61	419.88
373.835	396.88
374.061	454.88
374.287	451.88
374.513	426.88
374.739	461.88
374.965	458.88
375.191	441.88
375.416	451.88
375.642	430.88
375.868	445.88
376.094	425.88
376.319	425.88
376.545	408.88
376.771	441.88
376.997	428.88
377.222	449.88
377.448	418.88
377.674	425.88
377.899	425.88
378.125	427.88
378.35	426.88
378.576	418.88
378.802	422.88
379.027	449.88
379.253	411.88
379.478	435.88
379.704	453.88
379.929	422.88
380.155	457.88
380.38	415.88
380.606	421.88
380.831	427.88
381.057	456.88
381.282	427.88
381.507	449.88
381.733	429.88
381.958	436.88
382.184	435.88
382.409	430.88
382.634	413.88
382.86	449.88
383.085	450.88
383.31	455.88
383.535	464.88
383.761	457.88
383.986	433.88
384.211	467.88
384.436	444.88
384.662	466.88
384.887	478.88
385.112	465.88
385.337	471.88
385.562	475.88
385.787	483.88
386.013	478.88
386.238	479.88
386.463	474.88
386.688	466.88
386.913	483.88
387.138	470.88
387.363	471.88
387.588	487.88
387.813	470.88
388.038	478.88
388.263	481.88
388.488	483.88
388.713	478.88
388.938	453.88
389.163	481.88
389.387	489.88
389.612	466.88
389.837	456.88
390.062	477.88
390.287	497.88
390.512	483.88
390.736	499.88
390.961	466.88
391.186	478.88
391.411	500.88
391.636	501.88
391.86	490.88
392.085	511.88
392.31	526.88
392.534	505.88
392.759	494.88
392.984	503.88
393.208	484.88
393.433	481.88
393.658	494.88
393.882	499.88
394.107	482.88
394.331	483.88
394.556	471.88
394.78	488.88
395.005	487.88
395.229	476.88
395.454	506.88
395.678	501.88
395.903	525.88
396.127	556.88
396.352	525.88
396.576	514.88
396.801	489.88
397.025	505.88
397.249	515.88
397.474	512.88
397.698	529.88
397.922	526.88
398.147	537.88
398.371	521.88
398.595	532.88
398.82	555.88
399.044	583.88
399.268	589.88
399.492	647.88
399.717	696.88
399.941	682.88
400.165	706.88
400.389	677.88
400.613	661.88
400.837	595.88
401.062	566.88
401.286	563.88
401.51	565.88
401.734	545.88
401.958	577.88
402.182	565.88
402.406	558.88
402.63	554.88
402.854	550.88
403.078	564.88
403.302	568.88
403.526	577.88
403.75	580.88
403.974	587.88
404.198	597.88
404.422	584.88
404.645	578.88
404.869	609.88
405.093	627.88
405.317	677.88
405.541	711.88
405.765	622.88
405.988	625.88
406.212	595.88
406.436	605.88
406.66	638.88
406.883	619.88
407.107	648.88
407.331	682.88
407.555	754.88
407.778	785.88
408.002	713.88
408.226	672.88
408.449	637.88
408.673	622.88
408.896	653.88
409.12	691.88
409.344	657.88
409.567	602.88
409.791	597.88
410.014	575.88
410.238	589.88
410.461	584.88
410.685	587.88
410.908	608.88
411.132	617.88
411.355	668.88
411.578	659.88
411.802	597.88
412.025	582.88
412.249	587.88
412.472	613.88
412.695	630.88
412.919	632.88
413.142	582.88
413.365	589.88
413.589	539.88
413.812	557.88
414.035	557.88
414.258	574.88
414.482	552.88
414.705	542.88
414.928	545.88
415.151	543.88
415.374	524.88
415.597	554.88
415.821	563.88
416.044	529.88
416.267	539.88
416.49	533.88
416.713	517.88
416.936	542.88
417.159	514.88
417.382	550.88
417.605	561.88
417.828	546.88
418.051	571.88
418.274	573.88
418.497	532.88
418.72	553.88
418.943	547.88
419.166	566.88
419.389	618.88
419.611	581.88
419.834	599.88
420.057	585.88
420.28	573.88
420.503	596.88
420.726	570.88
420.948	584.88
421.171	638.88
421.394	657.88
421.617	610.88
421.839	559.88
422.062	584.88
422.285	594.88
422.507	614.88
422.73	730.88
422.953	689.88
423.175	627.88
423.398	606.88
423.621	600.88
423.843	633.88
424.066	600.88
424.288	590.88
424.511	629.88
424.733	683.88
424.956	783.88
425.178	754.88
425.401	716.88
425.623	742.88
425.846	627.88
426.068	619.88
426.291	593.88
426.513	589.88
426.735	595.88
426.958	643.88
427.18	744.88
427.402	855.88
427.625	961.88
427.847	803.88
428.069	695.88
428.292	622.88
428.514	583.88
428.736	580.88
428.958	552.88
429.181	560.88
429.403	552.88
429.625	540.88
429.847	607.88
430.069	656.88
430.292	661.88
430.514	565.88
430.736	550.88
430.958	535.88
431.18	534.88
431.402	533.88
431.624	498.88
431.846	515.88
432.068	507.88
432.29	525.88
432.512	524.88
432.734	550.88
432.956	529.88
433.178	520.88
433.4	548.88
433.622	542.88
433.844	523.88
434.066	540.88
434.287	529.88
434.509	534.88
434.731	537.88
434.953	562.88
435.175	578.88
435.397	591.88
435.618	604.88
435.84	645.88
436.062	732.88
436.284	809.88
436.505	665.88
436.727	602.88
436.949	571.88
437.17	553.88
437.392	556.88
437.614	561.88
437.835	606.88
438.057	681.88
438.278	767.88
438.5	812.88
438.721	883.88
438.943	834.88
439.165	685.88
439.386	610.88
439.608	601.88
439.829	602.88
440.05	627.88
440.272	685.88
440.493	644.88
440.715	608.88
440.936	537.88
441.158	569.88
441.379	557.88
441.6	569.88
441.822	608.88
442.043	611.88
442.264	724.88
442.486	782.88
442.707	651.88
442.928	604.88
443.149	639.88
443.371	646.88
443.592	685.88
443.813	789.88
444.034	836.88
444.255	719.88
444.476	651.88
444.698	639.88
444.919	611.88
445.14	689.88
445.361	685.88
445.582	669.88
445.803	720.88
446.024	800.88
446.245	847.88
446.466	757.88
446.687	614.88
446.908	611.88
447.129	572.88
447.35	553.88
447.571	565.88
447.792	535.88
448.013	547.88
448.234	571.88
448.455	614.88
448.675	740.88
448.896	869.88
449.117	719.88
449.338	686.88
449.559	797.88
449.779	927.88
450	724.88
450.221	601.88
450.442	557.88
450.662	542.88
450.883	550.88
451.104	543.88
451.324	519.88
451.545	534.88
451.766	516.88
451.986	500.88
452.207	465.88
452.428	486.88
452.648	474.88
452.869	481.88
453.089	486.88
453.31	513.88
453.53	478.88
453.751	500.88
453.971	480.88
454.192	519.88
454.412	497.88
454.633	501.88
454.853	494.88
455.073	516.88
455.294	497.88
455.514	582.88
455.734	567.88
455.955	489.88
456.175	479.88
456.395	457.88
456.616	461.88
456.836	446.88
457.056	448.88
457.276	461.88
457.497	461.88
457.717	461.88
457.937	456.88
458.157	487.88
458.377	479.88
458.598	483.88
458.818	551.88
459.038	619.88
459.258	640.88
459.478	581.88
459.698	549.88
459.918	524.88
460.138	531.88
460.358	559.88
460.578	555.88
460.798	553.88
461.018	555.88
461.238	562.88
461.458	575.88
461.678	553.88
461.898	536.88
462.118	541.88
462.338	567.88
462.558	566.88
462.777	586.88
462.997	599.88
463.217	647.88
463.437	636.88
463.657	596.88
463.876	601.88
464.096	593.88
464.316	604.88
464.536	599.88
464.755	597.88
464.975	606.88
465.195	625.88
465.414	654.88
465.634	589.88
465.854	567.88
466.073	527.88
466.293	521.88
466.512	534.88
466.732	494.88
466.951	519.88
467.171	508.88
467.391	517.88
467.61	537.88
467.829	505.88
468.049	498.88
468.268	504.88
468.488	498.88
468.707	475.88
468.927	467.88
469.146	482.88
469.365	478.88
469.585	498.88
469.804	483.88
470.023	504.88
470.243	494.88
470.462	548.88
470.681	533.88
470.901	531.88
471.12	517.88
471.339	481.88
471.558	511.88
471.777	527.88
471.997	497.88
472.216	515.88
472.435	528.88
472.654	517.88
472.873	509.88
473.092	522.88
473.311	532.88
473.53	511.88
473.749	521.88
473.968	543.88
474.187	652.88
474.406	683.88
474.625	563.88
474.844	520.88
475.063	542.88
475.282	509.88
475.501	527.88
475.72	530.88
475.939	526.88
476.158	501.88
476.377	527.88
476.596	533.88
476.814	527.88
477.033	559.88
477.252	550.88
477.471	533.88
477.69	546.88
477.908	537.88
478.127	576.88
478.346	558.88
478.564	566.88
478.783	579.88
479.002	586.88
479.22	616.88
479.439	603.88
479.658	580.88
479.876	600.88
480.095	625.88
480.313	660.88
480.532	639.88
480.751	629.88
480.969	629.88
481.188	678.88
481.406	711.88
481.624	627.88
481.843	648.88
482.061	621.88
482.28	604.88
482.498	596.88
482.717	600.88
482.935	562.88
483.153	604.88
483.372	579.88
483.59	586.88
483.808	598.88
484.027	613.88
484.245	585.88
484.463	575.88
484.681	611.88
484.9	595.88
485.118	628.88
485.336	621.88
485.554	600.88
485.772	601.88
485.99	602.88
486.209	614.88
486.427	619.88
486.645	636.88
486.863	631.88
487.081	631.88
487.299	620.88
487.517	638.88
487.735	661.88
487.953	652.88
488.171	645.88
488.389	648.88
488.607	631.88
488.825	623.88
489.043	643.88
489.261	617.88
489.479	622.88
489.696	659.88
489.914	641.88
490.132	636.88
490.35	673.88
490.568	677.88
490.786	670.88
491.003	680.88
491.221	691.88
491.439	717.88
491.657	702.88
491.874	714.88
492.092	713.88
492.31	749.88
492.527	743.88
492.745	719.88
492.963	731.88
493.18	734.88
493.398	748.88
493.615	737.88
493.833	781.88
494.05	761.88
494.268	747.88
494.485	767.88
494.703	769.88
494.92	741.88
495.138	779.88
495.355	762.88
495.573	776.88
495.79	765.88
496.008	760.88
496.225	753.88
496.442	781.88
496.66	773.88
496.877	771.88
497.094	762.88
497.312	765.88
497.529	803.88
497.746	800.88
497.963	805.88
498.181	834.88
498.398	848.88
498.615	820.88
498.832	894.88
499.049	885.88
499.267	918.88
499.484	945.88
499.701	1023.88
499.918	1071.88
500.135	1117.88
500.352	1157.88
500.569	1228.88
500.786	1213.88
501.003	1175.88
501.22	1158.88
501.437	1051.88
501.654	1039.88
501.871	1017.88
502.088	956.88
502.305	870.88
502.522	873.88
502.739	891.88
502.956	858.88
503.172	809.88
503.389	801.88
503.606	796.88
503.823	767.88
504.04	745.88
504.256	773.88
504.473	777.88
504.69	796.88
504.907	782.88
505.123	756.88
505.34	752.88
505.557	741.88
505.773	719.88
505.99	734.88
506.207	695.88
506.423	716.88
506.64	708.88
506.856	710.88
507.073	711.88
507.289	707.88
507.506	676.88
507.722	701.88
507.939	685.88
508.155	697.88
508.372	669.88
508.588	673.88
508.805	665.88
509.021	676.88
509.238	680.88
509.454	685.88
509.67	695.88
509.887	660.88
510.103	670.88
510.319	693.88
510.536	739.88
510.752	1099.88
510.968	926.88
511.184	661.88
511.401	655.88
511.617	647.88
511.833	610.88
512.049	639.88
512.265	622.88
512.481	633.88
512.698	615.88
512.914	617.88
513.13	651.88
513.346	623.88
513.562	639.88
513.778	630.88
513.994	626.88
514.21	605.88
514.426	661.88
514.642	653.88
514.858	703.88
515.074	720.88
515.29	809.88
515.506	1129.88
515.721	960.88
515.937	715.88
516.153	663.88
516.369	670.88
516.585	662.88
516.801	648.88
517.016	671.88
517.232	677.88
517.448	659.88
517.664	678.88
517.879	682.88
518.095	672.88
518.311	685.88
518.527	667.88
518.742	658.88
518.958	630.88
519.173	654.88
519.389	637.88
519.605	641.88
519.82	641.88
520.036	637.88
520.251	665.88
520.467	681.88
520.682	685.88
520.898	633.88
521.113	686.88
521.329	715.88
521.544	805.88
521.76	909.88
521.975	1414.88
522.19	1316.88
522.406	806.88
522.621	695.88
522.836	617.88
523.052	611.88
523.267	587.88
523.482	579.88
523.698	559.88
523.913	574.88
524.128	551.88
524.343	577.88
524.559	539.88
524.774	565.88
524.989	530.88
525.204	541.88
525.419	540.88
525.634	548.88
525.849	546.88
526.064	543.88
526.28	513.88
526.495	505.88
526.71	512.88
526.925	527.88
527.14	507.88
527.355	525.88
527.57	533.88
527.785	520.88
527.999	525.88
528.214	497.88
528.429	520.88
528.644	528.88
528.859	541.88
529.074	542.88
529.289	524.88
529.503	584.88
529.718	587.88
529.933	568.88
530.148	531.88
530.363	525.88
530.577	533.88
530.792	509.88
531.007	521.88
531.221	517.88
531.436	484.88
531.651	494.88
531.865	499.88
532.08	507.88
532.295	516.88
532.509	512.88
532.724	505.88
532.938	522.88
533.153	495.88
533.367	490.88
533.582	498.88
533.796	523.88
534.011	485.88
534.225	501.88
534.44	474.88
534.654	489.88
534.868	492.88
535.083	479.88
535.297	494.88
535.511	494.88
535.726	508.88
535.94	514.88
536.154	499.88
536.369	488.88
536.583	495.88
536.797	502.88
537.011	463.88
537.225	463.88
537.44	499.88
537.654	495.88
537.868	457.88
538.082	499.88
538.296	493.88
538.51	471.88
538.724	494.88
538.938	471.88
539.153	466.88
539.367	476.88
539.581	490.88
539.795	449.88
540.009	456.88
540.222	461.88
540.436	484.88
540.65	486.88
540.864	493.88
541.078	503.88
541.292	470.88
541.506	457.88
541.72	487.88
541.934	493.88
542.147	476.88
542.361	471.88
542.575	463.88
542.789	506.88
543.002	485.88
543.216	485.88
543.43	485.88
543.644	492.88
543.857	470.88
544.071	483.88
544.285	500.88
544.498	474.88
544.712	471.88
544.925	471.88
545.139	484.88
545.352	482.88
545.566	465.88
545.779	470.88
545.993	460.88
546.206	460.88
546.42	478.88
546.633	457.88
546.847	487.88
547.06	491.88
547.274	465.88
547.487	472.88
547.7	496.88
547.914	473.88
548.127	463.88
548.34	470.88
548.554	465.88
548.767	489.88
548.98	474.88
549.193	470.88
549.407	475.88
549.62	470.88
549.833	476.88
550.046	457.88
550.259	475.88
550.473	450.88
550.686	455.88
550.899	460.88
551.112	455.88
551.325	448.88
551.538	477.88
551.751	447.88
551.964	457.88
552.177	457.88
552.39	462.88
552.603	462.88
552.816	485.88
553.029	475.88
553.242	483.88
553.455	486.88
553.667	469.88
553.88	494.88
554.093	491.88
554.306	477.88
554.519	477.88
554.732	474.88
554.944	453.88
555.157	442.88
555.37	433.88
555.583	427.88
555.795	444.88
556.008	437.88
556.221	446.88
556.433	435.88
556.646	423.88
556.859	409.88
557.071	412.88
557.284	431.88
557.496	417.88
557.709	406.88
557.921	423.88
558.134	404.88
558.346	411.88
558.559	421.88
558.771	429.88
558.984	399.88
559.196	408.88
559.409	405.88
559.621	416.88
559.833	413.88
560.046	405.88
560.258	399.88
560.47	399.88
560.683	409.88
560.895	418.88
561.107	406.88
561.32	386.88
561.532	419.88
561.744	397.88
561.956	389.88
562.168	398.88
562.381	415.88
562.593	401.88
562.805	426.88
563.017	413.88
563.229	398.88
563.441	406.88
563.653	409.88
563.865	409.88
564.077	444.88
564.289	420.88
564.501	422.88
564.713	433.88
564.925	424.88
565.137	447.88
565.349	455.88
565.561	465.88
565.773	460.88
565.985	463.88
566.197	469.88
566.408	494.88
566.62	532.88
566.832	535.88
567.044	529.88
567.255	546.88
567.467	557.88
567.679	546.88
567.891	583.88
568.102	557.88
568.314	549.88
568.526	540.88
568.737	510.88
568.949	493.88
569.161	469.88
569.372	464.88
569.584	449.88
569.795	437.88
570.007	404.88
570.218	430.88
570.43	450.88
570.641	422.88
570.853	412.88
571.064	401.88
571.276	397.88
571.487	405.88
571.698	405.88
571.91	398.88
572.121	386.88
572.333	372.88
572.544	377.88
572.755	374.88
572.966	372.88
573.178	354.88
573.389	366.88
573.6	371.88
573.811	362.88
574.023	372.88
574.234	364.88
574.445	354.88
574.656	352.88
574.867	359.88
575.078	350.88
575.289	358.88
575.501	345.88
575.712	356.88
575.923	335.88
576.134	318.88
576.345	331.88
576.556	350.88
576.767	345.88
576.978	330.88
577.188	342.88
577.399	349.88
577.61	338.88
577.821	335.88
578.032	335.88
578.243	361.88
578.454	490.88
578.665	393.88
578.875	346.88
579.086	327.88
579.297	336.88
579.508	332.88
579.718	324.88
579.929	323.88
580.14	325.88
580.35	334.88
580.561	343.88
580.772	310.88
580.982	315.88
581.193	317.88
581.403	312.88
581.614	316.88
581.825	322.88
582.035	312.88
582.246	316.88
582.456	319.88
582.667	322.88
582.877	320.88
583.087	305.88
583.298	295.88
583.508	321.88
583.719	308.88
583.929	325.88
584.139	329.88
584.35	313.88
584.56	323.88
584.77	319.88
584.981	296.88
585.191	302.88
585.401	313.88
585.611	300.88
585.821	312.88
586.032	316.88
586.242	334.88
586.452	304.88
586.662	306.88
586.872	300.88
587.082	308.88
587.292	316.88
587.502	323.88
587.713	306.88
587.923	310.88
588.133	301.88
588.343	302.88
588.553	282.88
588.762	306.88
588.972	313.88
589.182	306.88
589.392	312.88
589.602	311.88
589.812	316.88
590.022	310.88
590.232	331.88
590.441	301.88
590.651	311.88
590.861	294.88
591.071	320.88
591.281	315.88
591.49	344.88
591.7	318.88
591.91	340.88
592.119	329.88
592.329	310.88
592.539	341.88
592.748	346.88
592.958	349.88
593.167	348.88
593.377	342.88
593.587	350.88
593.796	350.88
594.006	320.88
594.215	349.88
594.424	347.88
594.634	344.88
594.843	334.88
595.053	324.88
595.262	314.88
595.472	319.88
595.681	301.88
595.89	305.88
596.1	311.88
596.309	298.88
596.518	307.88
596.727	292.88
596.937	317.88
597.146	298.88
597.355	292.88
597.564	301.88
597.774	288.88
597.983	276.88
598.192	281.88
598.401	283.88
598.61	296.88
598.819	296.88
599.028	296.88
599.237	277.88
599.446	269.88
599.655	272.88
599.864	281.88
600.073	269.88
600.282	284.88
600.491	267.88
600.7	301.88
600.909	269.88
601.118	269.88
601.327	258.88
601.536	282.88
601.745	286.88
601.953	273.88
602.162	280.88
602.371	261.88
602.58	276.88
602.789	281.88
602.997	282.88
603.206	278.88
603.415	269.88
603.623	267.88
603.832	268.88
604.041	266.88
604.249	248.88
604.458	263.88
604.666	261.88
604.875	247.88
605.084	251.88
605.292	259.88
605.501	246.88
605.709	261.88
605.918	252.88
606.126	255.88
606.334	260.88
606.543	247.88
606.751	251.88
606.96	258.88
607.168	259.88
607.376	259.88
607.585	261.88
607.793	262.88
608.001	260.88
608.21	267.88
608.418	263.88
608.626	249.88
608.834	280.88
609.043	253.88
609.251	239.88
609.459	259.88
609.667	238.88
609.875	243.88
610.083	257.88
610.291	240.88
610.499	253.88
610.707	241.88
610.916	266.88
611.124	252.88
611.332	263.88
611.54	250.88
611.748	241.88
611.955	264.88
612.163	251.88
612.371	252.88
612.579	245.88
612.787	263.88
612.995	243.88
613.203	233.88
613.411	243.88
613.618	254.88
613.826	244.88
614.034	251.88
614.242	255.88
614.449	247.88
614.657	260.88
614.865	247.88
615.072	254.88
615.28	246.88
615.488	242.88
615.695	247.88
615.903	245.88
616.111	263.88
616.318	263.88
616.526	248.88
616.733	246.88
616.941	251.88
617.148	251.88
617.356	246.88
617.563	235.88
617.771	241.88
617.978	253.88
618.185	231.88
618.393	246.88
618.6	245.88
618.807	232.88
619.015	253.88
619.222	235.88
619.429	224.88
619.637	236.88
619.844	226.88
620.051	244.88
620.258	241.88
620.466	253.88
620.673	227.88
620.88	228.88
621.087	230.88
621.294	238.88
621.501	234.88
621.708	240.88
621.915	236.88
622.122	232.88
622.329	227.88
622.536	249.88
622.743	235.88
622.95	218.88
623.157	209.88
623.364	228.88
623.571	226.88
623.778	226.88
623.985	223.88
624.192	211.88
624.399	223.88
624.606	231.88
624.812	220.88
625.019	213.88
625.226	210.88
625.433	237.88
625.639	205.88
625.846	218.88
626.053	227.88
626.259	220.88
626.466	231.88
626.673	215.88
626.879	206.88
627.086	225.88
627.293	197.88
627.499	202.88
627.706	203.88
627.912	213.88
628.119	199.88
628.325	194.88
628.532	198.88
628.738	200.88
628.945	190.88
629.151	226.88
629.357	195.88
629.564	204.88
629.77	201.88
629.976	213.88
630.183	200.88
630.389	213.88
630.595	204.88
630.802	215.88
631.008	205.88
631.214	193.88
631.42	189.88
631.627	205.88
631.833	206.88
632.039	209.88
632.245	195.88
632.451	193.88
632.657	209.88
632.863	189.88
633.069	187.88
633.275	177.88
633.481	187.88
633.688	200.88
633.893	195.88
634.099	193.88
634.305	207.88
634.511	204.88
634.717	178.88
634.923	172.88
635.129	183.88
635.335	203.88
635.541	195.88
635.747	170.88
635.952	190.88
636.158	189.88
636.364	176.88
636.57	190.88
636.775	193.88
636.981	203.88
637.187	202.88
637.392	193.88
637.598	168.88
637.804	184.88
638.009	177.88
638.215	187.88
638.421	182.88
638.626	199.88
638.832	188.88
639.037	194.88
639.243	201.88
639.448	176.88
639.654	174.88
639.859	189.88
640.065	181.88
640.27	175.88
640.475	172.88
640.681	170.88
640.886	166.88
641.091	172.88
641.297	197.88
641.502	173.88
641.707	159.88
641.913	206.88
642.118	179.88
642.323	185.88
642.528	173.88
642.733	186.88
642.939	158.88
643.144	193.88
643.349	162.88
643.554	164.88
643.759	163.88
643.964	172.88
644.169	175.88
644.374	172.88
644.579	163.88
644.784	157.88
644.989	173.88
645.194	163.88
645.399	169.88
645.604	170.88
645.809	175.88
646.014	164.88
646.219	183.88
646.423	171.88
646.628	176.88
646.833	175.88
647.038	173.88
647.243	193.88
647.447	169.88
647.652	181.88
647.857	184.88
648.062	168.88
648.266	184.88
648.471	177.88
648.676	179.88
648.88	169.88
649.085	183.88
649.289	170.88
649.494	174.88
649.698	179.88
649.903	186.88
650.107	189.88
650.312	170.88
650.516	168.88
650.721	165.88
650.925	155.88
651.13	154.88
651.334	168.88
651.539	158.88
651.743	161.88
651.947	152.88
652.152	170.88
652.356	149.88
652.56	143.88
652.764	147.88
652.969	148.88
653.173	140.88
653.377	138.88
653.581	137.88
653.785	124.88
653.99	129.88
654.194	143.88
654.398	149.88
654.602	132.88
654.806	145.88
655.01	140.88
655.214	153.88
655.418	155.88
655.622	143.88
655.826	145.88
656.03	147.88
656.234	132.88
656.438	147.88
656.642	143.88
656.846	133.88
657.049	141.88
657.253	142.88
657.457	121.88
657.661	124.88
657.865	113.88
658.068	92.88
658.272	102.88
658.476	108.88
658.68	113.88
658.883	97.88
659.087	84.88
659.291	90.88
659.494	124.88
659.698	103.88
659.901	103.88
660.105	105.88
660.309	107.88
660.512	82.88
660.716	98.88
660.919	111.88
661.123	85.88
661.326	88.88
661.53	82.88
661.733	100.88
661.936	88.88
662.14	86.88
662.343	87.88
662.546	92.88
662.75	78.88
662.953	81.88
663.156	79.88
663.36	85.88
663.563	85.88
663.766	92.88
663.969	89.88
664.173	85.88
664.376	87.88
664.579	90.88
664.782	87.88
664.985	77.88
665.188	88.88
665.391	75.88
665.594	86.88
665.797	80.88
666	84.88
666.203	79.88
666.406	72.88
666.609	95.88
666.812	76.88
667.015	85.88
667.218	78.88
667.421	76.88
667.624	74.88
667.827	98.88
668.03	78.88
668.232	92.88
668.435	81.88
668.638	90.88
668.841	100.88
669.043	77.88
669.246	84.88
669.449	93.88
669.651	73.88
669.854	78.88
670.057	79.88
670.259	73.88
670.462	92.88
670.665	71.88
670.867	83.88
671.07	93.88
671.272	83.88
671.475	91.88
671.677	75.88
671.88	71.88
672.082	73.88
672.284	96.88
672.487	83.88
672.689	85.88
672.892	81.88
