Data from 1976.PennyLincolnUp.Lamp.En5.5.200Scan.071719.P1.Changed Mount._HRD10591_16-01-29-861.txt Node
Date: Thu Jul 18 16:01:29 EDT 2019
User: cochatt
Spectrometer: HR+D1059
Trigger mode: 1
Integration Time (sec): 1.000000E-1
Scans to average: 1
Electric dark correction enabled: true
Nonlinearity correction enabled: false
Boxcar width: 0
XAxis mode: Wavelengths
Number of Pixels in Spectrum: 2048
>>>>>Begin Spectral Data<<<<<
223.165	-8.12
223.4	-8.12
223.635	-8.12
223.869	-30.12
224.104	-6.12
224.338	-10.12
224.573	-14.12
224.808	-12.12
225.042	-9.12
225.277	-6.12
225.511	-16.12
225.746	-2.12
225.98	5.88
226.215	9.88
226.449	9.88
226.683	21.88
226.918	31.88
227.152	34.88
227.387	33.88
227.621	40.88
227.856	41.88
228.09	43.88
228.324	58.88
228.559	49.88
228.793	73.88
229.027	106.88
229.262	115.88
229.496	121.88
229.73	129.88
229.964	170.88
230.199	137.88
230.433	111.88
230.667	111.88
230.901	112.88
231.136	106.88
231.37	127.88
231.604	117.88
231.838	127.88
232.072	120.88
232.306	104.88
232.541	129.88
232.775	113.88
233.009	113.88
233.243	120.88
233.477	127.88
233.711	112.88
233.945	119.88
234.179	130.88
234.413	119.88
234.647	118.88
234.881	119.88
235.115	112.88
235.349	131.88
235.583	123.88
235.817	104.88
236.051	137.88
236.285	116.88
236.519	116.88
236.753	121.88
236.987	138.88
237.221	189.88
237.455	242.88
237.689	174.88
237.922	159.88
238.156	140.88
238.39	135.88
238.624	132.88
238.858	134.88
239.091	124.88
239.325	119.88
239.559	133.88
239.793	133.88
240.027	128.88
240.26	137.88
240.494	143.88
240.728	153.88
240.961	167.88
241.195	151.88
241.429	150.88
241.662	135.88
241.896	135.88
242.13	141.88
242.363	138.88
242.597	144.88
242.83	144.88
243.064	134.88
243.298	143.88
243.531	159.88
243.765	151.88
243.998	137.88
244.232	155.88
244.465	157.88
244.699	148.88
244.932	168.88
245.166	142.88
245.399	140.88
245.633	153.88
245.866	141.88
246.099	154.88
246.333	167.88
246.566	137.88
246.8	167.88
247.033	164.88
247.266	164.88
247.5	187.88
247.733	165.88
247.966	167.88
248.2	176.88
248.433	159.88
248.666	179.88
248.899	191.88
249.133	220.88
249.366	231.88
249.599	207.88
249.832	203.88
250.066	187.88
250.299	203.88
250.532	205.88
250.765	213.88
250.998	224.88
251.231	235.88
251.465	234.88
251.698	200.88
251.931	213.88
252.164	200.88
252.397	216.88
252.63	204.88
252.863	224.88
253.096	214.88
253.329	240.88
253.562	251.88
253.795	219.88
254.028	213.88
254.261	240.88
254.494	241.88
254.727	259.88
254.96	281.88
255.193	259.88
255.426	253.88
255.659	245.88
255.892	244.88
256.124	238.88
256.357	250.88
256.59	236.88
256.823	238.88
257.056	246.88
257.289	215.88
257.521	215.88
257.754	233.88
257.987	227.88
258.22	231.88
258.452	222.88
258.685	208.88
258.918	230.88
259.151	222.88
259.383	233.88
259.616	233.88
259.849	236.88
260.081	252.88
260.314	271.88
260.547	279.88
260.779	274.88
261.012	255.88
261.244	241.88
261.477	248.88
261.71	247.88
261.942	243.88
262.175	243.88
262.407	246.88
262.64	223.88
262.872	239.88
263.105	234.88
263.337	224.88
263.57	247.88
263.802	231.88
264.035	217.88
264.267	231.88
264.499	232.88
264.732	241.88
264.964	236.88
265.197	230.88
265.429	233.88
265.661	231.88
265.894	226.88
266.126	249.88
266.358	237.88
266.591	245.88
266.823	243.88
267.055	254.88
267.287	248.88
267.52	247.88
267.752	246.88
267.984	248.88
268.216	227.88
268.448	235.88
268.681	240.88
268.913	271.88
269.145	271.88
269.377	304.88
269.609	294.88
269.841	300.88
270.073	298.88
270.306	312.88
270.538	345.88
270.77	332.88
271.002	317.88
271.234	308.88
271.466	304.88
271.698	326.88
271.93	319.88
272.162	341.88
272.394	348.88
272.626	317.88
272.858	311.88
273.09	303.88
273.322	303.88
273.553	284.88
273.785	292.88
274.017	282.88
274.249	270.88
274.481	286.88
274.713	275.88
274.945	297.88
275.176	294.88
275.408	296.88
275.64	294.88
275.872	282.88
276.104	279.88
276.335	305.88
276.567	297.88
276.799	318.88
277.031	329.88
277.262	333.88
277.494	349.88
277.726	321.88
277.957	327.88
278.189	299.88
278.421	318.88
278.652	300.88
278.884	304.88
279.115	293.88
279.347	312.88
279.579	295.88
279.81	295.88
280.042	299.88
280.273	309.88
280.505	277.88
280.736	291.88
280.968	307.88
281.199	306.88
281.431	305.88
281.662	305.88
281.894	300.88
282.125	307.88
282.356	335.88
282.588	323.88
282.819	330.88
283.051	299.88
283.282	301.88
283.513	307.88
283.745	304.88
283.976	318.88
284.207	329.88
284.439	313.88
284.67	307.88
284.901	304.88
285.132	317.88
285.364	280.88
285.595	273.88
285.826	318.88
286.057	317.88
286.288	312.88
286.52	307.88
286.751	309.88
286.982	328.88
287.213	295.88
287.444	327.88
287.675	313.88
287.906	321.88
288.138	308.88
288.369	325.88
288.6	349.88
288.831	338.88
289.062	336.88
289.293	330.88
289.524	335.88
289.755	320.88
289.986	326.88
290.217	322.88
290.448	319.88
290.679	307.88
290.91	308.88
291.141	327.88
291.371	327.88
291.602	304.88
291.833	296.88
292.064	323.88
292.295	325.88
292.526	326.88
292.757	349.88
292.987	318.88
293.218	307.88
293.449	347.88
293.68	345.88
293.91	320.88
294.141	333.88
294.372	311.88
294.603	317.88
294.833	328.88
295.064	334.88
295.295	325.88
295.525	329.88
295.756	349.88
295.987	343.88
296.217	372.88
296.448	365.88
296.679	331.88
296.909	334.88
297.14	319.88
297.37	355.88
297.601	331.88
297.831	321.88
298.062	330.88
298.292	334.88
298.523	329.88
298.753	362.88
298.984	345.88
299.214	348.88
299.445	329.88
299.675	333.88
299.905	347.88
300.136	355.88
300.366	343.88
300.597	351.88
300.827	340.88
301.057	366.88
301.288	376.88
301.518	352.88
301.748	347.88
301.979	352.88
302.209	353.88
302.439	364.88
302.669	377.88
302.9	373.88
303.13	365.88
303.36	362.88
303.59	385.88
303.82	395.88
304.051	353.88
304.281	343.88
304.511	363.88
304.741	360.88
304.971	355.88
305.201	360.88
305.431	353.88
305.661	380.88
305.891	385.88
306.121	360.88
306.352	357.88
306.582	386.88
306.812	368.88
307.042	357.88
307.272	362.88
307.502	369.88
307.731	361.88
307.961	386.88
308.191	355.88
308.421	376.88
308.651	377.88
308.881	383.88
309.111	377.88
309.341	386.88
309.571	377.88
309.8	399.88
310.03	377.88
310.26	384.88
310.49	411.88
310.72	391.88
310.949	431.88
311.179	428.88
311.409	415.88
311.639	407.88
311.868	415.88
312.098	396.88
312.328	401.88
312.557	430.88
312.787	446.88
313.017	446.88
313.246	429.88
313.476	396.88
313.706	419.88
313.935	436.88
314.165	423.88
314.394	435.88
314.624	442.88
314.853	422.88
315.083	424.88
315.312	429.88
315.542	392.88
315.771	395.88
316.001	416.88
316.23	407.88
316.46	425.88
316.689	414.88
316.919	392.88
317.148	423.88
317.377	424.88
317.607	415.88
317.836	410.88
318.065	415.88
318.295	399.88
318.524	416.88
318.753	407.88
318.983	392.88
319.212	420.88
319.441	415.88
319.67	411.88
319.9	419.88
320.129	421.88
320.358	408.88
320.587	412.88
320.816	437.88
321.046	418.88
321.275	412.88
321.504	442.88
321.733	416.88
321.962	449.88
322.191	440.88
322.42	463.88
322.649	441.88
322.878	474.88
323.108	487.88
323.337	473.88
323.566	527.88
323.795	545.88
324.024	565.88
324.253	687.88
324.482	944.88
324.71	1403.88
324.939	2115.88
325.168	1818.88
325.397	903.88
325.626	627.88
325.855	543.88
326.084	512.88
326.313	526.88
326.542	520.88
326.77	564.88
326.999	621.88
327.228	834.88
327.457	1297.88
327.686	1607.88
327.914	1043.88
328.143	676.88
328.372	605.88
328.6	603.88
328.829	553.88
329.058	591.88
329.287	569.88
329.515	559.88
329.744	544.88
329.972	541.88
330.201	571.88
330.43	581.88
330.658	595.88
330.887	603.88
331.115	602.88
331.344	557.88
331.572	527.88
331.801	517.88
332.03	507.88
332.258	513.88
332.486	517.88
332.715	503.88
332.943	514.88
333.172	495.88
333.4	514.88
333.629	525.88
333.857	531.88
334.085	525.88
334.314	552.88
334.542	582.88
334.771	593.88
334.999	538.88
335.227	503.88
335.455	526.88
335.684	500.88
335.912	525.88
336.14	479.88
336.369	501.88
336.597	489.88
336.825	529.88
337.053	502.88
337.281	480.88
337.51	468.88
337.738	502.88
337.966	488.88
338.194	508.88
338.422	480.88
338.65	489.88
338.878	484.88
339.106	471.88
339.334	469.88
339.562	472.88
339.79	461.88
340.018	449.88
340.246	467.88
340.474	470.88
340.702	466.88
340.93	464.88
341.158	459.88
341.386	451.88
341.614	478.88
341.842	459.88
342.07	464.88
342.298	465.88
342.526	475.88
342.754	453.88
342.981	478.88
343.209	452.88
343.437	458.88
343.665	485.88
343.893	497.88
344.12	517.88
344.348	496.88
344.576	490.88
344.804	491.88
345.031	489.88
345.259	488.88
345.487	479.88
345.714	484.88
345.942	464.88
346.17	463.88
346.397	479.88
346.625	462.88
346.853	455.88
347.08	455.88
347.308	449.88
347.535	462.88
347.763	455.88
347.99	457.88
348.218	454.88
348.445	457.88
348.673	443.88
348.9	448.88
349.128	451.88
349.355	426.88
349.583	451.88
349.81	424.88
350.037	439.88
350.265	432.88
350.492	417.88
350.72	450.88
350.947	449.88
351.174	449.88
351.402	441.88
351.629	456.88
351.856	453.88
352.083	451.88
352.311	461.88
352.538	466.88
352.765	466.88
352.992	463.88
353.22	453.88
353.447	426.88
353.674	445.88
353.901	453.88
354.128	435.88
354.355	431.88
354.583	420.88
354.81	441.88
355.037	414.88
355.264	410.88
355.491	407.88
355.718	431.88
355.945	426.88
356.172	435.88
356.399	425.88
356.626	422.88
356.853	423.88
357.08	424.88
357.307	407.88
357.534	416.88
357.761	415.88
357.988	431.88
358.215	437.88
358.441	435.88
358.668	425.88
358.895	448.88
359.122	444.88
359.349	459.88
359.576	452.88
359.802	461.88
360.029	463.88
360.256	502.88
360.483	493.88
360.709	443.88
360.936	428.88
361.163	455.88
361.39	455.88
361.616	468.88
361.843	457.88
362.07	436.88
362.296	447.88
362.523	448.88
362.749	444.88
362.976	446.88
363.203	422.88
363.429	436.88
363.656	443.88
363.882	430.88
364.109	428.88
364.335	448.88
364.562	428.88
364.788	429.88
365.015	441.88
365.241	419.88
365.468	442.88
365.694	463.88
365.92	444.88
366.147	464.88
366.373	438.88
366.599	429.88
366.826	430.88
367.052	434.88
367.278	415.88
367.505	420.88
367.731	443.88
367.957	432.88
368.184	453.88
368.41	424.88
368.636	453.88
368.862	451.88
369.089	453.88
369.315	430.88
369.541	418.88
369.767	441.88
369.993	432.88
370.219	413.88
370.445	432.88
370.672	443.88
370.898	453.88
371.124	443.88
371.35	442.88
371.576	419.88
371.802	455.88
372.028	421.88
372.254	425.88
372.48	441.88
372.706	407.88
372.932	441.88
373.158	441.88
373.384	430.88
373.61	443.88
373.835	426.88
374.061	419.88
374.287	469.88
374.513	442.88
374.739	445.88
374.965	462.88
375.191	472.88
375.416	436.88
375.642	435.88
375.868	460.88
376.094	441.88
376.319	451.88
376.545	454.88
376.771	437.88
376.997	441.88
377.222	452.88
377.448	421.88
377.674	440.88
377.899	409.88
378.125	426.88
378.35	437.88
378.576	433.88
378.802	441.88
379.027	420.88
379.253	441.88
379.478	448.88
379.704	441.88
379.929	439.88
380.155	425.88
380.38	447.88
380.606	447.88
380.831	438.88
381.057	447.88
381.282	444.88
381.507	445.88
381.733	427.88
381.958	440.88
382.184	437.88
382.409	460.88
382.634	458.88
382.86	440.88
383.085	458.88
383.31	463.88
383.535	471.88
383.761	462.88
383.986	468.88
384.211	448.88
384.436	468.88
384.662	472.88
384.887	468.88
385.112	456.88
385.337	461.88
385.562	480.88
385.787	488.88
386.013	479.88
386.238	479.88
386.463	493.88
386.688	497.88
386.913	486.88
387.138	480.88
387.363	489.88
387.588	485.88
387.813	474.88
388.038	473.88
388.263	490.88
388.488	485.88
388.713	485.88
388.938	496.88
389.163	493.88
389.387	480.88
389.612	469.88
389.837	481.88
390.062	479.88
390.287	493.88
390.512	478.88
390.736	477.88
390.961	486.88
391.186	482.88
391.411	507.88
391.636	507.88
391.86	508.88
392.085	499.88
392.31	509.88
392.534	515.88
392.759	514.88
392.984	502.88
393.208	487.88
393.433	481.88
393.658	471.88
393.882	487.88
394.107	494.88
394.331	499.88
394.556	499.88
394.78	499.88
395.005	492.88
395.229	487.88
395.454	504.88
395.678	519.88
395.903	520.88
396.127	541.88
396.352	541.88
396.576	522.88
396.801	510.88
397.025	496.88
397.249	518.88
397.474	526.88
397.698	525.88
397.922	535.88
398.147	558.88
398.371	559.88
398.595	543.88
398.82	579.88
399.044	581.88
399.268	611.88
399.492	648.88
399.717	688.88
399.941	731.88
400.165	717.88
400.389	716.88
400.613	656.88
400.837	617.88
401.062	557.88
401.286	569.88
401.51	577.88
401.734	569.88
401.958	574.88
402.182	589.88
402.406	569.88
402.63	574.88
402.854	581.88
403.078	595.88
403.302	581.88
403.526	606.88
403.75	596.88
403.974	594.88
404.198	606.88
404.422	595.88
404.645	607.88
404.869	594.88
405.093	642.88
405.317	691.88
405.541	716.88
405.765	633.88
405.988	604.88
406.212	633.88
406.436	635.88
406.66	660.88
406.883	639.88
407.107	677.88
407.331	739.88
407.555	775.88
407.778	785.88
408.002	724.88
408.226	687.88
408.449	637.88
408.673	654.88
408.896	671.88
409.12	703.88
409.344	685.88
409.567	608.88
409.791	597.88
410.014	601.88
410.238	600.88
410.461	599.88
410.685	611.88
410.908	633.88
411.132	636.88
411.355	681.88
411.578	624.88
411.802	589.88
412.025	593.88
412.249	607.88
412.472	616.88
412.695	652.88
412.919	645.88
413.142	591.88
413.365	572.88
413.589	586.88
413.812	576.88
414.035	544.88
414.258	557.88
414.482	566.88
414.705	541.88
414.928	567.88
415.151	571.88
415.374	569.88
415.597	555.88
415.821	553.88
416.044	556.88
416.267	554.88
416.49	535.88
416.713	549.88
416.936	547.88
417.159	534.88
417.382	552.88
417.605	561.88
417.828	571.88
418.051	567.88
418.274	565.88
418.497	547.88
418.72	560.88
418.943	561.88
419.166	566.88
419.389	616.88
419.611	623.88
419.834	583.88
420.057	605.88
420.28	590.88
420.503	604.88
420.726	599.88
420.948	605.88
421.171	652.88
421.394	671.88
421.617	607.88
421.839	587.88
422.062	579.88
422.285	592.88
422.507	672.88
422.73	767.88
422.953	735.88
423.175	616.88
423.398	592.88
423.621	608.88
423.843	651.88
424.066	638.88
424.288	627.88
424.511	631.88
424.733	697.88
424.956	762.88
425.178	739.88
425.401	716.88
425.623	759.88
425.846	650.88
426.068	604.88
426.291	587.88
426.513	604.88
426.735	627.88
426.958	628.88
427.18	737.88
427.402	895.88
427.625	983.88
427.847	819.88
428.069	723.88
428.292	637.88
428.514	599.88
428.736	598.88
428.958	578.88
429.181	565.88
429.403	542.88
429.625	553.88
429.847	589.88
430.069	666.88
430.292	695.88
430.514	601.88
430.736	580.88
430.958	558.88
431.18	536.88
431.402	557.88
431.624	533.88
431.846	536.88
432.068	511.88
432.29	557.88
432.512	515.88
432.734	555.88
432.956	551.88
433.178	547.88
433.4	574.88
433.622	554.88
433.844	543.88
434.066	549.88
434.287	539.88
434.509	552.88
434.731	550.88
434.953	571.88
435.175	587.88
435.397	612.88
435.618	611.88
435.84	674.88
436.062	742.88
436.284	812.88
436.505	709.88
436.727	615.88
436.949	573.88
437.17	569.88
437.392	542.88
437.614	579.88
437.835	605.88
438.057	708.88
438.278	808.88
438.5	805.88
438.721	893.88
438.943	825.88
439.165	695.88
439.386	607.88
439.608	607.88
439.829	624.88
440.05	635.88
440.272	673.88
440.493	634.88
440.715	614.88
440.936	593.88
441.158	572.88
441.379	586.88
441.6	575.88
441.822	637.88
442.043	645.88
442.264	717.88
442.486	785.88
442.707	679.88
442.928	634.88
443.149	643.88
443.371	652.88
443.592	677.88
443.813	769.88
444.034	854.88
444.255	724.88
444.476	651.88
444.698	620.88
444.919	637.88
445.14	751.88
445.361	685.88
445.582	649.88
445.803	730.88
446.024	835.88
446.245	831.88
446.466	765.88
446.687	639.88
446.908	607.88
447.129	551.88
447.35	560.88
447.571	581.88
447.792	560.88
448.013	531.88
448.234	572.88
448.455	593.88
448.675	756.88
448.896	861.88
449.117	722.88
449.338	689.88
449.559	819.88
449.779	940.88
450	718.88
450.221	612.88
450.442	572.88
450.662	566.88
450.883	549.88
451.104	525.88
451.324	552.88
451.545	521.88
451.766	504.88
451.986	501.88
452.207	511.88
452.428	515.88
452.648	494.88
452.869	506.88
453.089	519.88
453.31	517.88
453.53	512.88
453.751	494.88
453.971	485.88
454.192	501.88
454.412	503.88
454.633	513.88
454.853	491.88
455.073	480.88
455.294	496.88
455.514	571.88
455.734	583.88
455.955	499.88
456.175	491.88
456.395	460.88
456.616	475.88
456.836	453.88
457.056	476.88
457.276	443.88
457.497	461.88
457.717	455.88
457.937	474.88
458.157	475.88
458.377	472.88
458.598	511.88
458.818	557.88
459.038	637.88
459.258	661.88
459.478	565.88
459.698	557.88
459.918	525.88
460.138	566.88
460.358	582.88
460.578	551.88
460.798	573.88
461.018	565.88
461.238	542.88
461.458	571.88
461.678	559.88
461.898	556.88
462.118	556.88
462.338	582.88
462.558	588.88
462.777	587.88
462.997	602.88
463.217	646.88
463.437	636.88
463.657	629.88
463.876	595.88
464.096	605.88
464.316	613.88
464.536	615.88
464.755	625.88
464.975	595.88
465.195	635.88
465.414	669.88
465.634	593.88
465.854	577.88
466.073	573.88
466.293	538.88
466.512	512.88
466.732	523.88
466.951	525.88
467.171	523.88
467.391	532.88
467.61	515.88
467.829	528.88
468.049	523.88
468.268	515.88
468.488	502.88
468.707	494.88
468.927	509.88
469.146	490.88
469.365	501.88
469.585	513.88
469.804	507.88
470.023	530.88
470.243	523.88
470.462	549.88
470.681	511.88
470.901	551.88
471.12	529.88
471.339	524.88
471.558	523.88
471.777	534.88
471.997	537.88
472.216	501.88
472.435	534.88
472.654	530.88
472.873	496.88
473.092	498.88
473.311	513.88
473.53	520.88
473.749	536.88
473.968	569.88
474.187	667.88
474.406	686.88
474.625	549.88
474.844	521.88
475.063	527.88
475.282	547.88
475.501	511.88
475.72	525.88
475.939	534.88
476.158	520.88
476.377	550.88
476.596	528.88
476.814	549.88
477.033	541.88
477.252	571.88
477.471	539.88
477.69	540.88
477.908	556.88
478.127	577.88
478.346	569.88
478.564	572.88
478.783	588.88
479.002	588.88
479.22	608.88
479.439	605.88
479.658	618.88
479.876	617.88
480.095	643.88
480.313	666.88
480.532	632.88
480.751	648.88
480.969	667.88
481.188	699.88
481.406	701.88
481.624	647.88
481.843	620.88
482.061	612.88
482.28	612.88
482.498	592.88
482.717	603.88
482.935	599.88
483.153	599.88
483.372	604.88
483.59	604.88
483.808	589.88
484.027	615.88
484.245	604.88
484.463	624.88
484.681	605.88
484.9	592.88
485.118	617.88
485.336	620.88
485.554	619.88
485.772	628.88
485.99	618.88
486.209	625.88
486.427	628.88
486.645	649.88
486.863	670.88
487.081	640.88
487.299	659.88
487.517	652.88
487.735	625.88
487.953	649.88
488.171	653.88
488.389	633.88
488.607	629.88
488.825	649.88
489.043	671.88
489.261	651.88
489.479	652.88
489.696	663.88
489.914	675.88
490.132	694.88
490.35	661.88
490.568	654.88
490.786	677.88
491.003	679.88
491.221	722.88
491.439	733.88
491.657	752.88
491.874	756.88
492.092	759.88
492.31	751.88
492.527	748.88
492.745	741.88
492.963	744.88
493.18	773.88
493.398	769.88
493.615	772.88
493.833	757.88
494.05	771.88
494.268	759.88
494.485	762.88
494.703	767.88
494.92	757.88
495.138	747.88
495.355	783.88
495.573	762.88
495.79	781.88
496.008	780.88
496.225	763.88
496.442	754.88
496.66	788.88
496.877	783.88
497.094	795.88
497.312	812.88
497.529	800.88
497.746	813.88
497.963	824.88
498.181	845.88
498.398	860.88
498.615	875.88
498.832	919.88
499.049	905.88
499.267	951.88
499.484	991.88
499.701	1029.88
499.918	1051.88
500.135	1161.88
500.352	1156.88
500.569	1216.88
500.786	1229.88
501.003	1187.88
501.22	1157.88
501.437	1120.88
501.654	1076.88
501.871	1007.88
502.088	975.88
502.305	931.88
502.522	897.88
502.739	874.88
502.956	829.88
503.172	819.88
503.389	810.88
503.606	814.88
503.823	814.88
504.04	799.88
504.256	791.88
504.473	810.88
504.69	789.88
504.907	770.88
505.123	769.88
505.34	747.88
505.557	750.88
505.773	737.88
505.99	760.88
506.207	699.88
506.423	749.88
506.64	694.88
506.856	708.88
507.073	709.88
507.289	702.88
507.506	709.88
507.722	704.88
507.939	719.88
508.155	701.88
508.372	713.88
508.588	667.88
508.805	687.88
509.021	667.88
509.238	705.88
509.454	711.88
509.67	687.88
509.887	664.88
510.103	639.88
510.319	653.88
510.536	747.88
510.752	1143.88
510.968	947.88
511.184	693.88
511.401	665.88
511.617	655.88
511.833	640.88
512.049	639.88
512.265	630.88
512.481	658.88
512.698	627.88
512.914	635.88
513.13	635.88
513.346	621.88
513.562	641.88
513.778	636.88
513.994	635.88
514.21	653.88
514.426	671.88
514.642	696.88
514.858	721.88
515.074	714.88
515.29	794.88
515.506	1134.88
515.721	978.88
515.937	736.88
516.153	695.88
516.369	656.88
516.585	635.88
516.801	649.88
517.016	663.88
517.232	689.88
517.448	700.88
517.664	677.88
517.879	707.88
518.095	687.88
518.311	687.88
518.527	664.88
518.742	679.88
518.958	645.88
519.173	633.88
519.389	632.88
519.605	651.88
519.82	633.88
520.036	633.88
520.251	654.88
520.467	674.88
520.682	691.88
520.898	697.88
521.113	694.88
521.329	701.88
521.544	761.88
521.76	955.88
521.975	1399.88
522.19	1350.88
522.406	843.88
522.621	672.88
522.836	635.88
523.052	632.88
523.267	599.88
523.482	593.88
523.698	583.88
523.913	589.88
524.128	564.88
524.343	572.88
524.559	578.88
524.774	558.88
524.989	555.88
525.204	568.88
525.419	549.88
525.634	535.88
525.849	537.88
526.064	539.88
526.28	528.88
526.495	533.88
526.71	527.88
526.925	515.88
527.14	527.88
527.355	491.88
527.57	519.88
527.785	533.88
527.999	526.88
528.214	519.88
528.429	533.88
528.644	535.88
528.859	538.88
529.074	529.88
529.289	537.88
529.503	595.88
529.718	582.88
529.933	545.88
530.148	524.88
530.363	529.88
530.577	520.88
530.792	527.88
531.007	512.88
531.221	514.88
531.436	496.88
531.651	510.88
531.865	531.88
532.08	525.88
532.295	517.88
532.509	495.88
532.724	503.88
532.938	498.88
533.153	516.88
533.367	504.88
533.582	516.88
533.796	503.88
534.011	528.88
534.225	502.88
534.44	510.88
534.654	502.88
534.868	483.88
535.083	509.88
535.297	510.88
535.511	507.88
535.726	511.88
535.94	502.88
536.154	504.88
536.369	504.88
536.583	484.88
536.797	501.88
537.011	483.88
537.225	488.88
537.44	476.88
537.654	509.88
537.868	505.88
538.082	491.88
538.296	504.88
538.51	475.88
538.724	497.88
538.938	487.88
539.153	507.88
539.367	488.88
539.581	461.88
539.795	500.88
540.009	475.88
540.222	480.88
540.436	495.88
540.65	518.88
540.864	492.88
541.078	497.88
541.292	485.88
541.506	493.88
541.72	478.88
541.934	494.88
542.147	503.88
542.361	483.88
542.575	482.88
542.789	476.88
543.002	492.88
543.216	480.88
543.43	474.88
543.644	477.88
543.857	488.88
544.071	485.88
544.285	496.88
544.498	480.88
544.712	502.88
544.925	492.88
545.139	501.88
545.352	477.88
545.566	474.88
545.779	481.88
545.993	473.88
546.206	476.88
546.42	485.88
546.633	475.88
546.847	466.88
547.06	481.88
547.274	467.88
547.487	486.88
547.7	459.88
547.914	508.88
548.127	454.88
548.34	471.88
548.554	487.88
548.767	468.88
548.98	480.88
549.193	476.88
549.407	455.88
549.62	489.88
549.833	486.88
550.046	471.88
550.259	475.88
550.473	459.88
550.686	466.88
550.899	459.88
551.112	457.88
551.325	445.88
551.538	461.88
551.751	444.88
551.964	466.88
552.177	466.88
552.39	464.88
552.603	478.88
552.816	497.88
553.029	482.88
553.242	486.88
553.455	506.88
553.667	499.88
553.88	486.88
554.093	457.88
554.306	464.88
554.519	487.88
554.732	469.88
554.944	476.88
555.157	446.88
555.37	457.88
555.583	446.88
555.795	461.88
556.008	446.88
556.221	433.88
556.433	433.88
556.646	435.88
556.859	427.88
557.071	411.88
557.284	414.88
557.496	431.88
557.709	443.88
557.921	427.88
558.134	437.88
558.346	423.88
558.559	427.88
558.771	427.88
558.984	416.88
559.196	407.88
559.409	425.88
559.621	432.88
559.833	425.88
560.046	432.88
560.258	411.88
560.47	426.88
560.683	416.88
560.895	407.88
561.107	389.88
561.32	408.88
561.532	427.88
561.744	413.88
561.956	417.88
562.168	428.88
562.381	423.88
562.593	435.88
562.805	418.88
563.017	423.88
563.229	428.88
563.441	411.88
563.653	411.88
563.865	422.88
564.077	449.88
564.289	427.88
564.501	434.88
564.713	445.88
564.925	454.88
565.137	464.88
565.349	452.88
565.561	466.88
565.773	481.88
565.985	490.88
566.197	487.88
566.408	503.88
566.62	520.88
566.832	540.88
567.044	543.88
567.255	564.88
567.467	547.88
567.679	561.88
567.891	581.88
568.102	582.88
568.314	572.88
568.526	545.88
568.737	540.88
568.949	496.88
569.161	465.88
569.372	475.88
569.584	451.88
569.795	457.88
570.007	450.88
570.218	463.88
570.43	464.88
570.641	429.88
570.853	420.88
571.064	428.88
571.276	424.88
571.487	399.88
571.698	403.88
571.91	411.88
572.121	413.88
572.333	398.88
572.544	366.88
572.755	380.88
572.966	377.88
573.178	375.88
573.389	350.88
573.6	361.88
573.811	355.88
574.023	372.88
574.234	365.88
574.445	375.88
574.656	371.88
574.867	373.88
575.078	358.88
575.289	358.88
575.501	379.88
575.712	342.88
575.923	347.88
576.134	357.88
576.345	368.88
576.556	348.88
576.767	368.88
576.978	350.88
577.188	349.88
577.399	359.88
577.61	355.88
577.821	337.88
578.032	335.88
578.243	389.88
578.454	523.88
578.665	415.88
578.875	355.88
579.086	351.88
579.297	321.88
579.508	320.88
579.718	344.88
579.929	331.88
580.14	323.88
580.35	327.88
580.561	324.88
580.772	322.88
580.982	322.88
581.193	333.88
581.403	329.88
581.614	330.88
581.825	342.88
582.035	335.88
582.246	341.88
582.456	338.88
582.667	337.88
582.877	346.88
583.087	330.88
583.298	323.88
583.508	312.88
583.719	303.88
583.929	341.88
584.139	327.88
584.35	315.88
584.56	326.88
584.77	327.88
584.981	325.88
585.191	327.88
585.401	313.88
585.611	311.88
585.821	324.88
586.032	321.88
586.242	313.88
586.452	328.88
586.662	324.88
586.872	328.88
587.082	319.88
587.292	304.88
587.502	313.88
587.713	315.88
587.923	327.88
588.133	319.88
588.343	314.88
588.553	307.88
588.762	314.88
588.972	311.88
589.182	317.88
589.392	303.88
589.602	312.88
589.812	314.88
590.022	303.88
590.232	325.88
590.441	310.88
590.651	328.88
590.861	327.88
591.071	323.88
591.281	320.88
591.49	313.88
591.7	310.88
591.91	321.88
592.119	336.88
592.329	325.88
592.539	349.88
592.748	352.88
592.958	353.88
593.167	338.88
593.377	364.88
593.587	361.88
593.796	332.88
594.006	340.88
594.215	351.88
594.424	358.88
594.634	351.88
594.843	343.88
595.053	347.88
595.262	339.88
595.472	336.88
595.681	327.88
595.89	329.88
596.1	307.88
596.309	320.88
596.518	313.88
596.727	301.88
596.937	307.88
597.146	311.88
597.355	300.88
597.564	281.88
597.774	298.88
597.983	284.88
598.192	287.88
598.401	286.88
598.61	293.88
598.819	279.88
599.028	291.88
599.237	278.88
599.446	295.88
599.655	286.88
599.864	291.88
600.073	255.88
600.282	263.88
600.491	284.88
600.7	269.88
600.909	283.88
601.118	278.88
601.327	283.88
601.536	291.88
601.745	272.88
601.953	270.88
602.162	278.88
602.371	280.88
602.58	282.88
602.789	278.88
602.997	277.88
603.206	283.88
603.415	272.88
603.623	261.88
603.832	265.88
604.041	257.88
604.249	270.88
604.458	268.88
604.666	265.88
604.875	260.88
605.084	247.88
605.292	262.88
605.501	255.88
605.709	265.88
605.918	267.88
606.126	270.88
606.334	270.88
606.543	254.88
606.751	267.88
606.96	261.88
607.168	272.88
607.376	247.88
607.585	253.88
607.793	258.88
608.001	257.88
608.21	252.88
608.418	249.88
608.626	240.88
608.834	255.88
609.043	244.88
609.251	265.88
609.459	265.88
609.667	248.88
609.875	259.88
610.083	260.88
610.291	250.88
610.499	261.88
610.707	264.88
610.916	270.88
611.124	253.88
611.332	269.88
611.54	279.88
611.748	243.88
611.955	241.88
612.163	249.88
612.371	271.88
612.579	255.88
612.787	254.88
612.995	264.88
613.203	261.88
613.411	247.88
613.618	269.88
613.826	269.88
614.034	252.88
614.242	255.88
614.449	247.88
614.657	249.88
614.865	244.88
615.072	247.88
615.28	242.88
615.488	254.88
615.695	259.88
615.903	261.88
616.111	260.88
616.318	263.88
616.526	266.88
616.733	261.88
616.941	234.88
617.148	246.88
617.356	249.88
617.563	246.88
617.771	246.88
617.978	262.88
618.185	263.88
618.393	260.88
618.6	252.88
618.807	237.88
619.015	262.88
619.222	218.88
619.429	230.88
619.637	253.88
619.844	225.88
620.051	241.88
620.258	253.88
620.466	220.88
620.673	249.88
620.88	239.88
621.087	246.88
621.294	267.88
621.501	238.88
621.708	236.88
621.915	248.88
622.122	244.88
622.329	237.88
622.536	237.88
622.743	225.88
622.95	219.88
623.157	231.88
623.364	228.88
623.571	243.88
623.778	248.88
623.985	224.88
624.192	245.88
624.399	231.88
624.606	240.88
624.812	232.88
625.019	226.88
625.226	237.88
625.433	223.88
625.639	222.88
625.846	229.88
626.053	239.88
626.259	233.88
626.466	217.88
626.673	219.88
626.879	218.88
627.086	213.88
627.293	214.88
627.499	241.88
627.706	214.88
627.912	208.88
628.119	216.88
628.325	228.88
628.532	200.88
628.738	222.88
628.945	206.88
629.151	209.88
629.357	214.88
629.564	200.88
629.77	202.88
629.976	205.88
630.183	208.88
630.389	220.88
630.595	218.88
630.802	212.88
631.008	204.88
631.214	229.88
631.42	203.88
631.627	195.88
631.833	208.88
632.039	208.88
632.245	208.88
632.451	192.88
632.657	208.88
632.863	211.88
633.069	197.88
633.275	205.88
633.481	194.88
633.688	204.88
633.893	194.88
634.099	205.88
634.305	198.88
634.511	211.88
634.717	187.88
634.923	179.88
635.129	175.88
635.335	195.88
635.541	183.88
635.747	203.88
635.952	187.88
636.158	192.88
636.364	185.88
636.57	222.88
636.775	197.88
636.981	187.88
637.187	201.88
637.392	183.88
637.598	192.88
637.804	195.88
638.009	182.88
638.215	192.88
638.421	188.88
638.626	199.88
638.832	183.88
639.037	199.88
639.243	188.88
639.448	181.88
639.654	177.88
639.859	181.88
640.065	184.88
640.27	174.88
640.475	183.88
640.681	194.88
640.886	199.88
641.091	198.88
641.297	189.88
641.502	187.88
641.707	187.88
641.913	175.88
642.118	179.88
642.323	168.88
642.528	191.88
642.733	175.88
642.939	173.88
643.144	188.88
643.349	179.88
643.554	177.88
643.759	189.88
643.964	168.88
644.169	160.88
644.374	175.88
644.579	181.88
644.784	171.88
644.989	163.88
645.194	175.88
645.399	195.88
645.604	185.88
645.809	190.88
646.014	184.88
646.219	178.88
646.423	189.88
646.628	173.88
646.833	181.88
647.038	179.88
647.243	182.88
647.447	186.88
647.652	173.88
647.857	171.88
648.062	182.88
648.266	207.88
648.471	185.88
648.676	198.88
648.88	172.88
649.085	192.88
649.289	158.88
649.494	173.88
649.698	206.88
649.903	199.88
650.107	175.88
650.312	166.88
650.516	186.88
650.721	170.88
650.925	165.88
651.13	166.88
651.334	166.88
651.539	142.88
651.743	167.88
651.947	156.88
652.152	171.88
652.356	156.88
652.56	161.88
652.764	148.88
652.969	143.88
653.173	150.88
653.377	145.88
653.581	129.88
653.785	163.88
653.99	160.88
654.194	156.88
654.398	146.88
654.602	148.88
654.806	142.88
655.01	141.88
655.214	151.88
655.418	137.88
655.622	136.88
655.826	130.88
656.03	140.88
656.234	136.88
656.438	135.88
656.642	163.88
656.846	141.88
657.049	141.88
657.253	161.88
657.457	142.88
657.661	133.88
657.865	149.88
658.068	127.88
658.272	122.88
658.476	121.88
658.68	111.88
658.883	118.88
659.087	110.88
659.291	92.88
659.494	78.88
659.698	93.88
659.901	99.88
660.105	101.88
660.309	111.88
660.512	95.88
660.716	102.88
660.919	102.88
661.123	104.88
661.326	93.88
661.53	91.88
661.733	91.88
661.936	95.88
662.14	82.88
662.343	83.88
662.546	86.88
662.75	86.88
662.953	87.88
663.156	85.88
663.36	92.88
663.563	84.88
663.766	67.88
663.969	71.88
664.173	93.88
664.376	87.88
664.579	100.88
664.782	101.88
664.985	115.88
665.188	81.88
665.391	86.88
665.594	76.88
665.797	83.88
666	84.88
666.203	97.88
666.406	78.88
666.609	80.88
666.812	87.88
667.015	77.88
667.218	91.88
667.421	106.88
667.624	68.88
667.827	89.88
668.03	85.88
668.232	86.88
668.435	71.88
668.638	85.88
668.841	93.88
669.043	94.88
669.246	77.88
669.449	76.88
669.651	79.88
669.854	85.88
670.057	79.88
670.259	81.88
670.462	79.88
670.665	95.88
670.867	102.88
671.07	92.88
671.272	82.88
671.475	100.88
671.677	89.88
671.88	78.88
672.082	81.88
672.284	89.88
672.487	82.88
672.689	94.88
672.892	85.88
