Data from 1976.PennyLincolnUp.Lamp.En5.5.200Scan.071719.P1.Changed Mount._HRD10591_15-59-37-860.txt Node
Date: Thu Jul 18 15:59:37 EDT 2019
User: cochatt
Spectrometer: HR+D1059
Trigger mode: 1
Integration Time (sec): 1.000000E-1
Scans to average: 1
Electric dark correction enabled: true
Nonlinearity correction enabled: false
Boxcar width: 0
XAxis mode: Wavelengths
Number of Pixels in Spectrum: 2048
>>>>>Begin Spectral Data<<<<<
223.165	-26.25
223.4	-26.25
223.635	-26.25
223.869	-16.25
224.104	-14.25
224.338	-12.25
224.573	-22.25
224.808	-12.25
225.042	-8.25
225.277	2.75
225.511	-7.25
225.746	4.75
225.98	13.75
226.215	20.75
226.449	11.75
226.683	17.75
226.918	23.75
227.152	23.75
227.387	24.75
227.621	41.75
227.856	45.75
228.09	57.75
228.324	54.75
228.559	52.75
228.793	68.75
229.027	87.75
229.262	105.75
229.496	115.75
229.73	118.75
229.964	130.75
230.199	112.75
230.433	98.75
230.667	99.75
230.901	124.75
231.136	106.75
231.37	118.75
231.604	108.75
231.838	115.75
232.072	111.75
232.306	114.75
232.541	111.75
232.775	111.75
233.009	120.75
233.243	109.75
233.477	109.75
233.711	110.75
233.945	104.75
234.179	129.75
234.413	109.75
234.647	108.75
234.881	97.75
235.115	121.75
235.349	103.75
235.583	97.75
235.817	108.75
236.051	117.75
236.285	119.75
236.519	120.75
236.753	136.75
236.987	121.75
237.221	159.75
237.455	195.75
237.689	176.75
237.922	145.75
238.156	131.75
238.39	128.75
238.624	119.75
238.858	138.75
239.091	117.75
239.325	118.75
239.559	120.75
239.793	123.75
240.027	128.75
240.26	135.75
240.494	132.75
240.728	133.75
240.961	142.75
241.195	129.75
241.429	131.75
241.662	130.75
241.896	138.75
242.13	139.75
242.363	131.75
242.597	128.75
242.83	133.75
243.064	142.75
243.298	140.75
243.531	131.75
243.765	121.75
243.998	116.75
244.232	132.75
244.465	145.75
244.699	131.75
244.932	145.75
245.166	155.75
245.399	151.75
245.633	137.75
245.866	144.75
246.099	140.75
246.333	151.75
246.566	142.75
246.8	151.75
247.033	150.75
247.266	156.75
247.5	152.75
247.733	160.75
247.966	163.75
248.2	158.75
248.433	164.75
248.666	166.75
248.899	189.75
249.133	171.75
249.366	201.75
249.599	174.75
249.832	188.75
250.066	187.75
250.299	183.75
250.532	175.75
250.765	189.75
250.998	198.75
251.231	208.75
251.465	212.75
251.698	189.75
251.931	189.75
252.164	181.75
252.397	200.75
252.63	187.75
252.863	198.75
253.096	190.75
253.329	194.75
253.562	209.75
253.795	192.75
254.028	201.75
254.261	214.75
254.494	208.75
254.727	238.75
254.96	247.75
255.193	230.75
255.426	216.75
255.659	215.75
255.892	197.75
256.124	225.75
256.357	195.75
256.59	211.75
256.823	203.75
257.056	201.75
257.289	201.75
257.521	195.75
257.754	187.75
257.987	202.75
258.22	190.75
258.452	197.75
258.685	207.75
258.918	198.75
259.151	214.75
259.383	212.75
259.616	214.75
259.849	206.75
260.081	219.75
260.314	229.75
260.547	226.75
260.779	214.75
261.012	206.75
261.244	202.75
261.477	215.75
261.71	221.75
261.942	217.75
262.175	223.75
262.407	192.75
262.64	201.75
262.872	208.75
263.105	206.75
263.337	206.75
263.57	207.75
263.802	201.75
264.035	216.75
264.267	219.75
264.499	209.75
264.732	208.75
264.964	213.75
265.197	213.75
265.429	214.75
265.661	220.75
265.894	209.75
266.126	224.75
266.358	200.75
266.591	201.75
266.823	209.75
267.055	218.75
267.287	211.75
267.52	221.75
267.752	223.75
267.984	210.75
268.216	205.75
268.448	224.75
268.681	224.75
268.913	237.75
269.145	233.75
269.377	268.75
269.609	257.75
269.841	249.75
270.073	265.75
270.306	260.75
270.538	281.75
270.77	279.75
271.002	275.75
271.234	270.75
271.466	271.75
271.698	264.75
271.93	285.75
272.162	281.75
272.394	271.75
272.626	270.75
272.858	268.75
273.09	249.75
273.322	266.75
273.553	234.75
273.785	266.75
274.017	257.75
274.249	258.75
274.481	260.75
274.713	283.75
274.945	278.75
275.176	268.75
275.408	234.75
275.64	245.75
275.872	253.75
276.104	268.75
276.335	243.75
276.567	258.75
276.799	262.75
277.031	294.75
277.262	285.75
277.494	299.75
277.726	282.75
277.957	295.75
278.189	269.75
278.421	253.75
278.652	272.75
278.884	264.75
279.115	265.75
279.347	264.75
279.579	261.75
279.81	261.75
280.042	279.75
280.273	256.75
280.505	261.75
280.736	261.75
280.968	264.75
281.199	256.75
281.431	275.75
281.662	263.75
281.894	265.75
282.125	278.75
282.356	287.75
282.588	272.75
282.819	276.75
283.051	285.75
283.282	283.75
283.513	264.75
283.745	265.75
283.976	282.75
284.207	277.75
284.439	282.75
284.67	284.75
284.901	256.75
285.132	255.75
285.364	261.75
285.595	284.75
285.826	265.75
286.057	295.75
286.288	278.75
286.52	277.75
286.751	288.75
286.982	271.75
287.213	272.75
287.444	290.75
287.675	271.75
287.906	286.75
288.138	307.75
288.369	290.75
288.6	299.75
288.831	301.75
289.062	292.75
289.293	295.75
289.524	286.75
289.755	296.75
289.986	279.75
290.217	286.75
290.448	276.75
290.679	280.75
290.91	308.75
291.141	302.75
291.371	308.75
291.602	302.75
291.833	287.75
292.064	301.75
292.295	282.75
292.526	278.75
292.757	296.75
292.987	290.75
293.218	286.75
293.449	293.75
293.68	281.75
293.91	271.75
294.141	297.75
294.372	284.75
294.603	291.75
294.833	281.75
295.064	289.75
295.295	293.75
295.525	293.75
295.756	293.75
295.987	307.75
296.217	323.75
296.448	323.75
296.679	296.75
296.909	312.75
297.14	315.75
297.37	289.75
297.601	293.75
297.831	297.75
298.062	305.75
298.292	303.75
298.523	295.75
298.753	310.75
298.984	315.75
299.214	305.75
299.445	313.75
299.675	296.75
299.905	317.75
300.136	315.75
300.366	319.75
300.597	315.75
300.827	318.75
301.057	296.75
301.288	311.75
301.518	319.75
301.748	330.75
301.979	324.75
302.209	321.75
302.439	319.75
302.669	318.75
302.9	329.75
303.13	320.75
303.36	343.75
303.59	302.75
303.82	317.75
304.051	323.75
304.281	317.75
304.511	304.75
304.741	331.75
304.971	325.75
305.201	330.75
305.431	313.75
305.661	317.75
305.891	312.75
306.121	328.75
306.352	327.75
306.582	316.75
306.812	327.75
307.042	329.75
307.272	323.75
307.502	313.75
307.731	329.75
307.961	313.75
308.191	320.75
308.421	334.75
308.651	323.75
308.881	315.75
309.111	333.75
309.341	330.75
309.571	350.75
309.8	358.75
310.03	336.75
310.26	357.75
310.49	349.75
310.72	347.75
310.949	351.75
311.179	379.75
311.409	360.75
311.639	343.75
311.868	365.75
312.098	364.75
312.328	326.75
312.557	350.75
312.787	347.75
313.017	349.75
313.246	356.75
313.476	357.75
313.706	371.75
313.935	349.75
314.165	368.75
314.394	371.75
314.624	379.75
314.853	358.75
315.083	377.75
315.312	343.75
315.542	351.75
315.771	336.75
316.001	359.75
316.23	358.75
316.46	347.75
316.689	357.75
316.919	367.75
317.148	362.75
317.377	354.75
317.607	361.75
317.836	367.75
318.065	375.75
318.295	376.75
318.524	353.75
318.753	373.75
318.983	362.75
319.212	367.75
319.441	359.75
319.67	370.75
319.9	359.75
320.129	357.75
320.358	373.75
320.587	376.75
320.816	352.75
321.046	359.75
321.275	369.75
321.504	337.75
321.733	368.75
321.962	382.75
322.191	373.75
322.42	381.75
322.649	375.75
322.878	395.75
323.108	387.75
323.337	402.75
323.566	424.75
323.795	436.75
324.024	461.75
324.253	527.75
324.482	692.75
324.71	1067.75
324.939	1551.75
325.168	1351.75
325.397	674.75
325.626	495.75
325.855	449.75
326.084	410.75
326.313	409.75
326.542	427.75
326.77	446.75
326.999	527.75
327.228	658.75
327.457	947.75
327.686	1182.75
327.914	806.75
328.143	542.75
328.372	471.75
328.6	463.75
328.829	449.75
329.058	440.75
329.287	466.75
329.515	453.75
329.744	445.75
329.972	442.75
330.201	454.75
330.43	478.75
330.658	480.75
330.887	508.75
331.115	509.75
331.344	452.75
331.572	437.75
331.801	449.75
332.03	428.75
332.258	413.75
332.486	419.75
332.715	427.75
332.943	412.75
333.172	434.75
333.4	425.75
333.629	452.75
333.857	467.75
334.085	478.75
334.314	480.75
334.542	474.75
334.771	475.75
334.999	467.75
335.227	445.75
335.455	443.75
335.684	430.75
335.912	421.75
336.14	427.75
336.369	435.75
336.597	428.75
336.825	425.75
337.053	424.75
337.281	431.75
337.51	398.75
337.738	424.75
337.966	419.75
338.194	412.75
338.422	428.75
338.65	420.75
338.878	431.75
339.106	415.75
339.334	419.75
339.562	420.75
339.79	409.75
340.018	431.75
340.246	406.75
340.474	423.75
340.702	406.75
340.93	418.75
341.158	405.75
341.386	412.75
341.614	403.75
341.842	384.75
342.07	380.75
342.298	387.75
342.526	410.75
342.754	407.75
342.981	404.75
343.209	401.75
343.437	411.75
343.665	406.75
343.893	403.75
344.12	450.75
344.348	422.75
344.576	437.75
344.804	443.75
345.031	426.75
345.259	429.75
345.487	405.75
345.714	396.75
345.942	394.75
346.17	393.75
346.397	412.75
346.625	389.75
346.853	395.75
347.08	389.75
347.308	381.75
347.535	371.75
347.763	399.75
347.99	384.75
348.218	396.75
348.445	398.75
348.673	378.75
348.9	390.75
349.128	371.75
349.355	377.75
349.583	372.75
349.81	373.75
350.037	384.75
350.265	376.75
350.492	388.75
350.72	368.75
350.947	380.75
351.174	385.75
351.402	408.75
351.629	377.75
351.856	385.75
352.083	398.75
352.311	409.75
352.538	392.75
352.765	389.75
352.992	402.75
353.22	398.75
353.447	372.75
353.674	376.75
353.901	373.75
354.128	381.75
354.355	371.75
354.583	373.75
354.81	366.75
355.037	379.75
355.264	381.75
355.491	368.75
355.718	367.75
355.945	385.75
356.172	383.75
356.399	374.75
356.626	381.75
356.853	360.75
357.08	368.75
357.307	391.75
357.534	367.75
357.761	366.75
357.988	371.75
358.215	367.75
358.441	376.75
358.668	364.75
358.895	381.75
359.122	377.75
359.349	382.75
359.576	380.75
359.802	405.75
360.029	404.75
360.256	406.75
360.483	405.75
360.709	401.75
360.936	390.75
361.163	394.75
361.39	384.75
361.616	391.75
361.843	372.75
362.07	401.75
362.296	391.75
362.523	377.75
362.749	392.75
362.976	386.75
363.203	393.75
363.429	389.75
363.656	395.75
363.882	376.75
364.109	385.75
364.335	375.75
364.562	382.75
364.788	368.75
365.015	387.75
365.241	361.75
365.468	395.75
365.694	391.75
365.92	383.75
366.147	391.75
366.373	391.75
366.599	374.75
366.826	382.75
367.052	355.75
367.278	383.75
367.505	381.75
367.731	388.75
367.957	387.75
368.184	366.75
368.41	381.75
368.636	404.75
368.862	403.75
369.089	372.75
369.315	362.75
369.541	371.75
369.767	392.75
369.993	380.75
370.219	380.75
370.445	392.75
370.672	391.75
370.898	373.75
371.124	381.75
371.35	383.75
371.576	380.75
371.802	387.75
372.028	368.75
372.254	389.75
372.48	389.75
372.706	404.75
372.932	400.75
373.158	404.75
373.384	400.75
373.61	401.75
373.835	420.75
374.061	385.75
374.287	384.75
374.513	392.75
374.739	405.75
374.965	404.75
375.191	417.75
375.416	383.75
375.642	399.75
375.868	405.75
376.094	406.75
376.319	401.75
376.545	375.75
376.771	392.75
376.997	395.75
377.222	390.75
377.448	383.75
377.674	381.75
377.899	392.75
378.125	376.75
378.35	391.75
378.576	386.75
378.802	381.75
379.027	371.75
379.253	388.75
379.478	381.75
379.704	411.75
379.929	396.75
380.155	382.75
380.38	384.75
380.606	387.75
380.831	387.75
381.057	397.75
381.282	392.75
381.507	373.75
381.733	391.75
381.958	382.75
382.184	410.75
382.409	401.75
382.634	407.75
382.86	411.75
383.085	409.75
383.31	407.75
383.535	410.75
383.761	444.75
383.986	422.75
384.211	408.75
384.436	411.75
384.662	413.75
384.887	418.75
385.112	428.75
385.337	420.75
385.562	418.75
385.787	472.75
386.013	447.75
386.238	439.75
386.463	428.75
386.688	445.75
386.913	437.75
387.138	428.75
387.363	427.75
387.588	432.75
387.813	431.75
388.038	422.75
388.263	448.75
388.488	442.75
388.713	430.75
388.938	416.75
389.163	428.75
389.387	449.75
389.612	439.75
389.837	435.75
390.062	427.75
390.287	441.75
390.512	417.75
390.736	447.75
390.961	435.75
391.186	423.75
391.411	437.75
391.636	421.75
391.86	462.75
392.085	461.75
392.31	450.75
392.534	458.75
392.759	462.75
392.984	429.75
393.208	448.75
393.433	449.75
393.658	452.75
393.882	449.75
394.107	424.75
394.331	439.75
394.556	445.75
394.78	443.75
395.005	441.75
395.229	446.75
395.454	483.75
395.678	450.75
395.903	479.75
396.127	455.75
396.352	471.75
396.576	478.75
396.801	453.75
397.025	462.75
397.249	449.75
397.474	462.75
397.698	472.75
397.922	481.75
398.147	489.75
398.371	505.75
398.595	507.75
398.82	502.75
399.044	523.75
399.268	553.75
399.492	567.75
399.717	607.75
399.941	628.75
400.165	664.75
400.389	637.75
400.613	555.75
400.837	520.75
401.062	509.75
401.286	501.75
401.51	505.75
401.734	488.75
401.958	483.75
402.182	497.75
402.406	511.75
402.63	492.75
402.854	523.75
403.078	522.75
403.302	512.75
403.526	532.75
403.75	529.75
403.974	541.75
404.198	531.75
404.422	517.75
404.645	532.75
404.869	511.75
405.093	554.75
405.317	575.75
405.541	621.75
405.765	551.75
405.988	536.75
406.212	532.75
406.436	565.75
406.66	570.75
406.883	559.75
407.107	586.75
407.331	618.75
407.555	693.75
407.778	691.75
408.002	639.75
408.226	581.75
408.449	584.75
408.673	558.75
408.896	608.75
409.12	635.75
409.344	593.75
409.567	533.75
409.791	532.75
410.014	519.75
410.238	507.75
410.461	500.75
410.685	555.75
410.908	526.75
411.132	548.75
411.355	586.75
411.578	561.75
411.802	531.75
412.025	539.75
412.249	517.75
412.472	554.75
412.695	567.75
412.919	546.75
413.142	525.75
413.365	516.75
413.589	502.75
413.812	496.75
414.035	493.75
414.258	487.75
414.482	493.75
414.705	497.75
414.928	515.75
415.151	496.75
415.374	487.75
415.597	502.75
415.821	471.75
416.044	489.75
416.267	487.75
416.49	484.75
416.713	476.75
416.936	477.75
417.159	492.75
417.382	516.75
417.605	500.75
417.828	507.75
418.051	493.75
418.274	507.75
418.497	486.75
418.72	498.75
418.943	469.75
419.166	479.75
419.389	549.75
419.611	537.75
419.834	516.75
420.057	525.75
420.28	519.75
420.503	487.75
420.726	485.75
420.948	512.75
421.171	543.75
421.394	582.75
421.617	517.75
421.839	506.75
422.062	502.75
422.285	524.75
422.507	559.75
422.73	637.75
422.953	636.75
423.175	539.75
423.398	530.75
423.621	530.75
423.843	531.75
424.066	523.75
424.288	556.75
424.511	555.75
424.733	581.75
424.956	671.75
425.178	651.75
425.401	640.75
425.623	673.75
425.846	592.75
426.068	542.75
426.291	507.75
426.513	544.75
426.735	525.75
426.958	558.75
427.18	629.75
427.402	754.75
427.625	812.75
427.847	697.75
428.069	599.75
428.292	540.75
428.514	521.75
428.736	503.75
428.958	509.75
429.181	481.75
429.403	475.75
429.625	494.75
429.847	519.75
430.069	597.75
430.292	560.75
430.514	491.75
430.736	477.75
430.958	476.75
431.18	465.75
431.402	467.75
431.624	491.75
431.846	477.75
432.068	441.75
432.29	464.75
432.512	465.75
432.734	481.75
432.956	489.75
433.178	487.75
433.4	491.75
433.622	474.75
433.844	495.75
434.066	484.75
434.287	470.75
434.509	479.75
434.731	486.75
434.953	485.75
435.175	511.75
435.397	526.75
435.618	543.75
435.84	565.75
436.062	623.75
436.284	710.75
436.505	586.75
436.727	524.75
436.949	485.75
437.17	486.75
437.392	490.75
437.614	515.75
437.835	529.75
438.057	589.75
438.278	682.75
438.5	680.75
438.721	742.75
438.943	732.75
439.165	569.75
439.386	539.75
439.608	539.75
439.829	521.75
440.05	557.75
440.272	583.75
440.493	541.75
440.715	490.75
440.936	488.75
441.158	496.75
441.379	478.75
441.6	524.75
441.822	519.75
442.043	546.75
442.264	628.75
442.486	671.75
442.707	566.75
442.928	525.75
443.149	558.75
443.371	560.75
443.592	588.75
443.813	691.75
444.034	753.75
444.255	618.75
444.476	576.75
444.698	567.75
444.919	540.75
445.14	661.75
445.361	602.75
445.582	567.75
445.803	629.75
446.024	678.75
446.245	697.75
446.466	648.75
446.687	566.75
446.908	540.75
447.129	483.75
447.35	469.75
447.571	487.75
447.792	488.75
448.013	493.75
448.234	504.75
448.455	496.75
448.675	627.75
448.896	737.75
449.117	624.75
449.338	579.75
449.559	685.75
449.779	783.75
450	621.75
450.221	525.75
450.442	489.75
450.662	457.75
450.883	471.75
451.104	483.75
451.324	469.75
451.545	450.75
451.766	456.75
451.986	430.75
452.207	420.75
452.428	415.75
452.648	423.75
452.869	420.75
453.089	430.75
453.31	433.75
453.53	424.75
453.751	423.75
453.971	427.75
454.192	425.75
454.412	421.75
454.633	426.75
454.853	414.75
455.073	432.75
455.294	447.75
455.514	492.75
455.734	481.75
455.955	405.75
456.175	420.75
456.395	424.75
456.616	424.75
456.836	421.75
457.056	417.75
457.276	399.75
457.497	413.75
457.717	416.75
457.937	413.75
458.157	426.75
458.377	440.75
458.598	445.75
458.818	474.75
459.038	529.75
459.258	529.75
459.478	490.75
459.698	463.75
459.918	453.75
460.138	478.75
460.358	483.75
460.578	500.75
460.798	496.75
461.018	492.75
461.238	482.75
461.458	491.75
461.678	478.75
461.898	491.75
462.118	496.75
462.338	530.75
462.558	493.75
462.777	535.75
462.997	564.75
463.217	563.75
463.437	590.75
463.657	528.75
463.876	543.75
464.096	526.75
464.316	541.75
464.536	552.75
464.755	541.75
464.975	529.75
465.195	548.75
465.414	556.75
465.634	514.75
465.854	508.75
466.073	496.75
466.293	484.75
466.512	454.75
466.732	456.75
466.951	455.75
467.171	444.75
467.391	448.75
467.61	450.75
467.829	464.75
468.049	458.75
468.268	455.75
468.488	440.75
468.707	422.75
468.927	454.75
469.146	438.75
469.365	475.75
469.585	430.75
469.804	466.75
470.023	460.75
470.243	442.75
470.462	448.75
470.681	469.75
470.901	447.75
471.12	451.75
471.339	461.75
471.558	479.75
471.777	468.75
471.997	429.75
472.216	470.75
472.435	459.75
472.654	461.75
472.873	470.75
473.092	453.75
473.311	447.75
473.53	447.75
473.749	467.75
473.968	494.75
474.187	573.75
474.406	581.75
474.625	500.75
474.844	468.75
475.063	458.75
475.282	462.75
475.501	457.75
475.72	460.75
475.939	454.75
476.158	447.75
476.377	473.75
476.596	483.75
476.814	455.75
477.033	494.75
477.252	467.75
477.471	471.75
477.69	515.75
477.908	505.75
478.127	493.75
478.346	499.75
478.564	505.75
478.783	517.75
479.002	530.75
479.22	533.75
479.439	537.75
479.658	527.75
479.876	535.75
480.095	566.75
480.313	587.75
480.532	594.75
480.751	573.75
480.969	577.75
481.188	578.75
481.406	571.75
481.624	537.75
481.843	553.75
482.061	544.75
482.28	524.75
482.498	519.75
482.717	523.75
482.935	543.75
483.153	511.75
483.372	519.75
483.59	540.75
483.808	533.75
484.027	523.75
484.245	528.75
484.463	559.75
484.681	549.75
484.9	551.75
485.118	530.75
485.336	539.75
485.554	534.75
485.772	554.75
485.99	536.75
486.209	541.75
486.427	547.75
486.645	554.75
486.863	556.75
487.081	567.75
487.299	557.75
487.517	558.75
487.735	567.75
487.953	570.75
488.171	583.75
488.389	572.75
488.607	577.75
488.825	561.75
489.043	601.75
489.261	570.75
489.479	577.75
489.696	583.75
489.914	570.75
490.132	583.75
490.35	588.75
490.568	575.75
490.786	611.75
491.003	612.75
491.221	608.75
491.439	624.75
491.657	648.75
491.874	619.75
492.092	627.75
492.31	606.75
492.527	626.75
492.745	636.75
492.963	616.75
493.18	661.75
493.398	661.75
493.615	660.75
493.833	653.75
494.05	640.75
494.268	638.75
494.485	655.75
494.703	651.75
494.92	652.75
495.138	664.75
495.355	661.75
495.573	663.75
495.79	658.75
496.008	666.75
496.225	681.75
496.442	653.75
496.66	676.75
496.877	676.75
497.094	678.75
497.312	682.75
497.529	696.75
497.746	686.75
497.963	702.75
498.181	715.75
498.398	764.75
498.615	741.75
498.832	771.75
499.049	821.75
499.267	818.75
499.484	865.75
499.701	912.75
499.918	943.75
500.135	1011.75
500.352	1073.75
500.569	1075.75
500.786	1111.75
501.003	1085.75
501.22	1031.75
501.437	945.75
501.654	917.75
501.871	896.75
502.088	848.75
502.305	837.75
502.522	776.75
502.739	775.75
502.956	743.75
503.172	717.75
503.389	715.75
503.606	701.75
503.823	707.75
504.04	668.75
504.256	671.75
504.473	675.75
504.69	705.75
504.907	668.75
505.123	666.75
505.34	631.75
505.557	622.75
505.773	634.75
505.99	637.75
506.207	640.75
506.423	618.75
506.64	607.75
506.856	591.75
507.073	595.75
507.289	617.75
507.506	621.75
507.722	594.75
507.939	611.75
508.155	599.75
508.372	567.75
508.588	568.75
508.805	576.75
509.021	586.75
509.238	595.75
509.454	576.75
509.67	573.75
509.887	580.75
510.103	558.75
510.319	567.75
510.536	614.75
510.752	837.75
510.968	720.75
511.184	561.75
511.401	544.75
511.617	545.75
511.833	542.75
512.049	546.75
512.265	562.75
512.481	546.75
512.698	536.75
512.914	544.75
513.13	538.75
513.346	545.75
513.562	549.75
513.778	532.75
513.994	543.75
514.21	525.75
514.426	569.75
514.642	585.75
514.858	611.75
515.074	607.75
515.29	663.75
515.506	808.75
515.721	723.75
515.937	617.75
516.153	565.75
516.369	591.75
516.585	582.75
516.801	588.75
517.016	567.75
517.232	576.75
517.448	615.75
517.664	607.75
517.879	615.75
518.095	598.75
518.311	603.75
518.527	581.75
518.742	581.75
518.958	568.75
519.173	570.75
519.389	569.75
519.605	555.75
519.82	547.75
520.036	563.75
520.251	552.75
520.467	575.75
520.682	579.75
520.898	572.75
521.113	568.75
521.329	590.75
521.544	629.75
521.76	736.75
521.975	984.75
522.19	979.75
522.406	649.75
522.621	583.75
522.836	518.75
523.052	518.75
523.267	504.75
523.482	508.75
523.698	486.75
523.913	503.75
524.128	491.75
524.343	471.75
524.559	474.75
524.774	469.75
524.989	488.75
525.204	505.75
525.419	485.75
525.634	464.75
525.849	478.75
526.064	475.75
526.28	475.75
526.495	479.75
526.71	446.75
526.925	479.75
527.14	478.75
527.355	454.75
527.57	464.75
527.785	478.75
527.999	479.75
528.214	477.75
528.429	451.75
528.644	462.75
528.859	475.75
529.074	468.75
529.289	492.75
529.503	534.75
529.718	487.75
529.933	487.75
530.148	490.75
530.363	471.75
530.577	453.75
530.792	465.75
531.007	459.75
531.221	450.75
531.436	455.75
531.651	452.75
531.865	439.75
532.08	447.75
532.295	438.75
532.509	452.75
532.724	439.75
532.938	464.75
533.153	449.75
533.367	469.75
533.582	468.75
533.796	439.75
534.011	425.75
534.225	445.75
534.44	447.75
534.654	435.75
534.868	439.75
535.083	455.75
535.297	458.75
535.511	440.75
535.726	466.75
535.94	439.75
536.154	459.75
536.369	411.75
536.583	455.75
536.797	441.75
537.011	424.75
537.225	432.75
537.44	427.75
537.654	454.75
537.868	437.75
538.082	451.75
538.296	428.75
538.51	423.75
538.724	442.75
538.938	431.75
539.153	436.75
539.367	440.75
539.581	446.75
539.795	421.75
540.009	409.75
540.222	429.75
540.436	427.75
540.65	432.75
540.864	423.75
541.078	465.75
541.292	466.75
541.506	446.75
541.72	431.75
541.934	443.75
542.147	420.75
542.361	419.75
542.575	435.75
542.789	423.75
543.002	426.75
543.216	448.75
543.43	417.75
543.644	432.75
543.857	435.75
544.071	427.75
544.285	428.75
544.498	402.75
544.712	409.75
544.925	435.75
545.139	439.75
545.352	430.75
545.566	444.75
545.779	430.75
545.993	439.75
546.206	447.75
546.42	444.75
546.633	447.75
546.847	426.75
547.06	429.75
547.274	415.75
547.487	415.75
547.7	432.75
547.914	429.75
548.127	420.75
548.34	428.75
548.554	416.75
548.767	420.75
548.98	428.75
549.193	432.75
549.407	439.75
549.62	430.75
549.833	409.75
550.046	423.75
550.259	430.75
550.473	421.75
550.686	427.75
550.899	413.75
551.112	405.75
551.325	425.75
551.538	414.75
551.751	410.75
551.964	412.75
552.177	421.75
552.39	425.75
552.603	440.75
552.816	438.75
553.029	425.75
553.242	441.75
553.455	442.75
553.667	439.75
553.88	445.75
554.093	415.75
554.306	443.75
554.519	433.75
554.732	423.75
554.944	420.75
555.157	413.75
555.37	425.75
555.583	394.75
555.795	415.75
556.008	395.75
556.221	396.75
556.433	405.75
556.646	389.75
556.859	384.75
557.071	407.75
557.284	402.75
557.496	395.75
557.709	375.75
557.921	389.75
558.134	375.75
558.346	393.75
558.559	380.75
558.771	369.75
558.984	379.75
559.196	383.75
559.409	364.75
559.621	367.75
559.833	390.75
560.046	381.75
560.258	381.75
560.47	369.75
560.683	369.75
560.895	371.75
561.107	361.75
561.32	391.75
561.532	363.75
561.744	379.75
561.956	397.75
562.168	369.75
562.381	383.75
562.593	371.75
562.805	390.75
563.017	387.75
563.229	392.75
563.441	382.75
563.653	379.75
563.865	387.75
564.077	389.75
564.289	408.75
564.501	408.75
564.713	399.75
564.925	398.75
565.137	395.75
565.349	422.75
565.561	436.75
565.773	408.75
565.985	427.75
566.197	447.75
566.408	465.75
566.62	476.75
566.832	490.75
567.044	487.75
567.255	492.75
567.467	503.75
567.679	501.75
567.891	549.75
568.102	510.75
568.314	535.75
568.526	503.75
568.737	474.75
568.949	424.75
569.161	438.75
569.372	409.75
569.584	408.75
569.795	400.75
570.007	392.75
570.218	413.75
570.43	407.75
570.641	409.75
570.853	401.75
571.064	376.75
571.276	373.75
571.487	369.75
571.698	357.75
571.91	359.75
572.121	368.75
572.333	361.75
572.544	357.75
572.755	358.75
572.966	357.75
573.178	347.75
573.389	335.75
573.6	334.75
573.811	334.75
574.023	345.75
574.234	326.75
574.445	329.75
574.656	344.75
574.867	329.75
575.078	340.75
575.289	351.75
575.501	332.75
575.712	315.75
575.923	323.75
576.134	326.75
576.345	321.75
576.556	302.75
576.767	330.75
576.978	319.75
577.188	334.75
577.399	326.75
577.61	318.75
577.821	309.75
578.032	315.75
578.243	324.75
578.454	429.75
578.665	368.75
578.875	311.75
579.086	308.75
579.297	309.75
579.508	318.75
579.718	305.75
579.929	316.75
580.14	287.75
580.35	308.75
580.561	319.75
580.772	311.75
580.982	290.75
581.193	299.75
581.403	327.75
581.614	299.75
581.825	291.75
582.035	286.75
582.246	297.75
582.456	298.75
582.667	293.75
582.877	290.75
583.087	299.75
583.298	286.75
583.508	295.75
583.719	284.75
583.929	290.75
584.139	309.75
584.35	275.75
584.56	282.75
584.77	277.75
584.981	287.75
585.191	292.75
585.401	295.75
585.611	316.75
585.821	284.75
586.032	305.75
586.242	293.75
586.452	292.75
586.662	297.75
586.872	291.75
587.082	282.75
587.292	286.75
587.502	290.75
587.713	296.75
587.923	284.75
588.133	253.75
588.343	291.75
588.553	293.75
588.762	276.75
588.972	280.75
589.182	305.75
589.392	296.75
589.602	302.75
589.812	304.75
590.022	300.75
590.232	276.75
590.441	301.75
590.651	286.75
590.861	302.75
591.071	296.75
591.281	291.75
591.49	293.75
591.7	311.75
591.91	304.75
592.119	304.75
592.329	312.75
592.539	307.75
592.748	310.75
592.958	321.75
593.167	308.75
593.377	335.75
593.587	321.75
593.796	310.75
594.006	328.75
594.215	323.75
594.424	320.75
594.634	312.75
594.843	314.75
595.053	313.75
595.262	293.75
595.472	295.75
595.681	280.75
595.89	287.75
596.1	285.75
596.309	285.75
596.518	297.75
596.727	294.75
596.937	283.75
597.146	268.75
597.355	264.75
597.564	260.75
597.774	277.75
597.983	255.75
598.192	270.75
598.401	253.75
598.61	271.75
598.819	266.75
599.028	264.75
599.237	256.75
599.446	239.75
599.655	250.75
599.864	249.75
600.073	241.75
600.282	254.75
600.491	266.75
600.7	257.75
600.909	266.75
601.118	250.75
601.327	256.75
601.536	269.75
601.745	258.75
601.953	258.75
602.162	240.75
602.371	260.75
602.58	251.75
602.789	248.75
602.997	247.75
603.206	275.75
603.415	255.75
603.623	250.75
603.832	251.75
604.041	241.75
604.249	259.75
604.458	261.75
604.666	244.75
604.875	244.75
605.084	239.75
605.292	243.75
605.501	256.75
605.709	244.75
605.918	234.75
606.126	237.75
606.334	218.75
606.543	240.75
606.751	240.75
606.96	246.75
607.168	248.75
607.376	223.75
607.585	241.75
607.793	263.75
608.001	237.75
608.21	241.75
608.418	231.75
608.626	239.75
608.834	232.75
609.043	237.75
609.251	263.75
609.459	238.75
609.667	252.75
609.875	241.75
610.083	240.75
610.291	233.75
610.499	240.75
610.707	235.75
610.916	247.75
611.124	233.75
611.332	243.75
611.54	239.75
611.748	249.75
611.955	250.75
612.163	253.75
612.371	235.75
612.579	249.75
612.787	245.75
612.995	258.75
613.203	253.75
613.411	240.75
613.618	233.75
613.826	246.75
614.034	236.75
614.242	236.75
614.449	230.75
614.657	233.75
614.865	236.75
615.072	217.75
615.28	229.75
615.488	236.75
615.695	225.75
615.903	212.75
616.111	245.75
616.318	248.75
616.526	247.75
616.733	226.75
616.941	227.75
617.148	244.75
617.356	232.75
617.563	256.75
617.771	225.75
617.978	231.75
618.185	229.75
618.393	239.75
618.6	221.75
618.807	244.75
619.015	219.75
619.222	224.75
619.429	224.75
619.637	230.75
619.844	230.75
620.051	201.75
620.258	229.75
620.466	211.75
620.673	223.75
620.88	229.75
621.087	213.75
621.294	220.75
621.501	221.75
621.708	239.75
621.915	229.75
622.122	229.75
622.329	225.75
622.536	239.75
622.743	234.75
622.95	217.75
623.157	219.75
623.364	231.75
623.571	225.75
623.778	209.75
623.985	225.75
624.192	210.75
624.399	222.75
624.606	225.75
624.812	209.75
625.019	207.75
625.226	196.75
625.433	203.75
625.639	196.75
625.846	201.75
626.053	215.75
626.259	213.75
626.466	208.75
626.673	207.75
626.879	191.75
627.086	209.75
627.293	191.75
627.499	217.75
627.706	213.75
627.912	220.75
628.119	203.75
628.325	207.75
628.532	205.75
628.738	196.75
628.945	188.75
629.151	208.75
629.357	195.75
629.564	189.75
629.77	169.75
629.976	205.75
630.183	211.75
630.389	189.75
630.595	207.75
630.802	198.75
631.008	188.75
631.214	199.75
631.42	181.75
631.627	192.75
631.833	194.75
632.039	197.75
632.245	189.75
632.451	191.75
632.657	193.75
632.863	195.75
633.069	176.75
633.275	194.75
633.481	171.75
633.688	181.75
633.893	195.75
634.099	198.75
634.305	170.75
634.511	199.75
634.717	164.75
634.923	173.75
635.129	187.75
635.335	170.75
635.541	181.75
635.747	184.75
635.952	181.75
636.158	174.75
636.364	187.75
636.57	203.75
636.775	188.75
636.981	195.75
637.187	181.75
637.392	174.75
637.598	189.75
637.804	171.75
638.009	176.75
638.215	175.75
638.421	175.75
638.626	179.75
638.832	172.75
639.037	184.75
639.243	170.75
639.448	167.75
639.654	176.75
639.859	171.75
640.065	181.75
640.27	177.75
640.475	175.75
640.681	170.75
640.886	187.75
641.091	173.75
641.297	189.75
641.502	170.75
641.707	171.75
641.913	174.75
642.118	195.75
642.323	181.75
642.528	168.75
642.733	169.75
642.939	149.75
643.144	170.75
643.349	174.75
643.554	168.75
643.759	179.75
643.964	172.75
644.169	183.75
644.374	182.75
644.579	183.75
644.784	186.75
644.989	152.75
645.194	161.75
645.399	168.75
645.604	152.75
645.809	159.75
646.014	168.75
646.219	172.75
646.423	173.75
646.628	177.75
646.833	185.75
647.038	172.75
647.243	180.75
647.447	171.75
647.652	155.75
647.857	160.75
648.062	175.75
648.266	165.75
648.471	176.75
648.676	158.75
648.88	157.75
649.085	174.75
649.289	166.75
649.494	181.75
649.698	167.75
649.903	159.75
650.107	155.75
650.312	167.75
650.516	162.75
650.721	157.75
650.925	149.75
651.13	143.75
651.334	159.75
651.539	155.75
651.743	160.75
651.947	159.75
652.152	151.75
652.356	134.75
652.56	134.75
652.764	145.75
652.969	151.75
653.173	151.75
653.377	146.75
653.581	143.75
653.785	152.75
653.99	151.75
654.194	142.75
654.398	139.75
654.602	136.75
654.806	140.75
655.01	142.75
655.214	143.75
655.418	133.75
655.622	130.75
655.826	129.75
656.03	147.75
656.234	149.75
656.438	153.75
656.642	152.75
656.846	139.75
657.049	146.75
657.253	145.75
657.457	134.75
657.661	128.75
657.865	137.75
658.068	135.75
658.272	107.75
658.476	122.75
658.68	105.75
658.883	113.75
659.087	113.75
659.291	97.75
659.494	111.75
659.698	104.75
659.901	101.75
660.105	88.75
660.309	104.75
660.512	84.75
660.716	122.75
660.919	101.75
661.123	108.75
661.326	96.75
661.53	99.75
661.733	85.75
661.936	96.75
662.14	77.75
662.343	93.75
662.546	85.75
662.75	87.75
662.953	108.75
663.156	75.75
663.36	87.75
663.563	90.75
663.766	84.75
663.969	78.75
664.173	87.75
664.376	83.75
664.579	100.75
664.782	87.75
664.985	88.75
665.188	84.75
665.391	99.75
665.594	79.75
665.797	71.75
666	86.75
666.203	87.75
666.406	86.75
666.609	87.75
666.812	69.75
667.015	81.75
667.218	91.75
667.421	82.75
667.624	79.75
667.827	100.75
668.03	78.75
668.232	78.75
668.435	95.75
668.638	84.75
668.841	91.75
669.043	81.75
669.246	78.75
669.449	88.75
669.651	76.75
669.854	91.75
670.057	96.75
670.259	81.75
670.462	91.75
670.665	91.75
670.867	80.75
671.07	84.75
671.272	78.75
671.475	88.75
671.677	85.75
671.88	90.75
672.082	93.75
672.284	95.75
672.487	89.75
672.689	80.75
672.892	79.75
