Data from 1976.PennyLincolnUp.Lamp.En5.5.200Scan.071719.P1.Changed Mount._HRD10591_16-01-38-861.txt Node
Date: Thu Jul 18 16:01:38 EDT 2019
User: cochatt
Spectrometer: HR+D1059
Trigger mode: 1
Integration Time (sec): 1.000000E-1
Scans to average: 1
Electric dark correction enabled: true
Nonlinearity correction enabled: false
Boxcar width: 0
XAxis mode: Wavelengths
Number of Pixels in Spectrum: 2048
>>>>>Begin Spectral Data<<<<<
223.165	-20.25
223.4	-20.25
223.635	-20.25
223.869	-13.25
224.104	-22.25
224.338	-17.25
224.573	-13.25
224.808	0.75
225.042	-12.25
225.277	-0.25
225.511	-10.25
225.746	8.75
225.98	14.75
226.215	4.75
226.449	16.75
226.683	19.75
226.918	19.75
227.152	23.75
227.387	32.75
227.621	42.75
227.856	36.75
228.09	51.75
228.324	46.75
228.559	58.75
228.793	70.75
229.027	94.75
229.262	99.75
229.496	108.75
229.73	127.75
229.964	143.75
230.199	125.75
230.433	103.75
230.667	110.75
230.901	109.75
231.136	103.75
231.37	105.75
231.604	107.75
231.838	114.75
232.072	117.75
232.306	116.75
232.541	112.75
232.775	112.75
233.009	109.75
233.243	120.75
233.477	110.75
233.711	116.75
233.945	136.75
234.179	110.75
234.413	112.75
234.647	131.75
234.881	120.75
235.115	122.75
235.349	128.75
235.583	124.75
235.817	122.75
236.051	118.75
236.285	127.75
236.519	112.75
236.753	123.75
236.987	170.75
237.221	183.75
237.455	232.75
237.689	183.75
237.922	154.75
238.156	123.75
238.39	132.75
238.624	146.75
238.858	123.75
239.091	122.75
239.325	121.75
239.559	128.75
239.793	112.75
240.027	149.75
240.26	152.75
240.494	159.75
240.728	154.75
240.961	164.75
241.195	158.75
241.429	150.75
241.662	135.75
241.896	137.75
242.13	121.75
242.363	144.75
242.597	136.75
242.83	143.75
243.064	140.75
243.298	132.75
243.531	137.75
243.765	165.75
243.998	135.75
244.232	151.75
244.465	143.75
244.699	143.75
244.932	124.75
245.166	149.75
245.399	155.75
245.633	149.75
245.866	152.75
246.099	164.75
246.333	141.75
246.566	160.75
246.8	147.75
247.033	150.75
247.266	167.75
247.5	160.75
247.733	166.75
247.966	161.75
248.2	171.75
248.433	198.75
248.666	190.75
248.899	168.75
249.133	211.75
249.366	211.75
249.599	204.75
249.832	196.75
250.066	195.75
250.299	166.75
250.532	187.75
250.765	202.75
250.998	226.75
251.231	236.75
251.465	213.75
251.698	225.75
251.931	203.75
252.164	199.75
252.397	207.75
252.63	204.75
252.863	203.75
253.096	235.75
253.329	242.75
253.562	232.75
253.795	219.75
254.028	212.75
254.261	210.75
254.494	217.75
254.727	251.75
254.96	285.75
255.193	277.75
255.426	262.75
255.659	244.75
255.892	230.75
256.124	220.75
256.357	232.75
256.59	224.75
256.823	229.75
257.056	208.75
257.289	224.75
257.521	208.75
257.754	209.75
257.987	208.75
258.22	214.75
258.452	211.75
258.685	218.75
258.918	209.75
259.151	220.75
259.383	197.75
259.616	231.75
259.849	229.75
260.081	249.75
260.314	256.75
260.547	276.75
260.779	228.75
261.012	246.75
261.244	240.75
261.477	220.75
261.71	233.75
261.942	236.75
262.175	229.75
262.407	235.75
262.64	209.75
262.872	211.75
263.105	210.75
263.337	223.75
263.57	228.75
263.802	229.75
264.035	226.75
264.267	223.75
264.499	224.75
264.732	225.75
264.964	232.75
265.197	231.75
265.429	226.75
265.661	235.75
265.894	231.75
266.126	229.75
266.358	249.75
266.591	240.75
266.823	232.75
267.055	230.75
267.287	238.75
267.52	242.75
267.752	247.75
267.984	221.75
268.216	231.75
268.448	246.75
268.681	258.75
268.913	262.75
269.145	280.75
269.377	287.75
269.609	284.75
269.841	283.75
270.073	289.75
270.306	297.75
270.538	339.75
270.77	331.75
271.002	314.75
271.234	324.75
271.466	332.75
271.698	318.75
271.93	314.75
272.162	336.75
272.394	337.75
272.626	313.75
272.858	305.75
273.09	288.75
273.322	292.75
273.553	264.75
273.785	300.75
274.017	288.75
274.249	290.75
274.481	275.75
274.713	275.75
274.945	280.75
275.176	286.75
275.408	279.75
275.64	287.75
275.872	280.75
276.104	284.75
276.335	260.75
276.567	290.75
276.799	300.75
277.031	320.75
277.262	332.75
277.494	329.75
277.726	310.75
277.957	317.75
278.189	294.75
278.421	295.75
278.652	300.75
278.884	284.75
279.115	295.75
279.347	289.75
279.579	296.75
279.81	292.75
280.042	278.75
280.273	276.75
280.505	294.75
280.736	310.75
280.968	291.75
281.199	290.75
281.431	282.75
281.662	283.75
281.894	276.75
282.125	308.75
282.356	304.75
282.588	315.75
282.819	314.75
283.051	302.75
283.282	300.75
283.513	306.75
283.745	304.75
283.976	287.75
284.207	314.75
284.439	300.75
284.67	326.75
284.901	289.75
285.132	296.75
285.364	305.75
285.595	303.75
285.826	298.75
286.057	312.75
286.288	306.75
286.52	289.75
286.751	294.75
286.982	306.75
287.213	315.75
287.444	310.75
287.675	309.75
287.906	327.75
288.138	316.75
288.369	314.75
288.6	316.75
288.831	328.75
289.062	345.75
289.293	323.75
289.524	316.75
289.755	328.75
289.986	302.75
290.217	311.75
290.448	314.75
290.679	326.75
290.91	308.75
291.141	300.75
291.371	313.75
291.602	314.75
291.833	287.75
292.064	318.75
292.295	313.75
292.526	327.75
292.757	313.75
292.987	323.75
293.218	323.75
293.449	327.75
293.68	326.75
293.91	308.75
294.141	306.75
294.372	312.75
294.603	325.75
294.833	319.75
295.064	327.75
295.295	328.75
295.525	322.75
295.756	338.75
295.987	323.75
296.217	342.75
296.448	348.75
296.679	343.75
296.909	328.75
297.14	331.75
297.37	322.75
297.601	334.75
297.831	323.75
298.062	337.75
298.292	340.75
298.523	335.75
298.753	340.75
298.984	319.75
299.214	318.75
299.445	337.75
299.675	342.75
299.905	353.75
300.136	337.75
300.366	354.75
300.597	338.75
300.827	363.75
301.057	355.75
301.288	350.75
301.518	357.75
301.748	351.75
301.979	351.75
302.209	364.75
302.439	341.75
302.669	359.75
302.9	345.75
303.13	371.75
303.36	355.75
303.59	342.75
303.82	367.75
304.051	355.75
304.281	329.75
304.511	366.75
304.741	356.75
304.971	359.75
305.201	352.75
305.431	358.75
305.661	360.75
305.891	352.75
306.121	356.75
306.352	378.75
306.582	347.75
306.812	371.75
307.042	358.75
307.272	360.75
307.502	361.75
307.731	353.75
307.961	350.75
308.191	353.75
308.421	333.75
308.651	357.75
308.881	348.75
309.111	358.75
309.341	370.75
309.571	366.75
309.8	388.75
310.03	400.75
310.26	387.75
310.49	381.75
310.72	400.75
310.949	419.75
311.179	416.75
311.409	407.75
311.639	382.75
311.868	382.75
312.098	387.75
312.328	404.75
312.557	428.75
312.787	400.75
313.017	422.75
313.246	387.75
313.476	395.75
313.706	390.75
313.935	402.75
314.165	408.75
314.394	414.75
314.624	423.75
314.853	425.75
315.083	410.75
315.312	388.75
315.542	400.75
315.771	376.75
316.001	399.75
316.23	386.75
316.46	402.75
316.689	395.75
316.919	407.75
317.148	415.75
317.377	423.75
317.607	410.75
317.836	390.75
318.065	408.75
318.295	405.75
318.524	408.75
318.753	403.75
318.983	392.75
319.212	404.75
319.441	402.75
319.67	389.75
319.9	398.75
320.129	397.75
320.358	409.75
320.587	395.75
320.816	395.75
321.046	427.75
321.275	423.75
321.504	434.75
321.733	428.75
321.962	428.75
322.191	437.75
322.42	438.75
322.649	447.75
322.878	457.75
323.108	468.75
323.337	467.75
323.566	471.75
323.795	522.75
324.024	560.75
324.253	637.75
324.482	879.75
324.71	1379.75
324.939	2027.75
325.168	1768.75
325.397	908.75
325.626	638.75
325.855	531.75
326.084	511.75
326.313	506.75
326.542	501.75
326.77	556.75
326.999	629.75
327.228	850.75
327.457	1243.75
327.686	1523.75
327.914	1026.75
328.143	675.75
328.372	616.75
328.6	556.75
328.829	575.75
329.058	544.75
329.287	577.75
329.515	545.75
329.744	519.75
329.972	509.75
330.201	521.75
330.43	542.75
330.658	592.75
330.887	593.75
331.115	560.75
331.344	524.75
331.572	506.75
331.801	519.75
332.03	474.75
332.258	506.75
332.486	475.75
332.715	483.75
332.943	465.75
333.172	491.75
333.4	478.75
333.629	526.75
333.857	519.75
334.085	533.75
334.314	531.75
334.542	542.75
334.771	581.75
334.999	519.75
335.227	500.75
335.455	506.75
335.684	488.75
335.912	504.75
336.14	482.75
336.369	483.75
336.597	475.75
336.825	473.75
337.053	468.75
337.281	459.75
337.51	488.75
337.738	478.75
337.966	454.75
338.194	455.75
338.422	460.75
338.65	455.75
338.878	453.75
339.106	453.75
339.334	439.75
339.562	459.75
339.79	439.75
340.018	453.75
340.246	453.75
340.474	464.75
340.702	443.75
340.93	433.75
341.158	430.75
341.386	448.75
341.614	459.75
341.842	449.75
342.07	468.75
342.298	458.75
342.526	446.75
342.754	437.75
342.981	436.75
343.209	434.75
343.437	454.75
343.665	456.75
343.893	478.75
344.12	480.75
344.348	480.75
344.576	473.75
344.804	455.75
345.031	474.75
345.259	484.75
345.487	453.75
345.714	456.75
345.942	446.75
346.17	461.75
346.397	454.75
346.625	430.75
346.853	445.75
347.08	438.75
347.308	421.75
347.535	447.75
347.763	455.75
347.99	457.75
348.218	447.75
348.445	449.75
348.673	463.75
348.9	436.75
349.128	415.75
349.355	422.75
349.583	432.75
349.81	446.75
350.037	448.75
350.265	433.75
350.492	446.75
350.72	428.75
350.947	433.75
351.174	440.75
351.402	472.75
351.629	471.75
351.856	463.75
352.083	455.75
352.311	445.75
352.538	465.75
352.765	478.75
352.992	443.75
353.22	434.75
353.447	437.75
353.674	434.75
353.901	400.75
354.128	421.75
354.355	407.75
354.583	417.75
354.81	442.75
355.037	436.75
355.264	411.75
355.491	414.75
355.718	395.75
355.945	440.75
356.172	415.75
356.399	422.75
356.626	414.75
356.853	414.75
357.08	397.75
357.307	408.75
357.534	426.75
357.761	397.75
357.988	431.75
358.215	419.75
358.441	418.75
358.668	420.75
358.895	410.75
359.122	418.75
359.349	431.75
359.576	439.75
359.802	431.75
360.029	477.75
360.256	497.75
360.483	480.75
360.709	460.75
360.936	445.75
361.163	438.75
361.39	432.75
361.616	450.75
361.843	430.75
362.07	431.75
362.296	430.75
362.523	431.75
362.749	415.75
362.976	426.75
363.203	427.75
363.429	427.75
363.656	428.75
363.882	441.75
364.109	412.75
364.335	441.75
364.562	427.75
364.788	391.75
365.015	416.75
365.241	422.75
365.468	423.75
365.694	437.75
365.92	427.75
366.147	437.75
366.373	414.75
366.599	414.75
366.826	396.75
367.052	415.75
367.278	428.75
367.505	417.75
367.731	432.75
367.957	415.75
368.184	396.75
368.41	415.75
368.636	442.75
368.862	455.75
369.089	434.75
369.315	437.75
369.541	409.75
369.767	436.75
369.993	412.75
370.219	440.75
370.445	435.75
370.672	410.75
370.898	428.75
371.124	414.75
371.35	426.75
371.576	432.75
371.802	426.75
372.028	430.75
372.254	416.75
372.48	414.75
372.706	441.75
372.932	440.75
373.158	422.75
373.384	420.75
373.61	431.75
373.835	414.75
374.061	431.75
374.287	444.75
374.513	446.75
374.739	442.75
374.965	438.75
375.191	418.75
375.416	438.75
375.642	426.75
375.868	436.75
376.094	443.75
376.319	425.75
376.545	412.75
376.771	424.75
376.997	439.75
377.222	440.75
377.448	423.75
377.674	428.75
377.899	424.75
378.125	434.75
378.35	409.75
378.576	396.75
378.802	404.75
379.027	415.75
379.253	432.75
379.478	414.75
379.704	420.75
379.929	422.75
380.155	421.75
380.38	419.75
380.606	435.75
380.831	438.75
381.057	426.75
381.282	416.75
381.507	433.75
381.733	425.75
381.958	423.75
382.184	426.75
382.409	435.75
382.634	440.75
382.86	444.75
383.085	450.75
383.31	455.75
383.535	448.75
383.761	462.75
383.986	466.75
384.211	459.75
384.436	451.75
384.662	452.75
384.887	443.75
385.112	465.75
385.337	475.75
385.562	470.75
385.787	487.75
386.013	481.75
386.238	468.75
386.463	489.75
386.688	466.75
386.913	455.75
387.138	476.75
387.363	475.75
387.588	459.75
387.813	468.75
388.038	484.75
388.263	499.75
388.488	453.75
388.713	463.75
388.938	470.75
389.163	494.75
389.387	494.75
389.612	486.75
389.837	473.75
390.062	437.75
390.287	466.75
390.512	458.75
390.736	453.75
390.961	489.75
391.186	482.75
391.411	494.75
391.636	474.75
391.86	498.75
392.085	502.75
392.31	491.75
392.534	491.75
392.759	491.75
392.984	494.75
393.208	494.75
393.433	479.75
393.658	486.75
393.882	496.75
394.107	486.75
394.331	487.75
394.556	456.75
394.78	490.75
395.005	487.75
395.229	496.75
395.454	497.75
395.678	517.75
395.903	518.75
396.127	529.75
396.352	528.75
396.576	519.75
396.801	518.75
397.025	503.75
397.249	498.75
397.474	500.75
397.698	511.75
397.922	505.75
398.147	542.75
398.371	539.75
398.595	538.75
398.82	554.75
399.044	537.75
399.268	581.75
399.492	622.75
399.717	644.75
399.941	672.75
400.165	724.75
400.389	703.75
400.613	643.75
400.837	596.75
401.062	555.75
401.286	563.75
401.51	569.75
401.734	546.75
401.958	554.75
402.182	568.75
402.406	542.75
402.63	570.75
402.854	570.75
403.078	569.75
403.302	574.75
403.526	578.75
403.75	583.75
403.974	582.75
404.198	588.75
404.422	587.75
404.645	596.75
404.869	589.75
405.093	629.75
405.317	674.75
405.541	689.75
405.765	644.75
405.988	598.75
406.212	581.75
406.436	642.75
406.66	623.75
406.883	603.75
407.107	651.75
407.331	689.75
407.555	769.75
407.778	769.75
408.002	671.75
408.226	656.75
408.449	626.75
408.673	640.75
408.896	670.75
409.12	703.75
409.344	651.75
409.567	591.75
409.791	588.75
410.014	601.75
410.238	587.75
410.461	550.75
410.685	571.75
410.908	592.75
411.132	619.75
411.355	662.75
411.578	616.75
411.802	590.75
412.025	580.75
412.249	560.75
412.472	606.75
412.695	659.75
412.919	629.75
413.142	580.75
413.365	579.75
413.589	571.75
413.812	556.75
414.035	542.75
414.258	529.75
414.482	535.75
414.705	563.75
414.928	552.75
415.151	544.75
415.374	539.75
415.597	552.75
415.821	523.75
416.044	541.75
416.267	561.75
416.49	538.75
416.713	522.75
416.936	528.75
417.159	544.75
417.382	549.75
417.605	570.75
417.828	551.75
418.051	587.75
418.274	566.75
418.497	544.75
418.72	540.75
418.943	527.75
419.166	532.75
419.389	582.75
419.611	571.75
419.834	592.75
420.057	598.75
420.28	574.75
420.503	581.75
420.726	566.75
420.948	582.75
421.171	616.75
421.394	659.75
421.617	591.75
421.839	572.75
422.062	561.75
422.285	557.75
422.507	635.75
422.73	718.75
422.953	680.75
423.175	601.75
423.398	607.75
423.621	580.75
423.843	608.75
424.066	612.75
424.288	604.75
424.511	602.75
424.733	676.75
424.956	766.75
425.178	702.75
425.401	710.75
425.623	736.75
425.846	633.75
426.068	596.75
426.291	582.75
426.513	583.75
426.735	588.75
426.958	649.75
427.18	724.75
427.402	868.75
427.625	944.75
427.847	806.75
428.069	710.75
428.292	635.75
428.514	567.75
428.736	571.75
428.958	550.75
429.181	558.75
429.403	563.75
429.625	567.75
429.847	587.75
430.069	655.75
430.292	651.75
430.514	581.75
430.736	542.75
430.958	535.75
431.18	543.75
431.402	525.75
431.624	540.75
431.846	515.75
432.068	528.75
432.29	524.75
432.512	548.75
432.734	551.75
432.956	544.75
433.178	517.75
433.4	539.75
433.622	532.75
433.844	533.75
434.066	535.75
434.287	515.75
434.509	502.75
434.731	543.75
434.953	550.75
435.175	587.75
435.397	584.75
435.618	594.75
435.84	611.75
436.062	720.75
436.284	792.75
436.505	673.75
436.727	589.75
436.949	570.75
437.17	534.75
437.392	546.75
437.614	554.75
437.835	590.75
438.057	681.75
438.278	792.75
438.5	774.75
438.721	846.75
438.943	809.75
439.165	650.75
439.386	602.75
439.608	603.75
439.829	614.75
440.05	610.75
440.272	664.75
440.493	612.75
440.715	583.75
440.936	564.75
441.158	566.75
441.379	552.75
441.6	585.75
441.822	619.75
442.043	641.75
442.264	735.75
442.486	746.75
442.707	632.75
442.928	602.75
443.149	609.75
443.371	639.75
443.592	656.75
443.813	779.75
444.034	844.75
444.255	698.75
444.476	639.75
444.698	619.75
444.919	629.75
445.14	717.75
445.361	667.75
445.582	656.75
445.803	704.75
446.024	812.75
446.245	820.75
446.466	723.75
446.687	629.75
446.908	585.75
447.129	564.75
447.35	563.75
447.571	549.75
447.792	533.75
448.013	522.75
448.234	550.75
448.455	593.75
448.675	726.75
448.896	855.75
449.117	698.75
449.338	639.75
449.559	790.75
449.779	919.75
450	720.75
450.221	588.75
450.442	543.75
450.662	528.75
450.883	519.75
451.104	549.75
451.324	518.75
451.545	518.75
451.766	486.75
451.986	476.75
452.207	479.75
452.428	487.75
452.648	486.75
452.869	490.75
453.089	519.75
453.31	506.75
453.53	478.75
453.751	488.75
453.971	491.75
454.192	503.75
454.412	474.75
454.633	491.75
454.853	467.75
455.073	471.75
455.294	509.75
455.514	570.75
455.734	536.75
455.955	483.75
456.175	458.75
456.395	469.75
456.616	442.75
456.836	450.75
457.056	452.75
457.276	447.75
457.497	443.75
457.717	447.75
457.937	469.75
458.157	487.75
458.377	480.75
458.598	486.75
458.818	546.75
459.038	631.75
459.258	659.75
459.478	576.75
459.698	516.75
459.918	524.75
460.138	508.75
460.358	526.75
460.578	531.75
460.798	551.75
461.018	554.75
461.238	530.75
461.458	544.75
461.678	528.75
461.898	537.75
462.118	547.75
462.338	555.75
462.558	592.75
462.777	566.75
462.997	593.75
463.217	611.75
463.437	630.75
463.657	600.75
463.876	587.75
464.096	593.75
464.316	606.75
464.536	580.75
464.755	584.75
464.975	596.75
465.195	589.75
465.414	663.75
465.634	591.75
465.854	539.75
466.073	516.75
466.293	534.75
466.512	506.75
466.732	505.75
466.951	509.75
467.171	483.75
467.391	490.75
467.61	504.75
467.829	522.75
468.049	506.75
468.268	505.75
468.488	497.75
468.707	497.75
468.927	500.75
469.146	480.75
469.365	491.75
469.585	498.75
469.804	490.75
470.023	520.75
470.243	500.75
470.462	497.75
470.681	520.75
470.901	505.75
471.12	514.75
471.339	516.75
471.558	516.75
471.777	504.75
471.997	487.75
472.216	503.75
472.435	548.75
472.654	530.75
472.873	500.75
473.092	473.75
473.311	496.75
473.53	520.75
473.749	512.75
473.968	548.75
474.187	639.75
474.406	665.75
474.625	555.75
474.844	508.75
475.063	512.75
475.282	496.75
475.501	498.75
475.72	504.75
475.939	494.75
476.158	511.75
476.377	516.75
476.596	506.75
476.814	518.75
477.033	547.75
477.252	534.75
477.471	540.75
477.69	546.75
477.908	573.75
478.127	555.75
478.346	556.75
478.564	551.75
478.783	589.75
479.002	591.75
479.22	582.75
479.439	588.75
479.658	602.75
479.876	597.75
480.095	629.75
480.313	650.75
480.532	642.75
480.751	630.75
480.969	636.75
481.188	670.75
481.406	687.75
481.624	646.75
481.843	596.75
482.061	590.75
482.28	594.75
482.498	573.75
482.717	571.75
482.935	592.75
483.153	571.75
483.372	598.75
483.59	609.75
483.808	585.75
484.027	593.75
484.245	586.75
484.463	585.75
484.681	602.75
484.9	582.75
485.118	594.75
485.336	600.75
485.554	612.75
485.772	610.75
485.99	622.75
486.209	615.75
486.427	618.75
486.645	624.75
486.863	644.75
487.081	641.75
487.299	636.75
487.517	618.75
487.735	600.75
487.953	629.75
488.171	640.75
488.389	624.75
488.607	647.75
488.825	623.75
489.043	631.75
489.261	644.75
489.479	627.75
489.696	637.75
489.914	641.75
490.132	666.75
490.35	667.75
490.568	666.75
490.786	654.75
491.003	666.75
491.221	688.75
491.439	695.75
491.657	673.75
491.874	708.75
492.092	707.75
492.31	722.75
492.527	729.75
492.745	707.75
492.963	740.75
493.18	693.75
493.398	713.75
493.615	744.75
493.833	740.75
494.05	751.75
494.268	754.75
494.485	734.75
494.703	726.75
494.92	764.75
495.138	761.75
495.355	748.75
495.573	743.75
495.79	756.75
496.008	756.75
496.225	768.75
496.442	758.75
496.66	778.75
496.877	754.75
497.094	757.75
497.312	778.75
497.529	794.75
497.746	774.75
497.963	803.75
498.181	830.75
498.398	840.75
498.615	857.75
498.832	861.75
499.049	880.75
499.267	930.75
499.484	946.75
499.701	975.75
499.918	1019.75
500.135	1115.75
500.352	1146.75
500.569	1214.75
500.786	1211.75
501.003	1185.75
501.22	1118.75
501.437	1082.75
501.654	1057.75
501.871	1013.75
502.088	975.75
502.305	923.75
502.522	849.75
502.739	815.75
502.956	825.75
503.172	810.75
503.389	783.75
503.606	770.75
503.823	792.75
504.04	786.75
504.256	759.75
504.473	762.75
504.69	774.75
504.907	751.75
505.123	754.75
505.34	753.75
505.557	721.75
505.773	729.75
505.99	708.75
506.207	728.75
506.423	700.75
506.64	719.75
506.856	700.75
507.073	692.75
507.289	679.75
507.506	683.75
507.722	690.75
507.939	678.75
508.155	684.75
508.372	644.75
508.588	662.75
508.805	678.75
509.021	664.75
509.238	660.75
509.454	700.75
509.67	675.75
509.887	655.75
510.103	656.75
510.319	670.75
510.536	718.75
510.752	1067.75
510.968	896.75
511.184	670.75
511.401	609.75
511.617	617.75
511.833	644.75
512.049	623.75
512.265	607.75
512.481	618.75
512.698	624.75
512.914	626.75
513.13	611.75
513.346	615.75
513.562	593.75
513.778	608.75
513.994	634.75
514.21	625.75
514.426	644.75
514.642	680.75
514.858	670.75
515.074	707.75
515.29	819.75
515.506	1104.75
515.721	925.75
515.937	726.75
516.153	681.75
516.369	656.75
516.585	622.75
516.801	648.75
517.016	650.75
517.232	653.75
517.448	662.75
517.664	679.75
517.879	660.75
518.095	672.75
518.311	653.75
518.527	655.75
518.742	647.75
518.958	630.75
519.173	642.75
519.389	636.75
519.605	633.75
519.82	606.75
520.036	632.75
520.251	662.75
520.467	644.75
520.682	642.75
520.898	632.75
521.113	662.75
521.329	673.75
521.544	763.75
521.76	884.75
521.975	1364.75
522.19	1377.75
522.406	834.75
522.621	662.75
522.836	634.75
523.052	589.75
523.267	573.75
523.482	569.75
523.698	551.75
523.913	562.75
524.128	561.75
524.343	564.75
524.559	558.75
524.774	526.75
524.989	566.75
525.204	538.75
525.419	549.75
525.634	541.75
525.849	515.75
526.064	506.75
526.28	528.75
526.495	522.75
526.71	527.75
526.925	534.75
527.14	528.75
527.355	541.75
527.57	513.75
527.785	530.75
527.999	535.75
528.214	519.75
528.429	494.75
528.644	510.75
528.859	521.75
529.074	516.75
529.289	539.75
529.503	580.75
529.718	585.75
529.933	544.75
530.148	524.75
530.363	529.75
530.577	517.75
530.792	498.75
531.007	490.75
531.221	501.75
531.436	488.75
531.651	480.75
531.865	477.75
532.08	514.75
532.295	488.75
532.509	489.75
532.724	466.75
532.938	485.75
533.153	501.75
533.367	501.75
533.582	485.75
533.796	476.75
534.011	486.75
534.225	500.75
534.44	490.75
534.654	481.75
534.868	490.75
535.083	494.75
535.297	475.75
535.511	504.75
535.726	500.75
535.94	501.75
536.154	478.75
536.369	494.75
536.583	488.75
536.797	467.75
537.011	461.75
537.225	457.75
537.44	466.75
537.654	473.75
537.868	473.75
538.082	487.75
538.296	479.75
538.51	458.75
538.724	475.75
538.938	466.75
539.153	465.75
539.367	480.75
539.581	480.75
539.795	482.75
540.009	481.75
540.222	481.75
540.436	469.75
540.65	479.75
540.864	474.75
541.078	500.75
541.292	479.75
541.506	481.75
541.72	483.75
541.934	503.75
542.147	471.75
542.361	491.75
542.575	483.75
542.789	454.75
543.002	469.75
543.216	465.75
543.43	469.75
543.644	463.75
543.857	465.75
544.071	455.75
544.285	482.75
544.498	485.75
544.712	463.75
544.925	474.75
545.139	472.75
545.352	458.75
545.566	463.75
545.779	495.75
545.993	464.75
546.206	481.75
546.42	475.75
546.633	470.75
546.847	472.75
547.06	432.75
547.274	483.75
547.487	469.75
547.7	457.75
547.914	461.75
548.127	443.75
548.34	470.75
548.554	483.75
548.767	477.75
548.98	458.75
549.193	473.75
549.407	498.75
549.62	459.75
549.833	460.75
550.046	480.75
550.259	484.75
550.473	469.75
550.686	434.75
550.899	456.75
551.112	470.75
551.325	449.75
551.538	421.75
551.751	438.75
551.964	453.75
552.177	465.75
552.39	452.75
552.603	458.75
552.816	473.75
553.029	484.75
553.242	466.75
553.455	471.75
553.667	480.75
553.88	498.75
554.093	491.75
554.306	480.75
554.519	469.75
554.732	472.75
554.944	461.75
555.157	445.75
555.37	441.75
555.583	433.75
555.795	447.75
556.008	428.75
556.221	425.75
556.433	419.75
556.646	409.75
556.859	428.75
557.071	418.75
557.284	420.75
557.496	405.75
557.709	405.75
557.921	417.75
558.134	414.75
558.346	400.75
558.559	413.75
558.771	418.75
558.984	412.75
559.196	430.75
559.409	419.75
559.621	400.75
559.833	404.75
560.046	403.75
560.258	425.75
560.47	422.75
560.683	395.75
560.895	398.75
561.107	420.75
561.32	406.75
561.532	412.75
561.744	411.75
561.956	418.75
562.168	408.75
562.381	408.75
562.593	394.75
562.805	406.75
563.017	398.75
563.229	412.75
563.441	421.75
563.653	409.75
563.865	422.75
564.077	396.75
564.289	406.75
564.501	420.75
564.713	427.75
564.925	442.75
565.137	444.75
565.349	450.75
565.561	473.75
565.773	446.75
565.985	459.75
566.197	473.75
566.408	511.75
566.62	502.75
566.832	536.75
567.044	537.75
567.255	531.75
567.467	555.75
567.679	531.75
567.891	552.75
568.102	591.75
568.314	585.75
568.526	508.75
568.737	513.75
568.949	492.75
569.161	458.75
569.372	453.75
569.584	449.75
569.795	430.75
570.007	443.75
570.218	464.75
570.43	418.75
570.641	421.75
570.853	409.75
571.064	418.75
571.276	409.75
571.487	396.75
571.698	404.75
571.91	400.75
572.121	384.75
572.333	375.75
572.544	378.75
572.755	374.75
572.966	382.75
573.178	359.75
573.389	358.75
573.6	371.75
573.811	378.75
574.023	369.75
574.234	345.75
574.445	356.75
574.656	358.75
574.867	360.75
575.078	352.75
575.289	337.75
575.501	353.75
575.712	339.75
575.923	336.75
576.134	347.75
576.345	352.75
576.556	336.75
576.767	351.75
576.978	367.75
577.188	356.75
577.399	354.75
577.61	352.75
577.821	327.75
578.032	342.75
578.243	366.75
578.454	522.75
578.665	427.75
578.875	341.75
579.086	319.75
579.297	317.75
579.508	336.75
579.718	311.75
579.929	331.75
580.14	312.75
580.35	325.75
580.561	319.75
580.772	320.75
580.982	317.75
581.193	324.75
581.403	332.75
581.614	312.75
581.825	316.75
582.035	324.75
582.246	318.75
582.456	310.75
582.667	324.75
582.877	312.75
583.087	294.75
583.298	284.75
583.508	315.75
583.719	323.75
583.929	319.75
584.139	284.75
584.35	316.75
584.56	328.75
584.77	279.75
584.981	308.75
585.191	321.75
585.401	317.75
585.611	324.75
585.821	310.75
586.032	306.75
586.242	331.75
586.452	301.75
586.662	302.75
586.872	314.75
587.082	314.75
587.292	307.75
587.502	307.75
587.713	281.75
587.923	314.75
588.133	296.75
588.343	306.75
588.553	324.75
588.762	306.75
588.972	295.75
589.182	299.75
589.392	306.75
589.602	313.75
589.812	296.75
590.022	299.75
590.232	314.75
590.441	302.75
590.651	310.75
590.861	323.75
591.071	323.75
591.281	311.75
591.49	276.75
591.7	322.75
591.91	311.75
592.119	314.75
592.329	329.75
592.539	333.75
592.748	333.75
592.958	325.75
593.167	312.75
593.377	327.75
593.587	332.75
593.796	353.75
594.006	346.75
594.215	360.75
594.424	350.75
594.634	340.75
594.843	334.75
595.053	345.75
595.262	326.75
595.472	307.75
595.681	327.75
595.89	298.75
596.1	295.75
596.309	302.75
596.518	327.75
596.727	295.75
596.937	294.75
597.146	311.75
597.355	307.75
597.564	281.75
597.774	298.75
597.983	280.75
598.192	295.75
598.401	292.75
598.61	284.75
598.819	273.75
599.028	266.75
599.237	279.75
599.446	286.75
599.655	263.75
599.864	257.75
600.073	265.75
600.282	284.75
600.491	268.75
600.7	272.75
600.909	259.75
601.118	276.75
601.327	276.75
601.536	265.75
601.745	258.75
601.953	267.75
602.162	264.75
602.371	246.75
602.58	260.75
602.789	270.75
602.997	275.75
603.206	281.75
603.415	259.75
603.623	262.75
603.832	265.75
604.041	274.75
604.249	244.75
604.458	268.75
604.666	258.75
604.875	244.75
605.084	283.75
605.292	256.75
605.501	275.75
605.709	255.75
605.918	251.75
606.126	261.75
606.334	238.75
606.543	255.75
606.751	268.75
606.96	242.75
607.168	241.75
607.376	234.75
607.585	244.75
607.793	250.75
608.001	243.75
608.21	261.75
608.418	273.75
608.626	257.75
608.834	245.75
609.043	262.75
609.251	250.75
609.459	234.75
609.667	235.75
609.875	255.75
610.083	244.75
610.291	268.75
610.499	254.75
610.707	259.75
610.916	251.75
611.124	249.75
611.332	258.75
611.54	258.75
611.748	255.75
611.955	275.75
612.163	254.75
612.371	257.75
612.579	252.75
612.787	255.75
612.995	238.75
613.203	259.75
613.411	252.75
613.618	248.75
613.826	247.75
614.034	256.75
614.242	241.75
614.449	253.75
614.657	246.75
614.865	241.75
615.072	256.75
615.28	267.75
615.488	226.75
615.695	255.75
615.903	246.75
616.111	249.75
616.318	250.75
616.526	259.75
616.733	256.75
616.941	256.75
617.148	244.75
617.356	258.75
617.563	246.75
617.771	244.75
617.978	242.75
618.185	232.75
618.393	237.75
618.6	239.75
618.807	234.75
619.015	242.75
619.222	238.75
619.429	246.75
619.637	242.75
619.844	228.75
620.051	236.75
620.258	230.75
620.466	233.75
620.673	234.75
620.88	215.75
621.087	255.75
621.294	231.75
621.501	222.75
621.708	221.75
621.915	222.75
622.122	228.75
622.329	233.75
622.536	232.75
622.743	218.75
622.95	227.75
623.157	219.75
623.364	226.75
623.571	212.75
623.778	209.75
623.985	219.75
624.192	234.75
624.399	226.75
624.606	223.75
624.812	236.75
625.019	233.75
625.226	226.75
625.433	207.75
625.639	229.75
625.846	225.75
626.053	220.75
626.259	214.75
626.466	219.75
626.673	204.75
626.879	221.75
627.086	194.75
627.293	211.75
627.499	212.75
627.706	210.75
627.912	219.75
628.119	219.75
628.325	213.75
628.532	219.75
628.738	211.75
628.945	203.75
629.151	202.75
629.357	211.75
629.564	206.75
629.77	209.75
629.976	210.75
630.183	199.75
630.389	206.75
630.595	193.75
630.802	199.75
631.008	195.75
631.214	201.75
631.42	196.75
631.627	195.75
631.833	207.75
632.039	178.75
632.245	190.75
632.451	203.75
632.657	213.75
632.863	201.75
633.069	197.75
633.275	204.75
633.481	205.75
633.688	195.75
633.893	186.75
634.099	203.75
634.305	190.75
634.511	183.75
634.717	188.75
634.923	195.75
635.129	188.75
635.335	198.75
635.541	178.75
635.747	177.75
635.952	180.75
636.158	177.75
636.364	190.75
636.57	204.75
636.775	190.75
636.981	186.75
637.187	183.75
637.392	185.75
637.598	169.75
637.804	178.75
638.009	203.75
638.215	189.75
638.421	197.75
638.626	184.75
638.832	179.75
639.037	194.75
639.243	181.75
639.448	186.75
639.654	181.75
639.859	181.75
640.065	161.75
640.27	190.75
640.475	178.75
640.681	162.75
640.886	188.75
641.091	171.75
641.297	183.75
641.502	183.75
641.707	172.75
641.913	166.75
642.118	154.75
642.323	176.75
642.528	162.75
642.733	174.75
642.939	171.75
643.144	174.75
643.349	176.75
643.554	183.75
643.759	166.75
643.964	160.75
644.169	166.75
644.374	176.75
644.579	192.75
644.784	173.75
644.989	178.75
645.194	164.75
645.399	167.75
645.604	162.75
645.809	172.75
646.014	156.75
646.219	181.75
646.423	181.75
646.628	166.75
646.833	162.75
647.038	155.75
647.243	165.75
647.447	182.75
647.652	163.75
647.857	175.75
648.062	182.75
648.266	187.75
648.471	174.75
648.676	162.75
648.88	171.75
649.085	164.75
649.289	175.75
649.494	169.75
649.698	198.75
649.903	202.75
650.107	169.75
650.312	164.75
650.516	160.75
650.721	163.75
650.925	159.75
651.13	156.75
651.334	154.75
651.539	155.75
651.743	161.75
651.947	130.75
652.152	169.75
652.356	158.75
652.56	130.75
652.764	136.75
652.969	146.75
653.173	152.75
653.377	155.75
653.581	144.75
653.785	142.75
653.99	145.75
654.194	139.75
654.398	136.75
654.602	131.75
654.806	155.75
655.01	137.75
655.214	135.75
655.418	134.75
655.622	112.75
655.826	130.75
656.03	139.75
656.234	136.75
656.438	132.75
656.642	142.75
656.846	146.75
657.049	143.75
657.253	138.75
657.457	123.75
657.661	117.75
657.865	123.75
658.068	114.75
658.272	98.75
658.476	105.75
658.68	98.75
658.883	110.75
659.087	105.75
659.291	94.75
659.494	108.75
659.698	102.75
659.901	106.75
660.105	95.75
660.309	89.75
660.512	98.75
660.716	92.75
660.919	85.75
661.123	89.75
661.326	84.75
661.53	86.75
661.733	99.75
661.936	91.75
662.14	89.75
662.343	87.75
662.546	93.75
662.75	85.75
662.953	70.75
663.156	75.75
663.36	77.75
663.563	97.75
663.766	86.75
663.969	95.75
664.173	76.75
664.376	67.75
664.579	71.75
664.782	84.75
664.985	68.75
665.188	76.75
665.391	81.75
665.594	70.75
665.797	78.75
666	82.75
666.203	68.75
666.406	90.75
666.609	74.75
666.812	63.75
667.015	58.75
667.218	75.75
667.421	83.75
667.624	88.75
667.827	84.75
668.03	84.75
668.232	84.75
668.435	71.75
668.638	87.75
668.841	79.75
669.043	69.75
669.246	78.75
669.449	88.75
669.651	62.75
669.854	83.75
670.057	74.75
670.259	82.75
670.462	82.75
670.665	86.75
670.867	84.75
671.07	76.75
671.272	74.75
671.475	85.75
671.677	66.75
671.88	80.75
672.082	78.75
672.284	90.75
672.487	83.75
672.689	84.75
672.892	83.75
