Data from 1976.PennyLincolnUp.Lamp.En5.5.200Scan.071719.P1.Changed Mount._HRD10591_16-00-49-861.txt Node
Date: Thu Jul 18 16:00:49 EDT 2019
User: cochatt
Spectrometer: HR+D1059
Trigger mode: 1
Integration Time (sec): 1.000000E-1
Scans to average: 1
Electric dark correction enabled: true
Nonlinearity correction enabled: false
Boxcar width: 0
XAxis mode: Wavelengths
Number of Pixels in Spectrum: 2048
>>>>>Begin Spectral Data<<<<<
223.165	-10.94
223.4	-10.94
223.635	-10.94
223.869	-16.94
224.104	-8.94
224.338	-19.94
224.573	3.06
224.808	-11.94
225.042	-22.94
225.277	-9.94
225.511	-7.94
225.746	5.06
225.98	8.06
226.215	19.06
226.449	23.06
226.683	14.06
226.918	16.06
227.152	21.06
227.387	30.06
227.621	13.06
227.856	25.06
228.09	51.06
228.324	49.06
228.559	60.06
228.793	48.06
229.027	87.06
229.262	107.06
229.496	115.06
229.73	137.06
229.964	151.06
230.199	128.06
230.433	109.06
230.667	106.06
230.901	103.06
231.136	112.06
231.37	104.06
231.604	123.06
231.838	115.06
232.072	96.06
232.306	111.06
232.541	117.06
232.775	118.06
233.009	113.06
233.243	113.06
233.477	123.06
233.711	117.06
233.945	114.06
234.179	118.06
234.413	131.06
234.647	118.06
234.881	119.06
235.115	108.06
235.349	121.06
235.583	108.06
235.817	115.06
236.051	125.06
236.285	122.06
236.519	126.06
236.753	120.06
236.987	126.06
237.221	169.06
237.455	221.06
237.689	194.06
237.922	145.06
238.156	123.06
238.39	124.06
238.624	117.06
238.858	126.06
239.091	134.06
239.325	123.06
239.559	122.06
239.793	135.06
240.027	120.06
240.26	126.06
240.494	163.06
240.728	153.06
240.961	146.06
241.195	133.06
241.429	131.06
241.662	130.06
241.896	138.06
242.13	131.06
242.363	135.06
242.597	131.06
242.83	148.06
243.064	148.06
243.298	138.06
243.531	137.06
243.765	145.06
243.998	127.06
244.232	156.06
244.465	162.06
244.699	138.06
244.932	151.06
245.166	149.06
245.399	164.06
245.633	160.06
245.866	134.06
246.099	155.06
246.333	141.06
246.566	148.06
246.8	141.06
247.033	159.06
247.266	164.06
247.5	151.06
247.733	175.06
247.966	175.06
248.2	161.06
248.433	178.06
248.666	165.06
248.899	168.06
249.133	191.06
249.366	191.06
249.599	209.06
249.832	191.06
250.066	180.06
250.299	190.06
250.532	180.06
250.765	199.06
250.998	212.06
251.231	228.06
251.465	212.06
251.698	219.06
251.931	198.06
252.164	203.06
252.397	200.06
252.63	197.06
252.863	215.06
253.096	200.06
253.329	214.06
253.562	230.06
253.795	219.06
254.028	204.06
254.261	211.06
254.494	232.06
254.727	239.06
254.96	271.06
255.193	260.06
255.426	252.06
255.659	248.06
255.892	243.06
256.124	220.06
256.357	233.06
256.59	224.06
256.823	215.06
257.056	232.06
257.289	217.06
257.521	216.06
257.754	200.06
257.987	190.06
258.22	210.06
258.452	205.06
258.685	187.06
258.918	217.06
259.151	196.06
259.383	229.06
259.616	213.06
259.849	234.06
260.081	234.06
260.314	249.06
260.547	255.06
260.779	236.06
261.012	249.06
261.244	243.06
261.477	218.06
261.71	213.06
261.942	225.06
262.175	241.06
262.407	252.06
262.64	216.06
262.872	218.06
263.105	220.06
263.337	217.06
263.57	212.06
263.802	225.06
264.035	208.06
264.267	225.06
264.499	225.06
264.732	229.06
264.964	223.06
265.197	217.06
265.429	210.06
265.661	224.06
265.894	212.06
266.126	232.06
266.358	227.06
266.591	220.06
266.823	248.06
267.055	242.06
267.287	218.06
267.52	236.06
267.752	236.06
267.984	232.06
268.216	226.06
268.448	235.06
268.681	236.06
268.913	255.06
269.145	275.06
269.377	267.06
269.609	291.06
269.841	275.06
270.073	271.06
270.306	300.06
270.538	320.06
270.77	306.06
271.002	312.06
271.234	277.06
271.466	289.06
271.698	324.06
271.93	330.06
272.162	318.06
272.394	320.06
272.626	309.06
272.858	312.06
273.09	276.06
273.322	289.06
273.553	277.06
273.785	263.06
274.017	278.06
274.249	269.06
274.481	268.06
274.713	284.06
274.945	293.06
275.176	279.06
275.408	253.06
275.64	283.06
275.872	274.06
276.104	284.06
276.335	279.06
276.567	283.06
276.799	282.06
277.031	322.06
277.262	326.06
277.494	323.06
277.726	315.06
277.957	317.06
278.189	287.06
278.421	279.06
278.652	278.06
278.884	291.06
279.115	305.06
279.347	295.06
279.579	285.06
279.81	281.06
280.042	289.06
280.273	290.06
280.505	292.06
280.736	283.06
280.968	286.06
281.199	289.06
281.431	289.06
281.662	273.06
281.894	286.06
282.125	291.06
282.356	287.06
282.588	319.06
282.819	305.06
283.051	296.06
283.282	299.06
283.513	304.06
283.745	295.06
283.976	294.06
284.207	310.06
284.439	296.06
284.67	297.06
284.901	298.06
285.132	299.06
285.364	297.06
285.595	309.06
285.826	305.06
286.057	312.06
286.288	298.06
286.52	296.06
286.751	296.06
286.982	307.06
287.213	301.06
287.444	292.06
287.675	309.06
287.906	321.06
288.138	328.06
288.369	323.06
288.6	319.06
288.831	335.06
289.062	311.06
289.293	315.06
289.524	317.06
289.755	315.06
289.986	307.06
290.217	309.06
290.448	323.06
290.679	304.06
290.91	309.06
291.141	319.06
291.371	300.06
291.602	316.06
291.833	312.06
292.064	332.06
292.295	312.06
292.526	331.06
292.757	311.06
292.987	299.06
293.218	296.06
293.449	316.06
293.68	308.06
293.91	320.06
294.141	316.06
294.372	319.06
294.603	308.06
294.833	320.06
295.064	325.06
295.295	326.06
295.525	315.06
295.756	310.06
295.987	331.06
296.217	319.06
296.448	332.06
296.679	327.06
296.909	308.06
297.14	296.06
297.37	313.06
297.601	344.06
297.831	310.06
298.062	325.06
298.292	317.06
298.523	329.06
298.753	329.06
298.984	336.06
299.214	323.06
299.445	329.06
299.675	333.06
299.905	345.06
300.136	327.06
300.366	334.06
300.597	342.06
300.827	347.06
301.057	335.06
301.288	351.06
301.518	339.06
301.748	341.06
301.979	348.06
302.209	345.06
302.439	344.06
302.669	356.06
302.9	333.06
303.13	329.06
303.36	355.06
303.59	357.06
303.82	358.06
304.051	349.06
304.281	351.06
304.511	339.06
304.741	346.06
304.971	348.06
305.201	333.06
305.431	346.06
305.661	323.06
305.891	345.06
306.121	343.06
306.352	357.06
306.582	340.06
306.812	332.06
307.042	362.06
307.272	349.06
307.502	349.06
307.731	347.06
307.961	345.06
308.191	355.06
308.421	349.06
308.651	343.06
308.881	372.06
309.111	360.06
309.341	353.06
309.571	368.06
309.8	375.06
310.03	373.06
310.26	386.06
310.49	380.06
310.72	395.06
310.949	395.06
311.179	399.06
311.409	375.06
311.639	393.06
311.868	381.06
312.098	385.06
312.328	387.06
312.557	405.06
312.787	421.06
313.017	413.06
313.246	411.06
313.476	383.06
313.706	403.06
313.935	423.06
314.165	398.06
314.394	409.06
314.624	411.06
314.853	409.06
315.083	405.06
315.312	417.06
315.542	407.06
315.771	394.06
316.001	408.06
316.23	377.06
316.46	387.06
316.689	404.06
316.919	399.06
317.148	393.06
317.377	397.06
317.607	414.06
317.836	389.06
318.065	388.06
318.295	380.06
318.524	389.06
318.753	405.06
318.983	385.06
319.212	370.06
319.441	403.06
319.67	404.06
319.9	394.06
320.129	409.06
320.358	397.06
320.587	419.06
320.816	376.06
321.046	421.06
321.275	401.06
321.504	383.06
321.733	419.06
321.962	407.06
322.191	433.06
322.42	437.06
322.649	438.06
322.878	455.06
323.108	469.06
323.337	453.06
323.566	459.06
323.795	514.06
324.024	543.06
324.253	607.06
324.482	869.06
324.71	1297.06
324.939	1880.06
325.168	1647.06
325.397	878.06
325.626	595.06
325.855	500.06
326.084	500.06
326.313	475.06
326.542	480.06
326.77	541.06
326.999	597.06
327.228	793.06
327.457	1187.06
327.686	1455.06
327.914	961.06
328.143	627.06
328.372	589.06
328.6	557.06
328.829	546.06
329.058	537.06
329.287	545.06
329.515	530.06
329.744	508.06
329.972	486.06
330.201	531.06
330.43	517.06
330.658	551.06
330.887	601.06
331.115	583.06
331.344	523.06
331.572	490.06
331.801	482.06
332.03	515.06
332.258	478.06
332.486	459.06
332.715	471.06
332.943	489.06
333.172	493.06
333.4	496.06
333.629	473.06
333.857	496.06
334.085	497.06
334.314	540.06
334.542	562.06
334.771	575.06
334.999	532.06
335.227	512.06
335.455	497.06
335.684	497.06
335.912	474.06
336.14	479.06
336.369	485.06
336.597	466.06
336.825	464.06
337.053	484.06
337.281	471.06
337.51	465.06
337.738	457.06
337.966	439.06
338.194	465.06
338.422	472.06
338.65	466.06
338.878	459.06
339.106	458.06
339.334	476.06
339.562	426.06
339.79	447.06
340.018	456.06
340.246	459.06
340.474	453.06
340.702	441.06
340.93	457.06
341.158	431.06
341.386	425.06
341.614	435.06
341.842	419.06
342.07	454.06
342.298	437.06
342.526	435.06
342.754	431.06
342.981	424.06
343.209	447.06
343.437	440.06
343.665	452.06
343.893	467.06
344.12	456.06
344.348	473.06
344.576	445.06
344.804	450.06
345.031	455.06
345.259	452.06
345.487	465.06
345.714	458.06
345.942	455.06
346.17	440.06
346.397	441.06
346.625	432.06
346.853	419.06
347.08	439.06
347.308	428.06
347.535	411.06
347.763	417.06
347.99	445.06
348.218	433.06
348.445	433.06
348.673	437.06
348.9	447.06
349.128	423.06
349.355	425.06
349.583	419.06
349.81	428.06
350.037	407.06
350.265	424.06
350.492	425.06
350.72	411.06
350.947	405.06
351.174	422.06
351.402	441.06
351.629	462.06
351.856	419.06
352.083	428.06
352.311	439.06
352.538	435.06
352.765	437.06
352.992	438.06
353.22	435.06
353.447	420.06
353.674	433.06
353.901	416.06
354.128	412.06
354.355	383.06
354.583	406.06
354.81	412.06
355.037	433.06
355.264	416.06
355.491	413.06
355.718	394.06
355.945	391.06
356.172	392.06
356.399	374.06
356.626	396.06
356.853	415.06
357.08	412.06
357.307	424.06
357.534	406.06
357.761	393.06
357.988	379.06
358.215	408.06
358.441	427.06
358.668	401.06
358.895	402.06
359.122	418.06
359.349	408.06
359.576	434.06
359.802	443.06
360.029	460.06
360.256	472.06
360.483	458.06
360.709	433.06
360.936	434.06
361.163	399.06
361.39	399.06
361.616	433.06
361.843	438.06
362.07	412.06
362.296	417.06
362.523	418.06
362.749	420.06
362.976	414.06
363.203	442.06
363.429	425.06
363.656	403.06
363.882	407.06
364.109	398.06
364.335	398.06
364.562	389.06
364.788	410.06
365.015	413.06
365.241	406.06
365.468	407.06
365.694	424.06
365.92	429.06
366.147	410.06
366.373	395.06
366.599	406.06
366.826	408.06
367.052	407.06
367.278	416.06
367.505	439.06
367.731	424.06
367.957	405.06
368.184	410.06
368.41	423.06
368.636	411.06
368.862	429.06
369.089	431.06
369.315	439.06
369.541	417.06
369.767	418.06
369.993	429.06
370.219	394.06
370.445	428.06
370.672	427.06
370.898	423.06
371.124	408.06
371.35	411.06
371.576	408.06
371.802	407.06
372.028	422.06
372.254	407.06
372.48	385.06
372.706	427.06
372.932	409.06
373.158	403.06
373.384	420.06
373.61	428.06
373.835	436.06
374.061	434.06
374.287	417.06
374.513	391.06
374.739	415.06
374.965	436.06
375.191	428.06
375.416	437.06
375.642	422.06
375.868	433.06
376.094	407.06
376.319	401.06
376.545	428.06
376.771	384.06
376.997	401.06
377.222	401.06
377.448	413.06
377.674	401.06
377.899	425.06
378.125	418.06
378.35	405.06
378.576	411.06
378.802	429.06
379.027	415.06
379.253	431.06
379.478	400.06
379.704	396.06
379.929	388.06
380.155	413.06
380.38	417.06
380.606	438.06
380.831	411.06
381.057	429.06
381.282	422.06
381.507	417.06
381.733	431.06
381.958	423.06
382.184	422.06
382.409	426.06
382.634	421.06
382.86	440.06
383.085	438.06
383.31	431.06
383.535	432.06
383.761	440.06
383.986	443.06
384.211	437.06
384.436	458.06
384.662	450.06
384.887	447.06
385.112	466.06
385.337	477.06
385.562	442.06
385.787	453.06
386.013	471.06
386.238	470.06
386.463	474.06
386.688	472.06
386.913	466.06
387.138	465.06
387.363	455.06
387.588	461.06
387.813	462.06
388.038	460.06
388.263	478.06
388.488	456.06
388.713	451.06
388.938	472.06
389.163	471.06
389.387	457.06
389.612	459.06
389.837	467.06
390.062	438.06
390.287	461.06
390.512	464.06
390.736	483.06
390.961	466.06
391.186	476.06
391.411	490.06
391.636	483.06
391.86	481.06
392.085	475.06
392.31	496.06
392.534	476.06
392.759	484.06
392.984	492.06
393.208	482.06
393.433	474.06
393.658	455.06
393.882	471.06
394.107	457.06
394.331	472.06
394.556	464.06
394.78	489.06
395.005	495.06
395.229	486.06
395.454	481.06
395.678	501.06
395.903	485.06
396.127	535.06
396.352	525.06
396.576	483.06
396.801	491.06
397.025	499.06
397.249	495.06
397.474	511.06
397.698	488.06
397.922	515.06
398.147	543.06
398.371	542.06
398.595	525.06
398.82	513.06
399.044	565.06
399.268	571.06
399.492	602.06
399.717	670.06
399.941	685.06
400.165	673.06
400.389	671.06
400.613	635.06
400.837	565.06
401.062	567.06
401.286	566.06
401.51	542.06
401.734	558.06
401.958	544.06
402.182	553.06
402.406	551.06
402.63	561.06
402.854	559.06
403.078	565.06
403.302	574.06
403.526	565.06
403.75	557.06
403.974	561.06
404.198	565.06
404.422	563.06
404.645	591.06
404.869	580.06
405.093	620.06
405.317	635.06
405.541	683.06
405.765	646.06
405.988	567.06
406.212	596.06
406.436	642.06
406.66	607.06
406.883	603.06
407.107	616.06
407.331	685.06
407.555	743.06
407.778	744.06
408.002	685.06
408.226	629.06
408.449	631.06
408.673	598.06
408.896	635.06
409.12	644.06
409.344	633.06
409.567	607.06
409.791	596.06
410.014	587.06
410.238	557.06
410.461	580.06
410.685	598.06
410.908	581.06
411.132	578.06
411.355	633.06
411.578	603.06
411.802	581.06
412.025	569.06
412.249	568.06
412.472	598.06
412.695	613.06
412.919	623.06
413.142	559.06
413.365	552.06
413.589	551.06
413.812	538.06
414.035	535.06
414.258	533.06
414.482	562.06
414.705	541.06
414.928	543.06
415.151	545.06
415.374	535.06
415.597	512.06
415.821	507.06
416.044	515.06
416.267	536.06
416.49	541.06
416.713	526.06
416.936	533.06
417.159	511.06
417.382	541.06
417.605	524.06
417.828	548.06
418.051	550.06
418.274	549.06
418.497	545.06
418.72	526.06
418.943	536.06
419.166	569.06
419.389	576.06
419.611	569.06
419.834	565.06
420.057	560.06
420.28	576.06
420.503	565.06
420.726	553.06
420.948	553.06
421.171	608.06
421.394	647.06
421.617	578.06
421.839	539.06
422.062	555.06
422.285	565.06
422.507	626.06
422.73	695.06
422.953	677.06
423.175	591.06
423.398	565.06
423.621	573.06
423.843	602.06
424.066	595.06
424.288	582.06
424.511	635.06
424.733	639.06
424.956	727.06
425.178	698.06
425.401	674.06
425.623	710.06
425.846	619.06
426.068	602.06
426.291	604.06
426.513	580.06
426.735	590.06
426.958	623.06
427.18	691.06
427.402	826.06
427.625	903.06
427.847	774.06
428.069	678.06
428.292	620.06
428.514	561.06
428.736	557.06
428.958	548.06
429.181	523.06
429.403	525.06
429.625	562.06
429.847	557.06
430.069	653.06
430.292	647.06
430.514	559.06
430.736	534.06
430.958	525.06
431.18	510.06
431.402	523.06
431.624	505.06
431.846	488.06
432.068	513.06
432.29	540.06
432.512	533.06
432.734	532.06
432.956	500.06
433.178	524.06
433.4	495.06
433.622	531.06
433.844	525.06
434.066	493.06
434.287	519.06
434.509	538.06
434.731	549.06
434.953	539.06
435.175	559.06
435.397	575.06
435.618	581.06
435.84	624.06
436.062	747.06
436.284	785.06
436.505	635.06
436.727	567.06
436.949	553.06
437.17	529.06
437.392	531.06
437.614	527.06
437.835	556.06
438.057	643.06
438.278	724.06
438.5	731.06
438.721	852.06
438.943	802.06
439.165	643.06
439.386	565.06
439.608	596.06
439.829	579.06
440.05	601.06
440.272	635.06
440.493	592.06
440.715	555.06
440.936	574.06
441.158	547.06
441.379	547.06
441.6	561.06
441.822	559.06
442.043	625.06
442.264	695.06
442.486	725.06
442.707	633.06
442.928	587.06
443.149	623.06
443.371	633.06
443.592	654.06
443.813	734.06
444.034	823.06
444.255	677.06
444.476	633.06
444.698	601.06
444.919	601.06
445.14	755.06
445.361	643.06
445.582	626.06
445.803	680.06
446.024	797.06
446.245	774.06
446.466	709.06
446.687	639.06
446.908	596.06
447.129	546.06
447.35	529.06
447.571	547.06
447.792	506.06
448.013	533.06
448.234	541.06
448.455	603.06
448.675	674.06
448.896	819.06
449.117	689.06
449.338	654.06
449.559	775.06
449.779	869.06
450	689.06
450.221	603.06
450.442	532.06
450.662	535.06
450.883	526.06
451.104	511.06
451.324	531.06
451.545	503.06
451.766	500.06
451.986	478.06
452.207	475.06
452.428	453.06
452.648	466.06
452.869	479.06
453.089	474.06
453.31	481.06
453.53	477.06
453.751	467.06
453.971	486.06
454.192	483.06
454.412	466.06
454.633	487.06
454.853	461.06
455.073	465.06
455.294	492.06
455.514	563.06
455.734	552.06
455.955	470.06
456.175	439.06
456.395	439.06
456.616	445.06
456.836	453.06
457.056	432.06
457.276	421.06
457.497	467.06
457.717	452.06
457.937	470.06
458.157	457.06
458.377	471.06
458.598	491.06
458.818	561.06
459.038	586.06
459.258	620.06
459.478	555.06
459.698	507.06
459.918	509.06
460.138	522.06
460.358	531.06
460.578	520.06
460.798	517.06
461.018	558.06
461.238	542.06
461.458	563.06
461.678	524.06
461.898	544.06
462.118	495.06
462.338	548.06
462.558	561.06
462.777	592.06
462.997	571.06
463.217	593.06
463.437	608.06
463.657	601.06
463.876	571.06
464.096	589.06
464.316	581.06
464.536	589.06
464.755	578.06
464.975	596.06
465.195	594.06
465.414	632.06
465.634	580.06
465.854	548.06
466.073	515.06
466.293	503.06
466.512	488.06
466.732	521.06
466.951	497.06
467.171	496.06
467.391	486.06
467.61	487.06
467.829	480.06
468.049	507.06
468.268	496.06
468.488	483.06
468.707	470.06
468.927	470.06
469.146	481.06
469.365	488.06
469.585	485.06
469.804	482.06
470.023	484.06
470.243	495.06
470.462	478.06
470.681	517.06
470.901	507.06
471.12	509.06
471.339	512.06
471.558	500.06
471.777	491.06
471.997	488.06
472.216	485.06
472.435	526.06
472.654	500.06
472.873	474.06
473.092	481.06
473.311	474.06
473.53	496.06
473.749	487.06
473.968	533.06
474.187	635.06
474.406	639.06
474.625	540.06
474.844	529.06
475.063	517.06
475.282	497.06
475.501	503.06
475.72	507.06
475.939	513.06
476.158	478.06
476.377	505.06
476.596	501.06
476.814	528.06
477.033	513.06
477.252	517.06
477.471	515.06
477.69	544.06
477.908	515.06
478.127	554.06
478.346	552.06
478.564	539.06
478.783	560.06
479.002	588.06
479.22	533.06
479.439	593.06
479.658	612.06
479.876	608.06
480.095	601.06
480.313	652.06
480.532	627.06
480.751	606.06
480.969	603.06
481.188	667.06
481.406	685.06
481.624	618.06
481.843	617.06
482.061	589.06
482.28	580.06
482.498	562.06
482.717	563.06
482.935	581.06
483.153	593.06
483.372	565.06
483.59	608.06
483.808	572.06
484.027	594.06
484.245	580.06
484.463	584.06
484.681	611.06
484.9	588.06
485.118	561.06
485.336	601.06
485.554	594.06
485.772	604.06
485.99	596.06
486.209	589.06
486.427	622.06
486.645	604.06
486.863	625.06
487.081	600.06
487.299	618.06
487.517	616.06
487.735	612.06
487.953	614.06
488.171	623.06
488.389	636.06
488.607	629.06
488.825	629.06
489.043	625.06
489.261	621.06
489.479	615.06
489.696	624.06
489.914	641.06
490.132	652.06
490.35	647.06
490.568	661.06
490.786	630.06
491.003	682.06
491.221	701.06
491.439	703.06
491.657	687.06
491.874	695.06
492.092	694.06
492.31	717.06
492.527	703.06
492.745	710.06
492.963	727.06
493.18	704.06
493.398	723.06
493.615	738.06
493.833	720.06
494.05	710.06
494.268	757.06
494.485	724.06
494.703	707.06
494.92	725.06
495.138	715.06
495.355	722.06
495.573	753.06
495.79	724.06
496.008	739.06
496.225	723.06
496.442	711.06
496.66	742.06
496.877	738.06
497.094	737.06
497.312	741.06
497.529	784.06
497.746	753.06
497.963	788.06
498.181	821.06
498.398	787.06
498.615	824.06
498.832	844.06
499.049	861.06
499.267	915.06
499.484	952.06
499.701	997.06
499.918	1053.06
500.135	1089.06
500.352	1132.06
500.569	1181.06
500.786	1194.06
501.003	1184.06
501.22	1099.06
501.437	1039.06
501.654	1029.06
501.871	976.06
502.088	936.06
502.305	900.06
502.522	864.06
502.739	821.06
502.956	819.06
503.172	821.06
503.389	780.06
503.606	788.06
503.823	785.06
504.04	736.06
504.256	785.06
504.473	755.06
504.69	747.06
504.907	758.06
505.123	712.06
505.34	733.06
505.557	720.06
505.773	738.06
505.99	734.06
506.207	705.06
506.423	697.06
506.64	685.06
506.856	673.06
507.073	677.06
507.289	681.06
507.506	651.06
507.722	700.06
507.939	685.06
508.155	663.06
508.372	625.06
508.588	635.06
508.805	644.06
509.021	652.06
509.238	647.06
509.454	681.06
509.67	671.06
509.887	649.06
510.103	639.06
510.319	657.06
510.536	738.06
510.752	1078.06
510.968	906.06
511.184	654.06
511.401	627.06
511.617	607.06
511.833	604.06
512.049	620.06
512.265	606.06
512.481	622.06
512.698	586.06
512.914	586.06
513.13	608.06
513.346	608.06
513.562	600.06
513.778	605.06
513.994	604.06
514.21	609.06
514.426	627.06
514.642	651.06
514.858	659.06
515.074	693.06
515.29	803.06
515.506	1056.06
515.721	927.06
515.937	697.06
516.153	663.06
516.369	637.06
516.585	644.06
516.801	644.06
517.016	626.06
517.232	649.06
517.448	656.06
517.664	671.06
517.879	665.06
518.095	667.06
518.311	633.06
518.527	610.06
518.742	656.06
518.958	628.06
519.173	637.06
519.389	610.06
519.605	632.06
519.82	633.06
520.036	616.06
520.251	624.06
520.467	656.06
520.682	651.06
520.898	654.06
521.113	676.06
521.329	691.06
521.544	732.06
521.76	897.06
521.975	1355.06
522.19	1327.06
522.406	796.06
522.621	649.06
522.836	625.06
523.052	589.06
523.267	557.06
523.482	554.06
523.698	563.06
523.913	543.06
524.128	545.06
524.343	527.06
524.559	528.06
524.774	547.06
524.989	541.06
525.204	528.06
525.419	561.06
525.634	531.06
525.849	528.06
526.064	534.06
526.28	508.06
526.495	524.06
526.71	511.06
526.925	502.06
527.14	540.06
527.355	513.06
527.57	515.06
527.785	503.06
527.999	516.06
528.214	497.06
528.429	481.06
528.644	521.06
528.859	508.06
529.074	476.06
529.289	537.06
529.503	585.06
529.718	556.06
529.933	532.06
530.148	525.06
530.363	539.06
530.577	479.06
530.792	505.06
531.007	501.06
531.221	486.06
531.436	499.06
531.651	491.06
531.865	509.06
532.08	509.06
532.295	492.06
532.509	485.06
532.724	509.06
532.938	495.06
533.153	497.06
533.367	485.06
533.582	475.06
533.796	498.06
534.011	497.06
534.225	487.06
534.44	462.06
534.654	473.06
534.868	455.06
535.083	486.06
535.297	481.06
535.511	487.06
535.726	487.06
535.94	480.06
536.154	478.06
536.369	485.06
536.583	482.06
536.797	461.06
537.011	465.06
537.225	469.06
537.44	469.06
537.654	488.06
537.868	472.06
538.082	466.06
538.296	462.06
538.51	472.06
538.724	481.06
538.938	477.06
539.153	464.06
539.367	489.06
539.581	489.06
539.795	482.06
540.009	467.06
540.222	457.06
540.436	462.06
540.65	474.06
540.864	451.06
541.078	465.06
541.292	495.06
541.506	480.06
541.72	467.06
541.934	468.06
542.147	486.06
542.361	455.06
542.575	479.06
542.789	454.06
543.002	455.06
543.216	472.06
543.43	452.06
543.644	464.06
543.857	470.06
544.071	461.06
544.285	481.06
544.498	475.06
544.712	457.06
544.925	471.06
545.139	467.06
545.352	449.06
545.566	459.06
545.779	482.06
545.993	438.06
546.206	464.06
546.42	473.06
546.633	458.06
546.847	469.06
547.06	448.06
547.274	460.06
547.487	460.06
547.7	447.06
547.914	470.06
548.127	459.06
548.34	449.06
548.554	463.06
548.767	441.06
548.98	463.06
549.193	459.06
549.407	471.06
549.62	445.06
549.833	452.06
550.046	461.06
550.259	458.06
550.473	468.06
550.686	473.06
550.899	440.06
551.112	451.06
551.325	427.06
551.538	444.06
551.751	458.06
551.964	425.06
552.177	441.06
552.39	458.06
552.603	444.06
552.816	463.06
553.029	452.06
553.242	475.06
553.455	469.06
553.667	476.06
553.88	476.06
554.093	468.06
554.306	476.06
554.519	465.06
554.732	465.06
554.944	442.06
555.157	435.06
555.37	447.06
555.583	448.06
555.795	439.06
556.008	419.06
556.221	415.06
556.433	415.06
556.646	416.06
556.859	416.06
557.071	419.06
557.284	407.06
557.496	428.06
557.709	403.06
557.921	400.06
558.134	391.06
558.346	408.06
558.559	416.06
558.771	409.06
558.984	419.06
559.196	418.06
559.409	421.06
559.621	416.06
559.833	404.06
560.046	393.06
560.258	413.06
560.47	397.06
560.683	394.06
560.895	408.06
561.107	385.06
561.32	393.06
561.532	407.06
561.744	395.06
561.956	404.06
562.168	396.06
562.381	397.06
562.593	395.06
562.805	403.06
563.017	396.06
563.229	425.06
563.441	426.06
563.653	411.06
563.865	421.06
564.077	423.06
564.289	419.06
564.501	422.06
564.713	432.06
564.925	417.06
565.137	431.06
565.349	421.06
565.561	449.06
565.773	455.06
565.985	477.06
566.197	485.06
566.408	458.06
566.62	501.06
566.832	533.06
567.044	520.06
567.255	537.06
567.467	526.06
567.679	554.06
567.891	570.06
568.102	547.06
568.314	538.06
568.526	541.06
568.737	508.06
568.949	494.06
569.161	478.06
569.372	447.06
569.584	440.06
569.795	427.06
570.007	409.06
570.218	446.06
570.43	437.06
570.641	412.06
570.853	407.06
571.064	419.06
571.276	398.06
571.487	401.06
571.698	411.06
571.91	381.06
572.121	378.06
572.333	389.06
572.544	343.06
572.755	373.06
572.966	363.06
573.178	359.06
573.389	347.06
573.6	358.06
573.811	345.06
574.023	363.06
574.234	342.06
574.445	351.06
574.656	345.06
574.867	373.06
575.078	363.06
575.289	339.06
575.501	338.06
575.712	333.06
575.923	356.06
576.134	353.06
576.345	337.06
576.556	361.06
576.767	347.06
576.978	333.06
577.188	335.06
577.399	336.06
577.61	344.06
577.821	338.06
578.032	336.06
578.243	369.06
578.454	545.06
578.665	405.06
578.875	329.06
579.086	319.06
579.297	337.06
579.508	341.06
579.718	330.06
579.929	314.06
580.14	322.06
580.35	300.06
580.561	328.06
580.772	324.06
580.982	305.06
581.193	303.06
581.403	313.06
581.614	310.06
581.825	314.06
582.035	320.06
582.246	314.06
582.456	301.06
582.667	307.06
582.877	319.06
583.087	319.06
583.298	323.06
583.508	310.06
583.719	319.06
583.929	316.06
584.139	316.06
584.35	313.06
584.56	318.06
584.77	291.06
584.981	294.06
585.191	304.06
585.401	294.06
585.611	313.06
585.821	314.06
586.032	300.06
586.242	324.06
586.452	308.06
586.662	324.06
586.872	304.06
587.082	295.06
587.292	290.06
587.502	296.06
587.713	297.06
587.923	293.06
588.133	303.06
588.343	297.06
588.553	301.06
588.762	290.06
588.972	326.06
589.182	312.06
589.392	307.06
589.602	313.06
589.812	307.06
590.022	309.06
590.232	303.06
590.441	317.06
590.651	296.06
590.861	291.06
591.071	316.06
591.281	302.06
591.49	315.06
591.7	322.06
591.91	324.06
592.119	326.06
592.329	306.06
592.539	328.06
592.748	325.06
592.958	313.06
593.167	330.06
593.377	325.06
593.587	346.06
593.796	330.06
594.006	329.06
594.215	351.06
594.424	328.06
594.634	320.06
594.843	324.06
595.053	333.06
595.262	307.06
595.472	305.06
595.681	287.06
595.89	301.06
596.1	299.06
596.309	303.06
596.518	285.06
596.727	293.06
596.937	295.06
597.146	269.06
597.355	288.06
597.564	268.06
597.774	281.06
597.983	270.06
598.192	272.06
598.401	262.06
598.61	270.06
598.819	262.06
599.028	280.06
599.237	273.06
599.446	285.06
599.655	274.06
599.864	273.06
600.073	274.06
600.282	276.06
600.491	248.06
600.7	275.06
600.909	275.06
601.118	258.06
601.327	257.06
601.536	269.06
601.745	247.06
601.953	248.06
602.162	271.06
602.371	255.06
602.58	261.06
602.789	268.06
602.997	269.06
603.206	272.06
603.415	266.06
603.623	276.06
603.832	269.06
604.041	258.06
604.249	259.06
604.458	259.06
604.666	254.06
604.875	247.06
605.084	244.06
605.292	250.06
605.501	239.06
605.709	240.06
605.918	264.06
606.126	280.06
606.334	257.06
606.543	244.06
606.751	251.06
606.96	255.06
607.168	254.06
607.376	247.06
607.585	252.06
607.793	262.06
608.001	251.06
608.21	231.06
608.418	254.06
608.626	238.06
608.834	234.06
609.043	248.06
609.251	233.06
609.459	245.06
609.667	241.06
609.875	258.06
610.083	249.06
610.291	257.06
610.499	262.06
610.707	252.06
610.916	245.06
611.124	252.06
611.332	251.06
611.54	268.06
611.748	258.06
611.955	259.06
612.163	248.06
612.371	244.06
612.579	246.06
612.787	257.06
612.995	262.06
613.203	257.06
613.411	242.06
613.618	223.06
613.826	247.06
614.034	255.06
614.242	242.06
614.449	247.06
614.657	233.06
614.865	247.06
615.072	252.06
615.28	227.06
615.488	247.06
615.695	261.06
615.903	232.06
616.111	249.06
616.318	235.06
616.526	236.06
616.733	237.06
616.941	244.06
617.148	248.06
617.356	263.06
617.563	242.06
617.771	254.06
617.978	237.06
618.185	227.06
618.393	235.06
618.6	247.06
618.807	231.06
619.015	229.06
619.222	244.06
619.429	224.06
619.637	242.06
619.844	235.06
620.051	231.06
620.258	217.06
620.466	218.06
620.673	211.06
620.88	231.06
621.087	236.06
621.294	220.06
621.501	226.06
621.708	228.06
621.915	244.06
622.122	232.06
622.329	229.06
622.536	235.06
622.743	223.06
622.95	244.06
623.157	236.06
623.364	220.06
623.571	224.06
623.778	235.06
623.985	239.06
624.192	236.06
624.399	223.06
624.606	217.06
624.812	238.06
625.019	211.06
625.226	217.06
625.433	235.06
625.639	224.06
625.846	193.06
626.053	210.06
626.259	207.06
626.466	201.06
626.673	227.06
626.879	215.06
627.086	200.06
627.293	193.06
627.499	209.06
627.706	227.06
627.912	200.06
628.119	215.06
628.325	219.06
628.532	217.06
628.738	203.06
628.945	212.06
629.151	197.06
629.357	205.06
629.564	206.06
629.77	206.06
629.976	196.06
630.183	211.06
630.389	204.06
630.595	188.06
630.802	190.06
631.008	205.06
631.214	190.06
631.42	223.06
631.627	213.06
631.833	203.06
632.039	186.06
632.245	193.06
632.451	194.06
632.657	206.06
632.863	197.06
633.069	196.06
633.275	198.06
633.481	200.06
633.688	188.06
633.893	183.06
634.099	206.06
634.305	199.06
634.511	201.06
634.717	184.06
634.923	207.06
635.129	191.06
635.335	177.06
635.541	186.06
635.747	194.06
635.952	201.06
636.158	205.06
636.364	187.06
636.57	202.06
636.775	185.06
636.981	186.06
637.187	188.06
637.392	186.06
637.598	188.06
637.804	173.06
638.009	180.06
638.215	197.06
638.421	177.06
638.626	188.06
638.832	184.06
639.037	176.06
639.243	196.06
639.448	167.06
639.654	184.06
639.859	185.06
640.065	181.06
640.27	177.06
640.475	185.06
640.681	187.06
640.886	164.06
641.091	185.06
641.297	164.06
641.502	175.06
641.707	167.06
641.913	172.06
642.118	179.06
642.323	175.06
642.528	163.06
642.733	163.06
642.939	166.06
643.144	175.06
643.349	171.06
643.554	172.06
643.759	192.06
643.964	173.06
644.169	184.06
644.374	154.06
644.579	163.06
644.784	172.06
644.989	168.06
645.194	173.06
645.399	174.06
645.604	163.06
645.809	186.06
646.014	173.06
646.219	181.06
646.423	179.06
646.628	170.06
646.833	177.06
647.038	170.06
647.243	179.06
647.447	179.06
647.652	175.06
647.857	165.06
648.062	159.06
648.266	173.06
648.471	165.06
648.676	173.06
648.88	179.06
649.085	176.06
649.289	172.06
649.494	176.06
649.698	179.06
649.903	189.06
650.107	195.06
650.312	183.06
650.516	153.06
650.721	173.06
650.925	141.06
651.13	153.06
651.334	148.06
651.539	165.06
651.743	167.06
651.947	143.06
652.152	154.06
652.356	173.06
652.56	159.06
652.764	150.06
652.969	146.06
653.173	138.06
653.377	127.06
653.581	151.06
653.785	141.06
653.99	148.06
654.194	139.06
654.398	154.06
654.602	137.06
654.806	132.06
655.01	139.06
655.214	140.06
655.418	144.06
655.622	147.06
655.826	135.06
656.03	135.06
656.234	125.06
656.438	140.06
656.642	144.06
656.846	149.06
657.049	134.06
657.253	119.06
657.457	113.06
657.661	125.06
657.865	113.06
658.068	100.06
658.272	95.06
658.476	104.06
658.68	111.06
658.883	98.06
659.087	92.06
659.291	93.06
659.494	104.06
659.698	97.06
659.901	103.06
660.105	88.06
660.309	90.06
660.512	92.06
660.716	79.06
660.919	91.06
661.123	98.06
661.326	81.06
661.53	86.06
661.733	99.06
661.936	96.06
662.14	92.06
662.343	80.06
662.546	63.06
662.75	96.06
662.953	82.06
663.156	84.06
663.36	85.06
663.563	75.06
663.766	79.06
663.969	77.06
664.173	71.06
664.376	75.06
664.579	84.06
664.782	84.06
664.985	74.06
665.188	83.06
665.391	91.06
665.594	77.06
665.797	80.06
666	82.06
666.203	81.06
666.406	72.06
666.609	76.06
666.812	80.06
667.015	87.06
667.218	71.06
667.421	72.06
667.624	73.06
667.827	69.06
668.03	81.06
668.232	83.06
668.435	84.06
668.638	81.06
668.841	79.06
669.043	71.06
669.246	85.06
669.449	81.06
669.651	85.06
669.854	80.06
670.057	82.06
670.259	85.06
670.462	86.06
670.665	82.06
670.867	86.06
671.07	84.06
671.272	74.06
671.475	76.06
671.677	82.06
671.88	75.06
672.082	87.06
672.284	79.06
672.487	81.06
672.689	73.06
672.892	94.06
