Data from 1976.PennyLincolnUp.Lamp.En5.5.200Scan.071719.P1.Changed Mount._HRD10591_16-00-21-862.txt Node
Date: Thu Jul 18 16:00:21 EDT 2019
User: cochatt
Spectrometer: HR+D1059
Trigger mode: 1
Integration Time (sec): 1.000000E-1
Scans to average: 1
Electric dark correction enabled: true
Nonlinearity correction enabled: false
Boxcar width: 0
XAxis mode: Wavelengths
Number of Pixels in Spectrum: 2048
>>>>>Begin Spectral Data<<<<<
223.165	-24.44
223.4	-24.44
223.635	-24.44
223.869	-17.44
224.104	-24.44
224.338	-15.44
224.573	-7.44
224.808	-15.44
225.042	3.56
225.277	-6.44
225.511	10.56
225.746	15.56
225.98	-0.44
226.215	-0.44
226.449	15.56
226.683	17.56
226.918	15.56
227.152	33.56
227.387	54.56
227.621	48.56
227.856	56.56
228.09	42.56
228.324	37.56
228.559	54.56
228.793	55.56
229.027	92.56
229.262	96.56
229.496	101.56
229.73	127.56
229.964	157.56
230.199	122.56
230.433	120.56
230.667	116.56
230.901	96.56
231.136	119.56
231.37	109.56
231.604	122.56
231.838	125.56
232.072	118.56
232.306	129.56
232.541	134.56
232.775	115.56
233.009	117.56
233.243	118.56
233.477	113.56
233.711	98.56
233.945	111.56
234.179	118.56
234.413	110.56
234.647	127.56
234.881	113.56
235.115	109.56
235.349	123.56
235.583	110.56
235.817	119.56
236.051	119.56
236.285	128.56
236.519	126.56
236.753	128.56
236.987	154.56
237.221	167.56
237.455	225.56
237.689	197.56
237.922	143.56
238.156	146.56
238.39	139.56
238.624	131.56
238.858	125.56
239.091	127.56
239.325	113.56
239.559	109.56
239.793	133.56
240.027	133.56
240.26	153.56
240.494	163.56
240.728	159.56
240.961	174.56
241.195	138.56
241.429	151.56
241.662	149.56
241.896	151.56
242.13	155.56
242.363	155.56
242.597	134.56
242.83	146.56
243.064	155.56
243.298	143.56
243.531	154.56
243.765	142.56
243.998	140.56
244.232	160.56
244.465	144.56
244.699	153.56
244.932	177.56
245.166	144.56
245.399	129.56
245.633	133.56
245.866	158.56
246.099	135.56
246.333	153.56
246.566	165.56
246.8	154.56
247.033	161.56
247.266	171.56
247.5	177.56
247.733	167.56
247.966	181.56
248.2	175.56
248.433	172.56
248.666	171.56
248.899	179.56
249.133	217.56
249.366	194.56
249.599	190.56
249.832	194.56
250.066	173.56
250.299	171.56
250.532	186.56
250.765	190.56
250.998	223.56
251.231	217.56
251.465	195.56
251.698	209.56
251.931	195.56
252.164	185.56
252.397	191.56
252.63	206.56
252.863	202.56
253.096	220.56
253.329	227.56
253.562	211.56
253.795	205.56
254.028	227.56
254.261	225.56
254.494	220.56
254.727	254.56
254.96	297.56
255.193	247.56
255.426	257.56
255.659	227.56
255.892	223.56
256.124	240.56
256.357	249.56
256.59	213.56
256.823	212.56
257.056	220.56
257.289	198.56
257.521	207.56
257.754	223.56
257.987	220.56
258.22	223.56
258.452	220.56
258.685	214.56
258.918	218.56
259.151	227.56
259.383	222.56
259.616	214.56
259.849	226.56
260.081	260.56
260.314	233.56
260.547	248.56
260.779	249.56
261.012	228.56
261.244	246.56
261.477	221.56
261.71	219.56
261.942	223.56
262.175	228.56
262.407	230.56
262.64	214.56
262.872	209.56
263.105	222.56
263.337	212.56
263.57	211.56
263.802	217.56
264.035	206.56
264.267	215.56
264.499	227.56
264.732	225.56
264.964	212.56
265.197	226.56
265.429	212.56
265.661	239.56
265.894	230.56
266.126	229.56
266.358	233.56
266.591	214.56
266.823	203.56
267.055	221.56
267.287	230.56
267.52	238.56
267.752	223.56
267.984	234.56
268.216	237.56
268.448	251.56
268.681	238.56
268.913	259.56
269.145	255.56
269.377	281.56
269.609	269.56
269.841	287.56
270.073	265.56
270.306	297.56
270.538	311.56
270.77	321.56
271.002	288.56
271.234	289.56
271.466	317.56
271.698	317.56
271.93	312.56
272.162	315.56
272.394	304.56
272.626	299.56
272.858	290.56
273.09	279.56
273.322	289.56
273.553	285.56
273.785	271.56
274.017	268.56
274.249	263.56
274.481	275.56
274.713	280.56
274.945	291.56
275.176	279.56
275.408	277.56
275.64	277.56
275.872	273.56
276.104	280.56
276.335	259.56
276.567	283.56
276.799	285.56
277.031	291.56
277.262	313.56
277.494	323.56
277.726	323.56
277.957	303.56
278.189	290.56
278.421	270.56
278.652	293.56
278.884	287.56
279.115	271.56
279.347	292.56
279.579	280.56
279.81	273.56
280.042	270.56
280.273	279.56
280.505	289.56
280.736	284.56
280.968	271.56
281.199	267.56
281.431	296.56
281.662	300.56
281.894	288.56
282.125	293.56
282.356	307.56
282.588	309.56
282.819	304.56
283.051	290.56
283.282	287.56
283.513	279.56
283.745	301.56
283.976	302.56
284.207	290.56
284.439	296.56
284.67	289.56
284.901	286.56
285.132	294.56
285.364	278.56
285.595	296.56
285.826	287.56
286.057	315.56
286.288	296.56
286.52	303.56
286.751	303.56
286.982	291.56
287.213	312.56
287.444	308.56
287.675	288.56
287.906	321.56
288.138	308.56
288.369	323.56
288.6	309.56
288.831	311.56
289.062	328.56
289.293	303.56
289.524	311.56
289.755	306.56
289.986	300.56
290.217	301.56
290.448	302.56
290.679	303.56
290.91	310.56
291.141	303.56
291.371	313.56
291.602	311.56
291.833	301.56
292.064	298.56
292.295	307.56
292.526	305.56
292.757	320.56
292.987	296.56
293.218	335.56
293.449	309.56
293.68	293.56
293.91	301.56
294.141	303.56
294.372	327.56
294.603	300.56
294.833	309.56
295.064	329.56
295.295	303.56
295.525	322.56
295.756	325.56
295.987	329.56
296.217	320.56
296.448	339.56
296.679	324.56
296.909	304.56
297.14	310.56
297.37	304.56
297.601	336.56
297.831	313.56
298.062	315.56
298.292	314.56
298.523	333.56
298.753	327.56
298.984	327.56
299.214	333.56
299.445	320.56
299.675	333.56
299.905	321.56
300.136	334.56
300.366	337.56
300.597	334.56
300.827	334.56
301.057	328.56
301.288	352.56
301.518	347.56
301.748	335.56
301.979	347.56
302.209	336.56
302.439	359.56
302.669	346.56
302.9	348.56
303.13	347.56
303.36	350.56
303.59	327.56
303.82	343.56
304.051	357.56
304.281	348.56
304.511	343.56
304.741	344.56
304.971	335.56
305.201	342.56
305.431	345.56
305.661	332.56
305.891	350.56
306.121	360.56
306.352	338.56
306.582	341.56
306.812	361.56
307.042	347.56
307.272	358.56
307.502	349.56
307.731	344.56
307.961	343.56
308.191	347.56
308.421	353.56
308.651	363.56
308.881	371.56
309.111	355.56
309.341	354.56
309.571	364.56
309.8	366.56
310.03	352.56
310.26	367.56
310.49	371.56
310.72	376.56
310.949	401.56
311.179	400.56
311.409	372.56
311.639	363.56
311.868	365.56
312.098	379.56
312.328	389.56
312.557	390.56
312.787	402.56
313.017	404.56
313.246	395.56
313.476	388.56
313.706	391.56
313.935	397.56
314.165	403.56
314.394	409.56
314.624	423.56
314.853	404.56
315.083	378.56
315.312	390.56
315.542	387.56
315.771	389.56
316.001	371.56
316.23	393.56
316.46	381.56
316.689	381.56
316.919	390.56
317.148	394.56
317.377	397.56
317.607	394.56
317.836	389.56
318.065	390.56
318.295	382.56
318.524	372.56
318.753	397.56
318.983	379.56
319.212	383.56
319.441	398.56
319.67	385.56
319.9	382.56
320.129	376.56
320.358	396.56
320.587	394.56
320.816	393.56
321.046	400.56
321.275	395.56
321.504	405.56
321.733	400.56
321.962	409.56
322.191	413.56
322.42	395.56
322.649	410.56
322.878	447.56
323.108	448.56
323.337	448.56
323.566	489.56
323.795	494.56
324.024	508.56
324.253	602.56
324.482	819.56
324.71	1241.56
324.939	1766.56
325.168	1581.56
325.397	827.56
325.626	591.56
325.855	505.56
326.084	492.56
326.313	477.56
326.542	465.56
326.77	520.56
326.999	592.56
327.228	732.56
327.457	1150.56
327.686	1379.56
327.914	949.56
328.143	633.56
328.372	565.56
328.6	538.56
328.829	522.56
329.058	527.56
329.287	523.56
329.515	506.56
329.744	502.56
329.972	501.56
330.201	514.56
330.43	523.56
330.658	541.56
330.887	572.56
331.115	553.56
331.344	495.56
331.572	483.56
331.801	478.56
332.03	476.56
332.258	463.56
332.486	464.56
332.715	444.56
332.943	474.56
333.172	483.56
333.4	484.56
333.629	476.56
333.857	485.56
334.085	503.56
334.314	505.56
334.542	520.56
334.771	548.56
334.999	527.56
335.227	496.56
335.455	486.56
335.684	472.56
335.912	465.56
336.14	473.56
336.369	465.56
336.597	460.56
336.825	499.56
337.053	482.56
337.281	463.56
337.51	447.56
337.738	455.56
337.966	450.56
338.194	477.56
338.422	450.56
338.65	454.56
338.878	468.56
339.106	441.56
339.334	447.56
339.562	457.56
339.79	433.56
340.018	439.56
340.246	421.56
340.474	422.56
340.702	441.56
340.93	432.56
341.158	448.56
341.386	445.56
341.614	453.56
341.842	439.56
342.07	441.56
342.298	453.56
342.526	423.56
342.754	416.56
342.981	444.56
343.209	441.56
343.437	448.56
343.665	456.56
343.893	452.56
344.12	469.56
344.348	444.56
344.576	452.56
344.804	449.56
345.031	454.56
345.259	476.56
345.487	445.56
345.714	450.56
345.942	443.56
346.17	440.56
346.397	448.56
346.625	439.56
346.853	425.56
347.08	413.56
347.308	410.56
347.535	427.56
347.763	429.56
347.99	424.56
348.218	414.56
348.445	437.56
348.673	438.56
348.9	405.56
349.128	430.56
349.355	407.56
349.583	399.56
349.81	421.56
350.037	413.56
350.265	421.56
350.492	413.56
350.72	407.56
350.947	423.56
351.174	430.56
351.402	417.56
351.629	405.56
351.856	420.56
352.083	430.56
352.311	432.56
352.538	434.56
352.765	435.56
352.992	440.56
353.22	415.56
353.447	429.56
353.674	417.56
353.901	413.56
354.128	402.56
354.355	403.56
354.583	379.56
354.81	412.56
355.037	398.56
355.264	391.56
355.491	406.56
355.718	392.56
355.945	394.56
356.172	395.56
356.399	423.56
356.626	407.56
356.853	390.56
357.08	401.56
357.307	399.56
357.534	387.56
357.761	384.56
357.988	406.56
358.215	393.56
358.441	390.56
358.668	423.56
358.895	399.56
359.122	404.56
359.349	401.56
359.576	425.56
359.802	446.56
360.029	464.56
360.256	474.56
360.483	437.56
360.709	435.56
360.936	414.56
361.163	393.56
361.39	414.56
361.616	403.56
361.843	437.56
362.07	440.56
362.296	417.56
362.523	411.56
362.749	424.56
362.976	413.56
363.203	397.56
363.429	406.56
363.656	410.56
363.882	400.56
364.109	413.56
364.335	413.56
364.562	401.56
364.788	412.56
365.015	406.56
365.241	392.56
365.468	410.56
365.694	415.56
365.92	430.56
366.147	408.56
366.373	400.56
366.599	406.56
366.826	406.56
367.052	424.56
367.278	392.56
367.505	400.56
367.731	402.56
367.957	393.56
368.184	412.56
368.41	405.56
368.636	425.56
368.862	414.56
369.089	415.56
369.315	430.56
369.541	423.56
369.767	414.56
369.993	400.56
370.219	409.56
370.445	417.56
370.672	411.56
370.898	416.56
371.124	404.56
371.35	429.56
371.576	414.56
371.802	419.56
372.028	400.56
372.254	407.56
372.48	412.56
372.706	407.56
372.932	424.56
373.158	421.56
373.384	437.56
373.61	440.56
373.835	425.56
374.061	414.56
374.287	417.56
374.513	427.56
374.739	427.56
374.965	409.56
375.191	437.56
375.416	421.56
375.642	435.56
375.868	420.56
376.094	441.56
376.319	437.56
376.545	401.56
376.771	389.56
376.997	415.56
377.222	416.56
377.448	407.56
377.674	411.56
377.899	391.56
378.125	396.56
378.35	406.56
378.576	410.56
378.802	402.56
379.027	435.56
379.253	396.56
379.478	417.56
379.704	407.56
379.929	396.56
380.155	406.56
380.38	409.56
380.606	428.56
380.831	424.56
381.057	423.56
381.282	406.56
381.507	432.56
381.733	426.56
381.958	432.56
382.184	416.56
382.409	424.56
382.634	440.56
382.86	407.56
383.085	435.56
383.31	444.56
383.535	436.56
383.761	433.56
383.986	455.56
384.211	407.56
384.436	442.56
384.662	428.56
384.887	465.56
385.112	460.56
385.337	457.56
385.562	467.56
385.787	469.56
386.013	472.56
386.238	470.56
386.463	482.56
386.688	479.56
386.913	463.56
387.138	458.56
387.363	453.56
387.588	485.56
387.813	485.56
388.038	459.56
388.263	447.56
388.488	459.56
388.713	456.56
388.938	465.56
389.163	465.56
389.387	452.56
389.612	449.56
389.837	448.56
390.062	441.56
390.287	453.56
390.512	458.56
390.736	463.56
390.961	440.56
391.186	459.56
391.411	484.56
391.636	476.56
391.86	493.56
392.085	489.56
392.31	478.56
392.534	468.56
392.759	477.56
392.984	471.56
393.208	471.56
393.433	491.56
393.658	465.56
393.882	471.56
394.107	462.56
394.331	470.56
394.556	457.56
394.78	466.56
395.005	483.56
395.229	475.56
395.454	496.56
395.678	484.56
395.903	494.56
396.127	494.56
396.352	509.56
396.576	485.56
396.801	475.56
397.025	461.56
397.249	486.56
397.474	499.56
397.698	479.56
397.922	507.56
398.147	519.56
398.371	547.56
398.595	519.56
398.82	529.56
399.044	543.56
399.268	587.56
399.492	608.56
399.717	648.56
399.941	676.56
400.165	693.56
400.389	678.56
400.613	611.56
400.837	588.56
401.062	557.56
401.286	551.56
401.51	540.56
401.734	543.56
401.958	530.56
402.182	540.56
402.406	556.56
402.63	555.56
402.854	549.56
403.078	555.56
403.302	573.56
403.526	568.56
403.75	576.56
403.974	587.56
404.198	569.56
404.422	548.56
404.645	566.56
404.869	603.56
405.093	599.56
405.317	638.56
405.541	684.56
405.765	623.56
405.988	583.56
406.212	595.56
406.436	592.56
406.66	603.56
406.883	600.56
407.107	637.56
407.331	659.56
407.555	734.56
407.778	722.56
408.002	656.56
408.226	640.56
408.449	605.56
408.673	608.56
408.896	605.56
409.12	668.56
409.344	656.56
409.567	590.56
409.791	571.56
410.014	567.56
410.238	561.56
410.461	554.56
410.685	559.56
410.908	581.56
411.132	611.56
411.355	657.56
411.578	600.56
411.802	550.56
412.025	529.56
412.249	553.56
412.472	575.56
412.695	599.56
412.919	604.56
413.142	574.56
413.365	550.56
413.589	539.56
413.812	543.56
414.035	525.56
414.258	534.56
414.482	529.56
414.705	513.56
414.928	536.56
415.151	524.56
415.374	511.56
415.597	530.56
415.821	518.56
416.044	524.56
416.267	528.56
416.49	497.56
416.713	503.56
416.936	525.56
417.159	531.56
417.382	535.56
417.605	519.56
417.828	547.56
418.051	539.56
418.274	535.56
418.497	537.56
418.72	530.56
418.943	534.56
419.166	542.56
419.389	582.56
419.611	587.56
419.834	528.56
420.057	584.56
420.28	550.56
420.503	546.56
420.726	557.56
420.948	577.56
421.171	597.56
421.394	597.56
421.617	568.56
421.839	563.56
422.062	539.56
422.285	556.56
422.507	619.56
422.73	722.56
422.953	647.56
423.175	591.56
423.398	569.56
423.621	567.56
423.843	572.56
424.066	584.56
424.288	591.56
424.511	616.56
424.733	651.56
424.956	732.56
425.178	693.56
425.401	723.56
425.623	702.56
425.846	620.56
426.068	559.56
426.291	561.56
426.513	591.56
426.735	569.56
426.958	632.56
427.18	687.56
427.402	801.56
427.625	866.56
427.847	742.56
428.069	633.56
428.292	599.56
428.514	529.56
428.736	525.56
428.958	508.56
429.181	523.56
429.403	528.56
429.625	537.56
429.847	568.56
430.069	631.56
430.292	627.56
430.514	552.56
430.736	525.56
430.958	495.56
431.18	527.56
431.402	519.56
431.624	500.56
431.846	503.56
432.068	505.56
432.29	507.56
432.512	519.56
432.734	504.56
432.956	515.56
433.178	530.56
433.4	506.56
433.622	525.56
433.844	514.56
434.066	512.56
434.287	511.56
434.509	512.56
434.731	546.56
434.953	531.56
435.175	549.56
435.397	568.56
435.618	567.56
435.84	609.56
436.062	689.56
436.284	757.56
436.505	639.56
436.727	544.56
436.949	521.56
437.17	547.56
437.392	544.56
437.614	524.56
437.835	558.56
438.057	636.56
438.278	732.56
438.5	746.56
438.721	838.56
438.943	794.56
439.165	651.56
439.386	587.56
439.608	580.56
439.829	552.56
440.05	591.56
440.272	647.56
440.493	600.56
440.715	543.56
440.936	529.56
441.158	532.56
441.379	544.56
441.6	541.56
441.822	572.56
442.043	625.56
442.264	682.56
442.486	734.56
442.707	624.56
442.928	581.56
443.149	591.56
443.371	626.56
443.592	655.56
443.813	730.56
444.034	804.56
444.255	679.56
444.476	633.56
444.698	606.56
444.919	585.56
445.14	690.56
445.361	643.56
445.582	608.56
445.803	659.56
446.024	744.56
446.245	762.56
446.466	710.56
446.687	620.56
446.908	567.56
447.129	543.56
447.35	556.56
447.571	524.56
447.792	524.56
448.013	541.56
448.234	542.56
448.455	581.56
448.675	684.56
448.896	815.56
449.117	695.56
449.338	642.56
449.559	742.56
449.779	830.56
450	664.56
450.221	558.56
450.442	555.56
450.662	503.56
450.883	515.56
451.104	529.56
451.324	492.56
451.545	498.56
451.766	485.56
451.986	467.56
452.207	444.56
452.428	475.56
452.648	467.56
452.869	476.56
453.089	486.56
453.31	484.56
453.53	477.56
453.751	469.56
453.971	488.56
454.192	469.56
454.412	473.56
454.633	464.56
454.853	442.56
455.073	468.56
455.294	488.56
455.514	554.56
455.734	537.56
455.955	480.56
456.175	460.56
456.395	443.56
456.616	451.56
456.836	443.56
457.056	458.56
457.276	425.56
457.497	447.56
457.717	448.56
457.937	444.56
458.157	471.56
458.377	451.56
458.598	477.56
458.818	521.56
459.038	597.56
459.258	605.56
459.478	532.56
459.698	513.56
459.918	511.56
460.138	520.56
460.358	511.56
460.578	527.56
460.798	529.56
461.018	516.56
461.238	521.56
461.458	520.56
461.678	523.56
461.898	518.56
462.118	527.56
462.338	539.56
462.558	567.56
462.777	536.56
462.997	585.56
463.217	575.56
463.437	605.56
463.657	598.56
463.876	586.56
464.096	580.56
464.316	559.56
464.536	599.56
464.755	582.56
464.975	569.56
465.195	601.56
465.414	620.56
465.634	553.56
465.854	528.56
466.073	518.56
466.293	503.56
466.512	491.56
466.732	491.56
466.951	477.56
467.171	496.56
467.391	490.56
467.61	496.56
467.829	491.56
468.049	485.56
468.268	476.56
468.488	475.56
468.707	473.56
468.927	462.56
469.146	471.56
469.365	453.56
469.585	464.56
469.804	462.56
470.023	479.56
470.243	478.56
470.462	505.56
470.681	506.56
470.901	491.56
471.12	477.56
471.339	503.56
471.558	495.56
471.777	515.56
471.997	494.56
472.216	479.56
472.435	502.56
472.654	487.56
472.873	505.56
473.092	487.56
473.311	496.56
473.53	470.56
473.749	486.56
473.968	492.56
474.187	608.56
474.406	640.56
474.625	529.56
474.844	509.56
475.063	507.56
475.282	520.56
475.501	477.56
475.72	490.56
475.939	482.56
476.158	501.56
476.377	504.56
476.596	471.56
476.814	509.56
477.033	517.56
477.252	521.56
477.471	507.56
477.69	548.56
477.908	533.56
478.127	540.56
478.346	556.56
478.564	547.56
478.783	560.56
479.002	580.56
479.22	571.56
479.439	584.56
479.658	602.56
479.876	585.56
480.095	589.56
480.313	615.56
480.532	597.56
480.751	620.56
480.969	619.56
481.188	644.56
481.406	658.56
481.624	627.56
481.843	581.56
482.061	571.56
482.28	553.56
482.498	578.56
482.717	562.56
482.935	579.56
483.153	553.56
483.372	592.56
483.59	555.56
483.808	571.56
484.027	554.56
484.245	566.56
484.463	576.56
484.681	565.56
484.9	584.56
485.118	583.56
485.336	596.56
485.554	592.56
485.772	583.56
485.99	571.56
486.209	593.56
486.427	580.56
486.645	591.56
486.863	601.56
487.081	608.56
487.299	572.56
487.517	617.56
487.735	616.56
487.953	607.56
488.171	622.56
488.389	602.56
488.607	626.56
488.825	613.56
489.043	612.56
489.261	608.56
489.479	608.56
489.696	613.56
489.914	588.56
490.132	629.56
490.35	635.56
490.568	652.56
490.786	648.56
491.003	664.56
491.221	665.56
491.439	655.56
491.657	679.56
491.874	702.56
492.092	710.56
492.31	704.56
492.527	704.56
492.745	669.56
492.963	714.56
493.18	713.56
493.398	720.56
493.615	727.56
493.833	717.56
494.05	729.56
494.268	684.56
494.485	719.56
494.703	707.56
494.92	706.56
495.138	716.56
495.355	709.56
495.573	712.56
495.79	688.56
496.008	720.56
496.225	715.56
496.442	705.56
496.66	740.56
496.877	715.56
497.094	733.56
497.312	733.56
497.529	722.56
497.746	761.56
497.963	756.56
498.181	759.56
498.398	798.56
498.615	797.56
498.832	843.56
499.049	846.56
499.267	893.56
499.484	931.56
499.701	974.56
499.918	983.56
500.135	1070.56
500.352	1125.56
500.569	1132.56
500.786	1146.56
501.003	1139.56
501.22	1065.56
501.437	1046.56
501.654	999.56
501.871	962.56
502.088	907.56
502.305	872.56
502.522	845.56
502.739	821.56
502.956	804.56
503.172	783.56
503.389	796.56
503.606	740.56
503.823	770.56
504.04	739.56
504.256	745.56
504.473	721.56
504.69	741.56
504.907	750.56
505.123	740.56
505.34	682.56
505.557	686.56
505.773	681.56
505.99	705.56
506.207	664.56
506.423	678.56
506.64	691.56
506.856	647.56
507.073	661.56
507.289	639.56
507.506	632.56
507.722	680.56
507.939	654.56
508.155	639.56
508.372	639.56
508.588	636.56
508.805	622.56
509.021	661.56
509.238	638.56
509.454	663.56
509.67	634.56
509.887	637.56
510.103	638.56
510.319	637.56
510.536	697.56
510.752	1016.56
510.968	846.56
511.184	617.56
511.401	624.56
511.617	601.56
511.833	596.56
512.049	600.56
512.265	603.56
512.481	589.56
512.698	580.56
512.914	578.56
513.13	600.56
513.346	596.56
513.562	598.56
513.778	586.56
513.994	600.56
514.21	584.56
514.426	624.56
514.642	628.56
514.858	665.56
515.074	665.56
515.29	766.56
515.506	1022.56
515.721	872.56
515.937	684.56
516.153	675.56
516.369	656.56
516.585	616.56
516.801	624.56
517.016	640.56
517.232	627.56
517.448	646.56
517.664	642.56
517.879	625.56
518.095	658.56
518.311	651.56
518.527	631.56
518.742	616.56
518.958	606.56
519.173	612.56
519.389	620.56
519.605	585.56
519.82	589.56
520.036	621.56
520.251	636.56
520.467	631.56
520.682	649.56
520.898	647.56
521.113	622.56
521.329	645.56
521.544	703.56
521.76	841.56
521.975	1245.56
522.19	1230.56
522.406	804.56
522.621	629.56
522.836	584.56
523.052	569.56
523.267	544.56
523.482	541.56
523.698	558.56
523.913	543.56
524.128	560.56
524.343	532.56
524.559	518.56
524.774	528.56
524.989	523.56
525.204	529.56
525.419	545.56
525.634	510.56
525.849	523.56
526.064	521.56
526.28	525.56
526.495	485.56
526.71	512.56
526.925	497.56
527.14	496.56
527.355	494.56
527.57	493.56
527.785	515.56
527.999	484.56
528.214	480.56
528.429	474.56
528.644	497.56
528.859	503.56
529.074	491.56
529.289	511.56
529.503	561.56
529.718	539.56
529.933	517.56
530.148	495.56
530.363	501.56
530.577	496.56
530.792	483.56
531.007	463.56
531.221	473.56
531.436	486.56
531.651	479.56
531.865	499.56
532.08	485.56
532.295	497.56
532.509	489.56
532.724	489.56
532.938	484.56
533.153	493.56
533.367	487.56
533.582	473.56
533.796	487.56
534.011	472.56
534.225	492.56
534.44	471.56
534.654	483.56
534.868	488.56
535.083	494.56
535.297	471.56
535.511	485.56
535.726	511.56
535.94	469.56
536.154	471.56
536.369	480.56
536.583	476.56
536.797	462.56
537.011	461.56
537.225	459.56
537.44	483.56
537.654	466.56
537.868	442.56
538.082	450.56
538.296	452.56
538.51	463.56
538.724	474.56
538.938	443.56
539.153	485.56
539.367	469.56
539.581	478.56
539.795	459.56
540.009	447.56
540.222	452.56
540.436	457.56
540.65	462.56
540.864	472.56
541.078	462.56
541.292	476.56
541.506	487.56
541.72	455.56
541.934	474.56
542.147	463.56
542.361	471.56
542.575	460.56
542.789	455.56
543.002	449.56
543.216	471.56
543.43	464.56
543.644	455.56
543.857	426.56
544.071	455.56
544.285	446.56
544.498	469.56
544.712	472.56
544.925	451.56
545.139	472.56
545.352	463.56
545.566	442.56
545.779	460.56
545.993	451.56
546.206	467.56
546.42	448.56
546.633	471.56
546.847	453.56
547.06	466.56
547.274	445.56
547.487	441.56
547.7	451.56
547.914	448.56
548.127	454.56
548.34	441.56
548.554	439.56
548.767	459.56
548.98	458.56
549.193	460.56
549.407	438.56
549.62	461.56
549.833	437.56
550.046	443.56
550.259	451.56
550.473	448.56
550.686	447.56
550.899	453.56
551.112	439.56
551.325	440.56
551.538	451.56
551.751	443.56
551.964	450.56
552.177	444.56
552.39	443.56
552.603	473.56
552.816	470.56
553.029	456.56
553.242	466.56
553.455	455.56
553.667	458.56
553.88	469.56
554.093	467.56
554.306	479.56
554.519	467.56
554.732	430.56
554.944	441.56
555.157	439.56
555.37	424.56
555.583	417.56
555.795	419.56
556.008	449.56
556.221	424.56
556.433	434.56
556.646	420.56
556.859	405.56
557.071	409.56
557.284	404.56
557.496	413.56
557.709	412.56
557.921	383.56
558.134	399.56
558.346	399.56
558.559	415.56
558.771	396.56
558.984	391.56
559.196	381.56
559.409	381.56
559.621	401.56
559.833	397.56
560.046	390.56
560.258	389.56
560.47	389.56
560.683	421.56
560.895	399.56
561.107	389.56
561.32	404.56
561.532	382.56
561.744	406.56
561.956	406.56
562.168	377.56
562.381	403.56
562.593	395.56
562.805	404.56
563.017	403.56
563.229	399.56
563.441	411.56
563.653	401.56
563.865	395.56
564.077	387.56
564.289	412.56
564.501	401.56
564.713	401.56
564.925	429.56
565.137	416.56
565.349	429.56
565.561	427.56
565.773	428.56
565.985	462.56
566.197	464.56
566.408	502.56
566.62	507.56
566.832	517.56
567.044	547.56
567.255	545.56
567.467	535.56
567.679	523.56
567.891	567.56
568.102	543.56
568.314	542.56
568.526	518.56
568.737	484.56
568.949	478.56
569.161	462.56
569.372	436.56
569.584	431.56
569.795	406.56
570.007	425.56
570.218	443.56
570.43	442.56
570.641	414.56
570.853	393.56
571.064	405.56
571.276	391.56
571.487	392.56
571.698	392.56
571.91	394.56
572.121	378.56
572.333	380.56
572.544	364.56
572.755	369.56
572.966	350.56
573.178	341.56
573.389	347.56
573.6	360.56
573.811	368.56
574.023	355.56
574.234	354.56
574.445	334.56
574.656	360.56
574.867	346.56
575.078	344.56
575.289	359.56
575.501	345.56
575.712	332.56
575.923	327.56
576.134	334.56
576.345	339.56
576.556	343.56
576.767	345.56
576.978	344.56
577.188	332.56
577.399	313.56
577.61	339.56
577.821	326.56
578.032	339.56
578.243	352.56
578.454	464.56
578.665	397.56
578.875	340.56
579.086	336.56
579.297	345.56
579.508	329.56
579.718	330.56
579.929	329.56
580.14	307.56
580.35	323.56
580.561	321.56
580.772	310.56
580.982	312.56
581.193	333.56
581.403	317.56
581.614	323.56
581.825	308.56
582.035	312.56
582.246	300.56
582.456	307.56
582.667	317.56
582.877	323.56
583.087	315.56
583.298	309.56
583.508	307.56
583.719	312.56
583.929	325.56
584.139	307.56
584.35	308.56
584.56	308.56
584.77	296.56
584.981	310.56
585.191	292.56
585.401	314.56
585.611	283.56
585.821	299.56
586.032	310.56
586.242	299.56
586.452	316.56
586.662	310.56
586.872	301.56
587.082	309.56
587.292	287.56
587.502	311.56
587.713	300.56
587.923	320.56
588.133	297.56
588.343	303.56
588.553	305.56
588.762	290.56
588.972	314.56
589.182	291.56
589.392	304.56
589.602	309.56
589.812	302.56
590.022	307.56
590.232	311.56
590.441	302.56
590.651	313.56
590.861	289.56
591.071	293.56
591.281	301.56
591.49	309.56
591.7	303.56
591.91	294.56
592.119	316.56
592.329	331.56
592.539	327.56
592.748	345.56
592.958	316.56
593.167	335.56
593.377	322.56
593.587	346.56
593.796	352.56
594.006	352.56
594.215	345.56
594.424	340.56
594.634	334.56
594.843	319.56
595.053	326.56
595.262	308.56
595.472	320.56
595.681	309.56
595.89	288.56
596.1	281.56
596.309	312.56
596.518	289.56
596.727	284.56
596.937	298.56
597.146	305.56
597.355	291.56
597.564	296.56
597.774	270.56
597.983	272.56
598.192	302.56
598.401	264.56
598.61	300.56
598.819	267.56
599.028	268.56
599.237	284.56
599.446	269.56
599.655	263.56
599.864	261.56
600.073	269.56
600.282	273.56
600.491	269.56
600.7	277.56
600.909	262.56
601.118	269.56
601.327	262.56
601.536	278.56
601.745	259.56
601.953	263.56
602.162	276.56
602.371	265.56
602.58	252.56
602.789	270.56
602.997	260.56
603.206	280.56
603.415	264.56
603.623	256.56
603.832	269.56
604.041	273.56
604.249	251.56
604.458	249.56
604.666	264.56
604.875	255.56
605.084	239.56
605.292	256.56
605.501	245.56
605.709	256.56
605.918	263.56
606.126	262.56
606.334	251.56
606.543	255.56
606.751	252.56
606.96	239.56
607.168	259.56
607.376	244.56
607.585	257.56
607.793	268.56
608.001	266.56
608.21	257.56
608.418	243.56
608.626	271.56
608.834	273.56
609.043	243.56
609.251	236.56
609.459	253.56
609.667	256.56
609.875	239.56
610.083	252.56
610.291	260.56
610.499	253.56
610.707	250.56
610.916	253.56
611.124	245.56
611.332	251.56
611.54	250.56
611.748	250.56
611.955	247.56
612.163	236.56
612.371	233.56
612.579	246.56
612.787	242.56
612.995	248.56
613.203	244.56
613.411	237.56
613.618	247.56
613.826	223.56
614.034	253.56
614.242	245.56
614.449	247.56
614.657	259.56
614.865	245.56
615.072	223.56
615.28	260.56
615.488	233.56
615.695	241.56
615.903	248.56
616.111	219.56
616.318	243.56
616.526	240.56
616.733	241.56
616.941	239.56
617.148	249.56
617.356	243.56
617.563	243.56
617.771	243.56
617.978	236.56
618.185	226.56
618.393	258.56
618.6	248.56
618.807	237.56
619.015	240.56
619.222	232.56
619.429	232.56
619.637	224.56
619.844	245.56
620.051	237.56
620.258	236.56
620.466	228.56
620.673	229.56
620.88	231.56
621.087	208.56
621.294	220.56
621.501	228.56
621.708	241.56
621.915	237.56
622.122	229.56
622.329	227.56
622.536	238.56
622.743	232.56
622.95	223.56
623.157	217.56
623.364	228.56
623.571	225.56
623.778	209.56
623.985	234.56
624.192	214.56
624.399	202.56
624.606	217.56
624.812	213.56
625.019	215.56
625.226	220.56
625.433	222.56
625.639	221.56
625.846	224.56
626.053	208.56
626.259	232.56
626.466	223.56
626.673	223.56
626.879	211.56
627.086	207.56
627.293	217.56
627.499	217.56
627.706	223.56
627.912	217.56
628.119	209.56
628.325	209.56
628.532	220.56
628.738	211.56
628.945	213.56
629.151	204.56
629.357	200.56
629.564	192.56
629.77	202.56
629.976	201.56
630.183	206.56
630.389	213.56
630.595	209.56
630.802	205.56
631.008	206.56
631.214	199.56
631.42	196.56
631.627	205.56
631.833	186.56
632.039	211.56
632.245	190.56
632.451	191.56
632.657	195.56
632.863	200.56
633.069	187.56
633.275	194.56
633.481	185.56
633.688	199.56
633.893	184.56
634.099	187.56
634.305	183.56
634.511	188.56
634.717	198.56
634.923	207.56
635.129	180.56
635.335	177.56
635.541	195.56
635.747	169.56
635.952	184.56
636.158	192.56
636.364	195.56
636.57	203.56
636.775	200.56
636.981	184.56
637.187	199.56
637.392	196.56
637.598	176.56
637.804	186.56
638.009	191.56
638.215	190.56
638.421	207.56
638.626	167.56
638.832	193.56
639.037	189.56
639.243	189.56
639.448	167.56
639.654	187.56
639.859	172.56
640.065	166.56
640.27	190.56
640.475	180.56
640.681	181.56
640.886	167.56
641.091	179.56
641.297	190.56
641.502	183.56
641.707	179.56
641.913	173.56
642.118	172.56
642.323	181.56
642.528	187.56
642.733	185.56
642.939	171.56
643.144	187.56
643.349	183.56
643.554	179.56
643.759	181.56
643.964	169.56
644.169	153.56
644.374	169.56
644.579	161.56
644.784	171.56
644.989	176.56
645.194	166.56
645.399	154.56
645.604	153.56
645.809	167.56
646.014	172.56
646.219	178.56
646.423	165.56
646.628	168.56
646.833	174.56
647.038	179.56
647.243	180.56
647.447	171.56
647.652	192.56
647.857	171.56
648.062	163.56
648.266	151.56
648.471	161.56
648.676	196.56
648.88	173.56
649.085	184.56
649.289	175.56
649.494	172.56
649.698	174.56
649.903	175.56
650.107	179.56
650.312	175.56
650.516	166.56
650.721	159.56
650.925	171.56
651.13	155.56
651.334	157.56
651.539	171.56
651.743	175.56
651.947	150.56
652.152	158.56
652.356	148.56
652.56	144.56
652.764	149.56
652.969	146.56
653.173	145.56
653.377	143.56
653.581	135.56
653.785	132.56
653.99	141.56
654.194	148.56
654.398	151.56
654.602	150.56
654.806	154.56
655.01	137.56
655.214	126.56
655.418	127.56
655.622	137.56
655.826	146.56
656.03	140.56
656.234	138.56
656.438	139.56
656.642	166.56
656.846	128.56
657.049	127.56
657.253	123.56
657.457	131.56
657.661	122.56
657.865	131.56
658.068	109.56
658.272	113.56
658.476	105.56
658.68	123.56
658.883	123.56
659.087	121.56
659.291	102.56
659.494	106.56
659.698	103.56
659.901	105.56
660.105	107.56
660.309	99.56
660.512	86.56
660.716	100.56
660.919	97.56
661.123	93.56
661.326	104.56
661.53	105.56
661.733	88.56
661.936	99.56
662.14	91.56
662.343	80.56
662.546	98.56
662.75	73.56
662.953	86.56
663.156	83.56
663.36	109.56
663.563	99.56
663.766	101.56
663.969	79.56
664.173	79.56
664.376	95.56
664.579	72.56
664.782	90.56
664.985	86.56
665.188	81.56
665.391	83.56
665.594	92.56
665.797	93.56
666	101.56
666.203	86.56
666.406	65.56
666.609	85.56
666.812	78.56
667.015	64.56
667.218	94.56
667.421	87.56
667.624	88.56
667.827	76.56
668.03	88.56
668.232	88.56
668.435	76.56
668.638	79.56
668.841	75.56
669.043	88.56
669.246	90.56
669.449	91.56
669.651	91.56
669.854	75.56
670.057	81.56
670.259	91.56
670.462	91.56
670.665	85.56
670.867	94.56
671.07	79.56
671.272	99.56
671.475	83.56
671.677	77.56
671.88	96.56
672.082	68.56
672.284	76.56
672.487	88.56
672.689	65.56
672.892	78.56
