Data from 1976.PennyLincolnUp.Lamp.En5.5.200Scan.071719.P1.Changed Mount._HRD10591_16-00-44-860.txt Node
Date: Thu Jul 18 16:00:44 EDT 2019
User: cochatt
Spectrometer: HR+D1059
Trigger mode: 1
Integration Time (sec): 1.000000E-1
Scans to average: 1
Electric dark correction enabled: true
Nonlinearity correction enabled: false
Boxcar width: 0
XAxis mode: Wavelengths
Number of Pixels in Spectrum: 2048
>>>>>Begin Spectral Data<<<<<
223.165	-29.5
223.4	-29.5
223.635	-29.5
223.869	-16.5
224.104	-6.5
224.338	-1.5
224.573	-15.5
224.808	-13.5
225.042	-4.5
225.277	-15.5
225.511	1.5
225.746	-7.5
225.98	9.5
226.215	-1.5
226.449	12.5
226.683	25.5
226.918	32.5
227.152	30.5
227.387	34.5
227.621	39.5
227.856	40.5
228.09	30.5
228.324	53.5
228.559	58.5
228.793	64.5
229.027	94.5
229.262	99.5
229.496	105.5
229.73	133.5
229.964	141.5
230.199	114.5
230.433	112.5
230.667	106.5
230.901	118.5
231.136	118.5
231.37	123.5
231.604	117.5
231.838	127.5
232.072	122.5
232.306	133.5
232.541	110.5
232.775	110.5
233.009	121.5
233.243	124.5
233.477	115.5
233.711	125.5
233.945	120.5
234.179	127.5
234.413	121.5
234.647	123.5
234.881	128.5
235.115	119.5
235.349	117.5
235.583	123.5
235.817	130.5
236.051	108.5
236.285	118.5
236.519	117.5
236.753	116.5
236.987	140.5
237.221	162.5
237.455	216.5
237.689	185.5
237.922	148.5
238.156	133.5
238.39	127.5
238.624	125.5
238.858	117.5
239.091	138.5
239.325	126.5
239.559	117.5
239.793	132.5
240.027	133.5
240.26	139.5
240.494	160.5
240.728	164.5
240.961	155.5
241.195	146.5
241.429	144.5
241.662	130.5
241.896	139.5
242.13	132.5
242.363	138.5
242.597	140.5
242.83	143.5
243.064	142.5
243.298	151.5
243.531	141.5
243.765	150.5
243.998	139.5
244.232	152.5
244.465	140.5
244.699	151.5
244.932	152.5
245.166	145.5
245.399	148.5
245.633	160.5
245.866	152.5
246.099	141.5
246.333	154.5
246.566	158.5
246.8	154.5
247.033	153.5
247.266	166.5
247.5	157.5
247.733	160.5
247.966	178.5
248.2	173.5
248.433	172.5
248.666	177.5
248.899	192.5
249.133	199.5
249.366	221.5
249.599	225.5
249.832	174.5
250.066	183.5
250.299	168.5
250.532	190.5
250.765	198.5
250.998	214.5
251.231	225.5
251.465	212.5
251.698	220.5
251.931	196.5
252.164	204.5
252.397	224.5
252.63	211.5
252.863	221.5
253.096	193.5
253.329	225.5
253.562	237.5
253.795	230.5
254.028	220.5
254.261	220.5
254.494	234.5
254.727	261.5
254.96	288.5
255.193	262.5
255.426	249.5
255.659	224.5
255.892	226.5
256.124	221.5
256.357	242.5
256.59	238.5
256.823	218.5
257.056	212.5
257.289	219.5
257.521	204.5
257.754	228.5
257.987	211.5
258.22	212.5
258.452	210.5
258.685	209.5
258.918	208.5
259.151	219.5
259.383	233.5
259.616	221.5
259.849	231.5
260.081	216.5
260.314	240.5
260.547	249.5
260.779	263.5
261.012	241.5
261.244	219.5
261.477	226.5
261.71	231.5
261.942	219.5
262.175	212.5
262.407	243.5
262.64	237.5
262.872	223.5
263.105	214.5
263.337	215.5
263.57	214.5
263.802	211.5
264.035	211.5
264.267	216.5
264.499	217.5
264.732	214.5
264.964	227.5
265.197	229.5
265.429	224.5
265.661	234.5
265.894	245.5
266.126	234.5
266.358	229.5
266.591	237.5
266.823	231.5
267.055	234.5
267.287	250.5
267.52	229.5
267.752	234.5
267.984	241.5
268.216	247.5
268.448	242.5
268.681	232.5
268.913	255.5
269.145	282.5
269.377	292.5
269.609	271.5
269.841	274.5
270.073	285.5
270.306	292.5
270.538	313.5
270.77	331.5
271.002	308.5
271.234	312.5
271.466	296.5
271.698	312.5
271.93	315.5
272.162	318.5
272.394	323.5
272.626	332.5
272.858	301.5
273.09	286.5
273.322	293.5
273.553	282.5
273.785	286.5
274.017	272.5
274.249	283.5
274.481	278.5
274.713	279.5
274.945	277.5
275.176	269.5
275.408	278.5
275.64	288.5
275.872	272.5
276.104	270.5
276.335	280.5
276.567	300.5
276.799	295.5
277.031	310.5
277.262	337.5
277.494	333.5
277.726	323.5
277.957	307.5
278.189	282.5
278.421	292.5
278.652	292.5
278.884	270.5
279.115	278.5
279.347	278.5
279.579	282.5
279.81	273.5
280.042	290.5
280.273	278.5
280.505	288.5
280.736	284.5
280.968	278.5
281.199	301.5
281.431	280.5
281.662	283.5
281.894	293.5
282.125	278.5
282.356	305.5
282.588	333.5
282.819	321.5
283.051	306.5
283.282	297.5
283.513	296.5
283.745	311.5
283.976	310.5
284.207	308.5
284.439	309.5
284.67	297.5
284.901	297.5
285.132	295.5
285.364	300.5
285.595	281.5
285.826	298.5
286.057	305.5
286.288	312.5
286.52	299.5
286.751	313.5
286.982	304.5
287.213	290.5
287.444	292.5
287.675	297.5
287.906	296.5
288.138	307.5
288.369	340.5
288.6	326.5
288.831	307.5
289.062	320.5
289.293	315.5
289.524	323.5
289.755	324.5
289.986	307.5
290.217	320.5
290.448	330.5
290.679	317.5
290.91	302.5
291.141	323.5
291.371	299.5
291.602	326.5
291.833	305.5
292.064	301.5
292.295	312.5
292.526	328.5
292.757	311.5
292.987	321.5
293.218	317.5
293.449	313.5
293.68	310.5
293.91	297.5
294.141	309.5
294.372	304.5
294.603	317.5
294.833	313.5
295.064	320.5
295.295	319.5
295.525	318.5
295.756	317.5
295.987	337.5
296.217	360.5
296.448	331.5
296.679	323.5
296.909	328.5
297.14	348.5
297.37	316.5
297.601	315.5
297.831	335.5
298.062	317.5
298.292	332.5
298.523	329.5
298.753	336.5
298.984	328.5
299.214	334.5
299.445	323.5
299.675	342.5
299.905	334.5
300.136	342.5
300.366	338.5
300.597	332.5
300.827	344.5
301.057	353.5
301.288	353.5
301.518	343.5
301.748	349.5
301.979	353.5
302.209	348.5
302.439	343.5
302.669	352.5
302.9	342.5
303.13	358.5
303.36	344.5
303.59	340.5
303.82	356.5
304.051	353.5
304.281	354.5
304.511	343.5
304.741	342.5
304.971	365.5
305.201	338.5
305.431	364.5
305.661	340.5
305.891	347.5
306.121	346.5
306.352	348.5
306.582	341.5
306.812	341.5
307.042	361.5
307.272	352.5
307.502	359.5
307.731	354.5
307.961	356.5
308.191	365.5
308.421	352.5
308.651	355.5
308.881	365.5
309.111	371.5
309.341	368.5
309.571	376.5
309.8	365.5
310.03	376.5
310.26	386.5
310.49	388.5
310.72	388.5
310.949	393.5
311.179	403.5
311.409	386.5
311.639	389.5
311.868	386.5
312.098	397.5
312.328	406.5
312.557	400.5
312.787	394.5
313.017	420.5
313.246	408.5
313.476	406.5
313.706	386.5
313.935	388.5
314.165	390.5
314.394	402.5
314.624	396.5
314.853	417.5
315.083	408.5
315.312	398.5
315.542	393.5
315.771	420.5
316.001	394.5
316.23	398.5
316.46	393.5
316.689	396.5
316.919	397.5
317.148	386.5
317.377	396.5
317.607	390.5
317.836	381.5
318.065	398.5
318.295	385.5
318.524	391.5
318.753	388.5
318.983	393.5
319.212	412.5
319.441	412.5
319.67	380.5
319.9	385.5
320.129	389.5
320.358	401.5
320.587	413.5
320.816	411.5
321.046	418.5
321.275	414.5
321.504	405.5
321.733	396.5
321.962	409.5
322.191	432.5
322.42	452.5
322.649	450.5
322.878	476.5
323.108	462.5
323.337	485.5
323.566	487.5
323.795	500.5
324.024	544.5
324.253	634.5
324.482	884.5
324.71	1338.5
324.939	1949.5
325.168	1660.5
325.397	852.5
325.626	600.5
325.855	527.5
326.084	494.5
326.313	527.5
326.542	497.5
326.77	515.5
326.999	587.5
327.228	805.5
327.457	1182.5
327.686	1484.5
327.914	972.5
328.143	650.5
328.372	584.5
328.6	580.5
328.829	540.5
329.058	557.5
329.287	547.5
329.515	528.5
329.744	538.5
329.972	516.5
330.201	534.5
330.43	555.5
330.658	568.5
330.887	585.5
331.115	554.5
331.344	535.5
331.572	497.5
331.801	486.5
332.03	494.5
332.258	476.5
332.486	486.5
332.715	484.5
332.943	491.5
333.172	490.5
333.4	505.5
333.629	478.5
333.857	512.5
334.085	510.5
334.314	530.5
334.542	560.5
334.771	565.5
334.999	528.5
335.227	508.5
335.455	515.5
335.684	512.5
335.912	493.5
336.14	468.5
336.369	485.5
336.597	484.5
336.825	474.5
337.053	484.5
337.281	463.5
337.51	453.5
337.738	483.5
337.966	468.5
338.194	458.5
338.422	462.5
338.65	462.5
338.878	441.5
339.106	451.5
339.334	446.5
339.562	450.5
339.79	442.5
340.018	425.5
340.246	452.5
340.474	456.5
340.702	444.5
340.93	448.5
341.158	457.5
341.386	464.5
341.614	429.5
341.842	466.5
342.07	456.5
342.298	442.5
342.526	432.5
342.754	436.5
342.981	439.5
343.209	458.5
343.437	451.5
343.665	455.5
343.893	453.5
344.12	465.5
344.348	471.5
344.576	465.5
344.804	472.5
345.031	468.5
345.259	477.5
345.487	438.5
345.714	449.5
345.942	426.5
346.17	447.5
346.397	431.5
346.625	438.5
346.853	448.5
347.08	425.5
347.308	434.5
347.535	441.5
347.763	433.5
347.99	417.5
348.218	429.5
348.445	431.5
348.673	434.5
348.9	443.5
349.128	436.5
349.355	435.5
349.583	443.5
349.81	437.5
350.037	409.5
350.265	408.5
350.492	418.5
350.72	420.5
350.947	447.5
351.174	447.5
351.402	446.5
351.629	438.5
351.856	418.5
352.083	447.5
352.311	453.5
352.538	458.5
352.765	454.5
352.992	456.5
353.22	421.5
353.447	419.5
353.674	445.5
353.901	435.5
354.128	410.5
354.355	403.5
354.583	423.5
354.81	405.5
355.037	435.5
355.264	410.5
355.491	390.5
355.718	402.5
355.945	404.5
356.172	409.5
356.399	417.5
356.626	394.5
356.853	420.5
357.08	406.5
357.307	425.5
357.534	393.5
357.761	404.5
357.988	422.5
358.215	404.5
358.441	405.5
358.668	422.5
358.895	439.5
359.122	434.5
359.349	418.5
359.576	441.5
359.802	438.5
360.029	466.5
360.256	465.5
360.483	458.5
360.709	428.5
360.936	425.5
361.163	411.5
361.39	442.5
361.616	446.5
361.843	435.5
362.07	415.5
362.296	428.5
362.523	445.5
362.749	414.5
362.976	416.5
363.203	421.5
363.429	398.5
363.656	423.5
363.882	434.5
364.109	414.5
364.335	408.5
364.562	420.5
364.788	418.5
365.015	424.5
365.241	412.5
365.468	411.5
365.694	414.5
365.92	435.5
366.147	406.5
366.373	410.5
366.599	434.5
366.826	400.5
367.052	419.5
367.278	425.5
367.505	426.5
367.731	417.5
367.957	419.5
368.184	413.5
368.41	425.5
368.636	418.5
368.862	429.5
369.089	426.5
369.315	429.5
369.541	407.5
369.767	417.5
369.993	408.5
370.219	430.5
370.445	420.5
370.672	420.5
370.898	397.5
371.124	442.5
371.35	394.5
371.576	414.5
371.802	425.5
372.028	432.5
372.254	452.5
372.48	438.5
372.706	419.5
372.932	438.5
373.158	407.5
373.384	423.5
373.61	427.5
373.835	426.5
374.061	428.5
374.287	423.5
374.513	433.5
374.739	438.5
374.965	435.5
375.191	445.5
375.416	429.5
375.642	428.5
375.868	412.5
376.094	421.5
376.319	436.5
376.545	440.5
376.771	409.5
376.997	425.5
377.222	436.5
377.448	433.5
377.674	413.5
377.899	409.5
378.125	421.5
378.35	424.5
378.576	416.5
378.802	424.5
379.027	427.5
379.253	420.5
379.478	438.5
379.704	422.5
379.929	414.5
380.155	439.5
380.38	452.5
380.606	426.5
380.831	424.5
381.057	421.5
381.282	418.5
381.507	461.5
381.733	431.5
381.958	434.5
382.184	417.5
382.409	420.5
382.634	438.5
382.86	452.5
383.085	426.5
383.31	444.5
383.535	438.5
383.761	438.5
383.986	441.5
384.211	443.5
384.436	466.5
384.662	460.5
384.887	449.5
385.112	470.5
385.337	451.5
385.562	487.5
385.787	462.5
386.013	470.5
386.238	492.5
386.463	483.5
386.688	458.5
386.913	476.5
387.138	477.5
387.363	461.5
387.588	462.5
387.813	471.5
388.038	464.5
388.263	447.5
388.488	477.5
388.713	460.5
388.938	471.5
389.163	493.5
389.387	459.5
389.612	468.5
389.837	468.5
390.062	464.5
390.287	460.5
390.512	472.5
390.736	452.5
390.961	485.5
391.186	462.5
391.411	482.5
391.636	475.5
391.86	513.5
392.085	512.5
392.31	506.5
392.534	492.5
392.759	497.5
392.984	487.5
393.208	487.5
393.433	487.5
393.658	498.5
393.882	459.5
394.107	481.5
394.331	465.5
394.556	458.5
394.78	484.5
395.005	493.5
395.229	501.5
395.454	489.5
395.678	504.5
395.903	508.5
396.127	520.5
396.352	529.5
396.576	522.5
396.801	489.5
397.025	484.5
397.249	488.5
397.474	499.5
397.698	514.5
397.922	525.5
398.147	517.5
398.371	549.5
398.595	513.5
398.82	536.5
399.044	570.5
399.268	591.5
399.492	612.5
399.717	655.5
399.941	680.5
400.165	696.5
400.389	685.5
400.613	643.5
400.837	598.5
401.062	563.5
401.286	581.5
401.51	560.5
401.734	555.5
401.958	562.5
402.182	556.5
402.406	560.5
402.63	566.5
402.854	577.5
403.078	561.5
403.302	577.5
403.526	592.5
403.75	587.5
403.974	571.5
404.198	568.5
404.422	563.5
404.645	585.5
404.869	586.5
405.093	626.5
405.317	633.5
405.541	695.5
405.765	646.5
405.988	621.5
406.212	585.5
406.436	629.5
406.66	618.5
406.883	604.5
407.107	646.5
407.331	701.5
407.555	754.5
407.778	771.5
408.002	682.5
408.226	661.5
408.449	643.5
408.673	612.5
408.896	647.5
409.12	672.5
409.344	660.5
409.567	621.5
409.791	581.5
410.014	573.5
410.238	577.5
410.461	567.5
410.685	583.5
410.908	604.5
411.132	635.5
411.355	658.5
411.578	629.5
411.802	580.5
412.025	572.5
412.249	589.5
412.472	584.5
412.695	645.5
412.919	637.5
413.142	590.5
413.365	567.5
413.589	578.5
413.812	550.5
414.035	533.5
414.258	567.5
414.482	536.5
414.705	541.5
414.928	523.5
415.151	539.5
415.374	561.5
415.597	536.5
415.821	542.5
416.044	557.5
416.267	550.5
416.49	538.5
416.713	518.5
416.936	543.5
417.159	544.5
417.382	546.5
417.605	557.5
417.828	567.5
418.051	593.5
418.274	538.5
418.497	525.5
418.72	560.5
418.943	566.5
419.166	570.5
419.389	612.5
419.611	582.5
419.834	584.5
420.057	589.5
420.28	554.5
420.503	578.5
420.726	541.5
420.948	589.5
421.171	629.5
421.394	630.5
421.617	592.5
421.839	577.5
422.062	566.5
422.285	583.5
422.507	644.5
422.73	696.5
422.953	690.5
423.175	593.5
423.398	583.5
423.621	591.5
423.843	633.5
424.066	614.5
424.288	613.5
424.511	628.5
424.733	694.5
424.956	758.5
425.178	723.5
425.401	703.5
425.623	741.5
425.846	640.5
426.068	593.5
426.291	584.5
426.513	614.5
426.735	619.5
426.958	656.5
427.18	729.5
427.402	830.5
427.625	941.5
427.847	784.5
428.069	686.5
428.292	651.5
428.514	596.5
428.736	547.5
428.958	565.5
429.181	555.5
429.403	534.5
429.625	543.5
429.847	564.5
430.069	661.5
430.292	646.5
430.514	564.5
430.736	544.5
430.958	551.5
431.18	516.5
431.402	526.5
431.624	497.5
431.846	501.5
432.068	504.5
432.29	536.5
432.512	511.5
432.734	545.5
432.956	545.5
433.178	542.5
433.4	520.5
433.622	538.5
433.844	548.5
434.066	514.5
434.287	514.5
434.509	552.5
434.731	540.5
434.953	555.5
435.175	568.5
435.397	590.5
435.618	584.5
435.84	612.5
436.062	721.5
436.284	790.5
436.505	650.5
436.727	613.5
436.949	552.5
437.17	556.5
437.392	555.5
437.614	567.5
437.835	597.5
438.057	674.5
438.278	767.5
438.5	749.5
438.721	855.5
438.943	818.5
439.165	656.5
439.386	614.5
439.608	605.5
439.829	605.5
440.05	598.5
440.272	671.5
440.493	613.5
440.715	572.5
440.936	574.5
441.158	582.5
441.379	605.5
441.6	573.5
441.822	590.5
442.043	640.5
442.264	712.5
442.486	763.5
442.707	650.5
442.928	606.5
443.149	616.5
443.371	636.5
443.592	676.5
443.813	771.5
444.034	823.5
444.255	683.5
444.476	636.5
444.698	611.5
444.919	635.5
445.14	732.5
445.361	692.5
445.582	657.5
445.803	706.5
446.024	809.5
446.245	824.5
446.466	716.5
446.687	640.5
446.908	563.5
447.129	572.5
447.35	575.5
447.571	544.5
447.792	522.5
448.013	544.5
448.234	560.5
448.455	590.5
448.675	709.5
448.896	848.5
449.117	714.5
449.338	654.5
449.559	761.5
449.779	887.5
450	700.5
450.221	587.5
450.442	541.5
450.662	530.5
450.883	534.5
451.104	520.5
451.324	515.5
451.545	508.5
451.766	488.5
451.986	478.5
452.207	477.5
452.428	485.5
452.648	482.5
452.869	471.5
453.089	494.5
453.31	494.5
453.53	472.5
453.751	477.5
453.971	469.5
454.192	480.5
454.412	465.5
454.633	478.5
454.853	474.5
455.073	461.5
455.294	512.5
455.514	576.5
455.734	554.5
455.955	513.5
456.175	492.5
456.395	473.5
456.616	467.5
456.836	444.5
457.056	456.5
457.276	464.5
457.497	468.5
457.717	472.5
457.937	471.5
458.157	462.5
458.377	474.5
458.598	496.5
458.818	552.5
459.038	614.5
459.258	632.5
459.478	544.5
459.698	523.5
459.918	521.5
460.138	536.5
460.358	525.5
460.578	552.5
460.798	544.5
461.018	568.5
461.238	548.5
461.458	532.5
461.678	519.5
461.898	548.5
462.118	537.5
462.338	553.5
462.558	566.5
462.777	580.5
462.997	579.5
463.217	599.5
463.437	608.5
463.657	617.5
463.876	568.5
464.096	603.5
464.316	582.5
464.536	588.5
464.755	613.5
464.975	593.5
465.195	605.5
465.414	632.5
465.634	599.5
465.854	552.5
466.073	525.5
466.293	516.5
466.512	505.5
466.732	516.5
466.951	501.5
467.171	496.5
467.391	511.5
467.61	521.5
467.829	500.5
468.049	524.5
468.268	492.5
468.488	495.5
468.707	476.5
468.927	500.5
469.146	470.5
469.365	516.5
469.585	488.5
469.804	508.5
470.023	520.5
470.243	522.5
470.462	519.5
470.681	539.5
470.901	524.5
471.12	494.5
471.339	517.5
471.558	515.5
471.777	523.5
471.997	496.5
472.216	490.5
472.435	526.5
472.654	514.5
472.873	523.5
473.092	488.5
473.311	487.5
473.53	522.5
473.749	504.5
473.968	542.5
474.187	658.5
474.406	678.5
474.625	565.5
474.844	500.5
475.063	506.5
475.282	504.5
475.501	514.5
475.72	504.5
475.939	523.5
476.158	519.5
476.377	506.5
476.596	510.5
476.814	527.5
477.033	560.5
477.252	533.5
477.471	503.5
477.69	539.5
477.908	549.5
478.127	554.5
478.346	557.5
478.564	589.5
478.783	579.5
479.002	592.5
479.22	584.5
479.439	598.5
479.658	603.5
479.876	622.5
480.095	622.5
480.313	645.5
480.532	634.5
480.751	605.5
480.969	630.5
481.188	684.5
481.406	700.5
481.624	659.5
481.843	602.5
482.061	593.5
482.28	600.5
482.498	614.5
482.717	566.5
482.935	592.5
483.153	575.5
483.372	594.5
483.59	598.5
483.808	584.5
484.027	607.5
484.245	582.5
484.463	581.5
484.681	594.5
484.9	588.5
485.118	580.5
485.336	594.5
485.554	584.5
485.772	606.5
485.99	636.5
486.209	601.5
486.427	598.5
486.645	613.5
486.863	612.5
487.081	621.5
487.299	625.5
487.517	621.5
487.735	617.5
487.953	604.5
488.171	645.5
488.389	598.5
488.607	621.5
488.825	630.5
489.043	609.5
489.261	612.5
489.479	633.5
489.696	632.5
489.914	629.5
490.132	638.5
490.35	653.5
490.568	665.5
490.786	655.5
491.003	661.5
491.221	673.5
491.439	704.5
491.657	710.5
491.874	724.5
492.092	721.5
492.31	740.5
492.527	729.5
492.745	692.5
492.963	739.5
493.18	739.5
493.398	737.5
493.615	717.5
493.833	727.5
494.05	731.5
494.268	748.5
494.485	734.5
494.703	732.5
494.92	726.5
495.138	763.5
495.355	778.5
495.573	709.5
495.79	741.5
496.008	740.5
496.225	748.5
496.442	745.5
496.66	740.5
496.877	754.5
497.094	760.5
497.312	756.5
497.529	762.5
497.746	795.5
497.963	780.5
498.181	840.5
498.398	808.5
498.615	841.5
498.832	876.5
499.049	891.5
499.267	909.5
499.484	961.5
499.701	1021.5
499.918	1069.5
500.135	1105.5
500.352	1132.5
500.569	1207.5
500.786	1196.5
501.003	1195.5
501.22	1137.5
501.437	1087.5
501.654	1041.5
501.871	1010.5
502.088	940.5
502.305	928.5
502.522	861.5
502.739	856.5
502.956	792.5
503.172	794.5
503.389	778.5
503.606	787.5
503.823	766.5
504.04	766.5
504.256	757.5
504.473	766.5
504.69	771.5
504.907	738.5
505.123	734.5
505.34	757.5
505.557	736.5
505.773	715.5
505.99	728.5
506.207	701.5
506.423	717.5
506.64	715.5
506.856	688.5
507.073	691.5
507.289	675.5
507.506	678.5
507.722	677.5
507.939	694.5
508.155	689.5
508.372	644.5
508.588	629.5
508.805	653.5
509.021	670.5
509.238	668.5
509.454	654.5
509.67	638.5
509.887	649.5
510.103	652.5
510.319	660.5
510.536	716.5
510.752	1067.5
510.968	882.5
511.184	656.5
511.401	635.5
511.617	614.5
511.833	616.5
512.049	630.5
512.265	602.5
512.481	621.5
512.698	609.5
512.914	623.5
513.13	614.5
513.346	588.5
513.562	607.5
513.778	636.5
513.994	622.5
514.21	637.5
514.426	652.5
514.642	673.5
514.858	677.5
515.074	726.5
515.29	808.5
515.506	1090.5
515.721	924.5
515.937	715.5
516.153	659.5
516.369	640.5
516.585	653.5
516.801	648.5
517.016	665.5
517.232	664.5
517.448	672.5
517.664	656.5
517.879	673.5
518.095	681.5
518.311	686.5
518.527	643.5
518.742	652.5
518.958	634.5
519.173	635.5
519.389	656.5
519.605	614.5
519.82	600.5
520.036	620.5
520.251	640.5
520.467	647.5
520.682	643.5
520.898	641.5
521.113	634.5
521.329	706.5
521.544	739.5
521.76	872.5
521.975	1307.5
522.19	1294.5
522.406	794.5
522.621	652.5
522.836	615.5
523.052	607.5
523.267	590.5
523.482	582.5
523.698	588.5
523.913	569.5
524.128	568.5
524.343	547.5
524.559	536.5
524.774	552.5
524.989	533.5
525.204	540.5
525.419	547.5
525.634	542.5
525.849	532.5
526.064	527.5
526.28	535.5
526.495	516.5
526.71	524.5
526.925	501.5
527.14	515.5
527.355	533.5
527.57	509.5
527.785	516.5
527.999	491.5
528.214	523.5
528.429	521.5
528.644	530.5
528.859	477.5
529.074	532.5
529.289	540.5
529.503	573.5
529.718	562.5
529.933	548.5
530.148	508.5
530.363	522.5
530.577	522.5
530.792	502.5
531.007	501.5
531.221	501.5
531.436	504.5
531.651	508.5
531.865	507.5
532.08	476.5
532.295	488.5
532.509	513.5
532.724	494.5
532.938	512.5
533.153	496.5
533.367	501.5
533.582	487.5
533.796	497.5
534.011	475.5
534.225	506.5
534.44	475.5
534.654	499.5
534.868	491.5
535.083	484.5
535.297	502.5
535.511	476.5
535.726	504.5
535.94	504.5
536.154	471.5
536.369	489.5
536.583	462.5
536.797	487.5
537.011	478.5
537.225	473.5
537.44	489.5
537.654	489.5
537.868	480.5
538.082	463.5
538.296	472.5
538.51	479.5
538.724	461.5
538.938	467.5
539.153	497.5
539.367	474.5
539.581	485.5
539.795	458.5
540.009	468.5
540.222	496.5
540.436	491.5
540.65	461.5
540.864	482.5
541.078	462.5
541.292	478.5
541.506	465.5
541.72	494.5
541.934	476.5
542.147	485.5
542.361	473.5
542.575	466.5
542.789	479.5
543.002	485.5
543.216	479.5
543.43	474.5
543.644	478.5
543.857	465.5
544.071	474.5
544.285	464.5
544.498	479.5
544.712	476.5
544.925	467.5
545.139	470.5
545.352	489.5
545.566	474.5
545.779	474.5
545.993	472.5
546.206	491.5
546.42	454.5
546.633	477.5
546.847	469.5
547.06	447.5
547.274	456.5
547.487	473.5
547.7	456.5
547.914	469.5
548.127	438.5
548.34	474.5
548.554	466.5
548.767	462.5
548.98	469.5
549.193	477.5
549.407	465.5
549.62	473.5
549.833	472.5
550.046	473.5
550.259	449.5
550.473	454.5
550.686	449.5
550.899	480.5
551.112	480.5
551.325	460.5
551.538	456.5
551.751	450.5
551.964	424.5
552.177	442.5
552.39	428.5
552.603	450.5
552.816	462.5
553.029	465.5
553.242	473.5
553.455	507.5
553.667	504.5
553.88	488.5
554.093	474.5
554.306	474.5
554.519	459.5
554.732	450.5
554.944	451.5
555.157	458.5
555.37	433.5
555.583	457.5
555.795	462.5
556.008	449.5
556.221	412.5
556.433	435.5
556.646	430.5
556.859	423.5
557.071	409.5
557.284	406.5
557.496	423.5
557.709	411.5
557.921	429.5
558.134	407.5
558.346	399.5
558.559	396.5
558.771	410.5
558.984	415.5
559.196	419.5
559.409	391.5
559.621	422.5
559.833	406.5
560.046	419.5
560.258	421.5
560.47	409.5
560.683	395.5
560.895	410.5
561.107	400.5
561.32	402.5
561.532	391.5
561.744	413.5
561.956	406.5
562.168	416.5
562.381	410.5
562.593	414.5
562.805	389.5
563.017	413.5
563.229	416.5
563.441	404.5
563.653	412.5
563.865	415.5
564.077	433.5
564.289	438.5
564.501	443.5
564.713	435.5
564.925	441.5
565.137	438.5
565.349	440.5
565.561	457.5
565.773	458.5
565.985	453.5
566.197	481.5
566.408	509.5
566.62	526.5
566.832	547.5
567.044	527.5
567.255	530.5
567.467	550.5
567.679	553.5
567.891	603.5
568.102	567.5
568.314	568.5
568.526	548.5
568.737	490.5
568.949	486.5
569.161	482.5
569.372	468.5
569.584	434.5
569.795	432.5
570.007	417.5
570.218	462.5
570.43	443.5
570.641	411.5
570.853	412.5
571.064	406.5
571.276	417.5
571.487	404.5
571.698	406.5
571.91	383.5
572.121	400.5
572.333	362.5
572.544	360.5
572.755	365.5
572.966	372.5
573.178	364.5
573.389	365.5
573.6	357.5
573.811	366.5
574.023	359.5
574.234	360.5
574.445	356.5
574.656	364.5
574.867	355.5
575.078	373.5
575.289	360.5
575.501	354.5
575.712	347.5
575.923	359.5
576.134	348.5
576.345	353.5
576.556	343.5
576.767	360.5
576.978	334.5
577.188	352.5
577.399	364.5
577.61	342.5
577.821	333.5
578.032	332.5
578.243	356.5
578.454	524.5
578.665	414.5
578.875	332.5
579.086	326.5
579.297	356.5
579.508	330.5
579.718	329.5
579.929	315.5
580.14	323.5
580.35	306.5
580.561	313.5
580.772	330.5
580.982	331.5
581.193	314.5
581.403	315.5
581.614	327.5
581.825	322.5
582.035	323.5
582.246	313.5
582.456	334.5
582.667	324.5
582.877	320.5
583.087	306.5
583.298	326.5
583.508	306.5
583.719	308.5
583.929	316.5
584.139	315.5
584.35	304.5
584.56	347.5
584.77	306.5
584.981	301.5
585.191	314.5
585.401	318.5
585.611	325.5
585.821	301.5
586.032	310.5
586.242	315.5
586.452	304.5
586.662	294.5
586.872	319.5
587.082	300.5
587.292	316.5
587.502	319.5
587.713	326.5
587.923	304.5
588.133	317.5
588.343	312.5
588.553	305.5
588.762	307.5
588.972	313.5
589.182	300.5
589.392	301.5
589.602	315.5
589.812	304.5
590.022	313.5
590.232	286.5
590.441	301.5
590.651	323.5
590.861	318.5
591.071	294.5
591.281	315.5
591.49	308.5
591.7	310.5
591.91	314.5
592.119	320.5
592.329	311.5
592.539	335.5
592.748	340.5
592.958	330.5
593.167	339.5
593.377	325.5
593.587	354.5
593.796	334.5
594.006	356.5
594.215	344.5
594.424	365.5
594.634	339.5
594.843	350.5
595.053	339.5
595.262	328.5
595.472	318.5
595.681	324.5
595.89	310.5
596.1	298.5
596.309	299.5
596.518	292.5
596.727	286.5
596.937	294.5
597.146	293.5
597.355	292.5
597.564	306.5
597.774	278.5
597.983	281.5
598.192	270.5
598.401	277.5
598.61	278.5
598.819	290.5
599.028	273.5
599.237	261.5
599.446	260.5
599.655	280.5
599.864	283.5
600.073	266.5
600.282	268.5
600.491	283.5
600.7	290.5
600.909	260.5
601.118	250.5
601.327	275.5
601.536	266.5
601.745	273.5
601.953	262.5
602.162	278.5
602.371	272.5
602.58	265.5
602.789	277.5
602.997	271.5
603.206	273.5
603.415	265.5
603.623	260.5
603.832	260.5
604.041	265.5
604.249	276.5
604.458	262.5
604.666	261.5
604.875	266.5
605.084	263.5
605.292	252.5
605.501	250.5
605.709	256.5
605.918	265.5
606.126	242.5
606.334	254.5
606.543	267.5
606.751	254.5
606.96	252.5
607.168	245.5
607.376	266.5
607.585	264.5
607.793	256.5
608.001	256.5
608.21	258.5
608.418	256.5
608.626	257.5
608.834	236.5
609.043	252.5
609.251	240.5
609.459	236.5
609.667	260.5
609.875	264.5
610.083	262.5
610.291	251.5
610.499	245.5
610.707	247.5
610.916	256.5
611.124	245.5
611.332	254.5
611.54	253.5
611.748	248.5
611.955	265.5
612.163	255.5
612.371	253.5
612.579	252.5
612.787	246.5
612.995	252.5
613.203	243.5
613.411	249.5
613.618	245.5
613.826	241.5
614.034	235.5
614.242	251.5
614.449	217.5
614.657	234.5
614.865	248.5
615.072	268.5
615.28	254.5
615.488	229.5
615.695	256.5
615.903	256.5
616.111	250.5
616.318	249.5
616.526	250.5
616.733	249.5
616.941	246.5
617.148	242.5
617.356	241.5
617.563	236.5
617.771	236.5
617.978	256.5
618.185	249.5
618.393	236.5
618.6	238.5
618.807	242.5
619.015	243.5
619.222	245.5
619.429	211.5
619.637	234.5
619.844	247.5
620.051	247.5
620.258	227.5
620.466	222.5
620.673	216.5
620.88	226.5
621.087	231.5
621.294	229.5
621.501	234.5
621.708	247.5
621.915	233.5
622.122	225.5
622.329	239.5
622.536	235.5
622.743	237.5
622.95	214.5
623.157	220.5
623.364	261.5
623.571	226.5
623.778	216.5
623.985	229.5
624.192	231.5
624.399	227.5
624.606	227.5
624.812	223.5
625.019	213.5
625.226	221.5
625.433	216.5
625.639	212.5
625.846	217.5
626.053	209.5
626.259	197.5
626.466	226.5
626.673	207.5
626.879	210.5
627.086	222.5
627.293	198.5
627.499	212.5
627.706	197.5
627.912	209.5
628.119	187.5
628.325	211.5
628.532	192.5
628.738	212.5
628.945	238.5
629.151	196.5
629.357	221.5
629.564	198.5
629.77	188.5
629.976	208.5
630.183	199.5
630.389	222.5
630.595	215.5
630.802	203.5
631.008	218.5
631.214	202.5
631.42	210.5
631.627	212.5
631.833	207.5
632.039	174.5
632.245	187.5
632.451	194.5
632.657	196.5
632.863	202.5
633.069	180.5
633.275	184.5
633.481	195.5
633.688	194.5
633.893	195.5
634.099	208.5
634.305	183.5
634.511	181.5
634.717	192.5
634.923	201.5
635.129	201.5
635.335	188.5
635.541	187.5
635.747	200.5
635.952	187.5
636.158	193.5
636.364	202.5
636.57	193.5
636.775	196.5
636.981	209.5
637.187	169.5
637.392	186.5
637.598	180.5
637.804	179.5
638.009	188.5
638.215	194.5
638.421	184.5
638.626	182.5
638.832	191.5
639.037	184.5
639.243	170.5
639.448	180.5
639.654	188.5
639.859	197.5
640.065	188.5
640.27	171.5
640.475	173.5
640.681	170.5
640.886	177.5
641.091	184.5
641.297	183.5
641.502	161.5
641.707	180.5
641.913	184.5
642.118	176.5
642.323	169.5
642.528	171.5
642.733	179.5
642.939	178.5
643.144	163.5
643.349	171.5
643.554	180.5
643.759	164.5
643.964	182.5
644.169	158.5
644.374	169.5
644.579	173.5
644.784	165.5
644.989	181.5
645.194	174.5
645.399	165.5
645.604	168.5
645.809	173.5
646.014	176.5
646.219	157.5
646.423	178.5
646.628	170.5
646.833	163.5
647.038	165.5
647.243	196.5
647.447	156.5
647.652	165.5
647.857	168.5
648.062	183.5
648.266	188.5
648.471	160.5
648.676	173.5
648.88	185.5
649.085	192.5
649.289	188.5
649.494	171.5
649.698	176.5
649.903	171.5
650.107	183.5
650.312	174.5
650.516	173.5
650.721	157.5
650.925	163.5
651.13	158.5
651.334	151.5
651.539	157.5
651.743	156.5
651.947	137.5
652.152	152.5
652.356	154.5
652.56	137.5
652.764	148.5
652.969	148.5
653.173	144.5
653.377	144.5
653.581	140.5
653.785	144.5
653.99	150.5
654.194	143.5
654.398	149.5
654.602	153.5
654.806	140.5
655.01	140.5
655.214	143.5
655.418	125.5
655.622	146.5
655.826	134.5
656.03	136.5
656.234	145.5
656.438	142.5
656.642	142.5
656.846	148.5
657.049	130.5
657.253	144.5
657.457	123.5
657.661	126.5
657.865	112.5
658.068	120.5
658.272	109.5
658.476	118.5
658.68	104.5
658.883	109.5
659.087	98.5
659.291	107.5
659.494	114.5
659.698	108.5
659.901	98.5
660.105	100.5
660.309	99.5
660.512	89.5
660.716	79.5
660.919	98.5
661.123	97.5
661.326	86.5
661.53	89.5
661.733	92.5
661.936	99.5
662.14	89.5
662.343	80.5
662.546	78.5
662.75	77.5
662.953	93.5
663.156	77.5
663.36	81.5
663.563	88.5
663.766	89.5
663.969	96.5
664.173	80.5
664.376	77.5
664.579	90.5
664.782	91.5
664.985	77.5
665.188	73.5
665.391	87.5
665.594	99.5
665.797	82.5
666	78.5
666.203	75.5
666.406	71.5
666.609	73.5
666.812	89.5
667.015	72.5
667.218	75.5
667.421	76.5
667.624	73.5
667.827	91.5
668.03	72.5
668.232	87.5
668.435	85.5
668.638	95.5
668.841	68.5
669.043	72.5
669.246	84.5
669.449	75.5
669.651	96.5
669.854	77.5
670.057	80.5
670.259	80.5
670.462	71.5
670.665	91.5
670.867	84.5
671.07	87.5
671.272	80.5
671.475	91.5
671.677	76.5
671.88	92.5
672.082	81.5
672.284	69.5
672.487	78.5
672.689	75.5
672.892	83.5
