Data from 1976.PennyLincolnUp.Lamp.En5.5.200Scan.071719.P1.Changed Mount._HRD10591_15-59-41-860.txt Node
Date: Thu Jul 18 15:59:41 EDT 2019
User: cochatt
Spectrometer: HR+D1059
Trigger mode: 1
Integration Time (sec): 1.000000E-1
Scans to average: 1
Electric dark correction enabled: true
Nonlinearity correction enabled: false
Boxcar width: 0
XAxis mode: Wavelengths
Number of Pixels in Spectrum: 2048
>>>>>Begin Spectral Data<<<<<
223.165	-15.62
223.4	-15.62
223.635	-15.62
223.869	-8.62
224.104	-21.62
224.338	-17.62
224.573	-13.62
224.808	-17.62
225.042	-9.62
225.277	-2.62
225.511	-2.62
225.746	3.38
225.98	6.38
226.215	7.38
226.449	19.38
226.683	31.38
226.918	14.38
227.152	27.38
227.387	33.38
227.621	30.38
227.856	41.38
228.09	49.38
228.324	55.38
228.559	58.38
228.793	61.38
229.027	104.38
229.262	94.38
229.496	103.38
229.73	98.38
229.964	129.38
230.199	118.38
230.433	102.38
230.667	106.38
230.901	115.38
231.136	98.38
231.37	105.38
231.604	105.38
231.838	103.38
232.072	113.38
232.306	107.38
232.541	104.38
232.775	99.38
233.009	109.38
233.243	101.38
233.477	98.38
233.711	109.38
233.945	103.38
234.179	106.38
234.413	114.38
234.647	111.38
234.881	112.38
235.115	123.38
235.349	129.38
235.583	117.38
235.817	109.38
236.051	121.38
236.285	133.38
236.519	118.38
236.753	114.38
236.987	128.38
237.221	171.38
237.455	206.38
237.689	156.38
237.922	135.38
238.156	123.38
238.39	117.38
238.624	113.38
238.858	113.38
239.091	116.38
239.325	114.38
239.559	119.38
239.793	126.38
240.027	125.38
240.26	132.38
240.494	144.38
240.728	145.38
240.961	132.38
241.195	133.38
241.429	127.38
241.662	136.38
241.896	142.38
242.13	136.38
242.363	129.38
242.597	134.38
242.83	141.38
243.064	142.38
243.298	139.38
243.531	140.38
243.765	130.38
243.998	125.38
244.232	141.38
244.465	153.38
244.699	134.38
244.932	138.38
245.166	150.38
245.399	143.38
245.633	160.38
245.866	149.38
246.099	142.38
246.333	153.38
246.566	141.38
246.8	143.38
247.033	151.38
247.266	159.38
247.5	165.38
247.733	162.38
247.966	165.38
248.2	183.38
248.433	167.38
248.666	165.38
248.899	175.38
249.133	182.38
249.366	188.38
249.599	194.38
249.832	197.38
250.066	190.38
250.299	177.38
250.532	177.38
250.765	176.38
250.998	201.38
251.231	207.38
251.465	190.38
251.698	182.38
251.931	180.38
252.164	187.38
252.397	189.38
252.63	191.38
252.863	191.38
253.096	196.38
253.329	222.38
253.562	204.38
253.795	211.38
254.028	205.38
254.261	191.38
254.494	213.38
254.727	226.38
254.96	228.38
255.193	242.38
255.426	231.38
255.659	214.38
255.892	210.38
256.124	212.38
256.357	226.38
256.59	206.38
256.823	209.38
257.056	188.38
257.289	197.38
257.521	201.38
257.754	208.38
257.987	199.38
258.22	194.38
258.452	197.38
258.685	183.38
258.918	205.38
259.151	210.38
259.383	217.38
259.616	191.38
259.849	212.38
260.081	234.38
260.314	227.38
260.547	251.38
260.779	246.38
261.012	234.38
261.244	215.38
261.477	223.38
261.71	206.38
261.942	224.38
262.175	210.38
262.407	224.38
262.64	199.38
262.872	213.38
263.105	195.38
263.337	212.38
263.57	218.38
263.802	202.38
264.035	218.38
264.267	205.38
264.499	213.38
264.732	211.38
264.964	198.38
265.197	202.38
265.429	219.38
265.661	220.38
265.894	214.38
266.126	205.38
266.358	210.38
266.591	222.38
266.823	217.38
267.055	234.38
267.287	227.38
267.52	225.38
267.752	229.38
267.984	217.38
268.216	217.38
268.448	234.38
268.681	227.38
268.913	251.38
269.145	264.38
269.377	265.38
269.609	257.38
269.841	266.38
270.073	270.38
270.306	271.38
270.538	285.38
270.77	283.38
271.002	295.38
271.234	290.38
271.466	292.38
271.698	268.38
271.93	300.38
272.162	299.38
272.394	293.38
272.626	287.38
272.858	301.38
273.09	250.38
273.322	241.38
273.553	245.38
273.785	252.38
274.017	261.38
274.249	233.38
274.481	257.38
274.713	269.38
274.945	270.38
275.176	263.38
275.408	251.38
275.64	261.38
275.872	247.38
276.104	267.38
276.335	274.38
276.567	263.38
276.799	278.38
277.031	284.38
277.262	317.38
277.494	314.38
277.726	289.38
277.957	283.38
278.189	273.38
278.421	270.38
278.652	255.38
278.884	250.38
279.115	265.38
279.347	274.38
279.579	256.38
279.81	254.38
280.042	262.38
280.273	275.38
280.505	277.38
280.736	265.38
280.968	279.38
281.199	269.38
281.431	262.38
281.662	277.38
281.894	299.38
282.125	287.38
282.356	285.38
282.588	278.38
282.819	300.38
283.051	289.38
283.282	259.38
283.513	261.38
283.745	289.38
283.976	274.38
284.207	281.38
284.439	289.38
284.67	287.38
284.901	271.38
285.132	287.38
285.364	275.38
285.595	288.38
285.826	271.38
286.057	287.38
286.288	283.38
286.52	310.38
286.751	269.38
286.982	297.38
287.213	285.38
287.444	285.38
287.675	278.38
287.906	277.38
288.138	296.38
288.369	282.38
288.6	287.38
288.831	293.38
289.062	300.38
289.293	298.38
289.524	295.38
289.755	293.38
289.986	295.38
290.217	299.38
290.448	285.38
290.679	277.38
290.91	293.38
291.141	269.38
291.371	301.38
291.602	287.38
291.833	295.38
292.064	289.38
292.295	300.38
292.526	288.38
292.757	303.38
292.987	302.38
293.218	285.38
293.449	293.38
293.68	283.38
293.91	298.38
294.141	287.38
294.372	293.38
294.603	275.38
294.833	283.38
295.064	281.38
295.295	296.38
295.525	301.38
295.756	296.38
295.987	318.38
296.217	317.38
296.448	327.38
296.679	316.38
296.909	307.38
297.14	307.38
297.37	302.38
297.601	305.38
297.831	305.38
298.062	309.38
298.292	319.38
298.523	313.38
298.753	308.38
298.984	310.38
299.214	313.38
299.445	321.38
299.675	309.38
299.905	308.38
300.136	318.38
300.366	313.38
300.597	295.38
300.827	306.38
301.057	330.38
301.288	328.38
301.518	325.38
301.748	331.38
301.979	319.38
302.209	335.38
302.439	333.38
302.669	323.38
302.9	327.38
303.13	322.38
303.36	335.38
303.59	321.38
303.82	328.38
304.051	318.38
304.281	337.38
304.511	331.38
304.741	318.38
304.971	351.38
305.201	305.38
305.431	332.38
305.661	330.38
305.891	324.38
306.121	314.38
306.352	348.38
306.582	347.38
306.812	334.38
307.042	321.38
307.272	308.38
307.502	331.38
307.731	327.38
307.961	333.38
308.191	323.38
308.421	320.38
308.651	329.38
308.881	341.38
309.111	324.38
309.341	357.38
309.571	342.38
309.8	357.38
310.03	340.38
310.26	358.38
310.49	345.38
310.72	363.38
310.949	365.38
311.179	376.38
311.409	371.38
311.639	341.38
311.868	339.38
312.098	377.38
312.328	371.38
312.557	363.38
312.787	351.38
313.017	376.38
313.246	363.38
313.476	351.38
313.706	362.38
313.935	369.38
314.165	371.38
314.394	381.38
314.624	377.38
314.853	381.38
315.083	388.38
315.312	351.38
315.542	366.38
315.771	355.38
316.001	368.38
316.23	362.38
316.46	385.38
316.689	368.38
316.919	390.38
317.148	375.38
317.377	355.38
317.607	383.38
317.836	361.38
318.065	369.38
318.295	366.38
318.524	362.38
318.753	374.38
318.983	363.38
319.212	354.38
319.441	379.38
319.67	355.38
319.9	370.38
320.129	371.38
320.358	359.38
320.587	363.38
320.816	375.38
321.046	369.38
321.275	370.38
321.504	375.38
321.733	387.38
321.962	395.38
322.191	403.38
322.42	410.38
322.649	408.38
322.878	426.38
323.108	415.38
323.337	421.38
323.566	435.38
323.795	456.38
324.024	473.38
324.253	563.38
324.482	749.38
324.71	1107.38
324.939	1630.38
325.168	1396.38
325.397	733.38
325.626	524.38
325.855	471.38
326.084	452.38
326.313	403.38
326.542	429.38
326.77	466.38
326.999	525.38
327.228	696.38
327.457	994.38
327.686	1257.38
327.914	819.38
328.143	565.38
328.372	520.38
328.6	485.38
328.829	454.38
329.058	488.38
329.287	510.38
329.515	471.38
329.744	451.38
329.972	460.38
330.201	473.38
330.43	481.38
330.658	491.38
330.887	506.38
331.115	500.38
331.344	481.38
331.572	449.38
331.801	463.38
332.03	451.38
332.258	427.38
332.486	440.38
332.715	430.38
332.943	442.38
333.172	456.38
333.4	479.38
333.629	472.38
333.857	480.38
334.085	487.38
334.314	489.38
334.542	486.38
334.771	480.38
334.999	489.38
335.227	445.38
335.455	443.38
335.684	442.38
335.912	435.38
336.14	455.38
336.369	435.38
336.597	459.38
336.825	451.38
337.053	452.38
337.281	435.38
337.51	443.38
337.738	421.38
337.966	442.38
338.194	409.38
338.422	437.38
338.65	423.38
338.878	422.38
339.106	433.38
339.334	444.38
339.562	438.38
339.79	418.38
340.018	428.38
340.246	398.38
340.474	404.38
340.702	440.38
340.93	449.38
341.158	433.38
341.386	402.38
341.614	425.38
341.842	411.38
342.07	436.38
342.298	427.38
342.526	409.38
342.754	402.38
342.981	418.38
343.209	439.38
343.437	420.38
343.665	425.38
343.893	422.38
344.12	442.38
344.348	453.38
344.576	427.38
344.804	426.38
345.031	415.38
345.259	433.38
345.487	419.38
345.714	428.38
345.942	403.38
346.17	417.38
346.397	413.38
346.625	403.38
346.853	385.38
347.08	388.38
347.308	398.38
347.535	398.38
347.763	407.38
347.99	404.38
348.218	406.38
348.445	407.38
348.673	420.38
348.9	398.38
349.128	409.38
349.355	374.38
349.583	391.38
349.81	375.38
350.037	377.38
350.265	394.38
350.492	390.38
350.72	385.38
350.947	382.38
351.174	404.38
351.402	407.38
351.629	408.38
351.856	409.38
352.083	395.38
352.311	427.38
352.538	396.38
352.765	401.38
352.992	418.38
353.22	406.38
353.447	383.38
353.674	397.38
353.901	406.38
354.128	375.38
354.355	401.38
354.583	395.38
354.81	390.38
355.037	405.38
355.264	387.38
355.491	379.38
355.718	407.38
355.945	379.38
356.172	378.38
356.399	368.38
356.626	376.38
356.853	369.38
357.08	375.38
357.307	409.38
357.534	387.38
357.761	386.38
357.988	396.38
358.215	392.38
358.441	386.38
358.668	388.38
358.895	375.38
359.122	388.38
359.349	381.38
359.576	401.38
359.802	423.38
360.029	437.38
360.256	430.38
360.483	419.38
360.709	407.38
360.936	396.38
361.163	381.38
361.39	399.38
361.616	406.38
361.843	397.38
362.07	390.38
362.296	391.38
362.523	393.38
362.749	406.38
362.976	377.38
363.203	388.38
363.429	385.38
363.656	386.38
363.882	378.38
364.109	374.38
364.335	403.38
364.562	385.38
364.788	397.38
365.015	375.38
365.241	388.38
365.468	394.38
365.694	396.38
365.92	395.38
366.147	391.38
366.373	393.38
366.599	397.38
366.826	397.38
367.052	389.38
367.278	393.38
367.505	396.38
367.731	401.38
367.957	370.38
368.184	408.38
368.41	385.38
368.636	390.38
368.862	395.38
369.089	399.38
369.315	381.38
369.541	385.38
369.767	408.38
369.993	399.38
370.219	382.38
370.445	389.38
370.672	393.38
370.898	377.38
371.124	383.38
371.35	392.38
371.576	373.38
371.802	388.38
372.028	404.38
372.254	405.38
372.48	413.38
372.706	411.38
372.932	390.38
373.158	393.38
373.384	407.38
373.61	414.38
373.835	409.38
374.061	393.38
374.287	390.38
374.513	412.38
374.739	394.38
374.965	418.38
375.191	419.38
375.416	392.38
375.642	393.38
375.868	396.38
376.094	408.38
376.319	393.38
376.545	399.38
376.771	389.38
376.997	380.38
377.222	407.38
377.448	413.38
377.674	381.38
377.899	385.38
378.125	397.38
378.35	395.38
378.576	371.38
378.802	386.38
379.027	409.38
379.253	411.38
379.478	406.38
379.704	401.38
379.929	384.38
380.155	415.38
380.38	410.38
380.606	382.38
380.831	403.38
381.057	409.38
381.282	409.38
381.507	402.38
381.733	415.38
381.958	419.38
382.184	396.38
382.409	413.38
382.634	428.38
382.86	424.38
383.085	389.38
383.31	410.38
383.535	422.38
383.761	421.38
383.986	437.38
384.211	433.38
384.436	423.38
384.662	443.38
384.887	451.38
385.112	425.38
385.337	437.38
385.562	454.38
385.787	446.38
386.013	486.38
386.238	435.38
386.463	461.38
386.688	452.38
386.913	455.38
387.138	433.38
387.363	433.38
387.588	442.38
387.813	436.38
388.038	452.38
388.263	441.38
388.488	462.38
388.713	439.38
388.938	454.38
389.163	439.38
389.387	443.38
389.612	438.38
389.837	439.38
390.062	449.38
390.287	437.38
390.512	435.38
390.736	423.38
390.961	438.38
391.186	442.38
391.411	469.38
391.636	452.38
391.86	455.38
392.085	472.38
392.31	465.38
392.534	465.38
392.759	468.38
392.984	479.38
393.208	453.38
393.433	443.38
393.658	452.38
393.882	477.38
394.107	462.38
394.331	450.38
394.556	445.38
394.78	433.38
395.005	473.38
395.229	460.38
395.454	467.38
395.678	486.38
395.903	472.38
396.127	483.38
396.352	494.38
396.576	485.38
396.801	456.38
397.025	469.38
397.249	467.38
397.474	486.38
397.698	475.38
397.922	475.38
398.147	485.38
398.371	507.38
398.595	510.38
398.82	518.38
399.044	552.38
399.268	543.38
399.492	578.38
399.717	611.38
399.941	658.38
400.165	683.38
400.389	641.38
400.613	588.38
400.837	548.38
401.062	544.38
401.286	522.38
401.51	510.38
401.734	510.38
401.958	515.38
402.182	519.38
402.406	520.38
402.63	509.38
402.854	536.38
403.078	525.38
403.302	540.38
403.526	534.38
403.75	548.38
403.974	538.38
404.198	548.38
404.422	571.38
404.645	573.38
404.869	529.38
405.093	563.38
405.317	598.38
405.541	621.38
405.765	597.38
405.988	581.38
406.212	566.38
406.436	579.38
406.66	566.38
406.883	592.38
407.107	594.38
407.331	629.38
407.555	709.38
407.778	699.38
408.002	637.38
408.226	607.38
408.449	588.38
408.673	567.38
408.896	628.38
409.12	669.38
409.344	627.38
409.567	565.38
409.791	573.38
410.014	535.38
410.238	527.38
410.461	528.38
410.685	541.38
410.908	543.38
411.132	591.38
411.355	619.38
411.578	577.38
411.802	537.38
412.025	530.38
412.249	542.38
412.472	565.38
412.695	599.38
412.919	586.38
413.142	557.38
413.365	522.38
413.589	538.38
413.812	516.38
414.035	507.38
414.258	500.38
414.482	534.38
414.705	522.38
414.928	503.38
415.151	520.38
415.374	499.38
415.597	508.38
415.821	497.38
416.044	509.38
416.267	513.38
416.49	493.38
416.713	499.38
416.936	485.38
417.159	490.38
417.382	519.38
417.605	492.38
417.828	533.38
418.051	549.38
418.274	536.38
418.497	538.38
418.72	513.38
418.943	493.38
419.166	535.38
419.389	577.38
419.611	538.38
419.834	526.38
420.057	562.38
420.28	547.38
420.503	531.38
420.726	517.38
420.948	523.38
421.171	579.38
421.394	609.38
421.617	540.38
421.839	519.38
422.062	546.38
422.285	535.38
422.507	583.38
422.73	627.38
422.953	627.38
423.175	589.38
423.398	539.38
423.621	560.38
423.843	577.38
424.066	568.38
424.288	555.38
424.511	563.38
424.733	635.38
424.956	708.38
425.178	649.38
425.401	647.38
425.623	677.38
425.846	589.38
426.068	550.38
426.291	569.38
426.513	555.38
426.735	552.38
426.958	605.38
427.18	657.38
427.402	779.38
427.625	870.38
427.847	717.38
428.069	620.38
428.292	569.38
428.514	548.38
428.736	541.38
428.958	514.38
429.181	501.38
429.403	488.38
429.625	519.38
429.847	529.38
430.069	597.38
430.292	577.38
430.514	526.38
430.736	508.38
430.958	505.38
431.18	492.38
431.402	470.38
431.624	489.38
431.846	493.38
432.068	497.38
432.29	479.38
432.512	482.38
432.734	488.38
432.956	506.38
433.178	494.38
433.4	501.38
433.622	488.38
433.844	513.38
434.066	482.38
434.287	489.38
434.509	482.38
434.731	516.38
434.953	515.38
435.175	533.38
435.397	534.38
435.618	530.38
435.84	560.38
436.062	642.38
436.284	697.38
436.505	616.38
436.727	568.38
436.949	521.38
437.17	503.38
437.392	519.38
437.614	513.38
437.835	521.38
438.057	619.38
438.278	702.38
438.5	698.38
438.721	783.38
438.943	749.38
439.165	587.38
439.386	565.38
439.608	527.38
439.829	515.38
440.05	573.38
440.272	597.38
440.493	566.38
440.715	535.38
440.936	527.38
441.158	493.38
441.379	515.38
441.6	527.38
441.822	553.38
442.043	588.38
442.264	649.38
442.486	696.38
442.707	599.38
442.928	584.38
443.149	548.38
443.371	567.38
443.592	621.38
443.813	709.38
444.034	761.38
444.255	665.38
444.476	587.38
444.698	581.38
444.919	594.38
445.14	697.38
445.361	628.38
445.582	589.38
445.803	652.38
446.024	709.38
446.245	724.38
446.466	656.38
446.687	591.38
446.908	555.38
447.129	510.38
447.35	533.38
447.571	503.38
447.792	477.38
448.013	503.38
448.234	519.38
448.455	552.38
448.675	652.38
448.896	755.38
449.117	641.38
449.338	608.38
449.559	726.38
449.779	819.38
450	653.38
450.221	554.38
450.442	507.38
450.662	463.38
450.883	476.38
451.104	490.38
451.324	479.38
451.545	447.38
451.766	466.38
451.986	445.38
452.207	436.38
452.428	443.38
452.648	439.38
452.869	446.38
453.089	458.38
453.31	451.38
453.53	450.38
453.751	452.38
453.971	449.38
454.192	443.38
454.412	467.38
454.633	433.38
454.853	429.38
455.073	443.38
455.294	455.38
455.514	509.38
455.734	501.38
455.955	431.38
456.175	414.38
456.395	421.38
456.616	427.38
456.836	445.38
457.056	425.38
457.276	428.38
457.497	421.38
457.717	419.38
457.937	422.38
458.157	436.38
458.377	443.38
458.598	453.38
458.818	499.38
459.038	569.38
459.258	574.38
459.478	522.38
459.698	501.38
459.918	493.38
460.138	497.38
460.358	490.38
460.578	511.38
460.798	500.38
461.018	499.38
461.238	515.38
461.458	508.38
461.678	491.38
461.898	512.38
462.118	499.38
462.338	504.38
462.558	516.38
462.777	552.38
462.997	536.38
463.217	575.38
463.437	596.38
463.657	579.38
463.876	554.38
464.096	555.38
464.316	557.38
464.536	534.38
464.755	552.38
464.975	522.38
465.195	563.38
465.414	582.38
465.634	528.38
465.854	508.38
466.073	471.38
466.293	495.38
466.512	472.38
466.732	473.38
466.951	477.38
467.171	466.38
467.391	458.38
467.61	458.38
467.829	470.38
468.049	472.38
468.268	461.38
468.488	477.38
468.707	459.38
468.927	452.38
469.146	463.38
469.365	471.38
469.585	449.38
469.804	463.38
470.023	468.38
470.243	475.38
470.462	483.38
470.681	484.38
470.901	483.38
471.12	454.38
471.339	460.38
471.558	454.38
471.777	473.38
471.997	450.38
472.216	483.38
472.435	481.38
472.654	475.38
472.873	477.38
473.092	466.38
473.311	469.38
473.53	471.38
473.749	481.38
473.968	503.38
474.187	590.38
474.406	595.38
474.625	491.38
474.844	487.38
475.063	445.38
475.282	458.38
475.501	460.38
475.72	470.38
475.939	475.38
476.158	482.38
476.377	487.38
476.596	484.38
476.814	508.38
477.033	498.38
477.252	508.38
477.471	512.38
477.69	504.38
477.908	499.38
478.127	503.38
478.346	540.38
478.564	527.38
478.783	530.38
479.002	539.38
479.22	523.38
479.439	531.38
479.658	561.38
479.876	563.38
480.095	583.38
480.313	590.38
480.532	586.38
480.751	564.38
480.969	577.38
481.188	574.38
481.406	599.38
481.624	572.38
481.843	563.38
482.061	537.38
482.28	534.38
482.498	521.38
482.717	553.38
482.935	547.38
483.153	551.38
483.372	548.38
483.59	541.38
483.808	566.38
484.027	527.38
484.245	555.38
484.463	551.38
484.681	545.38
484.9	533.38
485.118	544.38
485.336	556.38
485.554	553.38
485.772	559.38
485.99	555.38
486.209	550.38
486.427	568.38
486.645	558.38
486.863	586.38
487.081	577.38
487.299	588.38
487.517	563.38
487.735	572.38
487.953	585.38
488.171	567.38
488.389	579.38
488.607	587.38
488.825	572.38
489.043	573.38
489.261	591.38
489.479	594.38
489.696	589.38
489.914	579.38
490.132	591.38
490.35	597.38
490.568	620.38
490.786	610.38
491.003	619.38
491.221	615.38
491.439	635.38
491.657	641.38
491.874	661.38
492.092	650.38
492.31	654.38
492.527	647.38
492.745	660.38
492.963	625.38
493.18	664.38
493.398	684.38
493.615	658.38
493.833	674.38
494.05	678.38
494.268	671.38
494.485	681.38
494.703	685.38
494.92	681.38
495.138	672.38
495.355	689.38
495.573	694.38
495.79	701.38
496.008	682.38
496.225	685.38
496.442	681.38
496.66	693.38
496.877	711.38
497.094	680.38
497.312	691.38
497.529	713.38
497.746	724.38
497.963	719.38
498.181	749.38
498.398	743.38
498.615	794.38
498.832	811.38
499.049	833.38
499.267	849.38
499.484	869.38
499.701	946.38
499.918	957.38
500.135	1031.38
500.352	1083.38
500.569	1100.38
500.786	1134.38
501.003	1096.38
501.22	1046.38
501.437	991.38
501.654	949.38
501.871	933.38
502.088	866.38
502.305	855.38
502.522	813.38
502.739	790.38
502.956	760.38
503.172	732.38
503.389	723.38
503.606	698.38
503.823	723.38
504.04	683.38
504.256	707.38
504.473	705.38
504.69	724.38
504.907	697.38
505.123	695.38
505.34	662.38
505.557	673.38
505.773	661.38
505.99	664.38
506.207	643.38
506.423	659.38
506.64	620.38
506.856	659.38
507.073	617.38
507.289	611.38
507.506	606.38
507.722	612.38
507.939	628.38
508.155	641.38
508.372	612.38
508.588	597.38
508.805	591.38
509.021	584.38
509.238	613.38
509.454	635.38
509.67	634.38
509.887	611.38
510.103	573.38
510.319	606.38
510.536	610.38
510.752	868.38
510.968	771.38
511.184	595.38
511.401	569.38
511.617	595.38
511.833	537.38
512.049	568.38
512.265	589.38
512.481	569.38
512.698	538.38
512.914	565.38
513.13	567.38
513.346	581.38
513.562	558.38
513.778	566.38
513.994	588.38
514.21	568.38
514.426	593.38
514.642	604.38
514.858	625.38
515.074	632.38
515.29	695.38
515.506	891.38
515.721	778.38
515.937	631.38
516.153	605.38
516.369	574.38
516.585	602.38
516.801	603.38
517.016	585.38
517.232	607.38
517.448	617.38
517.664	628.38
517.879	637.38
518.095	591.38
518.311	614.38
518.527	589.38
518.742	609.38
518.958	586.38
519.173	594.38
519.389	582.38
519.605	596.38
519.82	565.38
520.036	583.38
520.251	579.38
520.467	584.38
520.682	597.38
520.898	587.38
521.113	590.38
521.329	606.38
521.544	649.38
521.76	759.38
521.975	1065.38
522.19	1030.38
522.406	677.38
522.621	573.38
522.836	538.38
523.052	542.38
523.267	523.38
523.482	533.38
523.698	503.38
523.913	518.38
524.128	498.38
524.343	499.38
524.559	501.38
524.774	494.38
524.989	507.38
525.204	504.38
525.419	486.38
525.634	490.38
525.849	499.38
526.064	479.38
526.28	508.38
526.495	464.38
526.71	482.38
526.925	485.38
527.14	475.38
527.355	480.38
527.57	490.38
527.785	481.38
527.999	460.38
528.214	491.38
528.429	491.38
528.644	470.38
528.859	464.38
529.074	490.38
529.289	502.38
529.503	517.38
529.718	534.38
529.933	524.38
530.148	491.38
530.363	476.38
530.577	487.38
530.792	470.38
531.007	482.38
531.221	464.38
531.436	460.38
531.651	474.38
531.865	461.38
532.08	457.38
532.295	470.38
532.509	473.38
532.724	454.38
532.938	464.38
533.153	463.38
533.367	455.38
533.582	454.38
533.796	461.38
534.011	466.38
534.225	456.38
534.44	457.38
534.654	465.38
534.868	469.38
535.083	447.38
535.297	447.38
535.511	438.38
535.726	453.38
535.94	462.38
536.154	453.38
536.369	454.38
536.583	454.38
536.797	455.38
537.011	451.38
537.225	402.38
537.44	452.38
537.654	444.38
537.868	438.38
538.082	454.38
538.296	438.38
538.51	452.38
538.724	468.38
538.938	451.38
539.153	450.38
539.367	459.38
539.581	446.38
539.795	444.38
540.009	449.38
540.222	437.38
540.436	449.38
540.65	435.38
540.864	454.38
541.078	446.38
541.292	433.38
541.506	446.38
541.72	436.38
541.934	433.38
542.147	452.38
542.361	435.38
542.575	429.38
542.789	410.38
543.002	448.38
543.216	437.38
543.43	445.38
543.644	444.38
543.857	442.38
544.071	458.38
544.285	463.38
544.498	434.38
544.712	445.38
544.925	431.38
545.139	438.38
545.352	433.38
545.566	439.38
545.779	434.38
545.993	437.38
546.206	431.38
546.42	442.38
546.633	441.38
546.847	447.38
547.06	441.38
547.274	430.38
547.487	458.38
547.7	454.38
547.914	446.38
548.127	418.38
548.34	456.38
548.554	427.38
548.767	434.38
548.98	446.38
549.193	436.38
549.407	428.38
549.62	445.38
549.833	424.38
550.046	436.38
550.259	439.38
550.473	437.38
550.686	424.38
550.899	432.38
551.112	439.38
551.325	421.38
551.538	432.38
551.751	414.38
551.964	426.38
552.177	437.38
552.39	444.38
552.603	455.38
552.816	450.38
553.029	443.38
553.242	461.38
553.455	453.38
553.667	457.38
553.88	439.38
554.093	461.38
554.306	437.38
554.519	441.38
554.732	405.38
554.944	435.38
555.157	419.38
555.37	415.38
555.583	419.38
555.795	426.38
556.008	407.38
556.221	424.38
556.433	405.38
556.646	392.38
556.859	393.38
557.071	389.38
557.284	395.38
557.496	382.38
557.709	386.38
557.921	388.38
558.134	386.38
558.346	413.38
558.559	379.38
558.771	384.38
558.984	389.38
559.196	388.38
559.409	365.38
559.621	384.38
559.833	389.38
560.046	390.38
560.258	391.38
560.47	387.38
560.683	380.38
560.895	360.38
561.107	389.38
561.32	377.38
561.532	377.38
561.744	391.38
561.956	390.38
562.168	371.38
562.381	405.38
562.593	387.38
562.805	396.38
563.017	386.38
563.229	381.38
563.441	402.38
563.653	412.38
563.865	397.38
564.077	414.38
564.289	404.38
564.501	403.38
564.713	428.38
564.925	425.38
565.137	399.38
565.349	426.38
565.561	427.38
565.773	413.38
565.985	432.38
566.197	485.38
566.408	448.38
566.62	475.38
566.832	494.38
567.044	508.38
567.255	481.38
567.467	505.38
567.679	526.38
567.891	547.38
568.102	567.38
568.314	544.38
568.526	512.38
568.737	481.38
568.949	463.38
569.161	438.38
569.372	416.38
569.584	407.38
569.795	409.38
570.007	395.38
570.218	416.38
570.43	404.38
570.641	404.38
570.853	386.38
571.064	397.38
571.276	379.38
571.487	366.38
571.698	396.38
571.91	376.38
572.121	361.38
572.333	358.38
572.544	319.38
572.755	371.38
572.966	330.38
573.178	339.38
573.389	358.38
573.6	354.38
573.811	345.38
574.023	344.38
574.234	348.38
574.445	356.38
574.656	344.38
574.867	334.38
575.078	334.38
575.289	340.38
575.501	344.38
575.712	333.38
575.923	342.38
576.134	335.38
576.345	354.38
576.556	329.38
576.767	334.38
576.978	340.38
577.188	317.38
577.399	311.38
577.61	313.38
577.821	326.38
578.032	329.38
578.243	339.38
578.454	412.38
578.665	379.38
578.875	302.38
579.086	303.38
579.297	311.38
579.508	316.38
579.718	303.38
579.929	297.38
580.14	312.38
580.35	311.38
580.561	311.38
580.772	290.38
580.982	303.38
581.193	296.38
581.403	313.38
581.614	313.38
581.825	321.38
582.035	285.38
582.246	294.38
582.456	302.38
582.667	326.38
582.877	297.38
583.087	307.38
583.298	296.38
583.508	290.38
583.719	301.38
583.929	317.38
584.139	301.38
584.35	302.38
584.56	299.38
584.77	301.38
584.981	313.38
585.191	310.38
585.401	305.38
585.611	296.38
585.821	297.38
586.032	306.38
586.242	281.38
586.452	287.38
586.662	313.38
586.872	302.38
587.082	281.38
587.292	296.38
587.502	284.38
587.713	290.38
587.923	286.38
588.133	298.38
588.343	279.38
588.553	307.38
588.762	294.38
588.972	305.38
589.182	285.38
589.392	303.38
589.602	294.38
589.812	291.38
590.022	298.38
590.232	305.38
590.441	282.38
590.651	309.38
590.861	283.38
591.071	306.38
591.281	309.38
591.49	292.38
591.7	309.38
591.91	315.38
592.119	314.38
592.329	325.38
592.539	329.38
592.748	337.38
592.958	323.38
593.167	343.38
593.377	337.38
593.587	358.38
593.796	327.38
594.006	327.38
594.215	327.38
594.424	321.38
594.634	340.38
594.843	323.38
595.053	323.38
595.262	310.38
595.472	300.38
595.681	298.38
595.89	309.38
596.1	296.38
596.309	302.38
596.518	281.38
596.727	270.38
596.937	276.38
597.146	294.38
597.355	278.38
597.564	269.38
597.774	271.38
597.983	268.38
598.192	273.38
598.401	272.38
598.61	290.38
598.819	257.38
599.028	259.38
599.237	272.38
599.446	274.38
599.655	272.38
599.864	257.38
600.073	250.38
600.282	263.38
600.491	267.38
600.7	255.38
600.909	260.38
601.118	259.38
601.327	274.38
601.536	269.38
601.745	267.38
601.953	265.38
602.162	263.38
602.371	267.38
602.58	245.38
602.789	265.38
602.997	244.38
603.206	271.38
603.415	253.38
603.623	231.38
603.832	261.38
604.041	255.38
604.249	248.38
604.458	230.38
604.666	231.38
604.875	233.38
605.084	234.38
605.292	246.38
605.501	239.38
605.709	234.38
605.918	250.38
606.126	252.38
606.334	249.38
606.543	246.38
606.751	261.38
606.96	251.38
607.168	251.38
607.376	238.38
607.585	229.38
607.793	256.38
608.001	250.38
608.21	228.38
608.418	237.38
608.626	226.38
608.834	243.38
609.043	227.38
609.251	251.38
609.459	231.38
609.667	252.38
609.875	259.38
610.083	239.38
610.291	241.38
610.499	241.38
610.707	232.38
610.916	248.38
611.124	257.38
611.332	237.38
611.54	247.38
611.748	235.38
611.955	245.38
612.163	236.38
612.371	245.38
612.579	241.38
612.787	259.38
612.995	242.38
613.203	230.38
613.411	217.38
613.618	237.38
613.826	234.38
614.034	257.38
614.242	245.38
614.449	236.38
614.657	229.38
614.865	235.38
615.072	230.38
615.28	220.38
615.488	242.38
615.695	239.38
615.903	234.38
616.111	246.38
616.318	257.38
616.526	257.38
616.733	248.38
616.941	246.38
617.148	240.38
617.356	219.38
617.563	230.38
617.771	244.38
617.978	249.38
618.185	245.38
618.393	242.38
618.6	238.38
618.807	235.38
619.015	241.38
619.222	218.38
619.429	223.38
619.637	235.38
619.844	231.38
620.051	216.38
620.258	217.38
620.466	222.38
620.673	228.38
620.88	229.38
621.087	204.38
621.294	231.38
621.501	250.38
621.708	218.38
621.915	231.38
622.122	225.38
622.329	221.38
622.536	223.38
622.743	219.38
622.95	219.38
623.157	231.38
623.364	217.38
623.571	208.38
623.778	225.38
623.985	225.38
624.192	233.38
624.399	210.38
624.606	221.38
624.812	212.38
625.019	226.38
625.226	220.38
625.433	201.38
625.639	202.38
625.846	205.38
626.053	221.38
626.259	215.38
626.466	207.38
626.673	198.38
626.879	195.38
627.086	203.38
627.293	207.38
627.499	206.38
627.706	215.38
627.912	197.38
628.119	204.38
628.325	193.38
628.532	196.38
628.738	204.38
628.945	198.38
629.151	213.38
629.357	199.38
629.564	202.38
629.77	188.38
629.976	193.38
630.183	204.38
630.389	190.38
630.595	206.38
630.802	195.38
631.008	196.38
631.214	201.38
631.42	195.38
631.627	196.38
631.833	195.38
632.039	194.38
632.245	195.38
632.451	214.38
632.657	177.38
632.863	185.38
633.069	197.38
633.275	202.38
633.481	179.38
633.688	191.38
633.893	161.38
634.099	174.38
634.305	197.38
634.511	178.38
634.717	187.38
634.923	177.38
635.129	181.38
635.335	182.38
635.541	169.38
635.747	173.38
635.952	194.38
636.158	194.38
636.364	190.38
636.57	199.38
636.775	197.38
636.981	203.38
637.187	188.38
637.392	182.38
637.598	174.38
637.804	182.38
638.009	190.38
638.215	181.38
638.421	195.38
638.626	170.38
638.832	183.38
639.037	188.38
639.243	164.38
639.448	173.38
639.654	180.38
639.859	179.38
640.065	182.38
640.27	187.38
640.475	174.38
640.681	162.38
640.886	191.38
641.091	180.38
641.297	171.38
641.502	170.38
641.707	164.38
641.913	170.38
642.118	161.38
642.323	165.38
642.528	189.38
642.733	172.38
642.939	169.38
643.144	174.38
643.349	195.38
643.554	169.38
643.759	170.38
643.964	174.38
644.169	162.38
644.374	173.38
644.579	167.38
644.784	181.38
644.989	191.38
645.194	179.38
645.399	161.38
645.604	179.38
645.809	178.38
646.014	163.38
646.219	163.38
646.423	186.38
646.628	159.38
646.833	167.38
647.038	169.38
647.243	171.38
647.447	169.38
647.652	177.38
647.857	162.38
648.062	177.38
648.266	168.38
648.471	171.38
648.676	184.38
648.88	172.38
649.085	169.38
649.289	183.38
649.494	153.38
649.698	178.38
649.903	174.38
650.107	162.38
650.312	167.38
650.516	166.38
650.721	168.38
650.925	162.38
651.13	174.38
651.334	165.38
651.539	167.38
651.743	146.38
651.947	160.38
652.152	154.38
652.356	147.38
652.56	170.38
652.764	150.38
652.969	155.38
653.173	149.38
653.377	137.38
653.581	159.38
653.785	149.38
653.99	150.38
654.194	143.38
654.398	144.38
654.602	135.38
654.806	123.38
655.01	143.38
655.214	138.38
655.418	145.38
655.622	147.38
655.826	122.38
656.03	127.38
656.234	149.38
656.438	139.38
656.642	141.38
656.846	140.38
657.049	132.38
657.253	146.38
657.457	133.38
657.661	120.38
657.865	128.38
658.068	113.38
658.272	121.38
658.476	126.38
658.68	113.38
658.883	97.38
659.087	102.38
659.291	95.38
659.494	99.38
659.698	98.38
659.901	95.38
660.105	98.38
660.309	105.38
660.512	107.38
660.716	95.38
660.919	101.38
661.123	98.38
661.326	101.38
661.53	87.38
661.733	87.38
661.936	91.38
662.14	78.38
662.343	100.38
662.546	87.38
662.75	85.38
662.953	91.38
663.156	77.38
663.36	89.38
663.563	87.38
663.766	79.38
663.969	76.38
664.173	74.38
664.376	91.38
664.579	76.38
664.782	85.38
664.985	82.38
665.188	83.38
665.391	87.38
665.594	98.38
665.797	80.38
666	73.38
666.203	66.38
666.406	86.38
666.609	93.38
666.812	85.38
667.015	86.38
667.218	75.38
667.421	83.38
667.624	98.38
667.827	86.38
668.03	79.38
668.232	78.38
668.435	87.38
668.638	92.38
668.841	86.38
669.043	74.38
669.246	86.38
669.449	81.38
669.651	91.38
669.854	78.38
670.057	79.38
670.259	79.38
670.462	69.38
670.665	84.38
670.867	73.38
671.07	91.38
671.272	84.38
671.475	81.38
671.677	77.38
671.88	94.38
672.082	83.38
672.284	71.38
672.487	90.38
672.689	86.38
672.892	85.38
