Data from 1976.PennyLincolnUp.Lamp.En5.5.200Scan.071719.P1.Changed Mount._HRD10591_16-02-13-862.txt Node
Date: Thu Jul 18 16:02:13 EDT 2019
User: cochatt
Spectrometer: HR+D1059
Trigger mode: 1
Integration Time (sec): 1.000000E-1
Scans to average: 1
Electric dark correction enabled: true
Nonlinearity correction enabled: false
Boxcar width: 0
XAxis mode: Wavelengths
Number of Pixels in Spectrum: 2048
>>>>>Begin Spectral Data<<<<<
223.165	-12.19
223.4	-12.19
223.635	-12.19
223.869	-17.19
224.104	-15.19
224.338	0.81
224.573	-5.19
224.808	-19.19
225.042	-22.19
225.277	10.81
225.511	4.81
225.746	-2.19
225.98	9.81
226.215	9.81
226.449	-5.19
226.683	14.81
226.918	9.81
227.152	37.81
227.387	37.81
227.621	38.81
227.856	49.81
228.09	58.81
228.324	41.81
228.559	56.81
228.793	67.81
229.027	89.81
229.262	102.81
229.496	108.81
229.73	134.81
229.964	150.81
230.199	117.81
230.433	127.81
230.667	124.81
230.901	132.81
231.136	120.81
231.37	117.81
231.604	114.81
231.838	101.81
232.072	113.81
232.306	122.81
232.541	119.81
232.775	109.81
233.009	121.81
233.243	113.81
233.477	117.81
233.711	125.81
233.945	107.81
234.179	126.81
234.413	123.81
234.647	116.81
234.881	121.81
235.115	115.81
235.349	128.81
235.583	136.81
235.817	113.81
236.051	113.81
236.285	128.81
236.519	122.81
236.753	121.81
236.987	146.81
237.221	179.81
237.455	252.81
237.689	184.81
237.922	141.81
238.156	138.81
238.39	128.81
238.624	126.81
238.858	116.81
239.091	126.81
239.325	141.81
239.559	139.81
239.793	127.81
240.027	131.81
240.26	152.81
240.494	146.81
240.728	154.81
240.961	154.81
241.195	151.81
241.429	148.81
241.662	139.81
241.896	144.81
242.13	136.81
242.363	143.81
242.597	134.81
242.83	144.81
243.064	148.81
243.298	146.81
243.531	143.81
243.765	144.81
243.998	141.81
244.232	140.81
244.465	116.81
244.699	139.81
244.932	152.81
245.166	152.81
245.399	146.81
245.633	149.81
245.866	152.81
246.099	160.81
246.333	134.81
246.566	136.81
246.8	170.81
247.033	149.81
247.266	166.81
247.5	171.81
247.733	177.81
247.966	171.81
248.2	171.81
248.433	170.81
248.666	173.81
248.899	196.81
249.133	210.81
249.366	214.81
249.599	201.81
249.832	185.81
250.066	187.81
250.299	180.81
250.532	201.81
250.765	208.81
250.998	230.81
251.231	233.81
251.465	214.81
251.698	208.81
251.931	205.81
252.164	198.81
252.397	206.81
252.63	207.81
252.863	214.81
253.096	216.81
253.329	220.81
253.562	233.81
253.795	206.81
254.028	227.81
254.261	209.81
254.494	230.81
254.727	248.81
254.96	297.81
255.193	272.81
255.426	244.81
255.659	241.81
255.892	243.81
256.124	222.81
256.357	232.81
256.59	233.81
256.823	223.81
257.056	212.81
257.289	222.81
257.521	224.81
257.754	214.81
257.987	220.81
258.22	202.81
258.452	214.81
258.685	221.81
258.918	206.81
259.151	216.81
259.383	240.81
259.616	231.81
259.849	240.81
260.081	240.81
260.314	252.81
260.547	271.81
260.779	258.81
261.012	252.81
261.244	240.81
261.477	230.81
261.71	233.81
261.942	237.81
262.175	237.81
262.407	249.81
262.64	232.81
262.872	234.81
263.105	217.81
263.337	244.81
263.57	208.81
263.802	226.81
264.035	211.81
264.267	228.81
264.499	219.81
264.732	222.81
264.964	241.81
265.197	234.81
265.429	233.81
265.661	233.81
265.894	237.81
266.126	218.81
266.358	233.81
266.591	227.81
266.823	238.81
267.055	253.81
267.287	233.81
267.52	230.81
267.752	230.81
267.984	245.81
268.216	233.81
268.448	244.81
268.681	242.81
268.913	261.81
269.145	284.81
269.377	311.81
269.609	282.81
269.841	291.81
270.073	280.81
270.306	312.81
270.538	322.81
270.77	345.81
271.002	332.81
271.234	330.81
271.466	317.81
271.698	324.81
271.93	348.81
272.162	327.81
272.394	343.81
272.626	320.81
272.858	310.81
273.09	290.81
273.322	308.81
273.553	281.81
273.785	285.81
274.017	290.81
274.249	270.81
274.481	277.81
274.713	282.81
274.945	271.81
275.176	291.81
275.408	304.81
275.64	296.81
275.872	295.81
276.104	306.81
276.335	307.81
276.567	291.81
276.799	309.81
277.031	318.81
277.262	341.81
277.494	340.81
277.726	331.81
277.957	300.81
278.189	280.81
278.421	299.81
278.652	289.81
278.884	309.81
279.115	313.81
279.347	295.81
279.579	292.81
279.81	284.81
280.042	288.81
280.273	296.81
280.505	296.81
280.736	292.81
280.968	292.81
281.199	279.81
281.431	283.81
281.662	311.81
281.894	297.81
282.125	293.81
282.356	317.81
282.588	313.81
282.819	321.81
283.051	308.81
283.282	301.81
283.513	310.81
283.745	313.81
283.976	308.81
284.207	326.81
284.439	312.81
284.67	322.81
284.901	309.81
285.132	316.81
285.364	297.81
285.595	312.81
285.826	298.81
286.057	307.81
286.288	288.81
286.52	312.81
286.751	307.81
286.982	344.81
287.213	292.81
287.444	317.81
287.675	304.81
287.906	314.81
288.138	340.81
288.369	340.81
288.6	332.81
288.831	318.81
289.062	332.81
289.293	324.81
289.524	320.81
289.755	314.81
289.986	331.81
290.217	321.81
290.448	328.81
290.679	322.81
290.91	325.81
291.141	327.81
291.371	326.81
291.602	326.81
291.833	326.81
292.064	314.81
292.295	311.81
292.526	329.81
292.757	317.81
292.987	301.81
293.218	317.81
293.449	335.81
293.68	333.81
293.91	312.81
294.141	320.81
294.372	326.81
294.603	316.81
294.833	308.81
295.064	332.81
295.295	346.81
295.525	325.81
295.756	332.81
295.987	331.81
296.217	332.81
296.448	354.81
296.679	360.81
296.909	336.81
297.14	315.81
297.37	334.81
297.601	328.81
297.831	309.81
298.062	327.81
298.292	351.81
298.523	341.81
298.753	329.81
298.984	341.81
299.214	346.81
299.445	341.81
299.675	344.81
299.905	364.81
300.136	358.81
300.366	337.81
300.597	363.81
300.827	344.81
301.057	354.81
301.288	369.81
301.518	345.81
301.748	341.81
301.979	350.81
302.209	345.81
302.439	376.81
302.669	349.81
302.9	329.81
303.13	364.81
303.36	344.81
303.59	353.81
303.82	379.81
304.051	362.81
304.281	338.81
304.511	354.81
304.741	339.81
304.971	365.81
305.201	372.81
305.431	374.81
305.661	365.81
305.891	358.81
306.121	358.81
306.352	359.81
306.582	351.81
306.812	339.81
307.042	374.81
307.272	352.81
307.502	359.81
307.731	354.81
307.961	364.81
308.191	340.81
308.421	363.81
308.651	359.81
308.881	386.81
309.111	379.81
309.341	355.81
309.571	357.81
309.8	391.81
310.03	390.81
310.26	405.81
310.49	396.81
310.72	401.81
310.949	392.81
311.179	414.81
311.409	389.81
311.639	411.81
311.868	392.81
312.098	401.81
312.328	403.81
312.557	419.81
312.787	417.81
313.017	420.81
313.246	411.81
313.476	391.81
313.706	396.81
313.935	412.81
314.165	399.81
314.394	415.81
314.624	416.81
314.853	416.81
315.083	420.81
315.312	388.81
315.542	409.81
315.771	376.81
316.001	399.81
316.23	410.81
316.46	403.81
316.689	408.81
316.919	422.81
317.148	410.81
317.377	423.81
317.607	388.81
317.836	409.81
318.065	402.81
318.295	409.81
318.524	407.81
318.753	406.81
318.983	397.81
319.212	402.81
319.441	428.81
319.67	414.81
319.9	405.81
320.129	419.81
320.358	404.81
320.587	416.81
320.816	413.81
321.046	426.81
321.275	424.81
321.504	432.81
321.733	432.81
321.962	428.81
322.191	448.81
322.42	454.81
322.649	449.81
322.878	467.81
323.108	480.81
323.337	484.81
323.566	491.81
323.795	549.81
324.024	564.81
324.253	658.81
324.482	926.81
324.71	1428.81
324.939	2130.81
325.168	1854.81
325.397	891.81
325.626	624.81
325.855	550.81
326.084	528.81
326.313	508.81
326.542	537.81
326.77	534.81
326.999	638.81
327.228	846.81
327.457	1285.81
327.686	1590.81
327.914	1057.81
328.143	688.81
328.372	604.81
328.6	596.81
328.829	548.81
329.058	578.81
329.287	571.81
329.515	560.81
329.744	524.81
329.972	534.81
330.201	558.81
330.43	583.81
330.658	578.81
330.887	597.81
331.115	615.81
331.344	545.81
331.572	510.81
331.801	526.81
332.03	520.81
332.258	494.81
332.486	508.81
332.715	498.81
332.943	494.81
333.172	498.81
333.4	514.81
333.629	500.81
333.857	531.81
334.085	536.81
334.314	536.81
334.542	561.81
334.771	584.81
334.999	558.81
335.227	544.81
335.455	486.81
335.684	493.81
335.912	492.81
336.14	456.81
336.369	482.81
336.597	525.81
336.825	502.81
337.053	494.81
337.281	478.81
337.51	473.81
337.738	473.81
337.966	462.81
338.194	476.81
338.422	469.81
338.65	470.81
338.878	474.81
339.106	465.81
339.334	467.81
339.562	457.81
339.79	466.81
340.018	473.81
340.246	452.81
340.474	476.81
340.702	475.81
340.93	462.81
341.158	473.81
341.386	454.81
341.614	474.81
341.842	451.81
342.07	456.81
342.298	437.81
342.526	453.81
342.754	437.81
342.981	436.81
343.209	474.81
343.437	456.81
343.665	482.81
343.893	466.81
344.12	488.81
344.348	468.81
344.576	486.81
344.804	480.81
345.031	468.81
345.259	489.81
345.487	474.81
345.714	449.81
345.942	451.81
346.17	448.81
346.397	458.81
346.625	457.81
346.853	454.81
347.08	428.81
347.308	445.81
347.535	453.81
347.763	470.81
347.99	445.81
348.218	438.81
348.445	460.81
348.673	452.81
348.9	421.81
349.128	428.81
349.355	440.81
349.583	404.81
349.81	442.81
350.037	418.81
350.265	429.81
350.492	449.81
350.72	426.81
350.947	446.81
351.174	438.81
351.402	454.81
351.629	455.81
351.856	460.81
352.083	446.81
352.311	462.81
352.538	434.81
352.765	456.81
352.992	439.81
353.22	427.81
353.447	434.81
353.674	432.81
353.901	436.81
354.128	424.81
354.355	418.81
354.583	432.81
354.81	429.81
355.037	421.81
355.264	434.81
355.491	440.81
355.718	421.81
355.945	422.81
356.172	427.81
356.399	416.81
356.626	402.81
356.853	421.81
357.08	430.81
357.307	438.81
357.534	420.81
357.761	414.81
357.988	411.81
358.215	429.81
358.441	417.81
358.668	412.81
358.895	424.81
359.122	426.81
359.349	418.81
359.576	417.81
359.802	453.81
360.029	472.81
360.256	478.81
360.483	465.81
360.709	451.81
360.936	446.81
361.163	427.81
361.39	425.81
361.616	438.81
361.843	436.81
362.07	417.81
362.296	434.81
362.523	448.81
362.749	426.81
362.976	437.81
363.203	435.81
363.429	434.81
363.656	426.81
363.882	444.81
364.109	416.81
364.335	413.81
364.562	425.81
364.788	406.81
365.015	425.81
365.241	397.81
365.468	425.81
365.694	442.81
365.92	450.81
366.147	435.81
366.373	428.81
366.599	396.81
366.826	421.81
367.052	429.81
367.278	423.81
367.505	421.81
367.731	440.81
367.957	445.81
368.184	428.81
368.41	440.81
368.636	450.81
368.862	454.81
369.089	430.81
369.315	428.81
369.541	424.81
369.767	439.81
369.993	417.81
370.219	408.81
370.445	420.81
370.672	433.81
370.898	440.81
371.124	436.81
371.35	452.81
371.576	428.81
371.802	409.81
372.028	450.81
372.254	432.81
372.48	425.81
372.706	448.81
372.932	436.81
373.158	435.81
373.384	444.81
373.61	439.81
373.835	442.81
374.061	413.81
374.287	442.81
374.513	436.81
374.739	448.81
374.965	426.81
375.191	440.81
375.416	427.81
375.642	443.81
375.868	442.81
376.094	417.81
376.319	441.81
376.545	424.81
376.771	448.81
376.997	434.81
377.222	434.81
377.448	442.81
377.674	433.81
377.899	431.81
378.125	434.81
378.35	420.81
378.576	416.81
378.802	417.81
379.027	441.81
379.253	421.81
379.478	421.81
379.704	422.81
379.929	446.81
380.155	437.81
380.38	439.81
380.606	432.81
380.831	439.81
381.057	436.81
381.282	429.81
381.507	451.81
381.733	422.81
381.958	413.81
382.184	456.81
382.409	432.81
382.634	438.81
382.86	449.81
383.085	424.81
383.31	442.81
383.535	451.81
383.761	458.81
383.986	442.81
384.211	457.81
384.436	467.81
384.662	456.81
384.887	481.81
385.112	470.81
385.337	476.81
385.562	481.81
385.787	492.81
386.013	514.81
386.238	473.81
386.463	486.81
386.688	496.81
386.913	471.81
387.138	457.81
387.363	484.81
387.588	480.81
387.813	477.81
388.038	482.81
388.263	487.81
388.488	486.81
388.713	480.81
388.938	498.81
389.163	485.81
389.387	486.81
389.612	488.81
389.837	457.81
390.062	481.81
390.287	462.81
390.512	458.81
390.736	468.81
390.961	487.81
391.186	476.81
391.411	517.81
391.636	474.81
391.86	493.81
392.085	513.81
392.31	506.81
392.534	496.81
392.759	497.81
392.984	502.81
393.208	492.81
393.433	491.81
393.658	501.81
393.882	468.81
394.107	473.81
394.331	492.81
394.556	489.81
394.78	493.81
395.005	493.81
395.229	482.81
395.454	497.81
395.678	520.81
395.903	533.81
396.127	524.81
396.352	535.81
396.576	531.81
396.801	496.81
397.025	499.81
397.249	513.81
397.474	508.81
397.698	521.81
397.922	534.81
398.147	539.81
398.371	557.81
398.595	543.81
398.82	558.81
399.044	587.81
399.268	599.81
399.492	635.81
399.717	674.81
399.941	677.81
400.165	740.81
400.389	715.81
400.613	635.81
400.837	603.81
401.062	567.81
401.286	564.81
401.51	574.81
401.734	555.81
401.958	558.81
402.182	574.81
402.406	573.81
402.63	578.81
402.854	557.81
403.078	564.81
403.302	576.81
403.526	596.81
403.75	586.81
403.974	586.81
404.198	596.81
404.422	584.81
404.645	594.81
404.869	598.81
405.093	629.81
405.317	697.81
405.541	718.81
405.765	662.81
405.988	616.81
406.212	611.81
406.436	615.81
406.66	647.81
406.883	649.81
407.107	646.81
407.331	683.81
407.555	788.81
407.778	755.81
408.002	712.81
408.226	672.81
408.449	667.81
408.673	652.81
408.896	695.81
409.12	698.81
409.344	679.81
409.567	586.81
409.791	605.81
410.014	600.81
410.238	576.81
410.461	588.81
410.685	605.81
410.908	590.81
411.132	624.81
411.355	650.81
411.578	640.81
411.802	605.81
412.025	579.81
412.249	590.81
412.472	590.81
412.695	657.81
412.919	648.81
413.142	614.81
413.365	609.81
413.589	564.81
413.812	564.81
414.035	543.81
414.258	567.81
414.482	540.81
414.705	549.81
414.928	563.81
415.151	537.81
415.374	549.81
415.597	557.81
415.821	563.81
416.044	558.81
416.267	554.81
416.49	537.81
416.713	533.81
416.936	540.81
417.159	534.81
417.382	556.81
417.605	555.81
417.828	569.81
418.051	574.81
418.274	567.81
418.497	540.81
418.72	565.81
418.943	547.81
419.166	564.81
419.389	594.81
419.611	579.81
419.834	574.81
420.057	583.81
420.28	582.81
420.503	592.81
420.726	586.81
420.948	611.81
421.171	640.81
421.394	674.81
421.617	592.81
421.839	577.81
422.062	575.81
422.285	598.81
422.507	638.81
422.73	723.81
422.953	684.81
423.175	600.81
423.398	604.81
423.621	597.81
423.843	601.81
424.066	625.81
424.288	628.81
424.511	627.81
424.733	702.81
424.956	770.81
425.178	703.81
425.401	763.81
425.623	758.81
425.846	662.81
426.068	607.81
426.291	602.81
426.513	605.81
426.735	624.81
426.958	649.81
427.18	725.81
427.402	856.81
427.625	938.81
427.847	829.81
428.069	710.81
428.292	654.81
428.514	600.81
428.736	572.81
428.958	576.81
429.181	557.81
429.403	538.81
429.625	553.81
429.847	588.81
430.069	661.81
430.292	651.81
430.514	576.81
430.736	549.81
430.958	554.81
431.18	544.81
431.402	534.81
431.624	535.81
431.846	526.81
432.068	537.81
432.29	549.81
432.512	536.81
432.734	543.81
432.956	540.81
433.178	558.81
433.4	541.81
433.622	524.81
433.844	532.81
434.066	507.81
434.287	546.81
434.509	540.81
434.731	579.81
434.953	577.81
435.175	568.81
435.397	594.81
435.618	623.81
435.84	635.81
436.062	761.81
436.284	813.81
436.505	674.81
436.727	597.81
436.949	554.81
437.17	534.81
437.392	556.81
437.614	584.81
437.835	587.81
438.057	678.81
438.278	787.81
438.5	787.81
438.721	873.81
438.943	830.81
439.165	661.81
439.386	600.81
439.608	604.81
439.829	618.81
440.05	632.81
440.272	684.81
440.493	640.81
440.715	581.81
440.936	563.81
441.158	578.81
441.379	564.81
441.6	582.81
441.822	597.81
442.043	664.81
442.264	733.81
442.486	795.81
442.707	669.81
442.928	622.81
443.149	622.81
443.371	633.81
443.592	696.81
443.813	792.81
444.034	854.81
444.255	716.81
444.476	629.81
444.698	634.81
444.919	649.81
445.14	713.81
445.361	652.81
445.582	657.81
445.803	725.81
446.024	816.81
446.245	818.81
446.466	754.81
446.687	628.81
446.908	601.81
447.129	572.81
447.35	585.81
447.571	530.81
447.792	555.81
448.013	544.81
448.234	589.81
448.455	614.81
448.675	729.81
448.896	844.81
449.117	754.81
449.338	704.81
449.559	798.81
449.779	926.81
450	725.81
450.221	599.81
450.442	551.81
450.662	546.81
450.883	548.81
451.104	562.81
451.324	546.81
451.545	508.81
451.766	483.81
451.986	498.81
452.207	474.81
452.428	480.81
452.648	489.81
452.869	486.81
453.089	501.81
453.31	514.81
453.53	477.81
453.751	468.81
453.971	490.81
454.192	502.81
454.412	493.81
454.633	498.81
454.853	492.81
455.073	487.81
455.294	524.81
455.514	560.81
455.734	532.81
455.955	489.81
456.175	470.81
456.395	462.81
456.616	483.81
456.836	464.81
457.056	468.81
457.276	456.81
457.497	473.81
457.717	472.81
457.937	476.81
458.157	461.81
458.377	494.81
458.598	506.81
458.818	530.81
459.038	611.81
459.258	633.81
459.478	572.81
459.698	545.81
459.918	525.81
460.138	550.81
460.358	557.81
460.578	531.81
460.798	574.81
461.018	574.81
461.238	553.81
461.458	552.81
461.678	551.81
461.898	540.81
462.118	557.81
462.338	591.81
462.558	590.81
462.777	594.81
462.997	598.81
463.217	615.81
463.437	620.81
463.657	634.81
463.876	598.81
464.096	594.81
464.316	580.81
464.536	589.81
464.755	573.81
464.975	585.81
465.195	601.81
465.414	677.81
465.634	597.81
465.854	581.81
466.073	542.81
466.293	522.81
466.512	512.81
466.732	514.81
466.951	529.81
467.171	516.81
467.391	513.81
467.61	538.81
467.829	506.81
468.049	516.81
468.268	523.81
468.488	477.81
468.707	478.81
468.927	489.81
469.146	481.81
469.365	485.81
469.585	502.81
469.804	489.81
470.023	518.81
470.243	501.81
470.462	534.81
470.681	527.81
470.901	533.81
471.12	517.81
471.339	498.81
471.558	504.81
471.777	513.81
471.997	519.81
472.216	525.81
472.435	538.81
472.654	516.81
472.873	530.81
473.092	520.81
473.311	484.81
473.53	516.81
473.749	518.81
473.968	538.81
474.187	651.81
474.406	658.81
474.625	556.81
474.844	526.81
475.063	503.81
475.282	518.81
475.501	529.81
475.72	505.81
475.939	514.81
476.158	511.81
476.377	521.81
476.596	527.81
476.814	548.81
477.033	546.81
477.252	545.81
477.471	559.81
477.69	544.81
477.908	563.81
478.127	560.81
478.346	561.81
478.564	563.81
478.783	573.81
479.002	610.81
479.22	577.81
479.439	593.81
479.658	609.81
479.876	624.81
480.095	640.81
480.313	651.81
480.532	648.81
480.751	632.81
480.969	646.81
481.188	669.81
481.406	676.81
481.624	650.81
481.843	626.81
482.061	622.81
482.28	612.81
482.498	600.81
482.717	591.81
482.935	598.81
483.153	603.81
483.372	593.81
483.59	583.81
483.808	580.81
484.027	594.81
484.245	578.81
484.463	590.81
484.681	605.81
484.9	603.81
485.118	608.81
485.336	591.81
485.554	619.81
485.772	589.81
485.99	621.81
486.209	633.81
486.427	619.81
486.645	640.81
486.863	642.81
487.081	638.81
487.299	640.81
487.517	642.81
487.735	643.81
487.953	640.81
488.171	629.81
488.389	632.81
488.607	640.81
488.825	637.81
489.043	638.81
489.261	644.81
489.479	646.81
489.696	637.81
489.914	662.81
490.132	646.81
490.35	664.81
490.568	662.81
490.786	689.81
491.003	702.81
491.221	711.81
491.439	718.81
491.657	728.81
491.874	731.81
492.092	745.81
492.31	747.81
492.527	729.81
492.745	766.81
492.963	764.81
493.18	725.81
493.398	738.81
493.615	762.81
493.833	748.81
494.05	766.81
494.268	750.81
494.485	768.81
494.703	777.81
494.92	749.81
495.138	741.81
495.355	783.81
495.573	750.81
495.79	761.81
496.008	776.81
496.225	772.81
496.442	731.81
496.66	782.81
496.877	752.81
497.094	763.81
497.312	765.81
497.529	782.81
497.746	794.81
497.963	798.81
498.181	814.81
498.398	836.81
498.615	864.81
498.832	901.81
499.049	925.81
499.267	949.81
499.484	953.81
499.701	1010.81
499.918	1064.81
500.135	1123.81
500.352	1172.81
500.569	1215.81
500.786	1208.81
501.003	1223.81
501.22	1146.81
501.437	1105.81
501.654	1081.81
501.871	973.81
502.088	981.81
502.305	940.81
502.522	890.81
502.739	857.81
502.956	862.81
503.172	814.81
503.389	811.81
503.606	802.81
503.823	788.81
504.04	791.81
504.256	771.81
504.473	785.81
504.69	780.81
504.907	794.81
505.123	752.81
505.34	751.81
505.557	704.81
505.773	746.81
505.99	737.81
506.207	704.81
506.423	698.81
506.64	722.81
506.856	708.81
507.073	682.81
507.289	680.81
507.506	699.81
507.722	709.81
507.939	718.81
508.155	669.81
508.372	696.81
508.588	670.81
508.805	660.81
509.021	669.81
509.238	680.81
509.454	694.81
509.67	658.81
509.887	688.81
510.103	636.81
510.319	668.81
510.536	734.81
510.752	1115.81
510.968	940.81
511.184	678.81
511.401	658.81
511.617	666.81
511.833	636.81
512.049	626.81
512.265	630.81
512.481	625.81
512.698	632.81
512.914	633.81
513.13	646.81
513.346	634.81
513.562	640.81
513.778	608.81
513.994	649.81
514.21	632.81
514.426	644.81
514.642	680.81
514.858	704.81
515.074	711.81
515.29	811.81
515.506	1131.81
515.721	971.81
515.937	709.81
516.153	654.81
516.369	666.81
516.585	680.81
516.801	640.81
517.016	677.81
517.232	656.81
517.448	676.81
517.664	674.81
517.879	690.81
518.095	701.81
518.311	665.81
518.527	664.81
518.742	663.81
518.958	652.81
519.173	652.81
519.389	629.81
519.605	632.81
519.82	636.81
520.036	660.81
520.251	655.81
520.467	683.81
520.682	680.81
520.898	669.81
521.113	697.81
521.329	705.81
521.544	788.81
521.76	909.81
521.975	1406.81
522.19	1356.81
522.406	818.81
522.621	682.81
522.836	612.81
523.052	601.81
523.267	600.81
523.482	586.81
523.698	556.81
523.913	554.81
524.128	571.81
524.343	556.81
524.559	552.81
524.774	561.81
524.989	549.81
525.204	549.81
525.419	526.81
525.634	520.81
525.849	558.81
526.064	555.81
526.28	533.81
526.495	534.81
526.71	510.81
526.925	533.81
527.14	526.81
527.355	534.81
527.57	541.81
527.785	520.81
527.999	534.81
528.214	506.81
528.429	505.81
528.644	544.81
528.859	533.81
529.074	540.81
529.289	565.81
529.503	609.81
529.718	556.81
529.933	582.81
530.148	532.81
530.363	518.81
530.577	539.81
530.792	506.81
531.007	511.81
531.221	517.81
531.436	510.81
531.651	508.81
531.865	522.81
532.08	479.81
532.295	514.81
532.509	503.81
532.724	497.81
532.938	515.81
533.153	507.81
533.367	490.81
533.582	522.81
533.796	516.81
534.011	490.81
534.225	493.81
534.44	490.81
534.654	496.81
534.868	520.81
535.083	491.81
535.297	492.81
535.511	485.81
535.726	512.81
535.94	480.81
536.154	495.81
536.369	509.81
536.583	499.81
536.797	501.81
537.011	477.81
537.225	484.81
537.44	471.81
537.654	482.81
537.868	460.81
538.082	465.81
538.296	468.81
538.51	495.81
538.724	490.81
538.938	472.81
539.153	468.81
539.367	487.81
539.581	501.81
539.795	478.81
540.009	476.81
540.222	487.81
540.436	458.81
540.65	491.81
540.864	497.81
541.078	478.81
541.292	484.81
541.506	504.81
541.72	477.81
541.934	492.81
542.147	483.81
542.361	453.81
542.575	498.81
542.789	482.81
543.002	482.81
543.216	485.81
543.43	490.81
543.644	473.81
543.857	472.81
544.071	456.81
544.285	481.81
544.498	462.81
544.712	483.81
544.925	483.81
545.139	476.81
545.352	454.81
545.566	466.81
545.779	472.81
545.993	474.81
546.206	495.81
546.42	475.81
546.633	477.81
546.847	486.81
547.06	479.81
547.274	484.81
547.487	474.81
547.7	461.81
547.914	468.81
548.127	471.81
548.34	452.81
548.554	479.81
548.767	477.81
548.98	475.81
549.193	470.81
549.407	471.81
549.62	456.81
549.833	490.81
550.046	485.81
550.259	487.81
550.473	493.81
550.686	459.81
550.899	454.81
551.112	468.81
551.325	455.81
551.538	462.81
551.751	476.81
551.964	461.81
552.177	440.81
552.39	454.81
552.603	466.81
552.816	459.81
553.029	494.81
553.242	516.81
553.455	462.81
553.667	487.81
553.88	482.81
554.093	474.81
554.306	490.81
554.519	470.81
554.732	445.81
554.944	466.81
555.157	459.81
555.37	441.81
555.583	445.81
555.795	441.81
556.008	437.81
556.221	435.81
556.433	424.81
556.646	432.81
556.859	419.81
557.071	436.81
557.284	434.81
557.496	409.81
557.709	429.81
557.921	420.81
558.134	413.81
558.346	428.81
558.559	413.81
558.771	419.81
558.984	401.81
559.196	423.81
559.409	424.81
559.621	404.81
559.833	408.81
560.046	394.81
560.258	407.81
560.47	419.81
560.683	425.81
560.895	390.81
561.107	407.81
561.32	392.81
561.532	408.81
561.744	418.81
561.956	418.81
562.168	423.81
562.381	400.81
562.593	413.81
562.805	416.81
563.017	411.81
563.229	422.81
563.441	408.81
563.653	422.81
563.865	428.81
564.077	410.81
564.289	428.81
564.501	445.81
564.713	432.81
564.925	432.81
565.137	469.81
565.349	440.81
565.561	452.81
565.773	446.81
565.985	474.81
566.197	497.81
566.408	511.81
566.62	513.81
566.832	547.81
567.044	542.81
567.255	547.81
567.467	563.81
567.679	560.81
567.891	588.81
568.102	581.81
568.314	555.81
568.526	524.81
568.737	489.81
568.949	515.81
569.161	479.81
569.372	459.81
569.584	433.81
569.795	446.81
570.007	460.81
570.218	486.81
570.43	456.81
570.641	452.81
570.853	419.81
571.064	404.81
571.276	419.81
571.487	403.81
571.698	398.81
571.91	388.81
572.121	396.81
572.333	389.81
572.544	403.81
572.755	378.81
572.966	371.81
573.178	364.81
573.389	356.81
573.6	358.81
573.811	349.81
574.023	388.81
574.234	362.81
574.445	363.81
574.656	347.81
574.867	341.81
575.078	360.81
575.289	354.81
575.501	357.81
575.712	331.81
575.923	351.81
576.134	368.81
576.345	349.81
576.556	325.81
576.767	334.81
576.978	344.81
577.188	349.81
577.399	362.81
577.61	362.81
577.821	361.81
578.032	327.81
578.243	372.81
578.454	524.81
578.665	410.81
578.875	347.81
579.086	334.81
579.297	338.81
579.508	325.81
579.718	324.81
579.929	334.81
580.14	335.81
580.35	312.81
580.561	314.81
580.772	342.81
580.982	321.81
581.193	336.81
581.403	326.81
581.614	322.81
581.825	321.81
582.035	328.81
582.246	337.81
582.456	310.81
582.667	336.81
582.877	305.81
583.087	316.81
583.298	317.81
583.508	324.81
583.719	307.81
583.929	345.81
584.139	325.81
584.35	313.81
584.56	309.81
584.77	311.81
584.981	299.81
585.191	326.81
585.401	307.81
585.611	318.81
585.821	305.81
586.032	335.81
586.242	316.81
586.452	324.81
586.662	321.81
586.872	317.81
587.082	313.81
587.292	309.81
587.502	318.81
587.713	322.81
587.923	315.81
588.133	308.81
588.343	313.81
588.553	317.81
588.762	330.81
588.972	303.81
589.182	306.81
589.392	301.81
589.602	316.81
589.812	310.81
590.022	305.81
590.232	300.81
590.441	304.81
590.651	300.81
590.861	316.81
591.071	301.81
591.281	318.81
591.49	314.81
591.7	332.81
591.91	310.81
592.119	337.81
592.329	332.81
592.539	340.81
592.748	331.81
592.958	334.81
593.167	340.81
593.377	347.81
593.587	335.81
593.796	345.81
594.006	350.81
594.215	332.81
594.424	351.81
594.634	338.81
594.843	333.81
595.053	350.81
595.262	334.81
595.472	333.81
595.681	311.81
595.89	311.81
596.1	308.81
596.309	298.81
596.518	299.81
596.727	292.81
596.937	299.81
597.146	294.81
597.355	301.81
597.564	285.81
597.774	296.81
597.983	289.81
598.192	292.81
598.401	284.81
598.61	286.81
598.819	289.81
599.028	287.81
599.237	273.81
599.446	273.81
599.655	290.81
599.864	297.81
600.073	287.81
600.282	270.81
600.491	271.81
600.7	279.81
600.909	264.81
601.118	273.81
601.327	266.81
601.536	269.81
601.745	264.81
601.953	269.81
602.162	283.81
602.371	252.81
602.58	271.81
602.789	262.81
602.997	272.81
603.206	263.81
603.415	254.81
603.623	259.81
603.832	266.81
604.041	281.81
604.249	269.81
604.458	264.81
604.666	269.81
604.875	246.81
605.084	254.81
605.292	269.81
605.501	256.81
605.709	264.81
605.918	265.81
606.126	263.81
606.334	247.81
606.543	254.81
606.751	276.81
606.96	282.81
607.168	254.81
607.376	263.81
607.585	261.81
607.793	254.81
608.001	257.81
608.21	249.81
608.418	261.81
608.626	254.81
608.834	253.81
609.043	260.81
609.251	251.81
609.459	258.81
609.667	235.81
609.875	233.81
610.083	260.81
610.291	253.81
610.499	263.81
610.707	268.81
610.916	240.81
611.124	249.81
611.332	262.81
611.54	256.81
611.748	265.81
611.955	275.81
612.163	262.81
612.371	259.81
612.579	246.81
612.787	234.81
612.995	255.81
613.203	266.81
613.411	249.81
613.618	240.81
613.826	255.81
614.034	235.81
614.242	260.81
614.449	252.81
614.657	256.81
614.865	238.81
615.072	260.81
615.28	240.81
615.488	241.81
615.695	252.81
615.903	237.81
616.111	268.81
616.318	244.81
616.526	247.81
616.733	264.81
616.941	238.81
617.148	238.81
617.356	244.81
617.563	250.81
617.771	256.81
617.978	242.81
618.185	225.81
618.393	260.81
618.6	246.81
618.807	237.81
619.015	247.81
619.222	227.81
619.429	236.81
619.637	246.81
619.844	244.81
620.051	234.81
620.258	243.81
620.466	245.81
620.673	232.81
620.88	229.81
621.087	232.81
621.294	219.81
621.501	230.81
621.708	233.81
621.915	232.81
622.122	232.81
622.329	236.81
622.536	243.81
622.743	227.81
622.95	225.81
623.157	215.81
623.364	225.81
623.571	232.81
623.778	232.81
623.985	233.81
624.192	216.81
624.399	228.81
624.606	225.81
624.812	224.81
625.019	213.81
625.226	213.81
625.433	222.81
625.639	229.81
625.846	226.81
626.053	221.81
626.259	215.81
626.466	219.81
626.673	217.81
626.879	217.81
627.086	222.81
627.293	213.81
627.499	220.81
627.706	217.81
627.912	210.81
628.119	207.81
628.325	224.81
628.532	218.81
628.738	223.81
628.945	228.81
629.151	215.81
629.357	205.81
629.564	186.81
629.77	207.81
629.976	188.81
630.183	190.81
630.389	192.81
630.595	205.81
630.802	202.81
631.008	210.81
631.214	215.81
631.42	212.81
631.627	197.81
631.833	201.81
632.039	221.81
632.245	207.81
632.451	198.81
632.657	196.81
632.863	204.81
633.069	188.81
633.275	193.81
633.481	202.81
633.688	181.81
633.893	198.81
634.099	184.81
634.305	186.81
634.511	204.81
634.717	182.81
634.923	203.81
635.129	186.81
635.335	183.81
635.541	197.81
635.747	181.81
635.952	179.81
636.158	193.81
636.364	196.81
636.57	201.81
636.775	204.81
636.981	196.81
637.187	200.81
637.392	181.81
637.598	172.81
637.804	183.81
638.009	190.81
638.215	189.81
638.421	183.81
638.626	195.81
638.832	193.81
639.037	192.81
639.243	157.81
639.448	180.81
639.654	183.81
639.859	191.81
640.065	173.81
640.27	183.81
640.475	166.81
640.681	185.81
640.886	176.81
641.091	167.81
641.297	188.81
641.502	167.81
641.707	176.81
641.913	180.81
642.118	165.81
642.323	172.81
642.528	178.81
642.733	176.81
642.939	177.81
643.144	188.81
643.349	171.81
643.554	160.81
643.759	168.81
643.964	168.81
644.169	169.81
644.374	176.81
644.579	178.81
644.784	177.81
644.989	179.81
645.194	178.81
645.399	169.81
645.604	170.81
645.809	178.81
646.014	155.81
646.219	164.81
646.423	168.81
646.628	195.81
646.833	168.81
647.038	180.81
647.243	184.81
647.447	165.81
647.652	176.81
647.857	172.81
648.062	184.81
648.266	193.81
648.471	171.81
648.676	186.81
648.88	173.81
649.085	186.81
649.289	195.81
649.494	184.81
649.698	186.81
649.903	195.81
650.107	164.81
650.312	169.81
650.516	179.81
650.721	155.81
650.925	169.81
651.13	161.81
651.334	158.81
651.539	144.81
651.743	150.81
651.947	133.81
652.152	156.81
652.356	152.81
652.56	156.81
652.764	158.81
652.969	157.81
653.173	142.81
653.377	156.81
653.581	132.81
653.785	133.81
653.99	128.81
654.194	142.81
654.398	140.81
654.602	145.81
654.806	147.81
655.01	145.81
655.214	152.81
655.418	142.81
655.622	146.81
655.826	137.81
656.03	154.81
656.234	140.81
656.438	146.81
656.642	148.81
656.846	150.81
657.049	134.81
657.253	149.81
657.457	133.81
657.661	121.81
657.865	112.81
658.068	118.81
658.272	116.81
658.476	101.81
658.68	112.81
658.883	100.81
659.087	100.81
659.291	103.81
659.494	125.81
659.698	110.81
659.901	97.81
660.105	93.81
660.309	98.81
660.512	96.81
660.716	104.81
660.919	96.81
661.123	79.81
661.326	90.81
661.53	80.81
661.733	96.81
661.936	95.81
662.14	78.81
662.343	91.81
662.546	82.81
662.75	89.81
662.953	82.81
663.156	80.81
663.36	77.81
663.563	68.81
663.766	84.81
663.969	86.81
664.173	99.81
664.376	79.81
664.579	96.81
664.782	84.81
664.985	71.81
665.188	106.81
665.391	72.81
665.594	92.81
665.797	77.81
666	56.81
666.203	77.81
666.406	99.81
666.609	88.81
666.812	82.81
667.015	80.81
667.218	73.81
667.421	85.81
667.624	79.81
667.827	67.81
668.03	93.81
668.232	68.81
668.435	78.81
668.638	82.81
668.841	82.81
669.043	79.81
669.246	81.81
669.449	75.81
669.651	78.81
669.854	89.81
670.057	71.81
670.259	83.81
670.462	81.81
670.665	81.81
670.867	81.81
671.07	68.81
671.272	86.81
671.475	83.81
671.677	83.81
671.88	77.81
672.082	77.81
672.284	64.81
672.487	82.81
672.689	83.81
672.892	78.81
