Data from 1976.PennyLincolnUp.Lamp.En5.5.200Scan.071719.P1.Changed Mount._HRD10591_16-01-34-864.txt Node
Date: Thu Jul 18 16:01:34 EDT 2019
User: cochatt
Spectrometer: HR+D1059
Trigger mode: 1
Integration Time (sec): 1.000000E-1
Scans to average: 1
Electric dark correction enabled: true
Nonlinearity correction enabled: false
Boxcar width: 0
XAxis mode: Wavelengths
Number of Pixels in Spectrum: 2048
>>>>>Begin Spectral Data<<<<<
223.165	-20.56
223.4	-20.56
223.635	-20.56
223.869	-15.56
224.104	-5.56
224.338	0.44
224.573	-12.56
224.808	-12.56
225.042	-8.56
225.277	-5.56
225.511	-1.56
225.746	-3.56
225.98	7.44
226.215	15.44
226.449	8.44
226.683	15.44
226.918	20.44
227.152	18.44
227.387	38.44
227.621	37.44
227.856	40.44
228.09	50.44
228.324	53.44
228.559	77.44
228.793	59.44
229.027	102.44
229.262	118.44
229.496	100.44
229.73	122.44
229.964	162.44
230.199	125.44
230.433	119.44
230.667	122.44
230.901	119.44
231.136	111.44
231.37	111.44
231.604	118.44
231.838	116.44
232.072	111.44
232.306	111.44
232.541	120.44
232.775	120.44
233.009	120.44
233.243	107.44
233.477	124.44
233.711	128.44
233.945	102.44
234.179	124.44
234.413	132.44
234.647	125.44
234.881	131.44
235.115	126.44
235.349	105.44
235.583	127.44
235.817	127.44
236.051	139.44
236.285	135.44
236.519	128.44
236.753	136.44
236.987	143.44
237.221	172.44
237.455	219.44
237.689	185.44
237.922	145.44
238.156	144.44
238.39	152.44
238.624	135.44
238.858	123.44
239.091	149.44
239.325	135.44
239.559	132.44
239.793	137.44
240.027	132.44
240.26	144.44
240.494	164.44
240.728	159.44
240.961	141.44
241.195	138.44
241.429	141.44
241.662	139.44
241.896	133.44
242.13	149.44
242.363	143.44
242.597	140.44
242.83	139.44
243.064	151.44
243.298	147.44
243.531	142.44
243.765	142.44
243.998	131.44
244.232	168.44
244.465	140.44
244.699	145.44
244.932	147.44
245.166	144.44
245.399	152.44
245.633	149.44
245.866	143.44
246.099	148.44
246.333	156.44
246.566	159.44
246.8	144.44
247.033	165.44
247.266	164.44
247.5	169.44
247.733	162.44
247.966	169.44
248.2	175.44
248.433	174.44
248.666	182.44
248.899	193.44
249.133	220.44
249.366	202.44
249.599	204.44
249.832	192.44
250.066	200.44
250.299	200.44
250.532	189.44
250.765	215.44
250.998	226.44
251.231	238.44
251.465	227.44
251.698	208.44
251.931	221.44
252.164	202.44
252.397	216.44
252.63	222.44
252.863	213.44
253.096	234.44
253.329	231.44
253.562	241.44
253.795	220.44
254.028	202.44
254.261	219.44
254.494	238.44
254.727	249.44
254.96	287.44
255.193	287.44
255.426	260.44
255.659	221.44
255.892	234.44
256.124	252.44
256.357	254.44
256.59	233.44
256.823	220.44
257.056	218.44
257.289	211.44
257.521	208.44
257.754	208.44
257.987	235.44
258.22	200.44
258.452	215.44
258.685	213.44
258.918	222.44
259.151	227.44
259.383	231.44
259.616	216.44
259.849	246.44
260.081	262.44
260.314	271.44
260.547	269.44
260.779	270.44
261.012	252.44
261.244	233.44
261.477	247.44
261.71	227.44
261.942	232.44
262.175	235.44
262.407	233.44
262.64	228.44
262.872	224.44
263.105	231.44
263.337	219.44
263.57	222.44
263.802	224.44
264.035	230.44
264.267	245.44
264.499	230.44
264.732	229.44
264.964	230.44
265.197	236.44
265.429	227.44
265.661	232.44
265.894	222.44
266.126	215.44
266.358	249.44
266.591	237.44
266.823	236.44
267.055	261.44
267.287	246.44
267.52	233.44
267.752	235.44
267.984	248.44
268.216	260.44
268.448	261.44
268.681	255.44
268.913	264.44
269.145	287.44
269.377	295.44
269.609	301.44
269.841	290.44
270.073	271.44
270.306	318.44
270.538	330.44
270.77	332.44
271.002	319.44
271.234	314.44
271.466	326.44
271.698	320.44
271.93	336.44
272.162	345.44
272.394	351.44
272.626	329.44
272.858	290.44
273.09	315.44
273.322	288.44
273.553	288.44
273.785	291.44
274.017	286.44
274.249	299.44
274.481	286.44
274.713	264.44
274.945	283.44
275.176	283.44
275.408	291.44
275.64	291.44
275.872	296.44
276.104	288.44
276.335	300.44
276.567	287.44
276.799	306.44
277.031	321.44
277.262	333.44
277.494	331.44
277.726	325.44
277.957	300.44
278.189	295.44
278.421	301.44
278.652	301.44
278.884	292.44
279.115	283.44
279.347	279.44
279.579	287.44
279.81	295.44
280.042	287.44
280.273	271.44
280.505	293.44
280.736	282.44
280.968	284.44
281.199	298.44
281.431	294.44
281.662	291.44
281.894	293.44
282.125	306.44
282.356	306.44
282.588	351.44
282.819	330.44
283.051	314.44
283.282	318.44
283.513	311.44
283.745	308.44
283.976	302.44
284.207	298.44
284.439	316.44
284.67	304.44
284.901	303.44
285.132	314.44
285.364	295.44
285.595	303.44
285.826	311.44
286.057	329.44
286.288	313.44
286.52	312.44
286.751	295.44
286.982	321.44
287.213	303.44
287.444	328.44
287.675	327.44
287.906	326.44
288.138	315.44
288.369	320.44
288.6	335.44
288.831	344.44
289.062	336.44
289.293	329.44
289.524	312.44
289.755	327.44
289.986	322.44
290.217	325.44
290.448	311.44
290.679	335.44
290.91	322.44
291.141	308.44
291.371	320.44
291.602	323.44
291.833	333.44
292.064	325.44
292.295	304.44
292.526	310.44
292.757	325.44
292.987	318.44
293.218	315.44
293.449	329.44
293.68	335.44
293.91	316.44
294.141	301.44
294.372	330.44
294.603	324.44
294.833	331.44
295.064	330.44
295.295	329.44
295.525	323.44
295.756	336.44
295.987	327.44
296.217	342.44
296.448	349.44
296.679	356.44
296.909	339.44
297.14	321.44
297.37	323.44
297.601	335.44
297.831	349.44
298.062	346.44
298.292	327.44
298.523	344.44
298.753	345.44
298.984	331.44
299.214	359.44
299.445	338.44
299.675	336.44
299.905	335.44
300.136	355.44
300.366	346.44
300.597	355.44
300.827	347.44
301.057	360.44
301.288	350.44
301.518	349.44
301.748	350.44
301.979	354.44
302.209	359.44
302.439	365.44
302.669	367.44
302.9	368.44
303.13	359.44
303.36	349.44
303.59	342.44
303.82	362.44
304.051	370.44
304.281	362.44
304.511	376.44
304.741	368.44
304.971	366.44
305.201	367.44
305.431	348.44
305.661	364.44
305.891	345.44
306.121	347.44
306.352	368.44
306.582	372.44
306.812	354.44
307.042	356.44
307.272	373.44
307.502	352.44
307.731	374.44
307.961	372.44
308.191	364.44
308.421	349.44
308.651	346.44
308.881	379.44
309.111	356.44
309.341	352.44
309.571	391.44
309.8	382.44
310.03	390.44
310.26	388.44
310.49	380.44
310.72	400.44
310.949	407.44
311.179	423.44
311.409	419.44
311.639	398.44
311.868	401.44
312.098	407.44
312.328	400.44
312.557	414.44
312.787	410.44
313.017	432.44
313.246	417.44
313.476	406.44
313.706	408.44
313.935	404.44
314.165	435.44
314.394	423.44
314.624	431.44
314.853	423.44
315.083	416.44
315.312	399.44
315.542	398.44
315.771	398.44
316.001	412.44
316.23	389.44
316.46	411.44
316.689	392.44
316.919	401.44
317.148	396.44
317.377	421.44
317.607	410.44
317.836	392.44
318.065	400.44
318.295	411.44
318.524	406.44
318.753	425.44
318.983	404.44
319.212	413.44
319.441	422.44
319.67	388.44
319.9	415.44
320.129	395.44
320.358	403.44
320.587	410.44
320.816	430.44
321.046	409.44
321.275	416.44
321.504	423.44
321.733	409.44
321.962	417.44
322.191	429.44
322.42	454.44
322.649	462.44
322.878	469.44
323.108	467.44
323.337	477.44
323.566	481.44
323.795	524.44
324.024	570.44
324.253	662.44
324.482	910.44
324.71	1378.44
324.939	2050.44
325.168	1767.44
325.397	914.44
325.626	635.44
325.855	537.44
326.084	518.44
326.313	496.44
326.542	522.44
326.77	538.44
326.999	648.44
327.228	834.44
327.457	1222.44
327.686	1574.44
327.914	1056.44
328.143	689.44
328.372	628.44
328.6	592.44
328.829	572.44
329.058	554.44
329.287	586.44
329.515	564.44
329.744	539.44
329.972	525.44
330.201	542.44
330.43	559.44
330.658	588.44
330.887	609.44
331.115	591.44
331.344	555.44
331.572	522.44
331.801	529.44
332.03	513.44
332.258	535.44
332.486	478.44
332.715	490.44
332.943	511.44
333.172	502.44
333.4	523.44
333.629	529.44
333.857	526.44
334.085	535.44
334.314	551.44
334.542	569.44
334.771	581.44
334.999	531.44
335.227	540.44
335.455	482.44
335.684	503.44
335.912	474.44
336.14	452.44
336.369	500.44
336.597	471.44
336.825	470.44
337.053	476.44
337.281	480.44
337.51	483.44
337.738	484.44
337.966	493.44
338.194	493.44
338.422	481.44
338.65	466.44
338.878	485.44
339.106	470.44
339.334	467.44
339.562	460.44
339.79	465.44
340.018	471.44
340.246	459.44
340.474	459.44
340.702	467.44
340.93	482.44
341.158	462.44
341.386	469.44
341.614	462.44
341.842	428.44
342.07	446.44
342.298	448.44
342.526	443.44
342.754	456.44
342.981	463.44
343.209	457.44
343.437	444.44
343.665	459.44
343.893	477.44
344.12	501.44
344.348	487.44
344.576	478.44
344.804	464.44
345.031	479.44
345.259	466.44
345.487	474.44
345.714	453.44
345.942	472.44
346.17	461.44
346.397	468.44
346.625	460.44
346.853	439.44
347.08	447.44
347.308	422.44
347.535	447.44
347.763	468.44
347.99	444.44
348.218	465.44
348.445	470.44
348.673	455.44
348.9	438.44
349.128	446.44
349.355	432.44
349.583	442.44
349.81	420.44
350.037	424.44
350.265	423.44
350.492	430.44
350.72	443.44
350.947	458.44
351.174	430.44
351.402	458.44
351.629	454.44
351.856	432.44
352.083	469.44
352.311	438.44
352.538	446.44
352.765	460.44
352.992	461.44
353.22	437.44
353.447	441.44
353.674	436.44
353.901	424.44
354.128	436.44
354.355	441.44
354.583	430.44
354.81	403.44
355.037	427.44
355.264	419.44
355.491	419.44
355.718	408.44
355.945	404.44
356.172	407.44
356.399	409.44
356.626	420.44
356.853	402.44
357.08	410.44
357.307	431.44
357.534	410.44
357.761	408.44
357.988	412.44
358.215	430.44
358.441	430.44
358.668	425.44
358.895	427.44
359.122	419.44
359.349	439.44
359.576	438.44
359.802	437.44
360.029	477.44
360.256	500.44
360.483	440.44
360.709	463.44
360.936	462.44
361.163	436.44
361.39	436.44
361.616	462.44
361.843	448.44
362.07	454.44
362.296	428.44
362.523	448.44
362.749	450.44
362.976	434.44
363.203	448.44
363.429	415.44
363.656	414.44
363.882	436.44
364.109	434.44
364.335	431.44
364.562	436.44
364.788	424.44
365.015	426.44
365.241	430.44
365.468	416.44
365.694	419.44
365.92	421.44
366.147	414.44
366.373	440.44
366.599	437.44
366.826	413.44
367.052	445.44
367.278	436.44
367.505	425.44
367.731	442.44
367.957	443.44
368.184	437.44
368.41	434.44
368.636	446.44
368.862	470.44
369.089	429.44
369.315	426.44
369.541	439.44
369.767	420.44
369.993	428.44
370.219	422.44
370.445	437.44
370.672	413.44
370.898	431.44
371.124	420.44
371.35	417.44
371.576	427.44
371.802	440.44
372.028	414.44
372.254	434.44
372.48	430.44
372.706	440.44
372.932	427.44
373.158	440.44
373.384	443.44
373.61	444.44
373.835	427.44
374.061	431.44
374.287	462.44
374.513	444.44
374.739	464.44
374.965	452.44
375.191	457.44
375.416	455.44
375.642	437.44
375.868	432.44
376.094	434.44
376.319	438.44
376.545	413.44
376.771	440.44
376.997	442.44
377.222	427.44
377.448	415.44
377.674	430.44
377.899	435.44
378.125	424.44
378.35	423.44
378.576	439.44
378.802	435.44
379.027	432.44
379.253	434.44
379.478	418.44
379.704	420.44
379.929	438.44
380.155	442.44
380.38	436.44
380.606	434.44
380.831	451.44
381.057	448.44
381.282	443.44
381.507	423.44
381.733	420.44
381.958	416.44
382.184	447.44
382.409	450.44
382.634	463.44
382.86	432.44
383.085	440.44
383.31	438.44
383.535	445.44
383.761	452.44
383.986	460.44
384.211	469.44
384.436	486.44
384.662	464.44
384.887	458.44
385.112	446.44
385.337	468.44
385.562	493.44
385.787	484.44
386.013	493.44
386.238	490.44
386.463	458.44
386.688	478.44
386.913	483.44
387.138	474.44
387.363	452.44
387.588	468.44
387.813	477.44
388.038	478.44
388.263	486.44
388.488	498.44
388.713	482.44
388.938	484.44
389.163	476.44
389.387	478.44
389.612	472.44
389.837	489.44
390.062	463.44
390.287	471.44
390.512	476.44
390.736	492.44
390.961	502.44
391.186	484.44
391.411	490.44
391.636	482.44
391.86	487.44
392.085	511.44
392.31	514.44
392.534	498.44
392.759	494.44
392.984	485.44
393.208	471.44
393.433	480.44
393.658	485.44
393.882	503.44
394.107	488.44
394.331	480.44
394.556	505.44
394.78	492.44
395.005	486.44
395.229	494.44
395.454	502.44
395.678	522.44
395.903	500.44
396.127	537.44
396.352	547.44
396.576	511.44
396.801	491.44
397.025	503.44
397.249	492.44
397.474	526.44
397.698	538.44
397.922	552.44
398.147	541.44
398.371	558.44
398.595	541.44
398.82	546.44
399.044	552.44
399.268	598.44
399.492	614.44
399.717	667.44
399.941	698.44
400.165	726.44
400.389	684.44
400.613	620.44
400.837	610.44
401.062	588.44
401.286	589.44
401.51	561.44
401.734	570.44
401.958	569.44
402.182	546.44
402.406	570.44
402.63	577.44
402.854	606.44
403.078	598.44
403.302	582.44
403.526	566.44
403.75	591.44
403.974	572.44
404.198	599.44
404.422	610.44
404.645	578.44
404.869	612.44
405.093	622.44
405.317	691.44
405.541	722.44
405.765	667.44
405.988	605.44
406.212	615.44
406.436	631.44
406.66	656.44
406.883	648.44
407.107	638.44
407.331	701.44
407.555	776.44
407.778	760.44
408.002	694.44
408.226	667.44
408.449	638.44
408.673	630.44
408.896	658.44
409.12	703.44
409.344	660.44
409.567	611.44
409.791	614.44
410.014	603.44
410.238	587.44
410.461	560.44
410.685	599.44
410.908	574.44
411.132	658.44
411.355	650.44
411.578	615.44
411.802	587.44
412.025	600.44
412.249	598.44
412.472	612.44
412.695	649.44
412.919	633.44
413.142	604.44
413.365	592.44
413.589	589.44
413.812	571.44
414.035	562.44
414.258	543.44
414.482	540.44
414.705	560.44
414.928	556.44
415.151	548.44
415.374	558.44
415.597	562.44
415.821	563.44
416.044	559.44
416.267	543.44
416.49	552.44
416.713	546.44
416.936	526.44
417.159	550.44
417.382	555.44
417.605	521.44
417.828	566.44
418.051	582.44
418.274	534.44
418.497	542.44
418.72	556.44
418.943	539.44
419.166	567.44
419.389	596.44
419.611	590.44
419.834	600.44
420.057	591.44
420.28	590.44
420.503	563.44
420.726	563.44
420.948	586.44
421.171	614.44
421.394	674.44
421.617	588.44
421.839	574.44
422.062	552.44
422.285	585.44
422.507	634.44
422.73	710.44
422.953	681.44
423.175	634.44
423.398	602.44
423.621	594.44
423.843	622.44
424.066	623.44
424.288	638.44
424.511	630.44
424.733	675.44
424.956	727.44
425.178	717.44
425.401	746.44
425.623	745.44
425.846	667.44
426.068	593.44
426.291	620.44
426.513	613.44
426.735	593.44
426.958	632.44
427.18	724.44
427.402	870.44
427.625	948.44
427.847	824.44
428.069	690.44
428.292	638.44
428.514	598.44
428.736	562.44
428.958	539.44
429.181	534.44
429.403	560.44
429.625	571.44
429.847	581.44
430.069	690.44
430.292	654.44
430.514	564.44
430.736	556.44
430.958	550.44
431.18	527.44
431.402	516.44
431.624	538.44
431.846	520.44
432.068	530.44
432.29	540.44
432.512	544.44
432.734	536.44
432.956	534.44
433.178	556.44
433.4	538.44
433.622	530.44
433.844	546.44
434.066	518.44
434.287	538.44
434.509	550.44
434.731	554.44
434.953	562.44
435.175	574.44
435.397	603.44
435.618	608.44
435.84	655.44
436.062	758.44
436.284	827.44
436.505	697.44
436.727	616.44
436.949	581.44
437.17	551.44
437.392	546.44
437.614	583.44
437.835	579.44
438.057	670.44
438.278	776.44
438.5	772.44
438.721	876.44
438.943	843.44
439.165	657.44
439.386	590.44
439.608	635.44
439.829	606.44
440.05	634.44
440.272	689.44
440.493	640.44
440.715	591.44
440.936	598.44
441.158	569.44
441.379	588.44
441.6	559.44
441.822	584.44
442.043	621.44
442.264	744.44
442.486	778.44
442.707	634.44
442.928	614.44
443.149	634.44
443.371	648.44
443.592	685.44
443.813	794.44
444.034	858.44
444.255	711.44
444.476	641.44
444.698	624.44
444.919	633.44
445.14	754.44
445.361	700.44
445.582	659.44
445.803	702.44
446.024	810.44
446.245	828.44
446.466	732.44
446.687	644.44
446.908	584.44
447.129	578.44
447.35	568.44
447.571	566.44
447.792	530.44
448.013	542.44
448.234	556.44
448.455	617.44
448.675	713.44
448.896	859.44
449.117	734.44
449.338	695.44
449.559	770.44
449.779	883.44
450	704.44
450.221	599.44
450.442	575.44
450.662	550.44
450.883	533.44
451.104	568.44
451.324	534.44
451.545	501.44
451.766	517.44
451.986	502.44
452.207	493.44
452.428	507.44
452.648	493.44
452.869	487.44
453.089	518.44
453.31	512.44
453.53	515.44
453.751	487.44
453.971	504.44
454.192	505.44
454.412	495.44
454.633	472.44
454.853	485.44
455.073	488.44
455.294	521.44
455.514	596.44
455.734	567.44
455.955	479.44
456.175	481.44
456.395	460.44
456.616	461.44
456.836	468.44
457.056	472.44
457.276	468.44
457.497	451.44
457.717	458.44
457.937	486.44
458.157	470.44
458.377	509.44
458.598	495.44
458.818	548.44
459.038	618.44
459.258	660.44
459.478	567.44
459.698	538.44
459.918	534.44
460.138	539.44
460.358	543.44
460.578	559.44
460.798	544.44
461.018	547.44
461.238	534.44
461.458	529.44
461.678	556.44
461.898	568.44
462.118	570.44
462.338	580.44
462.558	588.44
462.777	598.44
462.997	597.44
463.217	631.44
463.437	657.44
463.657	602.44
463.876	598.44
464.096	610.44
464.316	603.44
464.536	601.44
464.755	601.44
464.975	603.44
465.195	620.44
465.414	660.44
465.634	609.44
465.854	559.44
466.073	533.44
466.293	531.44
466.512	524.44
466.732	515.44
466.951	503.44
467.171	515.44
467.391	527.44
467.61	499.44
467.829	525.44
468.049	540.44
468.268	532.44
468.488	501.44
468.707	492.44
468.927	483.44
469.146	479.44
469.365	501.44
469.585	515.44
469.804	518.44
470.023	510.44
470.243	517.44
470.462	531.44
470.681	503.44
470.901	517.44
471.12	534.44
471.339	519.44
471.558	503.44
471.777	519.44
471.997	484.44
472.216	502.44
472.435	543.44
472.654	526.44
472.873	504.44
473.092	522.44
473.311	502.44
473.53	502.44
473.749	493.44
473.968	558.44
474.187	654.44
474.406	692.44
474.625	576.44
474.844	532.44
475.063	532.44
475.282	504.44
475.501	509.44
475.72	519.44
475.939	519.44
476.158	507.44
476.377	509.44
476.596	525.44
476.814	526.44
477.033	544.44
477.252	556.44
477.471	542.44
477.69	555.44
477.908	547.44
478.127	552.44
478.346	559.44
478.564	574.44
478.783	583.44
479.002	592.44
479.22	555.44
479.439	595.44
479.658	607.44
479.876	614.44
480.095	617.44
480.313	647.44
480.532	647.44
480.751	642.44
480.969	633.44
481.188	691.44
481.406	718.44
481.624	650.44
481.843	605.44
482.061	601.44
482.28	604.44
482.498	605.44
482.717	595.44
482.935	596.44
483.153	597.44
483.372	596.44
483.59	610.44
483.808	585.44
484.027	594.44
484.245	598.44
484.463	606.44
484.681	605.44
484.9	603.44
485.118	620.44
485.336	616.44
485.554	619.44
485.772	622.44
485.99	590.44
486.209	611.44
486.427	607.44
486.645	646.44
486.863	667.44
487.081	639.44
487.299	643.44
487.517	630.44
487.735	630.44
487.953	610.44
488.171	631.44
488.389	630.44
488.607	644.44
488.825	619.44
489.043	626.44
489.261	640.44
489.479	654.44
489.696	655.44
489.914	644.44
490.132	648.44
490.35	664.44
490.568	664.44
490.786	683.44
491.003	720.44
491.221	698.44
491.439	685.44
491.657	708.44
491.874	727.44
492.092	728.44
492.31	726.44
492.527	755.44
492.745	743.44
492.963	713.44
493.18	741.44
493.398	732.44
493.615	759.44
493.833	727.44
494.05	746.44
494.268	780.44
494.485	761.44
494.703	775.44
494.92	774.44
495.138	750.44
495.355	759.44
495.573	762.44
495.79	751.44
496.008	751.44
496.225	754.44
496.442	750.44
496.66	776.44
496.877	770.44
497.094	761.44
497.312	778.44
497.529	781.44
497.746	819.44
497.963	795.44
498.181	842.44
498.398	830.44
498.615	859.44
498.832	863.44
499.049	867.44
499.267	937.44
499.484	962.44
499.701	1010.44
499.918	1071.44
500.135	1091.44
500.352	1206.44
500.569	1224.44
500.786	1219.44
501.003	1186.44
501.22	1152.44
501.437	1110.44
501.654	1015.44
501.871	1014.44
502.088	958.44
502.305	939.44
502.522	913.44
502.739	861.44
502.956	847.44
503.172	827.44
503.389	820.44
503.606	804.44
503.823	792.44
504.04	790.44
504.256	775.44
504.473	779.44
504.69	763.44
504.907	779.44
505.123	749.44
505.34	712.44
505.557	740.44
505.773	752.44
505.99	737.44
506.207	721.44
506.423	744.44
506.64	700.44
506.856	683.44
507.073	680.44
507.289	712.44
507.506	677.44
507.722	706.44
507.939	719.44
508.155	706.44
508.372	673.44
508.588	642.44
508.805	653.44
509.021	654.44
509.238	675.44
509.454	678.44
509.67	678.44
509.887	682.44
510.103	660.44
510.319	648.44
510.536	728.44
510.752	1121.44
510.968	911.44
511.184	695.44
511.401	642.44
511.617	640.44
511.833	616.44
512.049	644.44
512.265	637.44
512.481	641.44
512.698	624.44
512.914	617.44
513.13	619.44
513.346	599.44
513.562	620.44
513.778	602.44
513.994	639.44
514.21	637.44
514.426	645.44
514.642	674.44
514.858	686.44
515.074	754.44
515.29	812.44
515.506	1126.44
515.721	953.44
515.937	720.44
516.153	667.44
516.369	671.44
516.585	647.44
516.801	651.44
517.016	677.44
517.232	684.44
517.448	660.44
517.664	671.44
517.879	686.44
518.095	676.44
518.311	686.44
518.527	666.44
518.742	658.44
518.958	681.44
519.173	662.44
519.389	638.44
519.605	630.44
519.82	626.44
520.036	644.44
520.251	637.44
520.467	638.44
520.682	647.44
520.898	666.44
521.113	674.44
521.329	708.44
521.544	766.44
521.76	950.44
521.975	1418.44
522.19	1365.44
522.406	850.44
522.621	678.44
522.836	634.44
523.052	593.44
523.267	600.44
523.482	581.44
523.698	582.44
523.913	580.44
524.128	578.44
524.343	558.44
524.559	566.44
524.774	559.44
524.989	574.44
525.204	576.44
525.419	548.44
525.634	549.44
525.849	532.44
526.064	555.44
526.28	528.44
526.495	527.44
526.71	544.44
526.925	501.44
527.14	510.44
527.355	542.44
527.57	519.44
527.785	538.44
527.999	526.44
528.214	535.44
528.429	531.44
528.644	530.44
528.859	514.44
529.074	528.44
529.289	551.44
529.503	604.44
529.718	586.44
529.933	565.44
530.148	548.44
530.363	530.44
530.577	509.44
530.792	496.44
531.007	509.44
531.221	510.44
531.436	511.44
531.651	499.44
531.865	510.44
532.08	493.44
532.295	508.44
532.509	492.44
532.724	512.44
532.938	474.44
533.153	512.44
533.367	518.44
533.582	500.44
533.796	514.44
534.011	534.44
534.225	510.44
534.44	507.44
534.654	518.44
534.868	488.44
535.083	494.44
535.297	478.44
535.511	489.44
535.726	502.44
535.94	516.44
536.154	482.44
536.369	490.44
536.583	483.44
536.797	495.44
537.011	480.44
537.225	463.44
537.44	478.44
537.654	467.44
537.868	498.44
538.082	485.44
538.296	498.44
538.51	479.44
538.724	492.44
538.938	483.44
539.153	511.44
539.367	480.44
539.581	485.44
539.795	471.44
540.009	469.44
540.222	485.44
540.436	466.44
540.65	473.44
540.864	470.44
541.078	512.44
541.292	473.44
541.506	464.44
541.72	482.44
541.934	496.44
542.147	477.44
542.361	492.44
542.575	471.44
542.789	473.44
543.002	477.44
543.216	492.44
543.43	475.44
543.644	479.44
543.857	460.44
544.071	475.44
544.285	488.44
544.498	489.44
544.712	487.44
544.925	477.44
545.139	491.44
545.352	484.44
545.566	483.44
545.779	469.44
545.993	451.44
546.206	486.44
546.42	478.44
546.633	467.44
546.847	473.44
547.06	470.44
547.274	461.44
547.487	482.44
547.7	471.44
547.914	474.44
548.127	471.44
548.34	484.44
548.554	476.44
548.767	456.44
548.98	476.44
549.193	464.44
549.407	487.44
549.62	478.44
549.833	465.44
550.046	479.44
550.259	474.44
550.473	467.44
550.686	491.44
550.899	471.44
551.112	470.44
551.325	460.44
551.538	482.44
551.751	468.44
551.964	458.44
552.177	491.44
552.39	448.44
552.603	488.44
552.816	456.44
553.029	458.44
553.242	466.44
553.455	484.44
553.667	492.44
553.88	506.44
554.093	500.44
554.306	495.44
554.519	458.44
554.732	458.44
554.944	467.44
555.157	466.44
555.37	453.44
555.583	458.44
555.795	434.44
556.008	431.44
556.221	445.44
556.433	427.44
556.646	419.44
556.859	423.44
557.071	411.44
557.284	412.44
557.496	412.44
557.709	420.44
557.921	423.44
558.134	414.44
558.346	402.44
558.559	419.44
558.771	416.44
558.984	417.44
559.196	429.44
559.409	416.44
559.621	425.44
559.833	392.44
560.046	429.44
560.258	409.44
560.47	413.44
560.683	409.44
560.895	411.44
561.107	418.44
561.32	408.44
561.532	422.44
561.744	398.44
561.956	410.44
562.168	411.44
562.381	431.44
562.593	425.44
562.805	458.44
563.017	390.44
563.229	414.44
563.441	406.44
563.653	391.44
563.865	417.44
564.077	411.44
564.289	424.44
564.501	431.44
564.713	450.44
564.925	458.44
565.137	459.44
565.349	463.44
565.561	466.44
565.773	463.44
565.985	469.44
566.197	497.44
566.408	492.44
566.62	514.44
566.832	525.44
567.044	534.44
567.255	551.44
567.467	544.44
567.679	579.44
567.891	582.44
568.102	594.44
568.314	572.44
568.526	527.44
568.737	526.44
568.949	505.44
569.161	469.44
569.372	473.44
569.584	461.44
569.795	447.44
570.007	452.44
570.218	463.44
570.43	448.44
570.641	434.44
570.853	411.44
571.064	393.44
571.276	420.44
571.487	418.44
571.698	410.44
571.91	386.44
572.121	391.44
572.333	397.44
572.544	388.44
572.755	362.44
572.966	363.44
573.178	378.44
573.389	356.44
573.6	362.44
573.811	380.44
574.023	361.44
574.234	375.44
574.445	373.44
574.656	360.44
574.867	354.44
575.078	349.44
575.289	366.44
575.501	361.44
575.712	349.44
575.923	374.44
576.134	352.44
576.345	348.44
576.556	353.44
576.767	341.44
576.978	339.44
577.188	340.44
577.399	350.44
577.61	344.44
577.821	331.44
578.032	334.44
578.243	368.44
578.454	516.44
578.665	411.44
578.875	347.44
579.086	344.44
579.297	324.44
579.508	321.44
579.718	334.44
579.929	329.44
580.14	332.44
580.35	314.44
580.561	323.44
580.772	346.44
580.982	329.44
581.193	329.44
581.403	315.44
581.614	334.44
581.825	328.44
582.035	321.44
582.246	314.44
582.456	332.44
582.667	330.44
582.877	325.44
583.087	328.44
583.298	332.44
583.508	318.44
583.719	317.44
583.929	305.44
584.139	322.44
584.35	320.44
584.56	301.44
584.77	330.44
584.981	311.44
585.191	296.44
585.401	314.44
585.611	322.44
585.821	328.44
586.032	311.44
586.242	320.44
586.452	311.44
586.662	324.44
586.872	332.44
587.082	301.44
587.292	325.44
587.502	300.44
587.713	321.44
587.923	312.44
588.133	326.44
588.343	300.44
588.553	303.44
588.762	316.44
588.972	327.44
589.182	320.44
589.392	304.44
589.602	303.44
589.812	331.44
590.022	320.44
590.232	297.44
590.441	303.44
590.651	303.44
590.861	301.44
591.071	309.44
591.281	328.44
591.49	322.44
591.7	327.44
591.91	308.44
592.119	326.44
592.329	329.44
592.539	355.44
592.748	330.44
592.958	357.44
593.167	346.44
593.377	338.44
593.587	374.44
593.796	350.44
594.006	353.44
594.215	343.44
594.424	340.44
594.634	340.44
594.843	327.44
595.053	324.44
595.262	330.44
595.472	338.44
595.681	306.44
595.89	317.44
596.1	330.44
596.309	316.44
596.518	307.44
596.727	311.44
596.937	297.44
597.146	293.44
597.355	277.44
597.564	285.44
597.774	282.44
597.983	295.44
598.192	303.44
598.401	283.44
598.61	281.44
598.819	300.44
599.028	278.44
599.237	290.44
599.446	276.44
599.655	275.44
599.864	294.44
600.073	268.44
600.282	275.44
600.491	296.44
600.7	272.44
600.909	268.44
601.118	281.44
601.327	294.44
601.536	276.44
601.745	273.44
601.953	277.44
602.162	263.44
602.371	282.44
602.58	291.44
602.789	276.44
602.997	278.44
603.206	266.44
603.415	262.44
603.623	255.44
603.832	269.44
604.041	258.44
604.249	272.44
604.458	270.44
604.666	259.44
604.875	262.44
605.084	264.44
605.292	251.44
605.501	266.44
605.709	274.44
605.918	254.44
606.126	255.44
606.334	271.44
606.543	253.44
606.751	264.44
606.96	252.44
607.168	250.44
607.376	240.44
607.585	264.44
607.793	274.44
608.001	261.44
608.21	262.44
608.418	252.44
608.626	235.44
608.834	240.44
609.043	266.44
609.251	271.44
609.459	253.44
609.667	263.44
609.875	260.44
610.083	259.44
610.291	250.44
610.499	252.44
610.707	273.44
610.916	249.44
611.124	259.44
611.332	254.44
611.54	263.44
611.748	265.44
611.955	271.44
612.163	259.44
612.371	261.44
612.579	243.44
612.787	253.44
612.995	259.44
613.203	246.44
613.411	255.44
613.618	263.44
613.826	244.44
614.034	234.44
614.242	259.44
614.449	250.44
614.657	256.44
614.865	258.44
615.072	255.44
615.28	254.44
615.488	244.44
615.695	259.44
615.903	252.44
616.111	262.44
616.318	254.44
616.526	252.44
616.733	252.44
616.941	238.44
617.148	254.44
617.356	242.44
617.563	266.44
617.771	250.44
617.978	232.44
618.185	243.44
618.393	226.44
618.6	245.44
618.807	262.44
619.015	259.44
619.222	238.44
619.429	256.44
619.637	234.44
619.844	251.44
620.051	237.44
620.258	237.44
620.466	227.44
620.673	242.44
620.88	227.44
621.087	221.44
621.294	220.44
621.501	234.44
621.708	242.44
621.915	220.44
622.122	221.44
622.329	240.44
622.536	230.44
622.743	224.44
622.95	233.44
623.157	229.44
623.364	217.44
623.571	226.44
623.778	223.44
623.985	233.44
624.192	207.44
624.399	214.44
624.606	234.44
624.812	222.44
625.019	220.44
625.226	223.44
625.433	213.44
625.639	220.44
625.846	220.44
626.053	219.44
626.259	215.44
626.466	216.44
626.673	210.44
626.879	218.44
627.086	207.44
627.293	214.44
627.499	215.44
627.706	216.44
627.912	206.44
628.119	219.44
628.325	226.44
628.532	219.44
628.738	229.44
628.945	213.44
629.151	206.44
629.357	207.44
629.564	216.44
629.77	214.44
629.976	218.44
630.183	211.44
630.389	194.44
630.595	198.44
630.802	203.44
631.008	205.44
631.214	207.44
631.42	199.44
631.627	210.44
631.833	197.44
632.039	186.44
632.245	201.44
632.451	205.44
632.657	184.44
632.863	198.44
633.069	206.44
633.275	204.44
633.481	197.44
633.688	211.44
633.893	196.44
634.099	196.44
634.305	199.44
634.511	187.44
634.717	207.44
634.923	187.44
635.129	188.44
635.335	205.44
635.541	198.44
635.747	193.44
635.952	189.44
636.158	182.44
636.364	193.44
636.57	203.44
636.775	206.44
636.981	210.44
637.187	185.44
637.392	179.44
637.598	201.44
637.804	192.44
638.009	202.44
638.215	198.44
638.421	175.44
638.626	173.44
638.832	188.44
639.037	183.44
639.243	180.44
639.448	186.44
639.654	181.44
639.859	174.44
640.065	184.44
640.27	189.44
640.475	183.44
640.681	180.44
640.886	178.44
641.091	174.44
641.297	200.44
641.502	178.44
641.707	171.44
641.913	171.44
642.118	178.44
642.323	179.44
642.528	184.44
642.733	179.44
642.939	190.44
643.144	178.44
643.349	188.44
643.554	172.44
643.759	154.44
643.964	162.44
644.169	176.44
644.374	182.44
644.579	187.44
644.784	196.44
644.989	192.44
645.194	172.44
645.399	174.44
645.604	178.44
645.809	176.44
646.014	168.44
646.219	165.44
646.423	156.44
646.628	174.44
646.833	183.44
647.038	185.44
647.243	170.44
647.447	174.44
647.652	171.44
647.857	165.44
648.062	164.44
648.266	192.44
648.471	183.44
648.676	180.44
648.88	171.44
649.085	178.44
649.289	189.44
649.494	175.44
649.698	206.44
649.903	196.44
650.107	189.44
650.312	181.44
650.516	173.44
650.721	159.44
650.925	162.44
651.13	158.44
651.334	143.44
651.539	169.44
651.743	160.44
651.947	148.44
652.152	155.44
652.356	164.44
652.56	156.44
652.764	150.44
652.969	145.44
653.173	144.44
653.377	145.44
653.581	142.44
653.785	138.44
653.99	140.44
654.194	151.44
654.398	141.44
654.602	134.44
654.806	132.44
655.01	147.44
655.214	168.44
655.418	139.44
655.622	154.44
655.826	142.44
656.03	125.44
656.234	144.44
656.438	142.44
656.642	157.44
656.846	144.44
657.049	122.44
657.253	128.44
657.457	122.44
657.661	124.44
657.865	123.44
658.068	114.44
658.272	101.44
658.476	114.44
658.68	116.44
658.883	104.44
659.087	105.44
659.291	96.44
659.494	104.44
659.698	92.44
659.901	107.44
660.105	94.44
660.309	92.44
660.512	84.44
660.716	96.44
660.919	89.44
661.123	99.44
661.326	81.44
661.53	88.44
661.733	93.44
661.936	102.44
662.14	90.44
662.343	78.44
662.546	94.44
662.75	80.44
662.953	76.44
663.156	79.44
663.36	109.44
663.563	90.44
663.766	93.44
663.969	86.44
664.173	72.44
664.376	83.44
664.579	93.44
664.782	93.44
664.985	86.44
665.188	80.44
665.391	86.44
665.594	80.44
665.797	96.44
666	66.44
666.203	91.44
666.406	88.44
666.609	94.44
666.812	88.44
667.015	66.44
667.218	88.44
667.421	87.44
667.624	71.44
667.827	83.44
668.03	82.44
668.232	78.44
668.435	109.44
668.638	90.44
668.841	86.44
669.043	78.44
669.246	97.44
669.449	103.44
669.651	90.44
669.854	74.44
670.057	89.44
670.259	73.44
670.462	87.44
670.665	79.44
670.867	85.44
671.07	86.44
671.272	85.44
671.475	90.44
671.677	83.44
671.88	91.44
672.082	86.44
672.284	71.44
672.487	90.44
672.689	85.44
672.892	97.44
