Data from 1976.PennyLincolnUp.Lamp.En5.5.200Scan.071719.P1.Changed Mount._HRD10591_15-59-25-860.txt Node
Date: Thu Jul 18 15:59:25 EDT 2019
User: cochatt
Spectrometer: HR+D1059
Trigger mode: 1
Integration Time (sec): 1.000000E-1
Scans to average: 1
Electric dark correction enabled: true
Nonlinearity correction enabled: false
Boxcar width: 0
XAxis mode: Wavelengths
Number of Pixels in Spectrum: 2048
>>>>>Begin Spectral Data<<<<<
223.165	-22.25
223.4	-22.25
223.635	-22.25
223.869	-22.25
224.104	-11.25
224.338	-16.25
224.573	-21.25
224.808	7.75
225.042	-18.25
225.277	5.75
225.511	-0.25
225.746	-1.25
225.98	18.75
226.215	25.75
226.449	6.75
226.683	6.75
226.918	7.75
227.152	33.75
227.387	34.75
227.621	27.75
227.856	40.75
228.09	38.75
228.324	60.75
228.559	51.75
228.793	67.75
229.027	82.75
229.262	95.75
229.496	109.75
229.73	101.75
229.964	129.75
230.199	120.75
230.433	100.75
230.667	98.75
230.901	117.75
231.136	114.75
231.37	92.75
231.604	101.75
231.838	108.75
232.072	104.75
232.306	110.75
232.541	109.75
232.775	105.75
233.009	108.75
233.243	124.75
233.477	109.75
233.711	119.75
233.945	118.75
234.179	124.75
234.413	120.75
234.647	121.75
234.881	107.75
235.115	101.75
235.349	139.75
235.583	126.75
235.817	103.75
236.051	116.75
236.285	120.75
236.519	133.75
236.753	119.75
236.987	119.75
237.221	153.75
237.455	195.75
237.689	179.75
237.922	114.75
238.156	136.75
238.39	106.75
238.624	121.75
238.858	117.75
239.091	132.75
239.325	125.75
239.559	115.75
239.793	115.75
240.027	129.75
240.26	123.75
240.494	147.75
240.728	138.75
240.961	135.75
241.195	146.75
241.429	137.75
241.662	133.75
241.896	126.75
242.13	129.75
242.363	135.75
242.597	127.75
242.83	135.75
243.064	132.75
243.298	132.75
243.531	127.75
243.765	138.75
243.998	135.75
244.232	149.75
244.465	141.75
244.699	158.75
244.932	159.75
245.166	136.75
245.399	153.75
245.633	133.75
245.866	156.75
246.099	142.75
246.333	134.75
246.566	142.75
246.8	130.75
247.033	158.75
247.266	149.75
247.5	149.75
247.733	155.75
247.966	164.75
248.2	173.75
248.433	156.75
248.666	151.75
248.899	155.75
249.133	179.75
249.366	188.75
249.599	181.75
249.832	164.75
250.066	179.75
250.299	157.75
250.532	164.75
250.765	180.75
250.998	203.75
251.231	202.75
251.465	192.75
251.698	172.75
251.931	174.75
252.164	173.75
252.397	184.75
252.63	181.75
252.863	189.75
253.096	188.75
253.329	202.75
253.562	206.75
253.795	197.75
254.028	188.75
254.261	193.75
254.494	191.75
254.727	234.75
254.96	237.75
255.193	248.75
255.426	222.75
255.659	213.75
255.892	204.75
256.124	186.75
256.357	198.75
256.59	191.75
256.823	192.75
257.056	192.75
257.289	194.75
257.521	189.75
257.754	195.75
257.987	204.75
258.22	202.75
258.452	179.75
258.685	187.75
258.918	193.75
259.151	194.75
259.383	211.75
259.616	199.75
259.849	191.75
260.081	197.75
260.314	230.75
260.547	222.75
260.779	218.75
261.012	220.75
261.244	213.75
261.477	200.75
261.71	194.75
261.942	196.75
262.175	206.75
262.407	205.75
262.64	196.75
262.872	195.75
263.105	201.75
263.337	181.75
263.57	199.75
263.802	191.75
264.035	199.75
264.267	204.75
264.499	201.75
264.732	212.75
264.964	221.75
265.197	203.75
265.429	207.75
265.661	195.75
265.894	194.75
266.126	207.75
266.358	203.75
266.591	216.75
266.823	208.75
267.055	210.75
267.287	217.75
267.52	212.75
267.752	205.75
267.984	206.75
268.216	202.75
268.448	213.75
268.681	225.75
268.913	217.75
269.145	229.75
269.377	253.75
269.609	254.75
269.841	241.75
270.073	236.75
270.306	265.75
270.538	272.75
270.77	270.75
271.002	275.75
271.234	261.75
271.466	266.75
271.698	259.75
271.93	280.75
272.162	275.75
272.394	269.75
272.626	251.75
272.858	247.75
273.09	234.75
273.322	259.75
273.553	238.75
273.785	235.75
274.017	237.75
274.249	243.75
274.481	236.75
274.713	261.75
274.945	265.75
275.176	250.75
275.408	246.75
275.64	247.75
275.872	243.75
276.104	260.75
276.335	257.75
276.567	247.75
276.799	256.75
277.031	283.75
277.262	291.75
277.494	279.75
277.726	281.75
277.957	263.75
278.189	269.75
278.421	251.75
278.652	246.75
278.884	254.75
279.115	239.75
279.347	276.75
279.579	268.75
279.81	252.75
280.042	245.75
280.273	269.75
280.505	281.75
280.736	266.75
280.968	257.75
281.199	265.75
281.431	259.75
281.662	247.75
281.894	258.75
282.125	262.75
282.356	262.75
282.588	298.75
282.819	296.75
283.051	268.75
283.282	259.75
283.513	261.75
283.745	261.75
283.976	247.75
284.207	263.75
284.439	284.75
284.67	277.75
284.901	291.75
285.132	276.75
285.364	284.75
285.595	278.75
285.826	269.75
286.057	267.75
286.288	285.75
286.52	270.75
286.751	285.75
286.982	273.75
287.213	253.75
287.444	278.75
287.675	269.75
287.906	286.75
288.138	302.75
288.369	294.75
288.6	293.75
288.831	266.75
289.062	278.75
289.293	295.75
289.524	261.75
289.755	282.75
289.986	277.75
290.217	277.75
290.448	281.75
290.679	293.75
290.91	281.75
291.141	276.75
291.371	278.75
291.602	290.75
291.833	274.75
292.064	268.75
292.295	293.75
292.526	266.75
292.757	275.75
292.987	284.75
293.218	300.75
293.449	298.75
293.68	283.75
293.91	302.75
294.141	279.75
294.372	292.75
294.603	274.75
294.833	287.75
295.064	294.75
295.295	281.75
295.525	261.75
295.756	284.75
295.987	286.75
296.217	310.75
296.448	313.75
296.679	305.75
296.909	277.75
297.14	279.75
297.37	306.75
297.601	305.75
297.831	296.75
298.062	284.75
298.292	293.75
298.523	308.75
298.753	322.75
298.984	288.75
299.214	285.75
299.445	311.75
299.675	306.75
299.905	308.75
300.136	293.75
300.366	304.75
300.597	287.75
300.827	297.75
301.057	302.75
301.288	309.75
301.518	321.75
301.748	318.75
301.979	332.75
302.209	307.75
302.439	315.75
302.669	323.75
302.9	305.75
303.13	318.75
303.36	301.75
303.59	321.75
303.82	312.75
304.051	319.75
304.281	311.75
304.511	317.75
304.741	299.75
304.971	321.75
305.201	321.75
305.431	315.75
305.661	316.75
305.891	300.75
306.121	322.75
306.352	328.75
306.582	323.75
306.812	312.75
307.042	321.75
307.272	326.75
307.502	314.75
307.731	318.75
307.961	304.75
308.191	335.75
308.421	313.75
308.651	330.75
308.881	318.75
309.111	313.75
309.341	317.75
309.571	321.75
309.8	355.75
310.03	341.75
310.26	318.75
310.49	345.75
310.72	335.75
310.949	340.75
311.179	334.75
311.409	346.75
311.639	347.75
311.868	329.75
312.098	362.75
312.328	344.75
312.557	379.75
312.787	375.75
313.017	358.75
313.246	364.75
313.476	340.75
313.706	348.75
313.935	342.75
314.165	345.75
314.394	362.75
314.624	375.75
314.853	371.75
315.083	358.75
315.312	359.75
315.542	342.75
315.771	356.75
316.001	357.75
316.23	373.75
316.46	348.75
316.689	353.75
316.919	331.75
317.148	366.75
317.377	343.75
317.607	362.75
317.836	350.75
318.065	359.75
318.295	355.75
318.524	363.75
318.753	344.75
318.983	354.75
319.212	356.75
319.441	359.75
319.67	353.75
319.9	373.75
320.129	360.75
320.358	337.75
320.587	344.75
320.816	356.75
321.046	347.75
321.275	364.75
321.504	359.75
321.733	372.75
321.962	374.75
322.191	380.75
322.42	383.75
322.649	378.75
322.878	395.75
323.108	402.75
323.337	403.75
323.566	429.75
323.795	452.75
324.024	465.75
324.253	523.75
324.482	717.75
324.71	1136.75
324.939	1726.75
325.168	1507.75
325.397	725.75
325.626	526.75
325.855	460.75
326.084	433.75
326.313	445.75
326.542	427.75
326.77	480.75
326.999	526.75
327.228	685.75
327.457	1065.75
327.686	1335.75
327.914	857.75
328.143	569.75
328.372	489.75
328.6	474.75
328.829	457.75
329.058	474.75
329.287	463.75
329.515	453.75
329.744	442.75
329.972	446.75
330.201	472.75
330.43	471.75
330.658	471.75
330.887	487.75
331.115	471.75
331.344	458.75
331.572	438.75
331.801	430.75
332.03	417.75
332.258	428.75
332.486	415.75
332.715	408.75
332.943	438.75
333.172	437.75
333.4	448.75
333.629	444.75
333.857	447.75
334.085	458.75
334.314	459.75
334.542	470.75
334.771	494.75
334.999	487.75
335.227	446.75
335.455	442.75
335.684	438.75
335.912	437.75
336.14	415.75
336.369	433.75
336.597	417.75
336.825	427.75
337.053	419.75
337.281	412.75
337.51	421.75
337.738	447.75
337.966	429.75
338.194	415.75
338.422	436.75
338.65	405.75
338.878	400.75
339.106	394.75
339.334	414.75
339.562	402.75
339.79	400.75
340.018	429.75
340.246	387.75
340.474	414.75
340.702	415.75
340.93	410.75
341.158	413.75
341.386	396.75
341.614	396.75
341.842	387.75
342.07	385.75
342.298	392.75
342.526	386.75
342.754	399.75
342.981	413.75
343.209	425.75
343.437	411.75
343.665	414.75
343.893	442.75
344.12	447.75
344.348	434.75
344.576	423.75
344.804	411.75
345.031	409.75
345.259	420.75
345.487	412.75
345.714	410.75
345.942	399.75
346.17	395.75
346.397	393.75
346.625	394.75
346.853	385.75
347.08	395.75
347.308	388.75
347.535	403.75
347.763	401.75
347.99	384.75
348.218	369.75
348.445	387.75
348.673	389.75
348.9	380.75
349.128	380.75
349.355	378.75
349.583	391.75
349.81	362.75
350.037	379.75
350.265	379.75
350.492	370.75
350.72	379.75
350.947	382.75
351.174	402.75
351.402	376.75
351.629	382.75
351.856	384.75
352.083	388.75
352.311	394.75
352.538	375.75
352.765	387.75
352.992	400.75
353.22	399.75
353.447	380.75
353.674	386.75
353.901	371.75
354.128	380.75
354.355	383.75
354.583	367.75
354.81	371.75
355.037	392.75
355.264	385.75
355.491	378.75
355.718	383.75
355.945	375.75
356.172	382.75
356.399	375.75
356.626	376.75
356.853	365.75
357.08	347.75
357.307	377.75
357.534	362.75
357.761	361.75
357.988	362.75
358.215	383.75
358.441	396.75
358.668	416.75
358.895	399.75
359.122	391.75
359.349	382.75
359.576	383.75
359.802	386.75
360.029	415.75
360.256	395.75
360.483	400.75
360.709	353.75
360.936	399.75
361.163	411.75
361.39	388.75
361.616	382.75
361.843	381.75
362.07	371.75
362.296	383.75
362.523	390.75
362.749	399.75
362.976	407.75
363.203	394.75
363.429	375.75
363.656	378.75
363.882	376.75
364.109	394.75
364.335	378.75
364.562	380.75
364.788	369.75
365.015	386.75
365.241	369.75
365.468	383.75
365.694	397.75
365.92	386.75
366.147	394.75
366.373	394.75
366.599	381.75
366.826	365.75
367.052	369.75
367.278	377.75
367.505	383.75
367.731	383.75
367.957	375.75
368.184	369.75
368.41	355.75
368.636	375.75
368.862	394.75
369.089	383.75
369.315	389.75
369.541	372.75
369.767	378.75
369.993	390.75
370.219	377.75
370.445	371.75
370.672	376.75
370.898	382.75
371.124	390.75
371.35	404.75
371.576	370.75
371.802	381.75
372.028	391.75
372.254	399.75
372.48	383.75
372.706	405.75
372.932	389.75
373.158	378.75
373.384	384.75
373.61	389.75
373.835	387.75
374.061	407.75
374.287	419.75
374.513	397.75
374.739	396.75
374.965	407.75
375.191	397.75
375.416	423.75
375.642	406.75
375.868	400.75
376.094	381.75
376.319	387.75
376.545	389.75
376.771	392.75
376.997	389.75
377.222	391.75
377.448	395.75
377.674	393.75
377.899	395.75
378.125	398.75
378.35	380.75
378.576	393.75
378.802	396.75
379.027	417.75
379.253	401.75
379.478	409.75
379.704	386.75
379.929	415.75
380.155	394.75
380.38	407.75
380.606	391.75
380.831	395.75
381.057	399.75
381.282	394.75
381.507	399.75
381.733	396.75
381.958	390.75
382.184	398.75
382.409	418.75
382.634	411.75
382.86	426.75
383.085	429.75
383.31	412.75
383.535	435.75
383.761	435.75
383.986	411.75
384.211	430.75
384.436	451.75
384.662	434.75
384.887	422.75
385.112	447.75
385.337	468.75
385.562	433.75
385.787	451.75
386.013	469.75
386.238	473.75
386.463	459.75
386.688	464.75
386.913	447.75
387.138	488.75
387.363	462.75
387.588	428.75
387.813	445.75
388.038	458.75
388.263	471.75
388.488	453.75
388.713	459.75
388.938	428.75
389.163	453.75
389.387	436.75
389.612	426.75
389.837	427.75
390.062	430.75
390.287	458.75
390.512	433.75
390.736	446.75
390.961	420.75
391.186	446.75
391.411	442.75
391.636	460.75
391.86	441.75
392.085	463.75
392.31	458.75
392.534	460.75
392.759	422.75
392.984	437.75
393.208	437.75
393.433	451.75
393.658	468.75
393.882	457.75
394.107	431.75
394.331	451.75
394.556	440.75
394.78	446.75
395.005	450.75
395.229	452.75
395.454	447.75
395.678	457.75
395.903	478.75
396.127	504.75
396.352	460.75
396.576	461.75
396.801	494.75
397.025	465.75
397.249	469.75
397.474	456.75
397.698	472.75
397.922	492.75
398.147	491.75
398.371	485.75
398.595	493.75
398.82	498.75
399.044	522.75
399.268	542.75
399.492	584.75
399.717	609.75
399.941	637.75
400.165	634.75
400.389	631.75
400.613	572.75
400.837	558.75
401.062	531.75
401.286	521.75
401.51	503.75
401.734	502.75
401.958	513.75
402.182	517.75
402.406	526.75
402.63	507.75
402.854	502.75
403.078	534.75
403.302	520.75
403.526	521.75
403.75	541.75
403.974	520.75
404.198	542.75
404.422	524.75
404.645	538.75
404.869	542.75
405.093	537.75
405.317	591.75
405.541	604.75
405.765	565.75
405.988	536.75
406.212	539.75
406.436	548.75
406.66	553.75
406.883	586.75
407.107	582.75
407.331	628.75
407.555	649.75
407.778	678.75
408.002	637.75
408.226	595.75
408.449	573.75
408.673	596.75
408.896	625.75
409.12	622.75
409.344	581.75
409.567	550.75
409.791	528.75
410.014	538.75
410.238	526.75
410.461	537.75
410.685	529.75
410.908	541.75
411.132	565.75
411.355	581.75
411.578	566.75
411.802	535.75
412.025	512.75
412.249	563.75
412.472	537.75
412.695	577.75
412.919	549.75
413.142	538.75
413.365	508.75
413.589	513.75
413.812	519.75
414.035	490.75
414.258	507.75
414.482	502.75
414.705	502.75
414.928	506.75
415.151	493.75
415.374	513.75
415.597	495.75
415.821	504.75
416.044	510.75
416.267	485.75
416.49	493.75
416.713	499.75
416.936	481.75
417.159	504.75
417.382	478.75
417.605	488.75
417.828	512.75
418.051	520.75
418.274	488.75
418.497	506.75
418.72	489.75
418.943	490.75
419.166	521.75
419.389	545.75
419.611	539.75
419.834	506.75
420.057	514.75
420.28	520.75
420.503	519.75
420.726	523.75
420.948	531.75
421.171	533.75
421.394	579.75
421.617	520.75
421.839	508.75
422.062	506.75
422.285	527.75
422.507	570.75
422.73	659.75
422.953	603.75
423.175	547.75
423.398	529.75
423.621	523.75
423.843	544.75
424.066	530.75
424.288	552.75
424.511	566.75
424.733	594.75
424.956	682.75
425.178	658.75
425.401	633.75
425.623	689.75
425.846	577.75
426.068	506.75
426.291	522.75
426.513	533.75
426.735	533.75
426.958	547.75
427.18	635.75
427.402	746.75
427.625	794.75
427.847	679.75
428.069	615.75
428.292	541.75
428.514	508.75
428.736	504.75
428.958	506.75
429.181	498.75
429.403	482.75
429.625	503.75
429.847	521.75
430.069	569.75
430.292	570.75
430.514	493.75
430.736	492.75
430.958	505.75
431.18	478.75
431.402	471.75
431.624	485.75
431.846	465.75
432.068	452.75
432.29	471.75
432.512	476.75
432.734	487.75
432.956	486.75
433.178	473.75
433.4	487.75
433.622	501.75
433.844	475.75
434.066	486.75
434.287	466.75
434.509	490.75
434.731	492.75
434.953	517.75
435.175	525.75
435.397	528.75
435.618	528.75
435.84	554.75
436.062	654.75
436.284	694.75
436.505	598.75
436.727	514.75
436.949	500.75
437.17	472.75
437.392	482.75
437.614	496.75
437.835	503.75
438.057	581.75
438.278	662.75
438.5	691.75
438.721	737.75
438.943	709.75
439.165	575.75
439.386	527.75
439.608	527.75
439.829	546.75
440.05	535.75
440.272	572.75
440.493	549.75
440.715	513.75
440.936	510.75
441.158	497.75
441.379	498.75
441.6	503.75
441.822	553.75
442.043	557.75
442.264	610.75
442.486	682.75
442.707	579.75
442.928	550.75
443.149	554.75
443.371	550.75
443.592	585.75
443.813	651.75
444.034	729.75
444.255	616.75
444.476	549.75
444.698	554.75
444.919	577.75
445.14	670.75
445.361	616.75
445.582	606.75
445.803	616.75
446.024	658.75
446.245	728.75
446.466	622.75
446.687	568.75
446.908	513.75
447.129	502.75
447.35	510.75
447.571	505.75
447.792	472.75
448.013	463.75
448.234	490.75
448.455	530.75
448.675	641.75
448.896	746.75
449.117	610.75
449.338	563.75
449.559	686.75
449.779	746.75
450	613.75
450.221	509.75
450.442	473.75
450.662	473.75
450.883	464.75
451.104	483.75
451.324	473.75
451.545	447.75
451.766	449.75
451.986	456.75
452.207	437.75
452.428	428.75
452.648	435.75
452.869	450.75
453.089	462.75
453.31	456.75
453.53	431.75
453.751	423.75
453.971	438.75
454.192	428.75
454.412	436.75
454.633	441.75
454.853	414.75
455.073	413.75
455.294	449.75
455.514	511.75
455.734	501.75
455.955	427.75
456.175	426.75
456.395	415.75
456.616	417.75
456.836	420.75
457.056	417.75
457.276	408.75
457.497	426.75
457.717	420.75
457.937	434.75
458.157	433.75
458.377	438.75
458.598	461.75
458.818	483.75
459.038	534.75
459.258	552.75
459.478	509.75
459.698	489.75
459.918	456.75
460.138	489.75
460.358	489.75
460.578	500.75
460.798	498.75
461.018	521.75
461.238	477.75
461.458	487.75
461.678	497.75
461.898	502.75
462.118	511.75
462.338	533.75
462.558	521.75
462.777	538.75
462.997	576.75
463.217	552.75
463.437	572.75
463.657	541.75
463.876	563.75
464.096	539.75
464.316	524.75
464.536	540.75
464.755	552.75
464.975	536.75
465.195	548.75
465.414	576.75
465.634	540.75
465.854	502.75
466.073	502.75
466.293	488.75
466.512	484.75
466.732	461.75
466.951	440.75
467.171	456.75
467.391	461.75
467.61	467.75
467.829	483.75
468.049	455.75
468.268	452.75
468.488	468.75
468.707	425.75
468.927	455.75
469.146	465.75
469.365	430.75
469.585	460.75
469.804	452.75
470.023	453.75
470.243	459.75
470.462	478.75
470.681	501.75
470.901	473.75
471.12	466.75
471.339	446.75
471.558	466.75
471.777	474.75
471.997	476.75
472.216	471.75
472.435	485.75
472.654	476.75
472.873	461.75
473.092	465.75
473.311	461.75
473.53	467.75
473.749	451.75
473.968	470.75
474.187	569.75
474.406	588.75
474.625	538.75
474.844	479.75
475.063	465.75
475.282	463.75
475.501	456.75
475.72	469.75
475.939	477.75
476.158	449.75
476.377	472.75
476.596	484.75
476.814	503.75
477.033	492.75
477.252	510.75
477.471	512.75
477.69	490.75
477.908	508.75
478.127	509.75
478.346	512.75
478.564	526.75
478.783	528.75
479.002	532.75
479.22	546.75
479.439	549.75
479.658	536.75
479.876	550.75
480.095	573.75
480.313	605.75
480.532	576.75
480.751	579.75
480.969	566.75
481.188	613.75
481.406	631.75
481.624	567.75
481.843	533.75
482.061	561.75
482.28	550.75
482.498	527.75
482.717	518.75
482.935	539.75
483.153	525.75
483.372	556.75
483.59	547.75
483.808	545.75
484.027	519.75
484.245	563.75
484.463	562.75
484.681	564.75
484.9	542.75
485.118	554.75
485.336	563.75
485.554	563.75
485.772	572.75
485.99	572.75
486.209	573.75
486.427	541.75
486.645	555.75
486.863	574.75
487.081	571.75
487.299	594.75
487.517	582.75
487.735	582.75
487.953	567.75
488.171	566.75
488.389	580.75
488.607	569.75
488.825	590.75
489.043	585.75
489.261	586.75
489.479	588.75
489.696	590.75
489.914	580.75
490.132	600.75
490.35	586.75
490.568	592.75
490.786	623.75
491.003	634.75
491.221	616.75
491.439	631.75
491.657	615.75
491.874	659.75
492.092	632.75
492.31	639.75
492.527	625.75
492.745	618.75
492.963	647.75
493.18	657.75
493.398	660.75
493.615	650.75
493.833	635.75
494.05	646.75
494.268	664.75
494.485	645.75
494.703	658.75
494.92	655.75
495.138	664.75
495.355	654.75
495.573	665.75
495.79	668.75
496.008	674.75
496.225	671.75
496.442	670.75
496.66	671.75
496.877	687.75
497.094	674.75
497.312	678.75
497.529	686.75
497.746	717.75
497.963	711.75
498.181	734.75
498.398	739.75
498.615	776.75
498.832	794.75
499.049	803.75
499.267	849.75
499.484	913.75
499.701	914.75
499.918	974.75
500.135	1004.75
500.352	1077.75
500.569	1118.75
500.786	1124.75
501.003	1076.75
501.22	1047.75
501.437	998.75
501.654	955.75
501.871	913.75
502.088	876.75
502.305	845.75
502.522	795.75
502.739	781.75
502.956	767.75
503.172	729.75
503.389	712.75
503.606	715.75
503.823	688.75
504.04	692.75
504.256	685.75
504.473	699.75
504.69	687.75
504.907	700.75
505.123	643.75
505.34	665.75
505.557	656.75
505.773	653.75
505.99	623.75
506.207	638.75
506.423	618.75
506.64	611.75
506.856	611.75
507.073	614.75
507.289	607.75
507.506	616.75
507.722	596.75
507.939	600.75
508.155	614.75
508.372	594.75
508.588	581.75
508.805	579.75
509.021	581.75
509.238	589.75
509.454	606.75
509.67	565.75
509.887	546.75
510.103	568.75
510.319	581.75
510.536	633.75
510.752	925.75
510.968	802.75
511.184	594.75
511.401	590.75
511.617	564.75
511.833	553.75
512.049	550.75
512.265	581.75
512.481	554.75
512.698	548.75
512.914	557.75
513.13	563.75
513.346	537.75
513.562	541.75
513.778	568.75
513.994	577.75
514.21	562.75
514.426	583.75
514.642	612.75
514.858	617.75
515.074	654.75
515.29	723.75
515.506	936.75
515.721	808.75
515.937	644.75
516.153	611.75
516.369	565.75
516.585	589.75
516.801	600.75
517.016	610.75
517.232	594.75
517.448	617.75
517.664	612.75
517.879	610.75
518.095	613.75
518.311	594.75
518.527	603.75
518.742	590.75
518.958	582.75
519.173	586.75
519.389	555.75
519.605	568.75
519.82	563.75
520.036	589.75
520.251	541.75
520.467	582.75
520.682	598.75
520.898	580.75
521.113	590.75
521.329	635.75
521.544	653.75
521.76	770.75
521.975	1116.75
522.19	1107.75
522.406	702.75
522.621	573.75
522.836	574.75
523.052	533.75
523.267	539.75
523.482	523.75
523.698	497.75
523.913	506.75
524.128	516.75
524.343	501.75
524.559	495.75
524.774	490.75
524.989	495.75
525.204	495.75
525.419	511.75
525.634	483.75
525.849	476.75
526.064	455.75
526.28	474.75
526.495	468.75
526.71	463.75
526.925	487.75
527.14	470.75
527.355	471.75
527.57	474.75
527.785	457.75
527.999	461.75
528.214	475.75
528.429	466.75
528.644	474.75
528.859	477.75
529.074	475.75
529.289	485.75
529.503	543.75
529.718	506.75
529.933	506.75
530.148	488.75
530.363	481.75
530.577	469.75
530.792	448.75
531.007	461.75
531.221	466.75
531.436	473.75
531.651	475.75
531.865	466.75
532.08	484.75
532.295	467.75
532.509	453.75
532.724	458.75
532.938	454.75
533.153	456.75
533.367	463.75
533.582	467.75
533.796	463.75
534.011	460.75
534.225	443.75
534.44	434.75
534.654	437.75
534.868	443.75
535.083	455.75
535.297	435.75
535.511	454.75
535.726	450.75
535.94	458.75
536.154	437.75
536.369	447.75
536.583	444.75
536.797	448.75
537.011	438.75
537.225	439.75
537.44	450.75
537.654	437.75
537.868	433.75
538.082	448.75
538.296	430.75
538.51	438.75
538.724	439.75
538.938	423.75
539.153	455.75
539.367	459.75
539.581	451.75
539.795	440.75
540.009	452.75
540.222	461.75
540.436	452.75
540.65	435.75
540.864	448.75
541.078	442.75
541.292	451.75
541.506	441.75
541.72	429.75
541.934	433.75
542.147	455.75
542.361	454.75
542.575	428.75
542.789	445.75
543.002	425.75
543.216	424.75
543.43	411.75
543.644	431.75
543.857	443.75
544.071	455.75
544.285	447.75
544.498	434.75
544.712	458.75
544.925	430.75
545.139	434.75
545.352	437.75
545.566	442.75
545.779	426.75
545.993	444.75
546.206	449.75
546.42	446.75
546.633	441.75
546.847	436.75
547.06	446.75
547.274	421.75
547.487	421.75
547.7	434.75
547.914	428.75
548.127	418.75
548.34	420.75
548.554	428.75
548.767	427.75
548.98	457.75
549.193	438.75
549.407	425.75
549.62	453.75
549.833	427.75
550.046	439.75
550.259	428.75
550.473	427.75
550.686	427.75
550.899	416.75
551.112	423.75
551.325	409.75
551.538	427.75
551.751	425.75
551.964	412.75
552.177	430.75
552.39	433.75
552.603	444.75
552.816	437.75
553.029	455.75
553.242	439.75
553.455	461.75
553.667	461.75
553.88	469.75
554.093	450.75
554.306	457.75
554.519	438.75
554.732	429.75
554.944	427.75
555.157	410.75
555.37	431.75
555.583	403.75
555.795	433.75
556.008	390.75
556.221	407.75
556.433	391.75
556.646	388.75
556.859	406.75
557.071	404.75
557.284	401.75
557.496	397.75
557.709	386.75
557.921	387.75
558.134	381.75
558.346	388.75
558.559	382.75
558.771	387.75
558.984	402.75
559.196	384.75
559.409	366.75
559.621	399.75
559.833	404.75
560.046	387.75
560.258	382.75
560.47	389.75
560.683	391.75
560.895	398.75
561.107	379.75
561.32	389.75
561.532	388.75
561.744	384.75
561.956	384.75
562.168	380.75
562.381	376.75
562.593	391.75
562.805	391.75
563.017	385.75
563.229	390.75
563.441	410.75
563.653	389.75
563.865	387.75
564.077	389.75
564.289	387.75
564.501	414.75
564.713	406.75
564.925	410.75
565.137	424.75
565.349	434.75
565.561	438.75
565.773	428.75
565.985	442.75
566.197	479.75
566.408	470.75
566.62	474.75
566.832	526.75
567.044	524.75
567.255	500.75
567.467	523.75
567.679	534.75
567.891	552.75
568.102	539.75
568.314	575.75
568.526	517.75
568.737	476.75
568.949	446.75
569.161	465.75
569.372	442.75
569.584	419.75
569.795	410.75
570.007	399.75
570.218	422.75
570.43	417.75
570.641	397.75
570.853	390.75
571.064	393.75
571.276	385.75
571.487	397.75
571.698	381.75
571.91	392.75
572.121	373.75
572.333	357.75
572.544	346.75
572.755	366.75
572.966	340.75
573.178	349.75
573.389	337.75
573.6	340.75
573.811	346.75
574.023	351.75
574.234	359.75
574.445	335.75
574.656	330.75
574.867	346.75
575.078	346.75
575.289	347.75
575.501	340.75
575.712	333.75
575.923	346.75
576.134	332.75
576.345	357.75
576.556	325.75
576.767	317.75
576.978	319.75
577.188	334.75
577.399	329.75
577.61	320.75
577.821	311.75
578.032	331.75
578.243	344.75
578.454	462.75
578.665	387.75
578.875	321.75
579.086	318.75
579.297	303.75
579.508	312.75
579.718	322.75
579.929	307.75
580.14	315.75
580.35	313.75
580.561	316.75
580.772	318.75
580.982	319.75
581.193	294.75
581.403	299.75
581.614	313.75
581.825	319.75
582.035	326.75
582.246	301.75
582.456	333.75
582.667	285.75
582.877	305.75
583.087	295.75
583.298	301.75
583.508	284.75
583.719	303.75
583.929	309.75
584.139	292.75
584.35	311.75
584.56	315.75
584.77	304.75
584.981	307.75
585.191	302.75
585.401	307.75
585.611	307.75
585.821	300.75
586.032	309.75
586.242	297.75
586.452	291.75
586.662	307.75
586.872	289.75
587.082	268.75
587.292	295.75
587.502	299.75
587.713	308.75
587.923	296.75
588.133	292.75
588.343	301.75
588.553	301.75
588.762	307.75
588.972	313.75
589.182	326.75
589.392	313.75
589.602	299.75
589.812	302.75
590.022	309.75
590.232	305.75
590.441	287.75
590.651	307.75
590.861	309.75
591.071	322.75
591.281	290.75
591.49	293.75
591.7	306.75
591.91	311.75
592.119	329.75
592.329	321.75
592.539	326.75
592.748	323.75
592.958	327.75
593.167	313.75
593.377	323.75
593.587	323.75
593.796	315.75
594.006	322.75
594.215	331.75
594.424	323.75
594.634	316.75
594.843	316.75
595.053	341.75
595.262	320.75
595.472	293.75
595.681	299.75
595.89	317.75
596.1	300.75
596.309	286.75
596.518	298.75
596.727	294.75
596.937	320.75
597.146	289.75
597.355	284.75
597.564	266.75
597.774	285.75
597.983	275.75
598.192	284.75
598.401	273.75
598.61	275.75
598.819	293.75
599.028	291.75
599.237	275.75
599.446	256.75
599.655	249.75
599.864	272.75
600.073	258.75
600.282	255.75
600.491	283.75
600.7	263.75
600.909	276.75
601.118	280.75
601.327	259.75
601.536	281.75
601.745	269.75
601.953	287.75
602.162	257.75
602.371	271.75
602.58	273.75
602.789	259.75
602.997	255.75
603.206	258.75
603.415	276.75
603.623	243.75
603.832	248.75
604.041	274.75
604.249	245.75
604.458	238.75
604.666	259.75
604.875	274.75
605.084	277.75
605.292	246.75
605.501	253.75
605.709	241.75
605.918	237.75
606.126	246.75
606.334	239.75
606.543	237.75
606.751	270.75
606.96	240.75
607.168	239.75
607.376	261.75
607.585	244.75
607.793	245.75
608.001	264.75
608.21	237.75
608.418	258.75
608.626	245.75
608.834	244.75
609.043	251.75
609.251	254.75
609.459	236.75
609.667	265.75
609.875	250.75
610.083	241.75
610.291	259.75
610.499	238.75
610.707	247.75
610.916	227.75
611.124	248.75
611.332	265.75
611.54	259.75
611.748	246.75
611.955	250.75
612.163	241.75
612.371	239.75
612.579	228.75
612.787	244.75
612.995	249.75
613.203	246.75
613.411	241.75
613.618	248.75
613.826	253.75
614.034	239.75
614.242	239.75
614.449	217.75
614.657	232.75
614.865	257.75
615.072	244.75
615.28	244.75
615.488	266.75
615.695	241.75
615.903	237.75
616.111	236.75
616.318	244.75
616.526	247.75
616.733	255.75
616.941	244.75
617.148	242.75
617.356	241.75
617.563	236.75
617.771	234.75
617.978	229.75
618.185	239.75
618.393	225.75
618.6	234.75
618.807	247.75
619.015	227.75
619.222	236.75
619.429	200.75
619.637	225.75
619.844	239.75
620.051	229.75
620.258	227.75
620.466	225.75
620.673	217.75
620.88	224.75
621.087	221.75
621.294	231.75
621.501	223.75
621.708	223.75
621.915	227.75
622.122	218.75
622.329	244.75
622.536	247.75
622.743	239.75
622.95	240.75
623.157	221.75
623.364	229.75
623.571	242.75
623.778	232.75
623.985	228.75
624.192	216.75
624.399	237.75
624.606	224.75
624.812	207.75
625.019	211.75
625.226	216.75
625.433	227.75
625.639	225.75
625.846	243.75
626.053	209.75
626.259	201.75
626.466	204.75
626.673	199.75
626.879	210.75
627.086	217.75
627.293	209.75
627.499	210.75
627.706	215.75
627.912	210.75
628.119	220.75
628.325	216.75
628.532	217.75
628.738	197.75
628.945	192.75
629.151	205.75
629.357	211.75
629.564	190.75
629.77	210.75
629.976	206.75
630.183	194.75
630.389	198.75
630.595	208.75
630.802	204.75
631.008	206.75
631.214	202.75
631.42	201.75
631.627	203.75
631.833	212.75
632.039	203.75
632.245	179.75
632.451	209.75
632.657	212.75
632.863	185.75
633.069	197.75
633.275	192.75
633.481	190.75
633.688	190.75
633.893	200.75
634.099	199.75
634.305	190.75
634.511	181.75
634.717	186.75
634.923	189.75
635.129	179.75
635.335	191.75
635.541	192.75
635.747	177.75
635.952	193.75
636.158	188.75
636.364	188.75
636.57	183.75
636.775	181.75
636.981	184.75
637.187	177.75
637.392	183.75
637.598	200.75
637.804	193.75
638.009	187.75
638.215	188.75
638.421	179.75
638.626	189.75
638.832	174.75
639.037	174.75
639.243	173.75
639.448	177.75
639.654	177.75
639.859	185.75
640.065	179.75
640.27	179.75
640.475	193.75
640.681	175.75
640.886	182.75
641.091	174.75
641.297	181.75
641.502	171.75
641.707	159.75
641.913	160.75
642.118	177.75
642.323	170.75
642.528	165.75
642.733	163.75
642.939	180.75
643.144	189.75
643.349	173.75
643.554	179.75
643.759	174.75
643.964	161.75
644.169	169.75
644.374	180.75
644.579	175.75
644.784	177.75
644.989	181.75
645.194	171.75
645.399	183.75
645.604	174.75
645.809	169.75
646.014	182.75
646.219	178.75
646.423	180.75
646.628	178.75
646.833	182.75
647.038	180.75
647.243	172.75
647.447	175.75
647.652	169.75
647.857	168.75
648.062	175.75
648.266	172.75
648.471	159.75
648.676	173.75
648.88	170.75
649.085	179.75
649.289	190.75
649.494	188.75
649.698	198.75
649.903	179.75
650.107	167.75
650.312	181.75
650.516	166.75
650.721	167.75
650.925	171.75
651.13	182.75
651.334	166.75
651.539	163.75
651.743	160.75
651.947	163.75
652.152	168.75
652.356	149.75
652.56	150.75
652.764	152.75
652.969	151.75
653.173	165.75
653.377	153.75
653.581	152.75
653.785	156.75
653.99	153.75
654.194	158.75
654.398	141.75
654.602	145.75
654.806	149.75
655.01	159.75
655.214	152.75
655.418	143.75
655.622	143.75
655.826	156.75
656.03	159.75
656.234	164.75
656.438	168.75
656.642	182.75
656.846	182.75
657.049	162.75
657.253	155.75
657.457	154.75
657.661	146.75
657.865	124.75
658.068	117.75
658.272	119.75
658.476	117.75
658.68	106.75
658.883	109.75
659.087	100.75
659.291	109.75
659.494	111.75
659.698	104.75
659.901	90.75
660.105	98.75
660.309	97.75
660.512	103.75
660.716	90.75
660.919	97.75
661.123	103.75
661.326	95.75
661.53	92.75
661.733	83.75
661.936	93.75
662.14	80.75
662.343	81.75
662.546	86.75
662.75	83.75
662.953	79.75
663.156	77.75
663.36	76.75
663.563	90.75
663.766	82.75
663.969	85.75
664.173	69.75
664.376	95.75
664.579	93.75
664.782	98.75
664.985	101.75
665.188	75.75
665.391	87.75
665.594	72.75
665.797	89.75
666	87.75
666.203	77.75
666.406	84.75
666.609	85.75
666.812	83.75
667.015	80.75
667.218	78.75
667.421	99.75
667.624	75.75
667.827	78.75
668.03	75.75
668.232	88.75
668.435	86.75
668.638	77.75
668.841	93.75
669.043	84.75
669.246	79.75
669.449	79.75
669.651	77.75
669.854	70.75
670.057	76.75
670.259	81.75
670.462	91.75
670.665	78.75
670.867	84.75
671.07	74.75
671.272	89.75
671.475	78.75
671.677	68.75
671.88	73.75
672.082	79.75
672.284	92.75
672.487	68.75
672.689	75.75
672.892	68.75
