Data from 1976.PennyLincolnUp.Lamp.En5.5.200Scan.071719.P1.Changed Mount._HRD10591_15-59-54-860.txt Node
Date: Thu Jul 18 15:59:54 EDT 2019
User: cochatt
Spectrometer: HR+D1059
Trigger mode: 1
Integration Time (sec): 1.000000E-1
Scans to average: 1
Electric dark correction enabled: true
Nonlinearity correction enabled: false
Boxcar width: 0
XAxis mode: Wavelengths
Number of Pixels in Spectrum: 2048
>>>>>Begin Spectral Data<<<<<
223.165	-20.25
223.4	-20.25
223.635	-20.25
223.869	-12.25
224.104	-14.25
224.338	-13.25
224.573	-26.25
224.808	-17.25
225.042	-10.25
225.277	0.75
225.511	5.75
225.746	-0.25
225.98	12.75
226.215	8.75
226.449	6.75
226.683	10.75
226.918	31.75
227.152	36.75
227.387	37.75
227.621	35.75
227.856	46.75
228.09	42.75
228.324	56.75
228.559	53.75
228.793	50.75
229.027	85.75
229.262	96.75
229.496	110.75
229.73	129.75
229.964	132.75
230.199	124.75
230.433	110.75
230.667	102.75
230.901	107.75
231.136	103.75
231.37	111.75
231.604	108.75
231.838	101.75
232.072	110.75
232.306	113.75
232.541	105.75
232.775	108.75
233.009	119.75
233.243	113.75
233.477	111.75
233.711	123.75
233.945	122.75
234.179	106.75
234.413	121.75
234.647	121.75
234.881	112.75
235.115	130.75
235.349	118.75
235.583	125.75
235.817	114.75
236.051	122.75
236.285	125.75
236.519	119.75
236.753	103.75
236.987	140.75
237.221	157.75
237.455	190.75
237.689	180.75
237.922	135.75
238.156	146.75
238.39	130.75
238.624	129.75
238.858	120.75
239.091	122.75
239.325	123.75
239.559	120.75
239.793	137.75
240.027	133.75
240.26	142.75
240.494	147.75
240.728	137.75
240.961	138.75
241.195	143.75
241.429	133.75
241.662	126.75
241.896	127.75
242.13	133.75
242.363	142.75
242.597	124.75
242.83	135.75
243.064	134.75
243.298	138.75
243.531	142.75
243.765	146.75
243.998	159.75
244.232	134.75
244.465	144.75
244.699	147.75
244.932	144.75
245.166	140.75
245.399	138.75
245.633	146.75
245.866	129.75
246.099	142.75
246.333	138.75
246.566	148.75
246.8	144.75
247.033	154.75
247.266	154.75
247.5	149.75
247.733	179.75
247.966	161.75
248.2	159.75
248.433	165.75
248.666	168.75
248.899	179.75
249.133	178.75
249.366	187.75
249.599	178.75
249.832	169.75
250.066	183.75
250.299	169.75
250.532	185.75
250.765	195.75
250.998	209.75
251.231	198.75
251.465	205.75
251.698	189.75
251.931	195.75
252.164	179.75
252.397	200.75
252.63	185.75
252.863	195.75
253.096	197.75
253.329	215.75
253.562	212.75
253.795	204.75
254.028	205.75
254.261	211.75
254.494	203.75
254.727	235.75
254.96	255.75
255.193	255.75
255.426	231.75
255.659	225.75
255.892	225.75
256.124	222.75
256.357	212.75
256.59	222.75
256.823	201.75
257.056	197.75
257.289	203.75
257.521	183.75
257.754	206.75
257.987	192.75
258.22	204.75
258.452	194.75
258.685	215.75
258.918	202.75
259.151	213.75
259.383	206.75
259.616	220.75
259.849	211.75
260.081	221.75
260.314	241.75
260.547	241.75
260.779	231.75
261.012	232.75
261.244	229.75
261.477	215.75
261.71	205.75
261.942	223.75
262.175	228.75
262.407	229.75
262.64	220.75
262.872	223.75
263.105	187.75
263.337	212.75
263.57	213.75
263.802	220.75
264.035	215.75
264.267	217.75
264.499	227.75
264.732	218.75
264.964	206.75
265.197	215.75
265.429	213.75
265.661	214.75
265.894	204.75
266.126	218.75
266.358	222.75
266.591	215.75
266.823	219.75
267.055	225.75
267.287	226.75
267.52	219.75
267.752	241.75
267.984	233.75
268.216	232.75
268.448	239.75
268.681	224.75
268.913	234.75
269.145	260.75
269.377	268.75
269.609	280.75
269.841	270.75
270.073	250.75
270.306	269.75
270.538	294.75
270.77	294.75
271.002	288.75
271.234	264.75
271.466	262.75
271.698	291.75
271.93	299.75
272.162	304.75
272.394	291.75
272.626	302.75
272.858	283.75
273.09	275.75
273.322	285.75
273.553	255.75
273.785	264.75
274.017	242.75
274.249	257.75
274.481	267.75
274.713	263.75
274.945	268.75
275.176	257.75
275.408	260.75
275.64	259.75
275.872	270.75
276.104	261.75
276.335	272.75
276.567	263.75
276.799	286.75
277.031	293.75
277.262	305.75
277.494	308.75
277.726	297.75
277.957	283.75
278.189	275.75
278.421	277.75
278.652	269.75
278.884	276.75
279.115	279.75
279.347	269.75
279.579	262.75
279.81	275.75
280.042	273.75
280.273	266.75
280.505	273.75
280.736	263.75
280.968	262.75
281.199	267.75
281.431	286.75
281.662	278.75
281.894	269.75
282.125	259.75
282.356	276.75
282.588	307.75
282.819	286.75
283.051	292.75
283.282	285.75
283.513	294.75
283.745	282.75
283.976	307.75
284.207	278.75
284.439	293.75
284.67	282.75
284.901	291.75
285.132	292.75
285.364	305.75
285.595	310.75
285.826	287.75
286.057	279.75
286.288	287.75
286.52	306.75
286.751	293.75
286.982	283.75
287.213	292.75
287.444	284.75
287.675	263.75
287.906	299.75
288.138	306.75
288.369	292.75
288.6	300.75
288.831	299.75
289.062	286.75
289.293	300.75
289.524	292.75
289.755	301.75
289.986	294.75
290.217	301.75
290.448	287.75
290.679	301.75
290.91	287.75
291.141	314.75
291.371	305.75
291.602	301.75
291.833	291.75
292.064	312.75
292.295	298.75
292.526	278.75
292.757	287.75
292.987	318.75
293.218	300.75
293.449	313.75
293.68	297.75
293.91	284.75
294.141	289.75
294.372	287.75
294.603	295.75
294.833	295.75
295.064	295.75
295.295	302.75
295.525	297.75
295.756	293.75
295.987	300.75
296.217	302.75
296.448	285.75
296.679	308.75
296.909	305.75
297.14	323.75
297.37	290.75
297.601	294.75
297.831	314.75
298.062	298.75
298.292	289.75
298.523	292.75
298.753	317.75
298.984	325.75
299.214	313.75
299.445	315.75
299.675	315.75
299.905	325.75
300.136	299.75
300.366	315.75
300.597	323.75
300.827	310.75
301.057	345.75
301.288	329.75
301.518	324.75
301.748	305.75
301.979	332.75
302.209	311.75
302.439	340.75
302.669	343.75
302.9	326.75
303.13	329.75
303.36	332.75
303.59	344.75
303.82	334.75
304.051	348.75
304.281	345.75
304.511	318.75
304.741	337.75
304.971	334.75
305.201	326.75
305.431	334.75
305.661	336.75
305.891	323.75
306.121	333.75
306.352	327.75
306.582	350.75
306.812	360.75
307.042	317.75
307.272	313.75
307.502	323.75
307.731	339.75
307.961	315.75
308.191	326.75
308.421	334.75
308.651	343.75
308.881	326.75
309.111	346.75
309.341	337.75
309.571	339.75
309.8	349.75
310.03	359.75
310.26	363.75
310.49	344.75
310.72	357.75
310.949	367.75
311.179	377.75
311.409	360.75
311.639	355.75
311.868	361.75
312.098	388.75
312.328	376.75
312.557	378.75
312.787	363.75
313.017	375.75
313.246	373.75
313.476	364.75
313.706	381.75
313.935	393.75
314.165	380.75
314.394	380.75
314.624	382.75
314.853	376.75
315.083	350.75
315.312	382.75
315.542	370.75
315.771	385.75
316.001	360.75
316.23	376.75
316.46	362.75
316.689	365.75
316.919	363.75
317.148	378.75
317.377	392.75
317.607	371.75
317.836	377.75
318.065	377.75
318.295	372.75
318.524	374.75
318.753	373.75
318.983	371.75
319.212	367.75
319.441	386.75
319.67	381.75
319.9	385.75
320.129	359.75
320.358	373.75
320.587	368.75
320.816	379.75
321.046	383.75
321.275	387.75
321.504	394.75
321.733	402.75
321.962	397.75
322.191	383.75
322.42	405.75
322.649	411.75
322.878	423.75
323.108	430.75
323.337	436.75
323.566	449.75
323.795	465.75
324.024	486.75
324.253	570.75
324.482	741.75
324.71	1130.75
324.939	1621.75
325.168	1438.75
325.397	734.75
325.626	540.75
325.855	468.75
326.084	455.75
326.313	439.75
326.542	431.75
326.77	460.75
326.999	526.75
327.228	691.75
327.457	1029.75
327.686	1220.75
327.914	855.75
328.143	554.75
328.372	513.75
328.6	502.75
328.829	465.75
329.058	469.75
329.287	494.75
329.515	476.75
329.744	462.75
329.972	466.75
330.201	459.75
330.43	472.75
330.658	493.75
330.887	517.75
331.115	501.75
331.344	481.75
331.572	458.75
331.801	478.75
332.03	454.75
332.258	438.75
332.486	448.75
332.715	442.75
332.943	461.75
333.172	445.75
333.4	444.75
333.629	479.75
333.857	467.75
334.085	489.75
334.314	500.75
334.542	489.75
334.771	501.75
334.999	479.75
335.227	456.75
335.455	467.75
335.684	459.75
335.912	448.75
336.14	432.75
336.369	451.75
336.597	446.75
336.825	455.75
337.053	461.75
337.281	426.75
337.51	437.75
337.738	443.75
337.966	438.75
338.194	447.75
338.422	420.75
338.65	411.75
338.878	416.75
339.106	409.75
339.334	409.75
339.562	451.75
339.79	427.75
340.018	426.75
340.246	416.75
340.474	421.75
340.702	421.75
340.93	462.75
341.158	429.75
341.386	417.75
341.614	418.75
341.842	427.75
342.07	432.75
342.298	435.75
342.526	403.75
342.754	429.75
342.981	389.75
343.209	413.75
343.437	412.75
343.665	452.75
343.893	443.75
344.12	452.75
344.348	436.75
344.576	431.75
344.804	453.75
345.031	437.75
345.259	419.75
345.487	439.75
345.714	400.75
345.942	419.75
346.17	418.75
346.397	398.75
346.625	411.75
346.853	397.75
347.08	407.75
347.308	418.75
347.535	422.75
347.763	422.75
347.99	398.75
348.218	414.75
348.445	407.75
348.673	399.75
348.9	412.75
349.128	393.75
349.355	406.75
349.583	381.75
349.81	386.75
350.037	367.75
350.265	403.75
350.492	389.75
350.72	391.75
350.947	405.75
351.174	393.75
351.402	404.75
351.629	423.75
351.856	385.75
352.083	395.75
352.311	428.75
352.538	418.75
352.765	405.75
352.992	406.75
353.22	400.75
353.447	398.75
353.674	401.75
353.901	411.75
354.128	378.75
354.355	406.75
354.583	409.75
354.81	380.75
355.037	387.75
355.264	378.75
355.491	379.75
355.718	376.75
355.945	363.75
356.172	385.75
356.399	387.75
356.626	382.75
356.853	392.75
357.08	395.75
357.307	388.75
357.534	378.75
357.761	369.75
357.988	384.75
358.215	380.75
358.441	385.75
358.668	388.75
358.895	396.75
359.122	388.75
359.349	398.75
359.576	382.75
359.802	423.75
360.029	435.75
360.256	439.75
360.483	418.75
360.709	409.75
360.936	422.75
361.163	405.75
361.39	382.75
361.616	389.75
361.843	379.75
362.07	396.75
362.296	407.75
362.523	420.75
362.749	395.75
362.976	383.75
363.203	421.75
363.429	395.75
363.656	381.75
363.882	390.75
364.109	383.75
364.335	382.75
364.562	385.75
364.788	382.75
365.015	394.75
365.241	391.75
365.468	390.75
365.694	401.75
365.92	402.75
366.147	379.75
366.373	382.75
366.599	370.75
366.826	381.75
367.052	399.75
367.278	385.75
367.505	380.75
367.731	403.75
367.957	387.75
368.184	387.75
368.41	398.75
368.636	410.75
368.862	418.75
369.089	402.75
369.315	402.75
369.541	381.75
369.767	391.75
369.993	394.75
370.219	402.75
370.445	366.75
370.672	398.75
370.898	410.75
371.124	384.75
371.35	402.75
371.576	404.75
371.802	403.75
372.028	379.75
372.254	390.75
372.48	377.75
372.706	393.75
372.932	412.75
373.158	417.75
373.384	406.75
373.61	398.75
373.835	395.75
374.061	403.75
374.287	414.75
374.513	418.75
374.739	417.75
374.965	403.75
375.191	415.75
375.416	409.75
375.642	405.75
375.868	404.75
376.094	393.75
376.319	393.75
376.545	384.75
376.771	391.75
376.997	412.75
377.222	390.75
377.448	401.75
377.674	381.75
377.899	398.75
378.125	397.75
378.35	402.75
378.576	377.75
378.802	390.75
379.027	395.75
379.253	392.75
379.478	410.75
379.704	397.75
379.929	389.75
380.155	399.75
380.38	391.75
380.606	397.75
380.831	388.75
381.057	411.75
381.282	419.75
381.507	398.75
381.733	393.75
381.958	391.75
382.184	398.75
382.409	406.75
382.634	421.75
382.86	405.75
383.085	423.75
383.31	415.75
383.535	417.75
383.761	411.75
383.986	426.75
384.211	422.75
384.436	436.75
384.662	445.75
384.887	441.75
385.112	438.75
385.337	453.75
385.562	452.75
385.787	445.75
386.013	461.75
386.238	435.75
386.463	437.75
386.688	447.75
386.913	448.75
387.138	441.75
387.363	462.75
387.588	433.75
387.813	441.75
388.038	467.75
388.263	460.75
388.488	439.75
388.713	471.75
388.938	455.75
389.163	440.75
389.387	440.75
389.612	442.75
389.837	447.75
390.062	462.75
390.287	446.75
390.512	436.75
390.736	447.75
390.961	456.75
391.186	435.75
391.411	494.75
391.636	480.75
391.86	488.75
392.085	472.75
392.31	476.75
392.534	476.75
392.759	473.75
392.984	463.75
393.208	449.75
393.433	449.75
393.658	443.75
393.882	451.75
394.107	478.75
394.331	459.75
394.556	458.75
394.78	456.75
395.005	474.75
395.229	433.75
395.454	463.75
395.678	472.75
395.903	482.75
396.127	490.75
396.352	492.75
396.576	474.75
396.801	455.75
397.025	478.75
397.249	484.75
397.474	474.75
397.698	463.75
397.922	495.75
398.147	504.75
398.371	525.75
398.595	509.75
398.82	530.75
399.044	536.75
399.268	564.75
399.492	581.75
399.717	620.75
399.941	646.75
400.165	653.75
400.389	640.75
400.613	574.75
400.837	563.75
401.062	510.75
401.286	545.75
401.51	549.75
401.734	519.75
401.958	509.75
402.182	523.75
402.406	533.75
402.63	515.75
402.854	527.75
403.078	509.75
403.302	543.75
403.526	545.75
403.75	535.75
403.974	542.75
404.198	533.75
404.422	535.75
404.645	565.75
404.869	538.75
405.093	566.75
405.317	603.75
405.541	674.75
405.765	588.75
405.988	590.75
406.212	555.75
406.436	559.75
406.66	595.75
406.883	577.75
407.107	595.75
407.331	637.75
407.555	677.75
407.778	699.75
408.002	658.75
408.226	609.75
408.449	604.75
408.673	586.75
408.896	602.75
409.12	666.75
409.344	627.75
409.567	576.75
409.791	537.75
410.014	541.75
410.238	521.75
410.461	541.75
410.685	529.75
410.908	545.75
411.132	586.75
411.355	625.75
411.578	601.75
411.802	547.75
412.025	545.75
412.249	557.75
412.472	553.75
412.695	594.75
412.919	600.75
413.142	536.75
413.365	538.75
413.589	558.75
413.812	520.75
414.035	520.75
414.258	507.75
414.482	522.75
414.705	522.75
414.928	495.75
415.151	515.75
415.374	501.75
415.597	521.75
415.821	512.75
416.044	535.75
416.267	531.75
416.49	504.75
416.713	517.75
416.936	494.75
417.159	475.75
417.382	520.75
417.605	505.75
417.828	523.75
418.051	522.75
418.274	520.75
418.497	492.75
418.72	503.75
418.943	492.75
419.166	542.75
419.389	556.75
419.611	535.75
419.834	551.75
420.057	552.75
420.28	540.75
420.503	519.75
420.726	536.75
420.948	529.75
421.171	585.75
421.394	579.75
421.617	547.75
421.839	511.75
422.062	519.75
422.285	515.75
422.507	581.75
422.73	651.75
422.953	632.75
423.175	581.75
423.398	567.75
423.621	527.75
423.843	550.75
424.066	576.75
424.288	562.75
424.511	571.75
424.733	624.75
424.956	686.75
425.178	664.75
425.401	675.75
425.623	698.75
425.846	617.75
426.068	540.75
426.291	529.75
426.513	548.75
426.735	548.75
426.958	573.75
427.18	683.75
427.402	798.75
427.625	875.75
427.847	715.75
428.069	624.75
428.292	575.75
428.514	545.75
428.736	525.75
428.958	503.75
429.181	529.75
429.403	510.75
429.625	524.75
429.847	542.75
430.069	596.75
430.292	601.75
430.514	511.75
430.736	521.75
430.958	492.75
431.18	497.75
431.402	489.75
431.624	497.75
431.846	487.75
432.068	485.75
432.29	477.75
432.512	497.75
432.734	487.75
432.956	473.75
433.178	495.75
433.4	498.75
433.622	501.75
433.844	504.75
434.066	498.75
434.287	485.75
434.509	473.75
434.731	495.75
434.953	524.75
435.175	516.75
435.397	542.75
435.618	558.75
435.84	589.75
436.062	653.75
436.284	750.75
436.505	616.75
436.727	550.75
436.949	507.75
437.17	498.75
437.392	492.75
437.614	523.75
437.835	566.75
438.057	617.75
438.278	700.75
438.5	701.75
438.721	789.75
438.943	767.75
439.165	613.75
439.386	533.75
439.608	550.75
439.829	540.75
440.05	573.75
440.272	609.75
440.493	563.75
440.715	538.75
440.936	538.75
441.158	506.75
441.379	512.75
441.6	545.75
441.822	575.75
442.043	570.75
442.264	652.75
442.486	711.75
442.707	593.75
442.928	558.75
443.149	575.75
443.371	594.75
443.592	611.75
443.813	712.75
444.034	773.75
444.255	634.75
444.476	580.75
444.698	590.75
444.919	598.75
445.14	686.75
445.361	625.75
445.582	587.75
445.803	623.75
446.024	727.75
446.245	731.75
446.466	648.75
446.687	585.75
446.908	551.75
447.129	526.75
447.35	532.75
447.571	503.75
447.792	501.75
448.013	511.75
448.234	496.75
448.455	541.75
448.675	671.75
448.896	783.75
449.117	647.75
449.338	610.75
449.559	704.75
449.779	805.75
450	665.75
450.221	539.75
450.442	500.75
450.662	501.75
450.883	474.75
451.104	503.75
451.324	478.75
451.545	486.75
451.766	459.75
451.986	445.75
452.207	439.75
452.428	430.75
452.648	458.75
452.869	447.75
453.089	465.75
453.31	467.75
453.53	455.75
453.751	453.75
453.971	463.75
454.192	480.75
454.412	447.75
454.633	423.75
454.853	449.75
455.073	451.75
455.294	447.75
455.514	516.75
455.734	513.75
455.955	465.75
456.175	419.75
456.395	428.75
456.616	428.75
456.836	436.75
457.056	425.75
457.276	430.75
457.497	417.75
457.717	430.75
457.937	439.75
458.157	450.75
458.377	436.75
458.598	469.75
458.818	495.75
459.038	551.75
459.258	583.75
459.478	518.75
459.698	487.75
459.918	491.75
460.138	500.75
460.358	503.75
460.578	503.75
460.798	521.75
461.018	509.75
461.238	483.75
461.458	486.75
461.678	502.75
461.898	505.75
462.118	534.75
462.338	521.75
462.558	529.75
462.777	534.75
462.997	570.75
463.217	564.75
463.437	591.75
463.657	571.75
463.876	564.75
464.096	545.75
464.316	547.75
464.536	549.75
464.755	550.75
464.975	551.75
465.195	568.75
465.414	594.75
465.634	543.75
465.854	513.75
466.073	503.75
466.293	480.75
466.512	482.75
466.732	460.75
466.951	450.75
467.171	450.75
467.391	472.75
467.61	461.75
467.829	476.75
468.049	471.75
468.268	472.75
468.488	463.75
468.707	453.75
468.927	474.75
469.146	455.75
469.365	466.75
469.585	463.75
469.804	464.75
470.023	470.75
470.243	478.75
470.462	477.75
470.681	500.75
470.901	486.75
471.12	478.75
471.339	486.75
471.558	480.75
471.777	467.75
471.997	484.75
472.216	466.75
472.435	481.75
472.654	479.75
472.873	452.75
473.092	486.75
473.311	491.75
473.53	462.75
473.749	475.75
473.968	489.75
474.187	571.75
474.406	603.75
474.625	514.75
474.844	489.75
475.063	483.75
475.282	473.75
475.501	487.75
475.72	487.75
475.939	488.75
476.158	474.75
476.377	470.75
476.596	455.75
476.814	494.75
477.033	503.75
477.252	510.75
477.471	502.75
477.69	499.75
477.908	525.75
478.127	513.75
478.346	522.75
478.564	524.75
478.783	537.75
479.002	522.75
479.22	564.75
479.439	555.75
479.658	567.75
479.876	577.75
480.095	552.75
480.313	596.75
480.532	575.75
480.751	590.75
480.969	591.75
481.188	597.75
481.406	628.75
481.624	569.75
481.843	555.75
482.061	543.75
482.28	558.75
482.498	540.75
482.717	522.75
482.935	559.75
483.153	540.75
483.372	545.75
483.59	556.75
483.808	551.75
484.027	547.75
484.245	553.75
484.463	563.75
484.681	555.75
484.9	550.75
485.118	559.75
485.336	543.75
485.554	563.75
485.772	574.75
485.99	547.75
486.209	561.75
486.427	566.75
486.645	596.75
486.863	582.75
487.081	587.75
487.299	578.75
487.517	574.75
487.735	581.75
487.953	592.75
488.171	587.75
488.389	580.75
488.607	575.75
488.825	612.75
489.043	590.75
489.261	587.75
489.479	589.75
489.696	583.75
489.914	598.75
490.132	608.75
490.35	613.75
490.568	619.75
490.786	631.75
491.003	633.75
491.221	615.75
491.439	675.75
491.657	641.75
491.874	659.75
492.092	669.75
492.31	670.75
492.527	682.75
492.745	682.75
492.963	674.75
493.18	682.75
493.398	689.75
493.615	667.75
493.833	678.75
494.05	697.75
494.268	669.75
494.485	687.75
494.703	707.75
494.92	685.75
495.138	701.75
495.355	665.75
495.573	666.75
495.79	693.75
496.008	683.75
496.225	690.75
496.442	694.75
496.66	694.75
496.877	695.75
497.094	715.75
497.312	701.75
497.529	725.75
497.746	716.75
497.963	738.75
498.181	767.75
498.398	781.75
498.615	778.75
498.832	824.75
499.049	813.75
499.267	845.75
499.484	885.75
499.701	942.75
499.918	976.75
500.135	1025.75
500.352	1103.75
500.569	1111.75
500.786	1129.75
501.003	1110.75
501.22	1045.75
501.437	996.75
501.654	962.75
501.871	929.75
502.088	872.75
502.305	843.75
502.522	845.75
502.739	791.75
502.956	785.75
503.172	740.75
503.389	738.75
503.606	723.75
503.823	733.75
504.04	719.75
504.256	702.75
504.473	714.75
504.69	753.75
504.907	715.75
505.123	671.75
505.34	664.75
505.557	652.75
505.773	684.75
505.99	649.75
506.207	683.75
506.423	675.75
506.64	639.75
506.856	661.75
507.073	626.75
507.289	606.75
507.506	621.75
507.722	670.75
507.939	629.75
508.155	613.75
508.372	616.75
508.588	628.75
508.805	602.75
509.021	614.75
509.238	639.75
509.454	610.75
509.67	610.75
509.887	597.75
510.103	591.75
510.319	598.75
510.536	663.75
510.752	891.75
510.968	790.75
511.184	606.75
511.401	585.75
511.617	570.75
511.833	587.75
512.049	570.75
512.265	564.75
512.481	569.75
512.698	580.75
512.914	558.75
513.13	569.75
513.346	547.75
513.562	538.75
513.778	563.75
513.994	561.75
514.21	583.75
514.426	607.75
514.642	610.75
514.858	622.75
515.074	634.75
515.29	718.75
515.506	913.75
515.721	811.75
515.937	631.75
516.153	625.75
516.369	583.75
516.585	595.75
516.801	589.75
517.016	628.75
517.232	599.75
517.448	614.75
517.664	620.75
517.879	643.75
518.095	643.75
518.311	622.75
518.527	621.75
518.742	637.75
518.958	590.75
519.173	589.75
519.389	567.75
519.605	555.75
519.82	571.75
520.036	586.75
520.251	610.75
520.467	592.75
520.682	590.75
520.898	594.75
521.113	607.75
521.329	622.75
521.544	660.75
521.76	768.75
521.975	1088.75
522.19	1091.75
522.406	681.75
522.621	591.75
522.836	533.75
523.052	549.75
523.267	532.75
523.482	521.75
523.698	513.75
523.913	498.75
524.128	531.75
524.343	504.75
524.559	505.75
524.774	499.75
524.989	517.75
525.204	509.75
525.419	489.75
525.634	492.75
525.849	481.75
526.064	507.75
526.28	492.75
526.495	491.75
526.71	478.75
526.925	488.75
527.14	463.75
527.355	457.75
527.57	456.75
527.785	471.75
527.999	479.75
528.214	478.75
528.429	478.75
528.644	478.75
528.859	507.75
529.074	470.75
529.289	503.75
529.503	535.75
529.718	491.75
529.933	502.75
530.148	497.75
530.363	485.75
530.577	475.75
530.792	457.75
531.007	473.75
531.221	476.75
531.436	485.75
531.651	463.75
531.865	452.75
532.08	474.75
532.295	461.75
532.509	460.75
532.724	471.75
532.938	471.75
533.153	451.75
533.367	461.75
533.582	469.75
533.796	479.75
534.011	467.75
534.225	468.75
534.44	455.75
534.654	454.75
534.868	451.75
535.083	481.75
535.297	452.75
535.511	471.75
535.726	455.75
535.94	459.75
536.154	420.75
536.369	452.75
536.583	453.75
536.797	462.75
537.011	446.75
537.225	423.75
537.44	443.75
537.654	453.75
537.868	463.75
538.082	428.75
538.296	454.75
538.51	428.75
538.724	464.75
538.938	446.75
539.153	439.75
539.367	443.75
539.581	460.75
539.795	438.75
540.009	438.75
540.222	452.75
540.436	449.75
540.65	437.75
540.864	462.75
541.078	461.75
541.292	446.75
541.506	436.75
541.72	441.75
541.934	419.75
542.147	448.75
542.361	455.75
542.575	451.75
542.789	445.75
543.002	424.75
543.216	438.75
543.43	426.75
543.644	449.75
543.857	461.75
544.071	453.75
544.285	447.75
544.498	451.75
544.712	447.75
544.925	451.75
545.139	449.75
545.352	433.75
545.566	435.75
545.779	449.75
545.993	459.75
546.206	433.75
546.42	474.75
546.633	450.75
546.847	452.75
547.06	431.75
547.274	440.75
547.487	433.75
547.7	433.75
547.914	415.75
548.127	434.75
548.34	445.75
548.554	430.75
548.767	430.75
548.98	428.75
549.193	429.75
549.407	445.75
549.62	439.75
549.833	449.75
550.046	442.75
550.259	449.75
550.473	428.75
550.686	441.75
550.899	449.75
551.112	434.75
551.325	430.75
551.538	435.75
551.751	410.75
551.964	429.75
552.177	458.75
552.39	441.75
552.603	446.75
552.816	449.75
553.029	445.75
553.242	444.75
553.455	446.75
553.667	488.75
553.88	450.75
554.093	445.75
554.306	439.75
554.519	447.75
554.732	455.75
554.944	436.75
555.157	435.75
555.37	410.75
555.583	429.75
555.795	441.75
556.008	422.75
556.221	387.75
556.433	382.75
556.646	397.75
556.859	423.75
557.071	403.75
557.284	396.75
557.496	405.75
557.709	399.75
557.921	380.75
558.134	404.75
558.346	398.75
558.559	410.75
558.771	389.75
558.984	388.75
559.196	388.75
559.409	381.75
559.621	387.75
559.833	403.75
560.046	388.75
560.258	407.75
560.47	409.75
560.683	393.75
560.895	382.75
561.107	401.75
561.32	387.75
561.532	378.75
561.744	386.75
561.956	383.75
562.168	385.75
562.381	387.75
562.593	381.75
562.805	407.75
563.017	391.75
563.229	392.75
563.441	393.75
563.653	385.75
563.865	380.75
564.077	385.75
564.289	397.75
564.501	391.75
564.713	418.75
564.925	412.75
565.137	425.75
565.349	422.75
565.561	438.75
565.773	423.75
565.985	429.75
566.197	458.75
566.408	474.75
566.62	485.75
566.832	483.75
567.044	500.75
567.255	514.75
567.467	503.75
567.679	534.75
567.891	562.75
568.102	550.75
568.314	536.75
568.526	513.75
568.737	479.75
568.949	462.75
569.161	442.75
569.372	423.75
569.584	418.75
569.795	408.75
570.007	404.75
570.218	418.75
570.43	378.75
570.641	391.75
570.853	406.75
571.064	382.75
571.276	390.75
571.487	378.75
571.698	392.75
571.91	365.75
572.121	366.75
572.333	346.75
572.544	344.75
572.755	353.75
572.966	353.75
573.178	343.75
573.389	353.75
573.6	334.75
573.811	343.75
574.023	340.75
574.234	342.75
574.445	339.75
574.656	340.75
574.867	321.75
575.078	326.75
575.289	334.75
575.501	342.75
575.712	327.75
575.923	329.75
576.134	328.75
576.345	323.75
576.556	326.75
576.767	304.75
576.978	330.75
577.188	333.75
577.399	342.75
577.61	323.75
577.821	336.75
578.032	313.75
578.243	333.75
578.454	454.75
578.665	379.75
578.875	323.75
579.086	301.75
579.297	323.75
579.508	316.75
579.718	319.75
579.929	314.75
580.14	308.75
580.35	315.75
580.561	333.75
580.772	295.75
580.982	291.75
581.193	316.75
581.403	312.75
581.614	292.75
581.825	329.75
582.035	290.75
582.246	294.75
582.456	320.75
582.667	284.75
582.877	311.75
583.087	305.75
583.298	286.75
583.508	297.75
583.719	319.75
583.929	324.75
584.139	307.75
584.35	272.75
584.56	291.75
584.77	286.75
584.981	300.75
585.191	315.75
585.401	311.75
585.611	291.75
585.821	305.75
586.032	288.75
586.242	326.75
586.452	298.75
586.662	294.75
586.872	282.75
587.082	315.75
587.292	314.75
587.502	295.75
587.713	288.75
587.923	295.75
588.133	277.75
588.343	309.75
588.553	299.75
588.762	292.75
588.972	283.75
589.182	301.75
589.392	285.75
589.602	294.75
589.812	290.75
590.022	302.75
590.232	280.75
590.441	290.75
590.651	312.75
590.861	275.75
591.071	289.75
591.281	300.75
591.49	332.75
591.7	299.75
591.91	309.75
592.119	318.75
592.329	296.75
592.539	329.75
592.748	297.75
592.958	322.75
593.167	335.75
593.377	313.75
593.587	332.75
593.796	307.75
594.006	334.75
594.215	319.75
594.424	332.75
594.634	326.75
594.843	322.75
595.053	322.75
595.262	308.75
595.472	312.75
595.681	300.75
595.89	285.75
596.1	286.75
596.309	290.75
596.518	288.75
596.727	286.75
596.937	276.75
597.146	269.75
597.355	276.75
597.564	276.75
597.774	266.75
597.983	290.75
598.192	274.75
598.401	272.75
598.61	264.75
598.819	260.75
599.028	279.75
599.237	274.75
599.446	259.75
599.655	275.75
599.864	256.75
600.073	264.75
600.282	279.75
600.491	263.75
600.7	268.75
600.909	266.75
601.118	258.75
601.327	263.75
601.536	261.75
601.745	255.75
601.953	233.75
602.162	260.75
602.371	258.75
602.58	266.75
602.789	237.75
602.997	251.75
603.206	267.75
603.415	245.75
603.623	257.75
603.832	259.75
604.041	243.75
604.249	262.75
604.458	249.75
604.666	248.75
604.875	231.75
605.084	241.75
605.292	255.75
605.501	247.75
605.709	261.75
605.918	244.75
606.126	226.75
606.334	242.75
606.543	233.75
606.751	249.75
606.96	245.75
607.168	228.75
607.376	239.75
607.585	226.75
607.793	236.75
608.001	260.75
608.21	247.75
608.418	240.75
608.626	249.75
608.834	234.75
609.043	234.75
609.251	259.75
609.459	223.75
609.667	247.75
609.875	263.75
610.083	241.75
610.291	226.75
610.499	235.75
610.707	240.75
610.916	243.75
611.124	253.75
611.332	259.75
611.54	245.75
611.748	264.75
611.955	233.75
612.163	235.75
612.371	233.75
612.579	237.75
612.787	246.75
612.995	247.75
613.203	241.75
613.411	231.75
613.618	243.75
613.826	234.75
614.034	226.75
614.242	229.75
614.449	229.75
614.657	233.75
614.865	244.75
615.072	232.75
615.28	250.75
615.488	246.75
615.695	237.75
615.903	238.75
616.111	249.75
616.318	244.75
616.526	235.75
616.733	239.75
616.941	254.75
617.148	225.75
617.356	227.75
617.563	234.75
617.771	245.75
617.978	215.75
618.185	241.75
618.393	232.75
618.6	231.75
618.807	223.75
619.015	233.75
619.222	227.75
619.429	222.75
619.637	222.75
619.844	230.75
620.051	234.75
620.258	241.75
620.466	217.75
620.673	227.75
620.88	222.75
621.087	225.75
621.294	232.75
621.501	237.75
621.708	241.75
621.915	225.75
622.122	225.75
622.329	227.75
622.536	227.75
622.743	228.75
622.95	224.75
623.157	219.75
623.364	218.75
623.571	214.75
623.778	209.75
623.985	222.75
624.192	211.75
624.399	205.75
624.606	223.75
624.812	226.75
625.019	215.75
625.226	215.75
625.433	225.75
625.639	199.75
625.846	213.75
626.053	209.75
626.259	194.75
626.466	208.75
626.673	207.75
626.879	197.75
627.086	209.75
627.293	227.75
627.499	204.75
627.706	203.75
627.912	191.75
628.119	215.75
628.325	210.75
628.532	201.75
628.738	191.75
628.945	196.75
629.151	195.75
629.357	204.75
629.564	201.75
629.77	195.75
629.976	194.75
630.183	204.75
630.389	211.75
630.595	192.75
630.802	193.75
631.008	187.75
631.214	207.75
631.42	182.75
631.627	195.75
631.833	201.75
632.039	191.75
632.245	185.75
632.451	192.75
632.657	185.75
632.863	196.75
633.069	169.75
633.275	207.75
633.481	189.75
633.688	193.75
633.893	198.75
634.099	198.75
634.305	178.75
634.511	166.75
634.717	183.75
634.923	193.75
635.129	189.75
635.335	179.75
635.541	179.75
635.747	183.75
635.952	187.75
636.158	191.75
636.364	186.75
636.57	185.75
636.775	169.75
636.981	174.75
637.187	174.75
637.392	186.75
637.598	177.75
637.804	181.75
638.009	184.75
638.215	195.75
638.421	190.75
638.626	179.75
638.832	184.75
639.037	181.75
639.243	172.75
639.448	169.75
639.654	165.75
639.859	163.75
640.065	172.75
640.27	172.75
640.475	172.75
640.681	173.75
640.886	169.75
641.091	171.75
641.297	180.75
641.502	169.75
641.707	177.75
641.913	186.75
642.118	154.75
642.323	166.75
642.528	174.75
642.733	152.75
642.939	169.75
643.144	170.75
643.349	170.75
643.554	172.75
643.759	188.75
643.964	164.75
644.169	171.75
644.374	155.75
644.579	170.75
644.784	159.75
644.989	163.75
645.194	165.75
645.399	178.75
645.604	169.75
645.809	162.75
646.014	170.75
646.219	151.75
646.423	167.75
646.628	177.75
646.833	180.75
647.038	166.75
647.243	171.75
647.447	169.75
647.652	166.75
647.857	173.75
648.062	160.75
648.266	159.75
648.471	168.75
648.676	177.75
648.88	154.75
649.085	166.75
649.289	161.75
649.494	179.75
649.698	193.75
649.903	174.75
650.107	165.75
650.312	155.75
650.516	160.75
650.721	165.75
650.925	159.75
651.13	157.75
651.334	144.75
651.539	149.75
651.743	148.75
651.947	151.75
652.152	133.75
652.356	149.75
652.56	134.75
652.764	141.75
652.969	150.75
653.173	138.75
653.377	140.75
653.581	147.75
653.785	141.75
653.99	143.75
654.194	137.75
654.398	140.75
654.602	123.75
654.806	157.75
655.01	143.75
655.214	140.75
655.418	134.75
655.622	141.75
655.826	135.75
656.03	139.75
656.234	138.75
656.438	137.75
656.642	126.75
656.846	135.75
657.049	130.75
657.253	137.75
657.457	124.75
657.661	129.75
657.865	101.75
658.068	114.75
658.272	111.75
658.476	110.75
658.68	96.75
658.883	113.75
659.087	101.75
659.291	104.75
659.494	113.75
659.698	97.75
659.901	98.75
660.105	94.75
660.309	83.75
660.512	94.75
660.716	102.75
660.919	87.75
661.123	102.75
661.326	73.75
661.53	86.75
661.733	88.75
661.936	90.75
662.14	88.75
662.343	87.75
662.546	94.75
662.75	87.75
662.953	90.75
663.156	97.75
663.36	83.75
663.563	92.75
663.766	83.75
663.969	83.75
664.173	102.75
664.376	70.75
664.579	84.75
664.782	85.75
664.985	78.75
665.188	89.75
665.391	84.75
665.594	71.75
665.797	86.75
666	94.75
666.203	76.75
666.406	81.75
666.609	75.75
666.812	92.75
667.015	86.75
667.218	83.75
667.421	86.75
667.624	78.75
667.827	95.75
668.03	75.75
668.232	92.75
668.435	85.75
668.638	81.75
668.841	82.75
669.043	89.75
669.246	87.75
669.449	86.75
669.651	82.75
669.854	99.75
670.057	83.75
670.259	74.75
670.462	85.75
670.665	92.75
670.867	72.75
671.07	78.75
671.272	82.75
671.475	87.75
671.677	90.75
671.88	77.75
672.082	78.75
672.284	86.75
672.487	97.75
672.689	91.75
672.892	90.75
