Data from 1976.PennyLincolnUp.Lamp.En5.5.200Scan.071719.P1.Changed Mount._HRD10591_16-02-05-861.txt Node
Date: Thu Jul 18 16:02:05 EDT 2019
User: cochatt
Spectrometer: HR+D1059
Trigger mode: 1
Integration Time (sec): 1.000000E-1
Scans to average: 1
Electric dark correction enabled: true
Nonlinearity correction enabled: false
Boxcar width: 0
XAxis mode: Wavelengths
Number of Pixels in Spectrum: 2048
>>>>>Begin Spectral Data<<<<<
223.165	-13.06
223.4	-13.06
223.635	-13.06
223.869	-39.06
224.104	-0.06
224.338	-5.06
224.573	-13.06
224.808	-14.06
225.042	-5.06
225.277	-4.06
225.511	-7.06
225.746	-9.06
225.98	-3.06
226.215	12.94
226.449	16.94
226.683	32.94
226.918	25.94
227.152	23.94
227.387	34.94
227.621	35.94
227.856	38.94
228.09	41.94
228.324	41.94
228.559	45.94
228.793	47.94
229.027	89.94
229.262	111.94
229.496	122.94
229.73	130.94
229.964	141.94
230.199	116.94
230.433	119.94
230.667	115.94
230.901	123.94
231.136	107.94
231.37	117.94
231.604	120.94
231.838	104.94
232.072	107.94
232.306	107.94
232.541	113.94
232.775	122.94
233.009	103.94
233.243	114.94
233.477	124.94
233.711	137.94
233.945	119.94
234.179	120.94
234.413	122.94
234.647	128.94
234.881	109.94
235.115	127.94
235.349	135.94
235.583	109.94
235.817	127.94
236.051	141.94
236.285	128.94
236.519	131.94
236.753	136.94
236.987	145.94
237.221	186.94
237.455	228.94
237.689	177.94
237.922	153.94
238.156	133.94
238.39	129.94
238.624	114.94
238.858	127.94
239.091	111.94
239.325	119.94
239.559	105.94
239.793	119.94
240.027	128.94
240.26	135.94
240.494	155.94
240.728	154.94
240.961	161.94
241.195	152.94
241.429	139.94
241.662	119.94
241.896	138.94
242.13	137.94
242.363	139.94
242.597	148.94
242.83	150.94
243.064	141.94
243.298	152.94
243.531	140.94
243.765	147.94
243.998	153.94
244.232	144.94
244.465	157.94
244.699	155.94
244.932	148.94
245.166	159.94
245.399	165.94
245.633	146.94
245.866	141.94
246.099	161.94
246.333	135.94
246.566	158.94
246.8	154.94
247.033	155.94
247.266	159.94
247.5	181.94
247.733	195.94
247.966	183.94
248.2	176.94
248.433	175.94
248.666	173.94
248.899	178.94
249.133	201.94
249.366	217.94
249.599	183.94
249.832	179.94
250.066	183.94
250.299	196.94
250.532	189.94
250.765	195.94
250.998	231.94
251.231	246.94
251.465	225.94
251.698	209.94
251.931	212.94
252.164	192.94
252.397	221.94
252.63	211.94
252.863	219.94
253.096	220.94
253.329	242.94
253.562	242.94
253.795	240.94
254.028	239.94
254.261	212.94
254.494	244.94
254.727	248.94
254.96	308.94
255.193	286.94
255.426	265.94
255.659	246.94
255.892	248.94
256.124	252.94
256.357	239.94
256.59	234.94
256.823	226.94
257.056	230.94
257.289	208.94
257.521	212.94
257.754	220.94
257.987	208.94
258.22	214.94
258.452	224.94
258.685	216.94
258.918	205.94
259.151	225.94
259.383	224.94
259.616	227.94
259.849	245.94
260.081	243.94
260.314	256.94
260.547	263.94
260.779	252.94
261.012	247.94
261.244	239.94
261.477	230.94
261.71	236.94
261.942	242.94
262.175	242.94
262.407	215.94
262.64	223.94
262.872	219.94
263.105	211.94
263.337	227.94
263.57	209.94
263.802	228.94
264.035	231.94
264.267	219.94
264.499	211.94
264.732	224.94
264.964	223.94
265.197	215.94
265.429	220.94
265.661	232.94
265.894	240.94
266.126	220.94
266.358	247.94
266.591	242.94
266.823	240.94
267.055	223.94
267.287	243.94
267.52	221.94
267.752	229.94
267.984	250.94
268.216	254.94
268.448	239.94
268.681	245.94
268.913	260.94
269.145	280.94
269.377	296.94
269.609	296.94
269.841	285.94
270.073	306.94
270.306	298.94
270.538	313.94
270.77	348.94
271.002	326.94
271.234	297.94
271.466	330.94
271.698	320.94
271.93	336.94
272.162	341.94
272.394	330.94
272.626	316.94
272.858	291.94
273.09	309.94
273.322	282.94
273.553	288.94
273.785	296.94
274.017	285.94
274.249	288.94
274.481	294.94
274.713	258.94
274.945	291.94
275.176	295.94
275.408	299.94
275.64	284.94
275.872	280.94
276.104	286.94
276.335	282.94
276.567	298.94
276.799	307.94
277.031	320.94
277.262	332.94
277.494	329.94
277.726	332.94
277.957	304.94
278.189	305.94
278.421	299.94
278.652	292.94
278.884	292.94
279.115	284.94
279.347	298.94
279.579	295.94
279.81	269.94
280.042	287.94
280.273	307.94
280.505	284.94
280.736	283.94
280.968	304.94
281.199	303.94
281.431	295.94
281.662	284.94
281.894	304.94
282.125	300.94
282.356	312.94
282.588	315.94
282.819	314.94
283.051	308.94
283.282	314.94
283.513	312.94
283.745	295.94
283.976	307.94
284.207	309.94
284.439	298.94
284.67	305.94
284.901	295.94
285.132	292.94
285.364	319.94
285.595	333.94
285.826	305.94
286.057	308.94
286.288	305.94
286.52	300.94
286.751	313.94
286.982	313.94
287.213	303.94
287.444	306.94
287.675	311.94
287.906	333.94
288.138	313.94
288.369	314.94
288.6	334.94
288.831	331.94
289.062	335.94
289.293	320.94
289.524	320.94
289.755	313.94
289.986	305.94
290.217	338.94
290.448	335.94
290.679	331.94
290.91	326.94
291.141	298.94
291.371	331.94
291.602	330.94
291.833	327.94
292.064	322.94
292.295	305.94
292.526	323.94
292.757	323.94
292.987	322.94
293.218	348.94
293.449	317.94
293.68	319.94
293.91	323.94
294.141	324.94
294.372	328.94
294.603	326.94
294.833	311.94
295.064	316.94
295.295	336.94
295.525	330.94
295.756	326.94
295.987	344.94
296.217	353.94
296.448	365.94
296.679	343.94
296.909	327.94
297.14	324.94
297.37	339.94
297.601	316.94
297.831	320.94
298.062	341.94
298.292	348.94
298.523	336.94
298.753	341.94
298.984	344.94
299.214	340.94
299.445	347.94
299.675	340.94
299.905	352.94
300.136	335.94
300.366	332.94
300.597	344.94
300.827	353.94
301.057	369.94
301.288	360.94
301.518	360.94
301.748	365.94
301.979	363.94
302.209	355.94
302.439	368.94
302.669	363.94
302.9	360.94
303.13	368.94
303.36	343.94
303.59	359.94
303.82	376.94
304.051	377.94
304.281	368.94
304.511	347.94
304.741	362.94
304.971	373.94
305.201	354.94
305.431	345.94
305.661	354.94
305.891	357.94
306.121	376.94
306.352	370.94
306.582	365.94
306.812	365.94
307.042	372.94
307.272	379.94
307.502	370.94
307.731	375.94
307.961	353.94
308.191	361.94
308.421	388.94
308.651	367.94
308.881	356.94
309.111	376.94
309.341	374.94
309.571	381.94
309.8	382.94
310.03	394.94
310.26	390.94
310.49	412.94
310.72	395.94
310.949	423.94
311.179	419.94
311.409	413.94
311.639	392.94
311.868	408.94
312.098	405.94
312.328	414.94
312.557	438.94
312.787	406.94
313.017	435.94
313.246	438.94
313.476	418.94
313.706	409.94
313.935	404.94
314.165	409.94
314.394	419.94
314.624	428.94
314.853	410.94
315.083	411.94
315.312	406.94
315.542	409.94
315.771	383.94
316.001	387.94
316.23	401.94
316.46	397.94
316.689	398.94
316.919	424.94
317.148	409.94
317.377	421.94
317.607	413.94
317.836	420.94
318.065	381.94
318.295	406.94
318.524	407.94
318.753	409.94
318.983	414.94
319.212	395.94
319.441	392.94
319.67	395.94
319.9	416.94
320.129	415.94
320.358	413.94
320.587	401.94
320.816	427.94
321.046	415.94
321.275	432.94
321.504	425.94
321.733	435.94
321.962	437.94
322.191	436.94
322.42	450.94
322.649	439.94
322.878	459.94
323.108	487.94
323.337	496.94
323.566	499.94
323.795	510.94
324.024	566.94
324.253	657.94
324.482	890.94
324.71	1406.94
324.939	2133.94
325.168	1835.94
325.397	907.94
325.626	641.94
325.855	535.94
326.084	513.94
326.313	495.94
326.542	497.94
326.77	526.94
326.999	636.94
327.228	853.94
327.457	1253.94
327.686	1613.94
327.914	1070.94
328.143	705.94
328.372	603.94
328.6	585.94
328.829	555.94
329.058	565.94
329.287	581.94
329.515	543.94
329.744	539.94
329.972	515.94
330.201	529.94
330.43	567.94
330.658	591.94
330.887	600.94
331.115	586.94
331.344	516.94
331.572	492.94
331.801	523.94
332.03	499.94
332.258	524.94
332.486	498.94
332.715	476.94
332.943	476.94
333.172	477.94
333.4	507.94
333.629	534.94
333.857	557.94
334.085	523.94
334.314	536.94
334.542	581.94
334.771	577.94
334.999	545.94
335.227	518.94
335.455	485.94
335.684	487.94
335.912	500.94
336.14	487.94
336.369	475.94
336.597	489.94
336.825	491.94
337.053	497.94
337.281	482.94
337.51	463.94
337.738	466.94
337.966	457.94
338.194	498.94
338.422	491.94
338.65	479.94
338.878	455.94
339.106	457.94
339.334	485.94
339.562	455.94
339.79	458.94
340.018	462.94
340.246	458.94
340.474	473.94
340.702	463.94
340.93	450.94
341.158	460.94
341.386	470.94
341.614	462.94
341.842	456.94
342.07	460.94
342.298	471.94
342.526	467.94
342.754	441.94
342.981	453.94
343.209	453.94
343.437	455.94
343.665	470.94
343.893	475.94
344.12	477.94
344.348	503.94
344.576	487.94
344.804	477.94
345.031	501.94
345.259	483.94
345.487	472.94
345.714	475.94
345.942	445.94
346.17	452.94
346.397	436.94
346.625	440.94
346.853	448.94
347.08	411.94
347.308	435.94
347.535	452.94
347.763	437.94
347.99	451.94
348.218	464.94
348.445	448.94
348.673	439.94
348.9	437.94
349.128	436.94
349.355	416.94
349.583	441.94
349.81	436.94
350.037	413.94
350.265	444.94
350.492	423.94
350.72	437.94
350.947	422.94
351.174	457.94
351.402	435.94
351.629	433.94
351.856	440.94
352.083	434.94
352.311	448.94
352.538	470.94
352.765	463.94
352.992	459.94
353.22	431.94
353.447	426.94
353.674	442.94
353.901	435.94
354.128	427.94
354.355	431.94
354.583	416.94
354.81	410.94
355.037	418.94
355.264	396.94
355.491	396.94
355.718	417.94
355.945	397.94
356.172	418.94
356.399	438.94
356.626	411.94
356.853	422.94
357.08	418.94
357.307	407.94
357.534	409.94
357.761	409.94
357.988	419.94
358.215	421.94
358.441	413.94
358.668	429.94
358.895	421.94
359.122	405.94
359.349	417.94
359.576	435.94
359.802	444.94
360.029	482.94
360.256	491.94
360.483	477.94
360.709	460.94
360.936	420.94
361.163	427.94
361.39	452.94
361.616	433.94
361.843	439.94
362.07	454.94
362.296	435.94
362.523	441.94
362.749	438.94
362.976	437.94
363.203	420.94
363.429	420.94
363.656	440.94
363.882	427.94
364.109	435.94
364.335	411.94
364.562	428.94
364.788	436.94
365.015	439.94
365.241	420.94
365.468	437.94
365.694	452.94
365.92	436.94
366.147	417.94
366.373	445.94
366.599	451.94
366.826	420.94
367.052	397.94
367.278	423.94
367.505	413.94
367.731	450.94
367.957	434.94
368.184	424.94
368.41	425.94
368.636	447.94
368.862	447.94
369.089	409.94
369.315	445.94
369.541	407.94
369.767	413.94
369.993	431.94
370.219	431.94
370.445	422.94
370.672	426.94
370.898	423.94
371.124	439.94
371.35	440.94
371.576	443.94
371.802	407.94
372.028	432.94
372.254	417.94
372.48	427.94
372.706	443.94
372.932	423.94
373.158	424.94
373.384	432.94
373.61	433.94
373.835	451.94
374.061	428.94
374.287	423.94
374.513	447.94
374.739	461.94
374.965	443.94
375.191	445.94
375.416	460.94
375.642	429.94
375.868	428.94
376.094	440.94
376.319	426.94
376.545	433.94
376.771	427.94
376.997	423.94
377.222	427.94
377.448	422.94
377.674	435.94
377.899	447.94
378.125	433.94
378.35	414.94
378.576	413.94
378.802	435.94
379.027	409.94
379.253	419.94
379.478	413.94
379.704	432.94
379.929	437.94
380.155	439.94
380.38	433.94
380.606	428.94
380.831	431.94
381.057	437.94
381.282	431.94
381.507	425.94
381.733	431.94
381.958	439.94
382.184	444.94
382.409	434.94
382.634	460.94
382.86	452.94
383.085	450.94
383.31	454.94
383.535	467.94
383.761	462.94
383.986	423.94
384.211	456.94
384.436	446.94
384.662	459.94
384.887	462.94
385.112	435.94
385.337	490.94
385.562	460.94
385.787	478.94
386.013	471.94
386.238	458.94
386.463	465.94
386.688	515.94
386.913	495.94
387.138	484.94
387.363	482.94
387.588	470.94
387.813	481.94
388.038	485.94
388.263	469.94
388.488	495.94
388.713	479.94
388.938	466.94
389.163	477.94
389.387	479.94
389.612	468.94
389.837	488.94
390.062	472.94
390.287	462.94
390.512	477.94
390.736	478.94
390.961	466.94
391.186	509.94
391.411	518.94
391.636	497.94
391.86	484.94
392.085	485.94
392.31	514.94
392.534	507.94
392.759	493.94
392.984	492.94
393.208	476.94
393.433	483.94
393.658	482.94
393.882	488.94
394.107	493.94
394.331	497.94
394.556	473.94
394.78	490.94
395.005	504.94
395.229	501.94
395.454	509.94
395.678	529.94
395.903	501.94
396.127	524.94
396.352	533.94
396.576	497.94
396.801	492.94
397.025	499.94
397.249	491.94
397.474	524.94
397.698	507.94
397.922	526.94
398.147	549.94
398.371	536.94
398.595	522.94
398.82	554.94
399.044	564.94
399.268	577.94
399.492	651.94
399.717	663.94
399.941	711.94
400.165	734.94
400.389	732.94
400.613	639.94
400.837	626.94
401.062	571.94
401.286	577.94
401.51	557.94
401.734	563.94
401.958	575.94
402.182	569.94
402.406	580.94
402.63	584.94
402.854	587.94
403.078	580.94
403.302	579.94
403.526	556.94
403.75	606.94
403.974	588.94
404.198	609.94
404.422	611.94
404.645	600.94
404.869	592.94
405.093	639.94
405.317	694.94
405.541	692.94
405.765	650.94
405.988	632.94
406.212	609.94
406.436	637.94
406.66	646.94
406.883	627.94
407.107	672.94
407.331	696.94
407.555	740.94
407.778	768.94
408.002	691.94
408.226	663.94
408.449	650.94
408.673	639.94
408.896	684.94
409.12	703.94
409.344	689.94
409.567	617.94
409.791	610.94
410.014	609.94
410.238	577.94
410.461	588.94
410.685	593.94
410.908	606.94
411.132	646.94
411.355	684.94
411.578	641.94
411.802	603.94
412.025	575.94
412.249	591.94
412.472	634.94
412.695	649.94
412.919	663.94
413.142	583.94
413.365	602.94
413.589	563.94
413.812	559.94
414.035	566.94
414.258	558.94
414.482	557.94
414.705	542.94
414.928	551.94
415.151	544.94
415.374	541.94
415.597	535.94
415.821	564.94
416.044	539.94
416.267	526.94
416.49	543.94
416.713	548.94
416.936	565.94
417.159	549.94
417.382	539.94
417.605	566.94
417.828	557.94
418.051	575.94
418.274	579.94
418.497	542.94
418.72	569.94
418.943	553.94
419.166	587.94
419.389	611.94
419.611	594.94
419.834	615.94
420.057	612.94
420.28	590.94
420.503	590.94
420.726	583.94
420.948	605.94
421.171	637.94
421.394	649.94
421.617	605.94
421.839	574.94
422.062	589.94
422.285	567.94
422.507	654.94
422.73	721.94
422.953	658.94
423.175	604.94
423.398	594.94
423.621	604.94
423.843	609.94
424.066	636.94
424.288	633.94
424.511	631.94
424.733	684.94
424.956	747.94
425.178	703.94
425.401	726.94
425.623	741.94
425.846	663.94
426.068	613.94
426.291	607.94
426.513	608.94
426.735	616.94
426.958	687.94
427.18	761.94
427.402	859.94
427.625	953.94
427.847	821.94
428.069	718.94
428.292	636.94
428.514	587.94
428.736	591.94
428.958	573.94
429.181	558.94
429.403	559.94
429.625	577.94
429.847	601.94
430.069	671.94
430.292	671.94
430.514	575.94
430.736	562.94
430.958	561.94
431.18	538.94
431.402	550.94
431.624	511.94
431.846	523.94
432.068	529.94
432.29	524.94
432.512	518.94
432.734	542.94
432.956	545.94
433.178	530.94
433.4	548.94
433.622	540.94
433.844	534.94
434.066	529.94
434.287	525.94
434.509	551.94
434.731	537.94
434.953	541.94
435.175	580.94
435.397	605.94
435.618	633.94
435.84	650.94
436.062	759.94
436.284	800.94
436.505	647.94
436.727	612.94
436.949	587.94
437.17	567.94
437.392	542.94
437.614	569.94
437.835	599.94
438.057	699.94
438.278	798.94
438.5	779.94
438.721	861.94
438.943	857.94
439.165	658.94
439.386	610.94
439.608	608.94
439.829	608.94
440.05	600.94
440.272	676.94
440.493	637.94
440.715	595.94
440.936	567.94
441.158	555.94
441.379	551.94
441.6	574.94
441.822	587.94
442.043	642.94
442.264	713.94
442.486	779.94
442.707	648.94
442.928	616.94
443.149	619.94
443.371	627.94
443.592	710.94
443.813	802.94
444.034	865.94
444.255	730.94
444.476	660.94
444.698	632.94
444.919	616.94
445.14	748.94
445.361	659.94
445.582	652.94
445.803	703.94
446.024	836.94
446.245	816.94
446.466	775.94
446.687	649.94
446.908	590.94
447.129	578.94
447.35	588.94
447.571	549.94
447.792	551.94
448.013	563.94
448.234	582.94
448.455	623.94
448.675	737.94
448.896	883.94
449.117	735.94
449.338	663.94
449.559	792.94
449.779	912.94
450	725.94
450.221	608.94
450.442	546.94
450.662	552.94
450.883	546.94
451.104	554.94
451.324	529.94
451.545	507.94
451.766	500.94
451.986	494.94
452.207	499.94
452.428	466.94
452.648	514.94
452.869	507.94
453.089	492.94
453.31	511.94
453.53	511.94
453.751	496.94
453.971	498.94
454.192	507.94
454.412	495.94
454.633	465.94
454.853	490.94
455.073	484.94
455.294	490.94
455.514	580.94
455.734	557.94
455.955	462.94
456.175	481.94
456.395	470.94
456.616	495.94
456.836	456.94
457.056	447.94
457.276	471.94
457.497	468.94
457.717	446.94
457.937	483.94
458.157	481.94
458.377	472.94
458.598	511.94
458.818	559.94
459.038	606.94
459.258	639.94
459.478	565.94
459.698	539.94
459.918	519.94
460.138	524.94
460.358	522.94
460.578	545.94
460.798	559.94
461.018	563.94
461.238	552.94
461.458	573.94
461.678	537.94
461.898	539.94
462.118	546.94
462.338	544.94
462.558	608.94
462.777	587.94
462.997	618.94
463.217	626.94
463.437	622.94
463.657	601.94
463.876	599.94
464.096	596.94
464.316	608.94
464.536	585.94
464.755	588.94
464.975	603.94
465.195	620.94
465.414	648.94
465.634	588.94
465.854	567.94
466.073	525.94
466.293	520.94
466.512	513.94
466.732	497.94
466.951	506.94
467.171	517.94
467.391	502.94
467.61	504.94
467.829	518.94
468.049	491.94
468.268	516.94
468.488	503.94
468.707	501.94
468.927	499.94
469.146	472.94
469.365	475.94
469.585	487.94
469.804	516.94
470.023	506.94
470.243	502.94
470.462	504.94
470.681	543.94
470.901	529.94
471.12	511.94
471.339	528.94
471.558	539.94
471.777	527.94
471.997	510.94
472.216	517.94
472.435	523.94
472.654	527.94
472.873	519.94
473.092	485.94
473.311	520.94
473.53	519.94
473.749	525.94
473.968	566.94
474.187	641.94
474.406	687.94
474.625	558.94
474.844	523.94
475.063	514.94
475.282	508.94
475.501	506.94
475.72	503.94
475.939	518.94
476.158	532.94
476.377	524.94
476.596	533.94
476.814	538.94
477.033	545.94
477.252	543.94
477.471	553.94
477.69	545.94
477.908	557.94
478.127	568.94
478.346	551.94
478.564	597.94
478.783	572.94
479.002	616.94
479.22	603.94
479.439	623.94
479.658	606.94
479.876	607.94
480.095	598.94
480.313	652.94
480.532	645.94
480.751	625.94
480.969	642.94
481.188	680.94
481.406	708.94
481.624	649.94
481.843	632.94
482.061	598.94
482.28	601.94
482.498	592.94
482.717	596.94
482.935	594.94
483.153	591.94
483.372	568.94
483.59	586.94
483.808	571.94
484.027	577.94
484.245	609.94
484.463	613.94
484.681	626.94
484.9	613.94
485.118	612.94
485.336	607.94
485.554	608.94
485.772	629.94
485.99	604.94
486.209	631.94
486.427	612.94
486.645	619.94
486.863	644.94
487.081	628.94
487.299	635.94
487.517	645.94
487.735	619.94
487.953	637.94
488.171	638.94
488.389	614.94
488.607	647.94
488.825	641.94
489.043	652.94
489.261	652.94
489.479	632.94
489.696	656.94
489.914	656.94
490.132	677.94
490.35	676.94
490.568	666.94
490.786	680.94
491.003	697.94
491.221	710.94
491.439	714.94
491.657	739.94
491.874	727.94
492.092	717.94
492.31	723.94
492.527	751.94
492.745	749.94
492.963	752.94
493.18	715.94
493.398	743.94
493.615	769.94
493.833	733.94
494.05	780.94
494.268	775.94
494.485	731.94
494.703	747.94
494.92	748.94
495.138	741.94
495.355	787.94
495.573	749.94
495.79	781.94
496.008	778.94
496.225	753.94
496.442	760.94
496.66	759.94
496.877	781.94
497.094	761.94
497.312	775.94
497.529	768.94
497.746	797.94
497.963	806.94
498.181	839.94
498.398	828.94
498.615	865.94
498.832	892.94
499.049	880.94
499.267	925.94
499.484	979.94
499.701	1006.94
499.918	1074.94
500.135	1139.94
500.352	1167.94
500.569	1192.94
500.786	1219.94
501.003	1181.94
501.22	1125.94
501.437	1077.94
501.654	1053.94
501.871	1016.94
502.088	965.94
502.305	909.94
502.522	892.94
502.739	887.94
502.956	847.94
503.172	817.94
503.389	794.94
503.606	788.94
503.823	818.94
504.04	799.94
504.256	783.94
504.473	778.94
504.69	791.94
504.907	749.94
505.123	763.94
505.34	727.94
505.557	715.94
505.773	718.94
505.99	726.94
506.207	721.94
506.423	733.94
506.64	732.94
506.856	714.94
507.073	693.94
507.289	685.94
507.506	691.94
507.722	691.94
507.939	693.94
508.155	704.94
508.372	657.94
508.588	663.94
508.805	664.94
509.021	657.94
509.238	664.94
509.454	680.94
509.67	687.94
509.887	667.94
510.103	651.94
510.319	688.94
510.536	727.94
510.752	1074.94
510.968	947.94
511.184	669.94
511.401	658.94
511.617	633.94
511.833	629.94
512.049	649.94
512.265	629.94
512.481	597.94
512.698	615.94
512.914	640.94
513.13	635.94
513.346	624.94
513.562	610.94
513.778	635.94
513.994	608.94
514.21	642.94
514.426	641.94
514.642	669.94
514.858	701.94
515.074	711.94
515.29	801.94
515.506	1088.94
515.721	936.94
515.937	735.94
516.153	700.94
516.369	663.94
516.585	634.94
516.801	653.94
517.016	689.94
517.232	663.94
517.448	679.94
517.664	687.94
517.879	683.94
518.095	707.94
518.311	684.94
518.527	669.94
518.742	666.94
518.958	651.94
519.173	667.94
519.389	627.94
519.605	633.94
519.82	620.94
520.036	631.94
520.251	618.94
520.467	668.94
520.682	665.94
520.898	664.94
521.113	695.94
521.329	700.94
521.544	756.94
521.76	927.94
521.975	1397.94
522.19	1399.94
522.406	824.94
522.621	674.94
522.836	620.94
523.052	612.94
523.267	588.94
523.482	579.94
523.698	559.94
523.913	587.94
524.128	599.94
524.343	547.94
524.559	556.94
524.774	550.94
524.989	570.94
525.204	552.94
525.419	556.94
525.634	554.94
525.849	524.94
526.064	538.94
526.28	546.94
526.495	512.94
526.71	529.94
526.925	500.94
527.14	514.94
527.355	515.94
527.57	511.94
527.785	525.94
527.999	517.94
528.214	527.94
528.429	524.94
528.644	525.94
528.859	543.94
529.074	517.94
529.289	532.94
529.503	605.94
529.718	582.94
529.933	531.94
530.148	535.94
530.363	523.94
530.577	523.94
530.792	504.94
531.007	517.94
531.221	533.94
531.436	480.94
531.651	479.94
531.865	503.94
532.08	509.94
532.295	496.94
532.509	492.94
532.724	509.94
532.938	487.94
533.153	513.94
533.367	516.94
533.582	506.94
533.796	503.94
534.011	481.94
534.225	492.94
534.44	498.94
534.654	493.94
534.868	495.94
535.083	499.94
535.297	492.94
535.511	501.94
535.726	511.94
535.94	499.94
536.154	487.94
536.369	503.94
536.583	484.94
536.797	484.94
537.011	479.94
537.225	491.94
537.44	475.94
537.654	472.94
537.868	473.94
538.082	475.94
538.296	472.94
538.51	481.94
538.724	485.94
538.938	468.94
539.153	468.94
539.367	495.94
539.581	485.94
539.795	453.94
540.009	476.94
540.222	463.94
540.436	472.94
540.65	499.94
540.864	497.94
541.078	487.94
541.292	505.94
541.506	467.94
541.72	498.94
541.934	495.94
542.147	481.94
542.361	469.94
542.575	470.94
542.789	470.94
543.002	489.94
543.216	466.94
543.43	474.94
543.644	461.94
543.857	474.94
544.071	482.94
544.285	476.94
544.498	487.94
544.712	472.94
544.925	496.94
545.139	492.94
545.352	476.94
545.566	479.94
545.779	477.94
545.993	474.94
546.206	489.94
546.42	476.94
546.633	458.94
546.847	467.94
547.06	480.94
547.274	488.94
547.487	460.94
547.7	464.94
547.914	463.94
548.127	461.94
548.34	469.94
548.554	474.94
548.767	482.94
548.98	473.94
549.193	479.94
549.407	493.94
549.62	467.94
549.833	474.94
550.046	470.94
550.259	468.94
550.473	461.94
550.686	460.94
550.899	473.94
551.112	461.94
551.325	443.94
551.538	455.94
551.751	465.94
551.964	447.94
552.177	458.94
552.39	471.94
552.603	453.94
552.816	448.94
553.029	473.94
553.242	497.94
553.455	486.94
553.667	480.94
553.88	496.94
554.093	492.94
554.306	472.94
554.519	488.94
554.732	449.94
554.944	449.94
555.157	440.94
555.37	484.94
555.583	443.94
555.795	460.94
556.008	434.94
556.221	452.94
556.433	422.94
556.646	435.94
556.859	427.94
557.071	419.94
557.284	431.94
557.496	417.94
557.709	442.94
557.921	401.94
558.134	418.94
558.346	421.94
558.559	400.94
558.771	404.94
558.984	415.94
559.196	421.94
559.409	409.94
559.621	411.94
559.833	400.94
560.046	397.94
560.258	418.94
560.47	402.94
560.683	413.94
560.895	410.94
561.107	386.94
561.32	410.94
561.532	413.94
561.744	427.94
561.956	425.94
562.168	418.94
562.381	422.94
562.593	432.94
562.805	393.94
563.017	414.94
563.229	421.94
563.441	442.94
563.653	415.94
563.865	420.94
564.077	409.94
564.289	435.94
564.501	420.94
564.713	419.94
564.925	427.94
565.137	436.94
565.349	449.94
565.561	448.94
565.773	483.94
565.985	467.94
566.197	483.94
566.408	503.94
566.62	513.94
566.832	528.94
567.044	539.94
567.255	526.94
567.467	573.94
567.679	574.94
567.891	596.94
568.102	571.94
568.314	565.94
568.526	522.94
568.737	550.94
568.949	483.94
569.161	467.94
569.372	449.94
569.584	436.94
569.795	438.94
570.007	434.94
570.218	443.94
570.43	442.94
570.641	396.94
570.853	401.94
571.064	409.94
571.276	427.94
571.487	407.94
571.698	380.94
571.91	375.94
572.121	378.94
572.333	384.94
572.544	376.94
572.755	386.94
572.966	378.94
573.178	378.94
573.389	369.94
573.6	367.94
573.811	357.94
574.023	358.94
574.234	364.94
574.445	357.94
574.656	355.94
574.867	368.94
575.078	351.94
575.289	365.94
575.501	347.94
575.712	348.94
575.923	349.94
576.134	358.94
576.345	353.94
576.556	349.94
576.767	343.94
576.978	330.94
577.188	345.94
577.399	353.94
577.61	345.94
577.821	345.94
578.032	336.94
578.243	362.94
578.454	502.94
578.665	407.94
578.875	347.94
579.086	336.94
579.297	329.94
579.508	338.94
579.718	322.94
579.929	328.94
580.14	324.94
580.35	339.94
580.561	339.94
580.772	326.94
580.982	318.94
581.193	337.94
581.403	338.94
581.614	322.94
581.825	338.94
582.035	316.94
582.246	330.94
582.456	332.94
582.667	315.94
582.877	321.94
583.087	329.94
583.298	297.94
583.508	317.94
583.719	312.94
583.929	303.94
584.139	312.94
584.35	304.94
584.56	307.94
584.77	327.94
584.981	310.94
585.191	330.94
585.401	311.94
585.611	316.94
585.821	305.94
586.032	322.94
586.242	314.94
586.452	305.94
586.662	309.94
586.872	324.94
587.082	320.94
587.292	316.94
587.502	314.94
587.713	299.94
587.923	326.94
588.133	311.94
588.343	293.94
588.553	303.94
588.762	314.94
588.972	309.94
589.182	312.94
589.392	297.94
589.602	307.94
589.812	307.94
590.022	300.94
590.232	311.94
590.441	310.94
590.651	314.94
590.861	318.94
591.071	321.94
591.281	308.94
591.49	301.94
591.7	315.94
591.91	330.94
592.119	307.94
592.329	332.94
592.539	349.94
592.748	340.94
592.958	340.94
593.167	337.94
593.377	356.94
593.587	361.94
593.796	347.94
594.006	340.94
594.215	351.94
594.424	352.94
594.634	331.94
594.843	311.94
595.053	342.94
595.262	330.94
595.472	319.94
595.681	307.94
595.89	310.94
596.1	303.94
596.309	311.94
596.518	298.94
596.727	290.94
596.937	285.94
597.146	296.94
597.355	313.94
597.564	289.94
597.774	293.94
597.983	273.94
598.192	283.94
598.401	290.94
598.61	280.94
598.819	271.94
599.028	288.94
599.237	271.94
599.446	304.94
599.655	273.94
599.864	265.94
600.073	275.94
600.282	281.94
600.491	265.94
600.7	263.94
600.909	264.94
601.118	287.94
601.327	269.94
601.536	278.94
601.745	267.94
601.953	278.94
602.162	241.94
602.371	270.94
602.58	273.94
602.789	283.94
602.997	280.94
603.206	262.94
603.415	275.94
603.623	268.94
603.832	278.94
604.041	274.94
604.249	268.94
604.458	257.94
604.666	275.94
604.875	263.94
605.084	251.94
605.292	258.94
605.501	271.94
605.709	276.94
605.918	276.94
606.126	256.94
606.334	267.94
606.543	275.94
606.751	255.94
606.96	242.94
607.168	235.94
607.376	263.94
607.585	255.94
607.793	260.94
608.001	263.94
608.21	278.94
608.418	259.94
608.626	261.94
608.834	257.94
609.043	243.94
609.251	268.94
609.459	254.94
609.667	262.94
609.875	248.94
610.083	259.94
610.291	257.94
610.499	248.94
610.707	264.94
610.916	266.94
611.124	249.94
611.332	267.94
611.54	268.94
611.748	260.94
611.955	249.94
612.163	257.94
612.371	264.94
612.579	260.94
612.787	242.94
612.995	262.94
613.203	257.94
613.411	237.94
613.618	266.94
613.826	247.94
614.034	259.94
614.242	257.94
614.449	273.94
614.657	232.94
614.865	241.94
615.072	248.94
615.28	232.94
615.488	257.94
615.695	256.94
615.903	256.94
616.111	245.94
616.318	258.94
616.526	263.94
616.733	267.94
616.941	242.94
617.148	233.94
617.356	233.94
617.563	241.94
617.771	240.94
617.978	251.94
618.185	233.94
618.393	259.94
618.6	242.94
618.807	234.94
619.015	242.94
619.222	243.94
619.429	230.94
619.637	235.94
619.844	229.94
620.051	231.94
620.258	231.94
620.466	248.94
620.673	243.94
620.88	235.94
621.087	227.94
621.294	236.94
621.501	221.94
621.708	229.94
621.915	234.94
622.122	224.94
622.329	225.94
622.536	237.94
622.743	237.94
622.95	225.94
623.157	218.94
623.364	225.94
623.571	232.94
623.778	228.94
623.985	227.94
624.192	247.94
624.399	234.94
624.606	229.94
624.812	224.94
625.019	214.94
625.226	220.94
625.433	224.94
625.639	227.94
625.846	226.94
626.053	210.94
626.259	223.94
626.466	211.94
626.673	210.94
626.879	210.94
627.086	223.94
627.293	215.94
627.499	207.94
627.706	208.94
627.912	216.94
628.119	219.94
628.325	219.94
628.532	211.94
628.738	194.94
628.945	216.94
629.151	211.94
629.357	215.94
629.564	210.94
629.77	205.94
629.976	209.94
630.183	218.94
630.389	205.94
630.595	219.94
630.802	209.94
631.008	184.94
631.214	201.94
631.42	216.94
631.627	219.94
631.833	188.94
632.039	202.94
632.245	188.94
632.451	203.94
632.657	198.94
632.863	204.94
633.069	191.94
633.275	181.94
633.481	195.94
633.688	180.94
633.893	199.94
634.099	208.94
634.305	191.94
634.511	194.94
634.717	205.94
634.923	190.94
635.129	184.94
635.335	188.94
635.541	176.94
635.747	184.94
635.952	195.94
636.158	179.94
636.364	192.94
636.57	195.94
636.775	193.94
636.981	181.94
637.187	184.94
637.392	170.94
637.598	191.94
637.804	189.94
638.009	191.94
638.215	195.94
638.421	184.94
638.626	185.94
638.832	180.94
639.037	162.94
639.243	189.94
639.448	185.94
639.654	192.94
639.859	178.94
640.065	169.94
640.27	193.94
640.475	184.94
640.681	183.94
640.886	176.94
641.091	172.94
641.297	189.94
641.502	167.94
641.707	177.94
641.913	163.94
642.118	154.94
642.323	192.94
642.528	183.94
642.733	189.94
642.939	183.94
643.144	173.94
643.349	165.94
643.554	167.94
643.759	160.94
643.964	171.94
644.169	169.94
644.374	136.94
644.579	181.94
644.784	179.94
644.989	180.94
645.194	181.94
645.399	177.94
645.604	168.94
645.809	162.94
646.014	159.94
646.219	168.94
646.423	177.94
646.628	185.94
646.833	193.94
647.038	176.94
647.243	169.94
647.447	172.94
647.652	188.94
647.857	179.94
648.062	187.94
648.266	166.94
648.471	179.94
648.676	176.94
648.88	193.94
649.085	190.94
649.289	168.94
649.494	177.94
649.698	202.94
649.903	199.94
650.107	188.94
650.312	177.94
650.516	151.94
650.721	161.94
650.925	156.94
651.13	156.94
651.334	151.94
651.539	149.94
651.743	154.94
651.947	154.94
652.152	141.94
652.356	155.94
652.56	149.94
652.764	150.94
652.969	131.94
653.173	139.94
653.377	155.94
653.581	152.94
653.785	141.94
653.99	140.94
654.194	145.94
654.398	138.94
654.602	139.94
654.806	147.94
655.01	163.94
655.214	155.94
655.418	151.94
655.622	150.94
655.826	131.94
656.03	149.94
656.234	145.94
656.438	140.94
656.642	136.94
656.846	139.94
657.049	127.94
657.253	129.94
657.457	137.94
657.661	131.94
657.865	116.94
658.068	127.94
658.272	118.94
658.476	111.94
658.68	108.94
658.883	117.94
659.087	102.94
659.291	95.94
659.494	97.94
659.698	102.94
659.901	103.94
660.105	98.94
660.309	98.94
660.512	100.94
660.716	86.94
660.919	103.94
661.123	100.94
661.326	105.94
661.53	95.94
661.733	79.94
661.936	95.94
662.14	83.94
662.343	89.94
662.546	99.94
662.75	96.94
662.953	98.94
663.156	84.94
663.36	92.94
663.563	82.94
663.766	80.94
663.969	81.94
664.173	90.94
664.376	84.94
664.579	95.94
664.782	83.94
664.985	86.94
665.188	100.94
665.391	74.94
665.594	83.94
665.797	73.94
666	71.94
666.203	75.94
666.406	79.94
666.609	76.94
666.812	75.94
667.015	78.94
667.218	77.94
667.421	84.94
667.624	87.94
667.827	83.94
668.03	66.94
668.232	70.94
668.435	79.94
668.638	80.94
668.841	78.94
669.043	79.94
669.246	78.94
669.449	82.94
669.651	85.94
669.854	83.94
670.057	80.94
670.259	71.94
670.462	82.94
670.665	96.94
670.867	85.94
671.07	89.94
671.272	86.94
671.475	85.94
671.677	84.94
671.88	77.94
672.082	77.94
672.284	80.94
672.487	88.94
672.689	80.94
672.892	77.94
