Data from 1976.PennyLincolnUp.Lamp.En5.5.200Scan.071719.P1.Changed Mount._HRD10591_16-02-20-862.txt Node
Date: Thu Jul 18 16:02:20 EDT 2019
User: cochatt
Spectrometer: HR+D1059
Trigger mode: 1
Integration Time (sec): 1.000000E-1
Scans to average: 1
Electric dark correction enabled: true
Nonlinearity correction enabled: false
Boxcar width: 0
XAxis mode: Wavelengths
Number of Pixels in Spectrum: 2048
>>>>>Begin Spectral Data<<<<<
223.165	-20.44
223.4	-20.44
223.635	-20.44
223.869	-21.44
224.104	-16.44
224.338	-12.44
224.573	-7.44
224.808	-25.44
225.042	-9.44
225.277	-10.44
225.511	7.56
225.746	3.56
225.98	-0.44
226.215	7.56
226.449	31.56
226.683	16.56
226.918	32.56
227.152	24.56
227.387	46.56
227.621	40.56
227.856	40.56
228.09	55.56
228.324	46.56
228.559	44.56
228.793	84.56
229.027	102.56
229.262	97.56
229.496	121.56
229.73	138.56
229.964	168.56
230.199	127.56
230.433	124.56
230.667	116.56
230.901	126.56
231.136	105.56
231.37	121.56
231.604	113.56
231.838	126.56
232.072	128.56
232.306	101.56
232.541	117.56
232.775	107.56
233.009	103.56
233.243	109.56
233.477	105.56
233.711	122.56
233.945	127.56
234.179	131.56
234.413	113.56
234.647	131.56
234.881	107.56
235.115	117.56
235.349	115.56
235.583	116.56
235.817	118.56
236.051	118.56
236.285	137.56
236.519	128.56
236.753	142.56
236.987	147.56
237.221	172.56
237.455	231.56
237.689	170.56
237.922	137.56
238.156	134.56
238.39	132.56
238.624	123.56
238.858	116.56
239.091	138.56
239.325	126.56
239.559	138.56
239.793	128.56
240.027	146.56
240.26	148.56
240.494	164.56
240.728	158.56
240.961	155.56
241.195	155.56
241.429	141.56
241.662	139.56
241.896	150.56
242.13	154.56
242.363	152.56
242.597	150.56
242.83	139.56
243.064	159.56
243.298	142.56
243.531	136.56
243.765	148.56
243.998	147.56
244.232	149.56
244.465	140.56
244.699	153.56
244.932	141.56
245.166	167.56
245.399	155.56
245.633	151.56
245.866	159.56
246.099	157.56
246.333	169.56
246.566	162.56
246.8	171.56
247.033	147.56
247.266	146.56
247.5	149.56
247.733	156.56
247.966	169.56
248.2	175.56
248.433	191.56
248.666	177.56
248.899	194.56
249.133	206.56
249.366	212.56
249.599	206.56
249.832	191.56
250.066	196.56
250.299	183.56
250.532	196.56
250.765	213.56
250.998	223.56
251.231	231.56
251.465	231.56
251.698	206.56
251.931	220.56
252.164	198.56
252.397	191.56
252.63	210.56
252.863	192.56
253.096	214.56
253.329	245.56
253.562	245.56
253.795	221.56
254.028	215.56
254.261	210.56
254.494	227.56
254.727	255.56
254.96	284.56
255.193	282.56
255.426	229.56
255.659	247.56
255.892	238.56
256.124	235.56
256.357	222.56
256.59	242.56
256.823	198.56
257.056	222.56
257.289	207.56
257.521	221.56
257.754	207.56
257.987	215.56
258.22	225.56
258.452	219.56
258.685	234.56
258.918	225.56
259.151	223.56
259.383	230.56
259.616	239.56
259.849	216.56
260.081	248.56
260.314	241.56
260.547	257.56
260.779	251.56
261.012	245.56
261.244	225.56
261.477	225.56
261.71	222.56
261.942	243.56
262.175	239.56
262.407	238.56
262.64	219.56
262.872	246.56
263.105	221.56
263.337	243.56
263.57	219.56
263.802	213.56
264.035	236.56
264.267	227.56
264.499	235.56
264.732	251.56
264.964	225.56
265.197	222.56
265.429	241.56
265.661	223.56
265.894	227.56
266.126	220.56
266.358	235.56
266.591	252.56
266.823	246.56
267.055	225.56
267.287	259.56
267.52	237.56
267.752	243.56
267.984	241.56
268.216	243.56
268.448	235.56
268.681	259.56
268.913	244.56
269.145	270.56
269.377	288.56
269.609	285.56
269.841	289.56
270.073	283.56
270.306	295.56
270.538	331.56
270.77	328.56
271.002	309.56
271.234	320.56
271.466	323.56
271.698	331.56
271.93	324.56
272.162	330.56
272.394	348.56
272.626	323.56
272.858	313.56
273.09	314.56
273.322	309.56
273.553	273.56
273.785	287.56
274.017	285.56
274.249	304.56
274.481	299.56
274.713	295.56
274.945	284.56
275.176	283.56
275.408	271.56
275.64	294.56
275.872	270.56
276.104	290.56
276.335	302.56
276.567	307.56
276.799	293.56
277.031	319.56
277.262	332.56
277.494	336.56
277.726	337.56
277.957	303.56
278.189	313.56
278.421	279.56
278.652	298.56
278.884	302.56
279.115	293.56
279.347	292.56
279.579	281.56
279.81	294.56
280.042	294.56
280.273	295.56
280.505	297.56
280.736	286.56
280.968	281.56
281.199	275.56
281.431	289.56
281.662	299.56
281.894	297.56
282.125	302.56
282.356	303.56
282.588	325.56
282.819	318.56
283.051	328.56
283.282	307.56
283.513	302.56
283.745	295.56
283.976	302.56
284.207	294.56
284.439	296.56
284.67	310.56
284.901	306.56
285.132	311.56
285.364	296.56
285.595	314.56
285.826	301.56
286.057	287.56
286.288	296.56
286.52	293.56
286.751	312.56
286.982	299.56
287.213	301.56
287.444	311.56
287.675	320.56
287.906	316.56
288.138	338.56
288.369	329.56
288.6	333.56
288.831	327.56
289.062	323.56
289.293	314.56
289.524	316.56
289.755	315.56
289.986	317.56
290.217	306.56
290.448	309.56
290.679	301.56
290.91	325.56
291.141	329.56
291.371	319.56
291.602	321.56
291.833	311.56
292.064	321.56
292.295	327.56
292.526	316.56
292.757	319.56
292.987	332.56
293.218	322.56
293.449	335.56
293.68	311.56
293.91	315.56
294.141	325.56
294.372	316.56
294.603	314.56
294.833	303.56
295.064	300.56
295.295	322.56
295.525	320.56
295.756	342.56
295.987	312.56
296.217	341.56
296.448	342.56
296.679	326.56
296.909	335.56
297.14	307.56
297.37	330.56
297.601	313.56
297.831	312.56
298.062	325.56
298.292	343.56
298.523	336.56
298.753	334.56
298.984	326.56
299.214	332.56
299.445	362.56
299.675	362.56
299.905	327.56
300.136	335.56
300.366	349.56
300.597	349.56
300.827	346.56
301.057	349.56
301.288	365.56
301.518	344.56
301.748	356.56
301.979	373.56
302.209	354.56
302.439	347.56
302.669	359.56
302.9	353.56
303.13	354.56
303.36	355.56
303.59	366.56
303.82	379.56
304.051	375.56
304.281	355.56
304.511	361.56
304.741	370.56
304.971	345.56
305.201	358.56
305.431	351.56
305.661	361.56
305.891	345.56
306.121	357.56
306.352	383.56
306.582	359.56
306.812	356.56
307.042	372.56
307.272	366.56
307.502	370.56
307.731	371.56
307.961	376.56
308.191	351.56
308.421	344.56
308.651	360.56
308.881	356.56
309.111	355.56
309.341	365.56
309.571	379.56
309.8	386.56
310.03	407.56
310.26	411.56
310.49	386.56
310.72	389.56
310.949	411.56
311.179	392.56
311.409	388.56
311.639	386.56
311.868	393.56
312.098	414.56
312.328	405.56
312.557	412.56
312.787	410.56
313.017	418.56
313.246	405.56
313.476	399.56
313.706	412.56
313.935	399.56
314.165	407.56
314.394	427.56
314.624	411.56
314.853	413.56
315.083	406.56
315.312	409.56
315.542	404.56
315.771	401.56
316.001	372.56
316.23	405.56
316.46	395.56
316.689	397.56
316.919	403.56
317.148	430.56
317.377	406.56
317.607	409.56
317.836	404.56
318.065	401.56
318.295	391.56
318.524	396.56
318.753	399.56
318.983	408.56
319.212	407.56
319.441	419.56
319.67	415.56
319.9	395.56
320.129	420.56
320.358	408.56
320.587	391.56
320.816	420.56
321.046	399.56
321.275	409.56
321.504	412.56
321.733	430.56
321.962	422.56
322.191	431.56
322.42	451.56
322.649	449.56
322.878	455.56
323.108	470.56
323.337	486.56
323.566	494.56
323.795	498.56
324.024	556.56
324.253	671.56
324.482	881.56
324.71	1379.56
324.939	2054.56
325.168	1784.56
325.397	908.56
325.626	614.56
325.855	550.56
326.084	541.56
326.313	512.56
326.542	512.56
326.77	541.56
326.999	622.56
327.228	845.56
327.457	1232.56
327.686	1539.56
327.914	1022.56
328.143	676.56
328.372	618.56
328.6	573.56
328.829	543.56
329.058	570.56
329.287	578.56
329.515	535.56
329.744	534.56
329.972	522.56
330.201	557.56
330.43	579.56
330.658	581.56
330.887	591.56
331.115	595.56
331.344	530.56
331.572	494.56
331.801	509.56
332.03	525.56
332.258	485.56
332.486	484.56
332.715	454.56
332.943	488.56
333.172	498.56
333.4	507.56
333.629	504.56
333.857	505.56
334.085	510.56
334.314	539.56
334.542	566.56
334.771	580.56
334.999	545.56
335.227	533.56
335.455	505.56
335.684	488.56
335.912	477.56
336.14	491.56
336.369	487.56
336.597	489.56
336.825	462.56
337.053	465.56
337.281	494.56
337.51	486.56
337.738	460.56
337.966	481.56
338.194	489.56
338.422	473.56
338.65	466.56
338.878	465.56
339.106	458.56
339.334	475.56
339.562	441.56
339.79	451.56
340.018	460.56
340.246	448.56
340.474	452.56
340.702	474.56
340.93	459.56
341.158	454.56
341.386	457.56
341.614	462.56
341.842	453.56
342.07	433.56
342.298	435.56
342.526	465.56
342.754	458.56
342.981	451.56
343.209	436.56
343.437	447.56
343.665	469.56
343.893	482.56
344.12	503.56
344.348	492.56
344.576	472.56
344.804	482.56
345.031	488.56
345.259	479.56
345.487	469.56
345.714	447.56
345.942	433.56
346.17	451.56
346.397	440.56
346.625	455.56
346.853	439.56
347.08	423.56
347.308	448.56
347.535	426.56
347.763	449.56
347.99	451.56
348.218	425.56
348.445	429.56
348.673	452.56
348.9	448.56
349.128	429.56
349.355	430.56
349.583	414.56
349.81	431.56
350.037	430.56
350.265	426.56
350.492	427.56
350.72	410.56
350.947	434.56
351.174	452.56
351.402	448.56
351.629	455.56
351.856	455.56
352.083	452.56
352.311	453.56
352.538	454.56
352.765	449.56
352.992	447.56
353.22	441.56
353.447	431.56
353.674	435.56
353.901	410.56
354.128	425.56
354.355	417.56
354.583	404.56
354.81	420.56
355.037	413.56
355.264	412.56
355.491	418.56
355.718	403.56
355.945	420.56
356.172	429.56
356.399	406.56
356.626	411.56
356.853	425.56
357.08	411.56
357.307	422.56
357.534	411.56
357.761	419.56
357.988	440.56
358.215	393.56
358.441	398.56
358.668	421.56
358.895	414.56
359.122	422.56
359.349	423.56
359.576	438.56
359.802	464.56
360.029	466.56
360.256	472.56
360.483	471.56
360.709	452.56
360.936	445.56
361.163	435.56
361.39	418.56
361.616	431.56
361.843	461.56
362.07	425.56
362.296	421.56
362.523	422.56
362.749	434.56
362.976	435.56
363.203	436.56
363.429	411.56
363.656	407.56
363.882	418.56
364.109	405.56
364.335	422.56
364.562	401.56
364.788	414.56
365.015	406.56
365.241	426.56
365.468	414.56
365.694	440.56
365.92	419.56
366.147	417.56
366.373	433.56
366.599	431.56
366.826	407.56
367.052	407.56
367.278	429.56
367.505	410.56
367.731	423.56
367.957	419.56
368.184	422.56
368.41	428.56
368.636	433.56
368.862	429.56
369.089	446.56
369.315	428.56
369.541	410.56
369.767	441.56
369.993	416.56
370.219	412.56
370.445	403.56
370.672	421.56
370.898	420.56
371.124	415.56
371.35	431.56
371.576	409.56
371.802	428.56
372.028	413.56
372.254	421.56
372.48	420.56
372.706	426.56
372.932	437.56
373.158	419.56
373.384	417.56
373.61	422.56
373.835	428.56
374.061	427.56
374.287	417.56
374.513	426.56
374.739	435.56
374.965	442.56
375.191	420.56
375.416	451.56
375.642	428.56
375.868	430.56
376.094	416.56
376.319	440.56
376.545	427.56
376.771	425.56
376.997	414.56
377.222	398.56
377.448	439.56
377.674	424.56
377.899	435.56
378.125	426.56
378.35	415.56
378.576	422.56
378.802	433.56
379.027	425.56
379.253	428.56
379.478	429.56
379.704	424.56
379.929	413.56
380.155	433.56
380.38	429.56
380.606	422.56
380.831	435.56
381.057	420.56
381.282	444.56
381.507	427.56
381.733	435.56
381.958	446.56
382.184	449.56
382.409	433.56
382.634	428.56
382.86	446.56
383.085	450.56
383.31	450.56
383.535	447.56
383.761	439.56
383.986	444.56
384.211	449.56
384.436	467.56
384.662	465.56
384.887	457.56
385.112	472.56
385.337	474.56
385.562	475.56
385.787	468.56
386.013	470.56
386.238	460.56
386.463	468.56
386.688	487.56
386.913	467.56
387.138	475.56
387.363	501.56
387.588	465.56
387.813	461.56
388.038	468.56
388.263	470.56
388.488	472.56
388.713	464.56
388.938	472.56
389.163	469.56
389.387	461.56
389.612	481.56
389.837	478.56
390.062	465.56
390.287	467.56
390.512	460.56
390.736	463.56
390.961	473.56
391.186	486.56
391.411	490.56
391.636	502.56
391.86	475.56
392.085	491.56
392.31	491.56
392.534	482.56
392.759	501.56
392.984	482.56
393.208	479.56
393.433	468.56
393.658	476.56
393.882	494.56
394.107	462.56
394.331	477.56
394.556	485.56
394.78	475.56
395.005	483.56
395.229	481.56
395.454	505.56
395.678	509.56
395.903	497.56
396.127	531.56
396.352	529.56
396.576	512.56
396.801	490.56
397.025	515.56
397.249	533.56
397.474	516.56
397.698	521.56
397.922	530.56
398.147	523.56
398.371	520.56
398.595	531.56
398.82	548.56
399.044	558.56
399.268	609.56
399.492	621.56
399.717	684.56
399.941	689.56
400.165	698.56
400.389	695.56
400.613	625.56
400.837	588.56
401.062	563.56
401.286	579.56
401.51	556.56
401.734	553.56
401.958	561.56
402.182	554.56
402.406	565.56
402.63	571.56
402.854	563.56
403.078	580.56
403.302	585.56
403.526	591.56
403.75	579.56
403.974	578.56
404.198	583.56
404.422	609.56
404.645	616.56
404.869	598.56
405.093	632.56
405.317	672.56
405.541	699.56
405.765	657.56
405.988	607.56
406.212	616.56
406.436	586.56
406.66	642.56
406.883	613.56
407.107	643.56
407.331	697.56
407.555	789.56
407.778	766.56
408.002	685.56
408.226	645.56
408.449	639.56
408.673	641.56
408.896	639.56
409.12	677.56
409.344	657.56
409.567	636.56
409.791	584.56
410.014	606.56
410.238	585.56
410.461	577.56
410.685	561.56
410.908	592.56
411.132	613.56
411.355	653.56
411.578	647.56
411.802	593.56
412.025	571.56
412.249	602.56
412.472	625.56
412.695	630.56
412.919	628.56
413.142	575.56
413.365	569.56
413.589	578.56
413.812	556.56
414.035	546.56
414.258	550.56
414.482	561.56
414.705	567.56
414.928	545.56
415.151	536.56
415.374	541.56
415.597	557.56
415.821	539.56
416.044	528.56
416.267	536.56
416.49	523.56
416.713	541.56
416.936	549.56
417.159	545.56
417.382	562.56
417.605	564.56
417.828	556.56
418.051	591.56
418.274	557.56
418.497	538.56
418.72	556.56
418.943	561.56
419.166	569.56
419.389	589.56
419.611	567.56
419.834	592.56
420.057	587.56
420.28	577.56
420.503	555.56
420.726	579.56
420.948	577.56
421.171	606.56
421.394	637.56
421.617	576.56
421.839	569.56
422.062	585.56
422.285	548.56
422.507	639.56
422.73	698.56
422.953	692.56
423.175	611.56
423.398	602.56
423.621	611.56
423.843	613.56
424.066	632.56
424.288	597.56
424.511	605.56
424.733	674.56
424.956	782.56
425.178	679.56
425.401	725.56
425.623	763.56
425.846	641.56
426.068	620.56
426.291	588.56
426.513	568.56
426.735	627.56
426.958	631.56
427.18	723.56
427.402	849.56
427.625	925.56
427.847	796.56
428.069	701.56
428.292	618.56
428.514	598.56
428.736	559.56
428.958	541.56
429.181	545.56
429.403	561.56
429.625	556.56
429.847	582.56
430.069	652.56
430.292	670.56
430.514	585.56
430.736	542.56
430.958	547.56
431.18	543.56
431.402	532.56
431.624	517.56
431.846	518.56
432.068	552.56
432.29	512.56
432.512	499.56
432.734	534.56
432.956	528.56
433.178	541.56
433.4	568.56
433.622	533.56
433.844	557.56
434.066	535.56
434.287	526.56
434.509	541.56
434.731	535.56
434.953	542.56
435.175	583.56
435.397	581.56
435.618	587.56
435.84	633.56
436.062	722.56
436.284	789.56
436.505	656.56
436.727	597.56
436.949	571.56
437.17	547.56
437.392	541.56
437.614	547.56
437.835	568.56
438.057	695.56
438.278	761.56
438.5	789.56
438.721	875.56
438.943	831.56
439.165	670.56
439.386	592.56
439.608	591.56
439.829	598.56
440.05	589.56
440.272	679.56
440.493	609.56
440.715	568.56
440.936	561.56
441.158	565.56
441.379	549.56
441.6	595.56
441.822	614.56
442.043	643.56
442.264	699.56
442.486	775.56
442.707	652.56
442.928	611.56
443.149	610.56
443.371	635.56
443.592	657.56
443.813	780.56
444.034	839.56
444.255	705.56
444.476	644.56
444.698	633.56
444.919	606.56
445.14	723.56
445.361	673.56
445.582	653.56
445.803	719.56
446.024	826.56
446.245	802.56
446.466	729.56
446.687	664.56
446.908	596.56
447.129	570.56
447.35	553.56
447.571	540.56
447.792	519.56
448.013	554.56
448.234	561.56
448.455	623.56
448.675	745.56
448.896	835.56
449.117	683.56
449.338	686.56
449.559	766.56
449.779	884.56
450	710.56
450.221	600.56
450.442	543.56
450.662	538.56
450.883	547.56
451.104	535.56
451.324	545.56
451.545	508.56
451.766	524.56
451.986	493.56
452.207	491.56
452.428	495.56
452.648	486.56
452.869	471.56
453.089	468.56
453.31	491.56
453.53	491.56
453.751	472.56
453.971	482.56
454.192	494.56
454.412	501.56
454.633	465.56
454.853	471.56
455.073	485.56
455.294	529.56
455.514	566.56
455.734	562.56
455.955	471.56
456.175	472.56
456.395	476.56
456.616	450.56
456.836	462.56
457.056	473.56
457.276	445.56
457.497	450.56
457.717	458.56
457.937	468.56
458.157	474.56
458.377	468.56
458.598	476.56
458.818	542.56
459.038	596.56
459.258	646.56
459.478	559.56
459.698	522.56
459.918	527.56
460.138	502.56
460.358	551.56
460.578	540.56
460.798	527.56
461.018	536.56
461.238	557.56
461.458	537.56
461.678	541.56
461.898	571.56
462.118	551.56
462.338	562.56
462.558	579.56
462.777	572.56
462.997	631.56
463.217	623.56
463.437	626.56
463.657	611.56
463.876	591.56
464.096	588.56
464.316	595.56
464.536	607.56
464.755	574.56
464.975	554.56
465.195	597.56
465.414	649.56
465.634	589.56
465.854	543.56
466.073	524.56
466.293	529.56
466.512	519.56
466.732	504.56
466.951	492.56
467.171	502.56
467.391	527.56
467.61	511.56
467.829	531.56
468.049	503.56
468.268	500.56
468.488	486.56
468.707	500.56
468.927	513.56
469.146	477.56
469.365	490.56
469.585	505.56
469.804	492.56
470.023	515.56
470.243	514.56
470.462	499.56
470.681	504.56
470.901	531.56
471.12	537.56
471.339	517.56
471.558	490.56
471.777	524.56
471.997	499.56
472.216	504.56
472.435	543.56
472.654	526.56
472.873	513.56
473.092	489.56
473.311	503.56
473.53	501.56
473.749	529.56
473.968	549.56
474.187	635.56
474.406	677.56
474.625	555.56
474.844	512.56
475.063	521.56
475.282	497.56
475.501	487.56
475.72	515.56
475.939	523.56
476.158	527.56
476.377	521.56
476.596	525.56
476.814	528.56
477.033	557.56
477.252	528.56
477.471	550.56
477.69	554.56
477.908	560.56
478.127	559.56
478.346	559.56
478.564	568.56
478.783	562.56
479.002	595.56
479.22	582.56
479.439	604.56
479.658	609.56
479.876	605.56
480.095	598.56
480.313	639.56
480.532	681.56
480.751	629.56
480.969	646.56
481.188	687.56
481.406	698.56
481.624	645.56
481.843	599.56
482.061	607.56
482.28	620.56
482.498	589.56
482.717	588.56
482.935	606.56
483.153	599.56
483.372	575.56
483.59	581.56
483.808	584.56
484.027	619.56
484.245	594.56
484.463	605.56
484.681	593.56
484.9	585.56
485.118	585.56
485.336	603.56
485.554	597.56
485.772	625.56
485.99	617.56
486.209	623.56
486.427	631.56
486.645	609.56
486.863	627.56
487.081	608.56
487.299	631.56
487.517	616.56
487.735	628.56
487.953	633.56
488.171	629.56
488.389	631.56
488.607	628.56
488.825	606.56
489.043	644.56
489.261	637.56
489.479	635.56
489.696	616.56
489.914	645.56
490.132	660.56
490.35	677.56
490.568	665.56
490.786	686.56
491.003	693.56
491.221	704.56
491.439	672.56
491.657	686.56
491.874	717.56
492.092	710.56
492.31	740.56
492.527	739.56
492.745	717.56
492.963	744.56
493.18	734.56
493.398	732.56
493.615	743.56
493.833	761.56
494.05	757.56
494.268	760.56
494.485	736.56
494.703	742.56
494.92	757.56
495.138	742.56
495.355	750.56
495.573	743.56
495.79	772.56
496.008	741.56
496.225	749.56
496.442	728.56
496.66	763.56
496.877	760.56
497.094	769.56
497.312	746.56
497.529	776.56
497.746	815.56
497.963	823.56
498.181	829.56
498.398	845.56
498.615	874.56
498.832	896.56
499.049	897.56
499.267	926.56
499.484	973.56
499.701	986.56
499.918	1069.56
500.135	1081.56
500.352	1173.56
500.569	1218.56
500.786	1205.56
501.003	1206.56
501.22	1145.56
501.437	1087.56
501.654	1017.56
501.871	1009.56
502.088	967.56
502.305	920.56
502.522	877.56
502.739	867.56
502.956	823.56
503.172	831.56
503.389	803.56
503.606	795.56
503.823	770.56
504.04	787.56
504.256	771.56
504.473	765.56
504.69	775.56
504.907	785.56
505.123	745.56
505.34	751.56
505.557	708.56
505.773	709.56
505.99	730.56
506.207	715.56
506.423	726.56
506.64	710.56
506.856	672.56
507.073	708.56
507.289	699.56
507.506	682.56
507.722	671.56
507.939	701.56
508.155	671.56
508.372	666.56
508.588	657.56
508.805	643.56
509.021	656.56
509.238	685.56
509.454	682.56
509.67	679.56
509.887	639.56
510.103	670.56
510.319	665.56
510.536	734.56
510.752	1055.56
510.968	901.56
511.184	675.56
511.401	642.56
511.617	616.56
511.833	622.56
512.049	620.56
512.265	635.56
512.481	635.56
512.698	629.56
512.914	619.56
513.13	612.56
513.346	610.56
513.562	613.56
513.778	596.56
513.994	623.56
514.21	620.56
514.426	637.56
514.642	680.56
514.858	689.56
515.074	725.56
515.29	804.56
515.506	1092.56
515.721	939.56
515.937	722.56
516.153	699.56
516.369	668.56
516.585	663.56
516.801	645.56
517.016	659.56
517.232	671.56
517.448	669.56
517.664	665.56
517.879	670.56
518.095	658.56
518.311	682.56
518.527	654.56
518.742	647.56
518.958	632.56
519.173	637.56
519.389	639.56
519.605	613.56
519.82	604.56
520.036	636.56
520.251	629.56
520.467	658.56
520.682	676.56
520.898	653.56
521.113	683.56
521.329	683.56
521.544	757.56
521.76	897.56
521.975	1313.56
522.19	1293.56
522.406	804.56
522.621	656.56
522.836	614.56
523.052	603.56
523.267	587.56
523.482	557.56
523.698	565.56
523.913	553.56
524.128	542.56
524.343	548.56
524.559	547.56
524.774	545.56
524.989	550.56
525.204	551.56
525.419	542.56
525.634	545.56
525.849	533.56
526.064	535.56
526.28	535.56
526.495	526.56
526.71	512.56
526.925	517.56
527.14	504.56
527.355	509.56
527.57	521.56
527.785	530.56
527.999	516.56
528.214	514.56
528.429	542.56
528.644	526.56
528.859	527.56
529.074	526.56
529.289	530.56
529.503	583.56
529.718	577.56
529.933	542.56
530.148	535.56
530.363	535.56
530.577	526.56
530.792	510.56
531.007	509.56
531.221	517.56
531.436	497.56
531.651	474.56
531.865	507.56
532.08	509.56
532.295	514.56
532.509	500.56
532.724	487.56
532.938	523.56
533.153	502.56
533.367	501.56
533.582	491.56
533.796	522.56
534.011	527.56
534.225	494.56
534.44	480.56
534.654	490.56
534.868	491.56
535.083	480.56
535.297	476.56
535.511	514.56
535.726	517.56
535.94	499.56
536.154	507.56
536.369	485.56
536.583	501.56
536.797	476.56
537.011	487.56
537.225	468.56
537.44	472.56
537.654	466.56
537.868	486.56
538.082	474.56
538.296	467.56
538.51	461.56
538.724	469.56
538.938	488.56
539.153	470.56
539.367	489.56
539.581	483.56
539.795	477.56
540.009	467.56
540.222	478.56
540.436	462.56
540.65	471.56
540.864	485.56
541.078	475.56
541.292	491.56
541.506	465.56
541.72	473.56
541.934	485.56
542.147	486.56
542.361	469.56
542.575	462.56
542.789	484.56
543.002	477.56
543.216	493.56
543.43	467.56
543.644	472.56
543.857	469.56
544.071	479.56
544.285	481.56
544.498	477.56
544.712	493.56
544.925	478.56
545.139	490.56
545.352	474.56
545.566	460.56
545.779	467.56
545.993	489.56
546.206	480.56
546.42	488.56
546.633	482.56
546.847	479.56
547.06	462.56
547.274	463.56
547.487	465.56
547.7	474.56
547.914	460.56
548.127	475.56
548.34	472.56
548.554	466.56
548.767	487.56
548.98	479.56
549.193	457.56
549.407	455.56
549.62	446.56
549.833	482.56
550.046	457.56
550.259	475.56
550.473	460.56
550.686	460.56
550.899	464.56
551.112	475.56
551.325	444.56
551.538	458.56
551.751	473.56
551.964	457.56
552.177	454.56
552.39	466.56
552.603	461.56
552.816	463.56
553.029	467.56
553.242	473.56
553.455	485.56
553.667	481.56
553.88	479.56
554.093	467.56
554.306	498.56
554.519	462.56
554.732	449.56
554.944	462.56
555.157	438.56
555.37	433.56
555.583	450.56
555.795	430.56
556.008	431.56
556.221	429.56
556.433	434.56
556.646	413.56
556.859	428.56
557.071	426.56
557.284	439.56
557.496	422.56
557.709	414.56
557.921	402.56
558.134	413.56
558.346	414.56
558.559	407.56
558.771	408.56
558.984	413.56
559.196	417.56
559.409	406.56
559.621	384.56
559.833	392.56
560.046	411.56
560.258	415.56
560.47	417.56
560.683	431.56
560.895	397.56
561.107	403.56
561.32	416.56
561.532	412.56
561.744	409.56
561.956	417.56
562.168	390.56
562.381	420.56
562.593	427.56
562.805	417.56
563.017	417.56
563.229	413.56
563.441	436.56
563.653	436.56
563.865	407.56
564.077	418.56
564.289	423.56
564.501	439.56
564.713	438.56
564.925	438.56
565.137	460.56
565.349	449.56
565.561	447.56
565.773	468.56
565.985	471.56
566.197	479.56
566.408	489.56
566.62	499.56
566.832	526.56
567.044	530.56
567.255	540.56
567.467	545.56
567.679	562.56
567.891	577.56
568.102	566.56
568.314	572.56
568.526	531.56
568.737	526.56
568.949	481.56
569.161	470.56
569.372	461.56
569.584	435.56
569.795	434.56
570.007	421.56
570.218	453.56
570.43	451.56
570.641	410.56
570.853	387.56
571.064	411.56
571.276	423.56
571.487	416.56
571.698	399.56
571.91	377.56
572.121	383.56
572.333	389.56
572.544	377.56
572.755	351.56
572.966	385.56
573.178	387.56
573.389	374.56
573.6	373.56
573.811	363.56
574.023	374.56
574.234	342.56
574.445	353.56
574.656	367.56
574.867	352.56
575.078	359.56
575.289	341.56
575.501	363.56
575.712	340.56
575.923	356.56
576.134	352.56
576.345	365.56
576.556	344.56
576.767	339.56
576.978	347.56
577.188	332.56
577.399	334.56
577.61	332.56
577.821	312.56
578.032	339.56
578.243	353.56
578.454	513.56
578.665	400.56
578.875	339.56
579.086	301.56
579.297	324.56
579.508	335.56
579.718	334.56
579.929	312.56
580.14	321.56
580.35	333.56
580.561	307.56
580.772	310.56
580.982	332.56
581.193	319.56
581.403	329.56
581.614	320.56
581.825	334.56
582.035	326.56
582.246	314.56
582.456	330.56
582.667	329.56
582.877	322.56
583.087	311.56
583.298	329.56
583.508	309.56
583.719	325.56
583.929	330.56
584.139	309.56
584.35	309.56
584.56	322.56
584.77	311.56
584.981	317.56
585.191	310.56
585.401	307.56
585.611	304.56
585.821	319.56
586.032	320.56
586.242	327.56
586.452	290.56
586.662	322.56
586.872	326.56
587.082	315.56
587.292	294.56
587.502	320.56
587.713	296.56
587.923	294.56
588.133	314.56
588.343	316.56
588.553	299.56
588.762	318.56
588.972	315.56
589.182	311.56
589.392	309.56
589.602	305.56
589.812	295.56
590.022	299.56
590.232	309.56
590.441	309.56
590.651	308.56
590.861	306.56
591.071	324.56
591.281	286.56
591.49	315.56
591.7	327.56
591.91	332.56
592.119	321.56
592.329	319.56
592.539	343.56
592.748	332.56
592.958	317.56
593.167	320.56
593.377	358.56
593.587	348.56
593.796	353.56
594.006	346.56
594.215	326.56
594.424	343.56
594.634	333.56
594.843	330.56
595.053	332.56
595.262	311.56
595.472	324.56
595.681	289.56
595.89	306.56
596.1	317.56
596.309	306.56
596.518	304.56
596.727	294.56
596.937	299.56
597.146	292.56
597.355	283.56
597.564	273.56
597.774	285.56
597.983	283.56
598.192	282.56
598.401	290.56
598.61	275.56
598.819	260.56
599.028	276.56
599.237	289.56
599.446	285.56
599.655	268.56
599.864	276.56
600.073	274.56
600.282	286.56
600.491	263.56
600.7	275.56
600.909	277.56
601.118	267.56
601.327	287.56
601.536	275.56
601.745	266.56
601.953	264.56
602.162	276.56
602.371	262.56
602.58	264.56
602.789	265.56
602.997	267.56
603.206	269.56
603.415	259.56
603.623	245.56
603.832	267.56
604.041	253.56
604.249	264.56
604.458	257.56
604.666	247.56
604.875	262.56
605.084	264.56
605.292	279.56
605.501	263.56
605.709	247.56
605.918	243.56
606.126	270.56
606.334	257.56
606.543	267.56
606.751	247.56
606.96	254.56
607.168	255.56
607.376	252.56
607.585	238.56
607.793	248.56
608.001	265.56
608.21	255.56
608.418	257.56
608.626	244.56
608.834	247.56
609.043	253.56
609.251	255.56
609.459	258.56
609.667	241.56
609.875	258.56
610.083	243.56
610.291	237.56
610.499	261.56
610.707	258.56
610.916	268.56
611.124	269.56
611.332	261.56
611.54	266.56
611.748	277.56
611.955	265.56
612.163	253.56
612.371	256.56
612.579	248.56
612.787	238.56
612.995	240.56
613.203	262.56
613.411	257.56
613.618	253.56
613.826	253.56
614.034	244.56
614.242	267.56
614.449	238.56
614.657	242.56
614.865	239.56
615.072	250.56
615.28	241.56
615.488	241.56
615.695	248.56
615.903	233.56
616.111	248.56
616.318	271.56
616.526	243.56
616.733	259.56
616.941	252.56
617.148	262.56
617.356	242.56
617.563	243.56
617.771	252.56
617.978	238.56
618.185	257.56
618.393	225.56
618.6	258.56
618.807	261.56
619.015	253.56
619.222	248.56
619.429	235.56
619.637	246.56
619.844	230.56
620.051	228.56
620.258	238.56
620.466	230.56
620.673	228.56
620.88	223.56
621.087	220.56
621.294	229.56
621.501	217.56
621.708	226.56
621.915	235.56
622.122	217.56
622.329	218.56
622.536	248.56
622.743	244.56
622.95	225.56
623.157	222.56
623.364	225.56
623.571	241.56
623.778	223.56
623.985	225.56
624.192	221.56
624.399	217.56
624.606	233.56
624.812	217.56
625.019	213.56
625.226	230.56
625.433	220.56
625.639	226.56
625.846	216.56
626.053	200.56
626.259	203.56
626.466	233.56
626.673	222.56
626.879	226.56
627.086	217.56
627.293	214.56
627.499	213.56
627.706	218.56
627.912	214.56
628.119	214.56
628.325	215.56
628.532	204.56
628.738	202.56
628.945	211.56
629.151	213.56
629.357	211.56
629.564	217.56
629.77	216.56
629.976	210.56
630.183	198.56
630.389	201.56
630.595	213.56
630.802	194.56
631.008	195.56
631.214	210.56
631.42	209.56
631.627	195.56
631.833	194.56
632.039	190.56
632.245	187.56
632.451	204.56
632.657	181.56
632.863	185.56
633.069	201.56
633.275	199.56
633.481	191.56
633.688	190.56
633.893	178.56
634.099	185.56
634.305	196.56
634.511	196.56
634.717	186.56
634.923	179.56
635.129	185.56
635.335	174.56
635.541	179.56
635.747	187.56
635.952	199.56
636.158	193.56
636.364	184.56
636.57	182.56
636.775	189.56
636.981	193.56
637.187	195.56
637.392	197.56
637.598	198.56
637.804	196.56
638.009	187.56
638.215	194.56
638.421	164.56
638.626	174.56
638.832	185.56
639.037	156.56
639.243	187.56
639.448	175.56
639.654	187.56
639.859	169.56
640.065	174.56
640.27	199.56
640.475	181.56
640.681	176.56
640.886	180.56
641.091	188.56
641.297	189.56
641.502	182.56
641.707	171.56
641.913	169.56
642.118	189.56
642.323	179.56
642.528	184.56
642.733	171.56
642.939	184.56
643.144	177.56
643.349	170.56
643.554	181.56
643.759	167.56
643.964	192.56
644.169	177.56
644.374	167.56
644.579	159.56
644.784	181.56
644.989	172.56
645.194	177.56
645.399	173.56
645.604	158.56
645.809	187.56
646.014	166.56
646.219	167.56
646.423	191.56
646.628	163.56
646.833	162.56
647.038	167.56
647.243	179.56
647.447	177.56
647.652	162.56
647.857	169.56
648.062	168.56
648.266	195.56
648.471	174.56
648.676	185.56
648.88	175.56
649.085	157.56
649.289	170.56
649.494	178.56
649.698	193.56
649.903	185.56
650.107	166.56
650.312	168.56
650.516	164.56
650.721	162.56
650.925	155.56
651.13	170.56
651.334	154.56
651.539	149.56
651.743	165.56
651.947	156.56
652.152	155.56
652.356	153.56
652.56	149.56
652.764	151.56
652.969	140.56
653.173	147.56
653.377	151.56
653.581	146.56
653.785	139.56
653.99	153.56
654.194	165.56
654.398	150.56
654.602	159.56
654.806	138.56
655.01	149.56
655.214	142.56
655.418	141.56
655.622	140.56
655.826	123.56
656.03	144.56
656.234	145.56
656.438	134.56
656.642	149.56
656.846	127.56
657.049	129.56
657.253	126.56
657.457	134.56
657.661	120.56
657.865	130.56
658.068	129.56
658.272	120.56
658.476	124.56
658.68	97.56
658.883	115.56
659.087	100.56
659.291	107.56
659.494	122.56
659.698	95.56
659.901	98.56
660.105	102.56
660.309	106.56
660.512	108.56
660.716	101.56
660.919	85.56
661.123	98.56
661.326	102.56
661.53	77.56
661.733	107.56
661.936	87.56
662.14	83.56
662.343	87.56
662.546	98.56
662.75	86.56
662.953	86.56
663.156	98.56
663.36	84.56
663.563	94.56
663.766	70.56
663.969	88.56
664.173	79.56
664.376	77.56
664.579	85.56
664.782	92.56
664.985	75.56
665.188	69.56
665.391	81.56
665.594	87.56
665.797	91.56
666	85.56
666.203	87.56
666.406	90.56
666.609	72.56
666.812	88.56
667.015	87.56
667.218	87.56
667.421	95.56
667.624	78.56
667.827	97.56
668.03	82.56
668.232	92.56
668.435	77.56
668.638	97.56
668.841	89.56
669.043	79.56
669.246	92.56
669.449	78.56
669.651	80.56
669.854	79.56
670.057	65.56
670.259	84.56
670.462	92.56
670.665	89.56
670.867	93.56
671.07	86.56
671.272	82.56
671.475	90.56
671.677	94.56
671.88	98.56
672.082	94.56
672.284	91.56
672.487	82.56
672.689	70.56
672.892	90.56
