Data from 1977.PennyLincolnUp.Lamp.En5.5.200Scan.071719.P1_HRD10591_16-06-46-864.txt Node
Date: Thu Jul 18 16:06:46 EDT 2019
User: cochatt
Spectrometer: HR+D1059
Trigger mode: 1
Integration Time (sec): 1.000000E-1
Scans to average: 1
Electric dark correction enabled: true
Nonlinearity correction enabled: false
Boxcar width: 0
XAxis mode: Wavelengths
Number of Pixels in Spectrum: 2048
>>>>>Begin Spectral Data<<<<<
223.165	-11.19
223.4	-11.19
223.635	-11.19
223.869	-19.19
224.104	-12.19
224.338	-15.19
224.573	-24.19
224.808	-1.19
225.042	-8.19
225.277	-0.19
225.511	-11.19
225.746	4.81
225.98	-7.19
226.215	20.81
226.449	17.81
226.683	25.81
226.918	7.81
227.152	32.81
227.387	35.81
227.621	28.81
227.856	39.81
228.09	41.81
228.324	41.81
228.559	54.81
228.793	73.81
229.027	92.81
229.262	107.81
229.496	112.81
229.73	127.81
229.964	144.81
230.199	126.81
230.433	122.81
230.667	93.81
230.901	105.81
231.136	119.81
231.37	108.81
231.604	119.81
231.838	123.81
232.072	103.81
232.306	121.81
232.541	95.81
232.775	125.81
233.009	106.81
233.243	119.81
233.477	119.81
233.711	127.81
233.945	118.81
234.179	119.81
234.413	120.81
234.647	128.81
234.881	137.81
235.115	117.81
235.349	122.81
235.583	120.81
235.817	117.81
236.051	132.81
236.285	132.81
236.519	131.81
236.753	129.81
236.987	139.81
237.221	175.81
237.455	206.81
237.689	171.81
237.922	152.81
238.156	124.81
238.39	143.81
238.624	123.81
238.858	124.81
239.091	114.81
239.325	124.81
239.559	122.81
239.793	138.81
240.027	143.81
240.26	131.81
240.494	158.81
240.728	136.81
240.961	155.81
241.195	150.81
241.429	137.81
241.662	139.81
241.896	144.81
242.13	139.81
242.363	136.81
242.597	130.81
242.83	134.81
243.064	123.81
243.298	139.81
243.531	140.81
243.765	145.81
243.998	142.81
244.232	134.81
244.465	129.81
244.699	148.81
244.932	153.81
245.166	143.81
245.399	151.81
245.633	149.81
245.866	139.81
246.099	135.81
246.333	146.81
246.566	161.81
246.8	163.81
247.033	158.81
247.266	150.81
247.5	154.81
247.733	160.81
247.966	170.81
248.2	159.81
248.433	193.81
248.666	187.81
248.899	193.81
249.133	189.81
249.366	184.81
249.599	198.81
249.832	168.81
250.066	199.81
250.299	177.81
250.532	197.81
250.765	208.81
250.998	210.81
251.231	223.81
251.465	219.81
251.698	206.81
251.931	190.81
252.164	202.81
252.397	184.81
252.63	187.81
252.863	216.81
253.096	214.81
253.329	243.81
253.562	213.81
253.795	209.81
254.028	213.81
254.261	224.81
254.494	223.81
254.727	223.81
254.96	270.81
255.193	251.81
255.426	254.81
255.659	236.81
255.892	228.81
256.124	243.81
256.357	232.81
256.59	234.81
256.823	224.81
257.056	217.81
257.289	207.81
257.521	231.81
257.754	224.81
257.987	193.81
258.22	229.81
258.452	218.81
258.685	211.81
258.918	206.81
259.151	216.81
259.383	227.81
259.616	222.81
259.849	226.81
260.081	238.81
260.314	264.81
260.547	259.81
260.779	241.81
261.012	229.81
261.244	221.81
261.477	239.81
261.71	229.81
261.942	218.81
262.175	230.81
262.407	231.81
262.64	204.81
262.872	217.81
263.105	221.81
263.337	223.81
263.57	235.81
263.802	221.81
264.035	227.81
264.267	225.81
264.499	222.81
264.732	212.81
264.964	220.81
265.197	224.81
265.429	223.81
265.661	230.81
265.894	225.81
266.126	231.81
266.358	240.81
266.591	235.81
266.823	244.81
267.055	234.81
267.287	230.81
267.52	247.81
267.752	238.81
267.984	238.81
268.216	242.81
268.448	238.81
268.681	255.81
268.913	259.81
269.145	279.81
269.377	296.81
269.609	285.81
269.841	280.81
270.073	296.81
270.306	292.81
270.538	337.81
270.77	317.81
271.002	316.81
271.234	299.81
271.466	304.81
271.698	328.81
271.93	313.81
272.162	295.81
272.394	327.81
272.626	315.81
272.858	287.81
273.09	294.81
273.322	291.81
273.553	290.81
273.785	277.81
274.017	295.81
274.249	301.81
274.481	264.81
274.713	292.81
274.945	283.81
275.176	293.81
275.408	283.81
275.64	276.81
275.872	276.81
276.104	280.81
276.335	271.81
276.567	279.81
276.799	290.81
277.031	306.81
277.262	297.81
277.494	315.81
277.726	314.81
277.957	303.81
278.189	284.81
278.421	291.81
278.652	295.81
278.884	294.81
279.115	303.81
279.347	287.81
279.579	284.81
279.81	303.81
280.042	303.81
280.273	292.81
280.505	298.81
280.736	278.81
280.968	289.81
281.199	309.81
281.431	294.81
281.662	318.81
281.894	298.81
282.125	312.81
282.356	304.81
282.588	319.81
282.819	316.81
283.051	309.81
283.282	276.81
283.513	288.81
283.745	311.81
283.976	304.81
284.207	293.81
284.439	305.81
284.67	310.81
284.901	313.81
285.132	325.81
285.364	324.81
285.595	286.81
285.826	327.81
286.057	321.81
286.288	314.81
286.52	307.81
286.751	313.81
286.982	292.81
287.213	311.81
287.444	324.81
287.675	315.81
287.906	315.81
288.138	327.81
288.369	308.81
288.6	345.81
288.831	320.81
289.062	324.81
289.293	310.81
289.524	332.81
289.755	314.81
289.986	324.81
290.217	309.81
290.448	351.81
290.679	323.81
290.91	328.81
291.141	329.81
291.371	319.81
291.602	310.81
291.833	303.81
292.064	318.81
292.295	341.81
292.526	315.81
292.757	324.81
292.987	316.81
293.218	315.81
293.449	304.81
293.68	317.81
293.91	314.81
294.141	330.81
294.372	315.81
294.603	326.81
294.833	321.81
295.064	327.81
295.295	324.81
295.525	338.81
295.756	326.81
295.987	332.81
296.217	333.81
296.448	332.81
296.679	344.81
296.909	333.81
297.14	333.81
297.37	326.81
297.601	352.81
297.831	343.81
298.062	344.81
298.292	345.81
298.523	343.81
298.753	342.81
298.984	324.81
299.214	351.81
299.445	343.81
299.675	350.81
299.905	345.81
300.136	345.81
300.366	352.81
300.597	336.81
300.827	332.81
301.057	346.81
301.288	355.81
301.518	367.81
301.748	360.81
301.979	359.81
302.209	358.81
302.439	362.81
302.669	378.81
302.9	341.81
303.13	347.81
303.36	357.81
303.59	340.81
303.82	371.81
304.051	357.81
304.281	368.81
304.511	367.81
304.741	353.81
304.971	368.81
305.201	363.81
305.431	359.81
305.661	358.81
305.891	365.81
306.121	355.81
306.352	367.81
306.582	375.81
306.812	365.81
307.042	349.81
307.272	389.81
307.502	368.81
307.731	366.81
307.961	363.81
308.191	378.81
308.421	383.81
308.651	368.81
308.881	352.81
309.111	374.81
309.341	361.81
309.571	362.81
309.8	362.81
310.03	389.81
310.26	386.81
310.49	377.81
310.72	391.81
310.949	416.81
311.179	385.81
311.409	390.81
311.639	388.81
311.868	397.81
312.098	401.81
312.328	378.81
312.557	393.81
312.787	419.81
313.017	410.81
313.246	396.81
313.476	404.81
313.706	392.81
313.935	392.81
314.165	383.81
314.394	435.81
314.624	420.81
314.853	405.81
315.083	413.81
315.312	394.81
315.542	391.81
315.771	385.81
316.001	399.81
316.23	401.81
316.46	395.81
316.689	409.81
316.919	406.81
317.148	401.81
317.377	422.81
317.607	413.81
317.836	394.81
318.065	398.81
318.295	412.81
318.524	393.81
318.753	414.81
318.983	411.81
319.212	407.81
319.441	428.81
319.67	422.81
319.9	406.81
320.129	401.81
320.358	411.81
320.587	428.81
320.816	415.81
321.046	416.81
321.275	416.81
321.504	406.81
321.733	395.81
321.962	402.81
322.191	400.81
322.42	438.81
322.649	428.81
322.878	459.81
323.108	455.81
323.337	468.81
323.566	499.81
323.795	522.81
324.024	550.81
324.253	665.81
324.482	866.81
324.71	1297.81
324.939	1781.81
325.168	1524.81
325.397	805.81
325.626	603.81
325.855	527.81
326.084	508.81
326.313	494.81
326.542	495.81
326.77	540.81
326.999	615.81
327.228	775.81
327.457	1142.81
327.686	1307.81
327.914	912.81
328.143	647.81
328.372	583.81
328.6	542.81
328.829	533.81
329.058	543.81
329.287	548.81
329.515	511.81
329.744	517.81
329.972	465.81
330.201	525.81
330.43	544.81
330.658	539.81
330.887	557.81
331.115	551.81
331.344	505.81
331.572	484.81
331.801	484.81
332.03	492.81
332.258	505.81
332.486	463.81
332.715	490.81
332.943	459.81
333.172	491.81
333.4	508.81
333.629	492.81
333.857	524.81
334.085	498.81
334.314	506.81
334.542	544.81
334.771	546.81
334.999	526.81
335.227	509.81
335.455	483.81
335.684	481.81
335.912	469.81
336.14	477.81
336.369	497.81
336.597	472.81
336.825	475.81
337.053	452.81
337.281	453.81
337.51	466.81
337.738	455.81
337.966	467.81
338.194	478.81
338.422	449.81
338.65	461.81
338.878	448.81
339.106	450.81
339.334	463.81
339.562	447.81
339.79	441.81
340.018	436.81
340.246	455.81
340.474	463.81
340.702	432.81
340.93	447.81
341.158	443.81
341.386	456.81
341.614	439.81
341.842	446.81
342.07	452.81
342.298	413.81
342.526	428.81
342.754	413.81
342.981	449.81
343.209	444.81
343.437	429.81
343.665	440.81
343.893	464.81
344.12	486.81
344.348	471.81
344.576	467.81
344.804	457.81
345.031	454.81
345.259	465.81
345.487	443.81
345.714	459.81
345.942	405.81
346.17	423.81
346.397	432.81
346.625	429.81
346.853	409.81
347.08	405.81
347.308	439.81
347.535	440.81
347.763	447.81
347.99	444.81
348.218	448.81
348.445	432.81
348.673	435.81
348.9	403.81
349.128	439.81
349.355	413.81
349.583	396.81
349.81	421.81
350.037	409.81
350.265	418.81
350.492	401.81
350.72	416.81
350.947	405.81
351.174	418.81
351.402	427.81
351.629	423.81
351.856	421.81
352.083	424.81
352.311	454.81
352.538	429.81
352.765	437.81
352.992	411.81
353.22	409.81
353.447	416.81
353.674	410.81
353.901	405.81
354.128	410.81
354.355	393.81
354.583	389.81
354.81	390.81
355.037	405.81
355.264	413.81
355.491	393.81
355.718	400.81
355.945	392.81
356.172	419.81
356.399	384.81
356.626	409.81
356.853	409.81
357.08	401.81
357.307	406.81
357.534	401.81
357.761	404.81
357.988	403.81
358.215	405.81
358.441	417.81
358.668	383.81
358.895	386.81
359.122	372.81
359.349	387.81
359.576	418.81
359.802	422.81
360.029	432.81
360.256	441.81
360.483	435.81
360.709	404.81
360.936	415.81
361.163	409.81
361.39	410.81
361.616	405.81
361.843	415.81
362.07	416.81
362.296	428.81
362.523	399.81
362.749	401.81
362.976	417.81
363.203	393.81
363.429	393.81
363.656	404.81
363.882	391.81
364.109	405.81
364.335	399.81
364.562	420.81
364.788	392.81
365.015	406.81
365.241	421.81
365.468	402.81
365.694	385.81
365.92	402.81
366.147	406.81
366.373	415.81
366.599	405.81
366.826	387.81
367.052	388.81
367.278	385.81
367.505	383.81
367.731	410.81
367.957	395.81
368.184	399.81
368.41	383.81
368.636	420.81
368.862	433.81
369.089	414.81
369.315	416.81
369.541	388.81
369.767	390.81
369.993	398.81
370.219	414.81
370.445	394.81
370.672	394.81
370.898	398.81
371.124	399.81
371.35	385.81
371.576	385.81
371.802	427.81
372.028	376.81
372.254	390.81
372.48	399.81
372.706	407.81
372.932	419.81
373.158	419.81
373.384	402.81
373.61	400.81
373.835	403.81
374.061	410.81
374.287	401.81
374.513	411.81
374.739	401.81
374.965	414.81
375.191	412.81
375.416	428.81
375.642	411.81
375.868	401.81
376.094	398.81
376.319	402.81
376.545	399.81
376.771	404.81
376.997	391.81
377.222	396.81
377.448	382.81
377.674	395.81
377.899	381.81
378.125	388.81
378.35	395.81
378.576	392.81
378.802	392.81
379.027	399.81
379.253	382.81
379.478	389.81
379.704	380.81
379.929	375.81
380.155	402.81
380.38	384.81
380.606	387.81
380.831	392.81
381.057	397.81
381.282	409.81
381.507	399.81
381.733	397.81
381.958	415.81
382.184	392.81
382.409	413.81
382.634	407.81
382.86	408.81
383.085	410.81
383.31	425.81
383.535	431.81
383.761	427.81
383.986	419.81
384.211	420.81
384.436	416.81
384.662	429.81
384.887	426.81
385.112	419.81
385.337	417.81
385.562	431.81
385.787	439.81
386.013	437.81
386.238	429.81
386.463	432.81
386.688	430.81
386.913	415.81
387.138	450.81
387.363	431.81
387.588	447.81
387.813	429.81
388.038	435.81
388.263	421.81
388.488	439.81
388.713	445.81
388.938	444.81
389.163	427.81
389.387	447.81
389.612	437.81
389.837	423.81
390.062	433.81
390.287	432.81
390.512	420.81
390.736	421.81
390.961	420.81
391.186	449.81
391.411	437.81
391.636	447.81
391.86	463.81
392.085	459.81
392.31	441.81
392.534	459.81
392.759	466.81
392.984	448.81
393.208	444.81
393.433	464.81
393.658	448.81
393.882	429.81
394.107	441.81
394.331	413.81
394.556	428.81
394.78	463.81
395.005	445.81
395.229	444.81
395.454	424.81
395.678	461.81
395.903	462.81
396.127	477.81
396.352	480.81
396.576	455.81
396.801	471.81
397.025	460.81
397.249	459.81
397.474	445.81
397.698	461.81
397.922	476.81
398.147	504.81
398.371	493.81
398.595	499.81
398.82	489.81
399.044	515.81
399.268	508.81
399.492	579.81
399.717	612.81
399.941	638.81
400.165	609.81
400.389	621.81
400.613	573.81
400.837	535.81
401.062	504.81
401.286	480.81
401.51	477.81
401.734	493.81
401.958	500.81
402.182	504.81
402.406	480.81
402.63	514.81
402.854	509.81
403.078	507.81
403.302	518.81
403.526	533.81
403.75	525.81
403.974	529.81
404.198	494.81
404.422	496.81
404.645	519.81
404.869	501.81
405.093	529.81
405.317	579.81
405.541	609.81
405.765	553.81
405.988	528.81
406.212	519.81
406.436	530.81
406.66	563.81
406.883	544.81
407.107	555.81
407.331	611.81
407.555	673.81
407.778	660.81
408.002	608.81
408.226	573.81
408.449	552.81
408.673	567.81
408.896	585.81
409.12	623.81
409.344	595.81
409.567	501.81
409.791	528.81
410.014	522.81
410.238	516.81
410.461	508.81
410.685	523.81
410.908	501.81
411.132	567.81
411.355	584.81
411.578	527.81
411.802	519.81
412.025	520.81
412.249	519.81
412.472	522.81
412.695	597.81
412.919	551.81
413.142	515.81
413.365	500.81
413.589	494.81
413.812	495.81
414.035	484.81
414.258	477.81
414.482	473.81
414.705	492.81
414.928	485.81
415.151	459.81
415.374	464.81
415.597	492.81
415.821	469.81
416.044	459.81
416.267	471.81
416.49	462.81
416.713	475.81
416.936	496.81
417.159	465.81
417.382	475.81
417.605	482.81
417.828	489.81
418.051	503.81
418.274	480.81
418.497	472.81
418.72	483.81
418.943	473.81
419.166	482.81
419.389	521.81
419.611	513.81
419.834	497.81
420.057	512.81
420.28	488.81
420.503	480.81
420.726	491.81
420.948	505.81
421.171	519.81
421.394	560.81
421.617	521.81
421.839	491.81
422.062	486.81
422.285	491.81
422.507	542.81
422.73	602.81
422.953	574.81
423.175	541.81
423.398	517.81
423.621	510.81
423.843	543.81
424.066	527.81
424.288	510.81
424.511	554.81
424.733	576.81
424.956	655.81
425.178	622.81
425.401	613.81
425.623	645.81
425.846	553.81
426.068	523.81
426.291	509.81
426.513	512.81
426.735	515.81
426.958	550.81
427.18	602.81
427.402	718.81
427.625	801.81
427.847	664.81
428.069	596.81
428.292	533.81
428.514	505.81
428.736	491.81
428.958	489.81
429.181	480.81
429.403	491.81
429.625	501.81
429.847	530.81
430.069	557.81
430.292	578.81
430.514	493.81
430.736	467.81
430.958	453.81
431.18	460.81
431.402	459.81
431.624	454.81
431.846	452.81
432.068	449.81
432.29	436.81
432.512	444.81
432.734	458.81
432.956	471.81
433.178	470.81
433.4	455.81
433.622	445.81
433.844	447.81
434.066	463.81
434.287	452.81
434.509	455.81
434.731	469.81
434.953	475.81
435.175	475.81
435.397	506.81
435.618	523.81
435.84	528.81
436.062	641.81
436.284	653.81
436.505	566.81
436.727	532.81
436.949	489.81
437.17	483.81
437.392	457.81
437.614	469.81
437.835	507.81
438.057	572.81
438.278	648.81
438.5	672.81
438.721	721.81
438.943	699.81
439.165	558.81
439.386	525.81
439.608	494.81
439.829	518.81
440.05	527.81
440.272	557.81
440.493	517.81
440.715	491.81
440.936	469.81
441.158	468.81
441.379	465.81
441.6	483.81
441.822	503.81
442.043	542.81
442.264	623.81
442.486	672.81
442.707	553.81
442.928	543.81
443.149	527.81
443.371	531.81
443.592	544.81
443.813	622.81
444.034	723.81
444.255	603.81
444.476	543.81
444.698	532.81
444.919	547.81
445.14	615.81
445.361	558.81
445.582	556.81
445.803	593.81
446.024	675.81
446.245	680.81
446.466	653.81
446.687	539.81
446.908	495.81
447.129	481.81
447.35	471.81
447.571	464.81
447.792	463.81
448.013	471.81
448.234	479.81
448.455	533.81
448.675	624.81
448.896	720.81
449.117	603.81
449.338	577.81
449.559	667.81
449.779	732.81
450	603.81
450.221	518.81
450.442	485.81
450.662	459.81
450.883	452.81
451.104	465.81
451.324	451.81
451.545	452.81
451.766	433.81
451.986	424.81
452.207	419.81
452.428	407.81
452.648	437.81
452.869	414.81
453.089	415.81
453.31	454.81
453.53	425.81
453.751	402.81
453.971	413.81
454.192	414.81
454.412	427.81
454.633	393.81
454.853	390.81
455.073	409.81
455.294	429.81
455.514	498.81
455.734	481.81
455.955	434.81
456.175	396.81
456.395	408.81
456.616	408.81
456.836	401.81
457.056	407.81
457.276	395.81
457.497	381.81
457.717	380.81
457.937	398.81
458.157	392.81
458.377	404.81
458.598	427.81
458.818	471.81
459.038	528.81
459.258	542.81
459.478	480.81
459.698	451.81
459.918	437.81
460.138	452.81
460.358	462.81
460.578	453.81
460.798	479.81
461.018	473.81
461.238	446.81
461.458	471.81
461.678	461.81
461.898	463.81
462.118	479.81
462.338	499.81
462.558	477.81
462.777	499.81
462.997	496.81
463.217	521.81
463.437	530.81
463.657	509.81
463.876	505.81
464.096	506.81
464.316	485.81
464.536	497.81
464.755	503.81
464.975	509.81
465.195	524.81
465.414	563.81
465.634	502.81
465.854	476.81
466.073	455.81
466.293	455.81
466.512	444.81
466.732	432.81
466.951	446.81
467.171	441.81
467.391	431.81
467.61	439.81
467.829	443.81
468.049	423.81
468.268	435.81
468.488	435.81
468.707	421.81
468.927	417.81
469.146	401.81
469.365	419.81
469.585	426.81
469.804	409.81
470.023	417.81
470.243	417.81
470.462	430.81
470.681	446.81
470.901	431.81
471.12	433.81
471.339	440.81
471.558	427.81
471.777	417.81
471.997	423.81
472.216	415.81
472.435	448.81
472.654	450.81
472.873	436.81
473.092	438.81
473.311	446.81
473.53	417.81
473.749	458.81
473.968	485.81
474.187	531.81
474.406	559.81
474.625	491.81
474.844	440.81
475.063	446.81
475.282	424.81
475.501	435.81
475.72	455.81
475.939	442.81
476.158	437.81
476.377	444.81
476.596	426.81
476.814	443.81
477.033	449.81
477.252	454.81
477.471	460.81
477.69	467.81
477.908	456.81
478.127	494.81
478.346	465.81
478.564	492.81
478.783	478.81
479.002	480.81
479.22	491.81
479.439	499.81
479.658	502.81
479.876	508.81
480.095	515.81
480.313	543.81
480.532	556.81
480.751	515.81
480.969	528.81
481.188	552.81
481.406	543.81
481.624	556.81
481.843	519.81
482.061	499.81
482.28	509.81
482.498	465.81
482.717	505.81
482.935	511.81
483.153	482.81
483.372	493.81
483.59	491.81
483.808	495.81
484.027	491.81
484.245	474.81
484.463	503.81
484.681	511.81
484.9	492.81
485.118	492.81
485.336	509.81
485.554	504.81
485.772	500.81
485.99	529.81
486.209	504.81
486.427	515.81
486.645	526.81
486.863	534.81
487.081	528.81
487.299	534.81
487.517	505.81
487.735	519.81
487.953	526.81
488.171	541.81
488.389	554.81
488.607	538.81
488.825	535.81
489.043	527.81
489.261	531.81
489.479	526.81
489.696	551.81
489.914	545.81
490.132	536.81
490.35	554.81
490.568	537.81
490.786	574.81
491.003	553.81
491.221	586.81
491.439	577.81
491.657	597.81
491.874	606.81
492.092	568.81
492.31	599.81
492.527	575.81
492.745	596.81
492.963	619.81
493.18	594.81
493.398	614.81
493.615	604.81
493.833	596.81
494.05	602.81
494.268	605.81
494.485	607.81
494.703	601.81
494.92	596.81
495.138	597.81
495.355	602.81
495.573	613.81
495.79	614.81
496.008	588.81
496.225	593.81
496.442	621.81
496.66	620.81
496.877	616.81
497.094	616.81
497.312	636.81
497.529	649.81
497.746	653.81
497.963	681.81
498.181	669.81
498.398	701.81
498.615	712.81
498.832	729.81
499.049	740.81
499.267	771.81
499.484	803.81
499.701	844.81
499.918	857.81
500.135	895.81
500.352	977.81
500.569	980.81
500.786	954.81
501.003	949.81
501.22	943.81
501.437	892.81
501.654	843.81
501.871	821.81
502.088	799.81
502.305	779.81
502.522	723.81
502.739	725.81
502.956	705.81
503.172	654.81
503.389	668.81
503.606	645.81
503.823	647.81
504.04	655.81
504.256	641.81
504.473	650.81
504.69	645.81
504.907	652.81
505.123	617.81
505.34	621.81
505.557	601.81
505.773	576.81
505.99	591.81
506.207	570.81
506.423	591.81
506.64	599.81
506.856	568.81
507.073	572.81
507.289	538.81
507.506	554.81
507.722	576.81
507.939	567.81
508.155	569.81
508.372	575.81
508.588	554.81
508.805	539.81
509.021	543.81
509.238	541.81
509.454	570.81
509.67	555.81
509.887	539.81
510.103	548.81
510.319	564.81
510.536	615.81
510.752	888.81
510.968	731.81
511.184	521.81
511.401	550.81
511.617	528.81
511.833	517.81
512.049	525.81
512.265	519.81
512.481	508.81
512.698	513.81
512.914	499.81
513.13	543.81
513.346	524.81
513.562	495.81
513.778	513.81
513.994	516.81
514.21	520.81
514.426	548.81
514.642	579.81
514.858	543.81
515.074	601.81
515.29	686.81
515.506	891.81
515.721	767.81
515.937	581.81
516.153	560.81
516.369	563.81
516.585	564.81
516.801	556.81
517.016	584.81
517.232	581.81
517.448	561.81
517.664	552.81
517.879	572.81
518.095	584.81
518.311	576.81
518.527	566.81
518.742	552.81
518.958	538.81
519.173	540.81
519.389	529.81
519.605	525.81
519.82	532.81
520.036	514.81
520.251	569.81
520.467	552.81
520.682	557.81
520.898	587.81
521.113	536.81
521.329	573.81
521.544	612.81
521.76	757.81
521.975	1096.81
522.19	1075.81
522.406	659.81
522.621	539.81
522.836	527.81
523.052	502.81
523.267	490.81
523.482	459.81
523.698	478.81
523.913	469.81
524.128	469.81
524.343	470.81
524.559	448.81
524.774	454.81
524.989	444.81
525.204	466.81
525.419	459.81
525.634	456.81
525.849	456.81
526.064	451.81
526.28	457.81
526.495	431.81
526.71	435.81
526.925	442.81
527.14	435.81
527.355	442.81
527.57	444.81
527.785	438.81
527.999	436.81
528.214	416.81
528.429	428.81
528.644	433.81
528.859	448.81
529.074	429.81
529.289	462.81
529.503	489.81
529.718	463.81
529.933	469.81
530.148	440.81
530.363	427.81
530.577	414.81
530.792	415.81
531.007	413.81
531.221	427.81
531.436	415.81
531.651	405.81
531.865	439.81
532.08	414.81
532.295	425.81
532.509	424.81
532.724	431.81
532.938	419.81
533.153	433.81
533.367	423.81
533.582	423.81
533.796	414.81
534.011	427.81
534.225	426.81
534.44	418.81
534.654	414.81
534.868	416.81
535.083	423.81
535.297	432.81
535.511	444.81
535.726	416.81
535.94	421.81
536.154	425.81
536.369	414.81
536.583	405.81
536.797	403.81
537.011	405.81
537.225	393.81
537.44	391.81
537.654	396.81
537.868	408.81
538.082	409.81
538.296	387.81
538.51	400.81
538.724	408.81
538.938	406.81
539.153	407.81
539.367	418.81
539.581	416.81
539.795	413.81
540.009	393.81
540.222	414.81
540.436	412.81
540.65	391.81
540.864	415.81
541.078	400.81
541.292	393.81
541.506	387.81
541.72	393.81
541.934	390.81
542.147	395.81
542.361	386.81
542.575	386.81
542.789	392.81
543.002	391.81
543.216	412.81
543.43	399.81
543.644	384.81
543.857	411.81
544.071	382.81
544.285	402.81
544.498	408.81
544.712	409.81
544.925	398.81
545.139	385.81
545.352	415.81
545.566	391.81
545.779	394.81
545.993	394.81
546.206	409.81
546.42	403.81
546.633	386.81
546.847	376.81
547.06	409.81
547.274	361.81
547.487	380.81
547.7	379.81
547.914	375.81
548.127	394.81
548.34	382.81
548.554	373.81
548.767	390.81
548.98	388.81
549.193	388.81
549.407	405.81
549.62	386.81
549.833	382.81
550.046	358.81
550.259	387.81
550.473	387.81
550.686	378.81
550.899	386.81
551.112	381.81
551.325	384.81
551.538	393.81
551.751	375.81
551.964	385.81
552.177	377.81
552.39	366.81
552.603	389.81
552.816	381.81
553.029	399.81
553.242	396.81
553.455	385.81
553.667	397.81
553.88	411.81
554.093	408.81
554.306	401.81
554.519	383.81
554.732	371.81
554.944	373.81
555.157	381.81
555.37	367.81
555.583	376.81
555.795	350.81
556.008	365.81
556.221	370.81
556.433	360.81
556.646	351.81
556.859	369.81
557.071	354.81
557.284	354.81
557.496	358.81
557.709	344.81
557.921	354.81
558.134	342.81
558.346	357.81
558.559	355.81
558.771	362.81
558.984	325.81
559.196	334.81
559.409	347.81
559.621	337.81
559.833	341.81
560.046	337.81
560.258	339.81
560.47	334.81
560.683	341.81
560.895	333.81
561.107	360.81
561.32	347.81
561.532	340.81
561.744	343.81
561.956	349.81
562.168	363.81
562.381	336.81
562.593	335.81
562.805	357.81
563.017	345.81
563.229	355.81
563.441	359.81
563.653	358.81
563.865	344.81
564.077	355.81
564.289	346.81
564.501	358.81
564.713	344.81
564.925	368.81
565.137	385.81
565.349	385.81
565.561	372.81
565.773	376.81
565.985	375.81
566.197	384.81
566.408	409.81
566.62	443.81
566.832	449.81
567.044	457.81
567.255	464.81
567.467	443.81
567.679	462.81
567.891	489.81
568.102	460.81
568.314	451.81
568.526	438.81
568.737	409.81
568.949	394.81
569.161	384.81
569.372	389.81
569.584	361.81
569.795	356.81
570.007	380.81
570.218	397.81
570.43	340.81
570.641	347.81
570.853	354.81
571.064	348.81
571.276	348.81
571.487	338.81
571.698	330.81
571.91	324.81
572.121	329.81
572.333	304.81
572.544	320.81
572.755	323.81
572.966	295.81
573.178	309.81
573.389	312.81
573.6	313.81
573.811	300.81
574.023	313.81
574.234	286.81
574.445	270.81
574.656	308.81
574.867	333.81
575.078	297.81
575.289	287.81
575.501	291.81
575.712	304.81
575.923	284.81
576.134	285.81
576.345	288.81
576.556	290.81
576.767	297.81
576.978	287.81
577.188	293.81
577.399	287.81
577.61	293.81
577.821	285.81
578.032	288.81
578.243	297.81
578.454	423.81
578.665	349.81
578.875	285.81
579.086	281.81
579.297	291.81
579.508	294.81
579.718	279.81
579.929	299.81
580.14	299.81
580.35	278.81
580.561	277.81
580.772	302.81
580.982	277.81
581.193	278.81
581.403	264.81
581.614	283.81
581.825	266.81
582.035	255.81
582.246	273.81
582.456	271.81
582.667	266.81
582.877	272.81
583.087	248.81
583.298	269.81
583.508	299.81
583.719	281.81
583.929	287.81
584.139	261.81
584.35	285.81
584.56	277.81
584.77	260.81
584.981	250.81
585.191	280.81
585.401	269.81
585.611	264.81
585.821	273.81
586.032	277.81
586.242	280.81
586.452	270.81
586.662	253.81
586.872	269.81
587.082	263.81
587.292	252.81
587.502	267.81
587.713	270.81
587.923	269.81
588.133	261.81
588.343	269.81
588.553	269.81
588.762	273.81
588.972	255.81
589.182	270.81
589.392	254.81
589.602	268.81
589.812	281.81
590.022	283.81
590.232	279.81
590.441	270.81
590.651	266.81
590.861	260.81
591.071	274.81
591.281	266.81
591.49	264.81
591.7	253.81
591.91	270.81
592.119	268.81
592.329	273.81
592.539	291.81
592.748	293.81
592.958	265.81
593.167	297.81
593.377	266.81
593.587	306.81
593.796	284.81
594.006	288.81
594.215	283.81
594.424	294.81
594.634	292.81
594.843	275.81
595.053	287.81
595.262	250.81
595.472	279.81
595.681	263.81
595.89	284.81
596.1	263.81
596.309	261.81
596.518	271.81
596.727	248.81
596.937	254.81
597.146	264.81
597.355	262.81
597.564	255.81
597.774	260.81
597.983	243.81
598.192	238.81
598.401	242.81
598.61	233.81
598.819	227.81
599.028	229.81
599.237	230.81
599.446	233.81
599.655	219.81
599.864	245.81
600.073	236.81
600.282	244.81
600.491	238.81
600.7	225.81
600.909	241.81
601.118	239.81
601.327	239.81
601.536	218.81
601.745	224.81
601.953	216.81
602.162	240.81
602.371	232.81
602.58	224.81
602.789	232.81
602.997	255.81
603.206	225.81
603.415	234.81
603.623	223.81
603.832	228.81
604.041	228.81
604.249	228.81
604.458	219.81
604.666	219.81
604.875	230.81
605.084	225.81
605.292	216.81
605.501	224.81
605.709	235.81
605.918	217.81
606.126	216.81
606.334	214.81
606.543	214.81
606.751	212.81
606.96	223.81
607.168	230.81
607.376	221.81
607.585	211.81
607.793	201.81
608.001	218.81
608.21	212.81
608.418	208.81
608.626	205.81
608.834	228.81
609.043	205.81
609.251	213.81
609.459	217.81
609.667	219.81
609.875	227.81
610.083	224.81
610.291	218.81
610.499	230.81
610.707	201.81
610.916	220.81
611.124	230.81
611.332	247.81
611.54	222.81
611.748	225.81
611.955	250.81
612.163	218.81
612.371	250.81
612.579	224.81
612.787	213.81
612.995	227.81
613.203	224.81
613.411	232.81
613.618	205.81
613.826	209.81
614.034	212.81
614.242	215.81
614.449	201.81
614.657	228.81
614.865	192.81
615.072	200.81
615.28	215.81
615.488	209.81
615.695	208.81
615.903	214.81
616.111	209.81
616.318	211.81
616.526	207.81
616.733	210.81
616.941	219.81
617.148	224.81
617.356	202.81
617.563	215.81
617.771	216.81
617.978	207.81
618.185	206.81
618.393	212.81
618.6	213.81
618.807	211.81
619.015	185.81
619.222	206.81
619.429	210.81
619.637	195.81
619.844	205.81
620.051	208.81
620.258	195.81
620.466	198.81
620.673	197.81
620.88	193.81
621.087	204.81
621.294	198.81
621.501	209.81
621.708	205.81
621.915	210.81
622.122	196.81
622.329	196.81
622.536	200.81
622.743	183.81
622.95	199.81
623.157	198.81
623.364	195.81
623.571	204.81
623.778	197.81
623.985	192.81
624.192	201.81
624.399	191.81
624.606	188.81
624.812	202.81
625.019	183.81
625.226	193.81
625.433	204.81
625.639	180.81
625.846	184.81
626.053	191.81
626.259	191.81
626.466	187.81
626.673	195.81
626.879	190.81
627.086	192.81
627.293	191.81
627.499	184.81
627.706	176.81
627.912	172.81
628.119	185.81
628.325	193.81
628.532	182.81
628.738	176.81
628.945	169.81
629.151	200.81
629.357	189.81
629.564	195.81
629.77	186.81
629.976	184.81
630.183	187.81
630.389	185.81
630.595	176.81
630.802	191.81
631.008	170.81
631.214	174.81
631.42	193.81
631.627	191.81
631.833	174.81
632.039	178.81
632.245	180.81
632.451	172.81
632.657	179.81
632.863	173.81
633.069	170.81
633.275	171.81
633.481	172.81
633.688	182.81
633.893	184.81
634.099	183.81
634.305	168.81
634.511	159.81
634.717	173.81
634.923	167.81
635.129	173.81
635.335	163.81
635.541	168.81
635.747	156.81
635.952	170.81
636.158	167.81
636.364	163.81
636.57	167.81
636.775	171.81
636.981	157.81
637.187	159.81
637.392	174.81
637.598	166.81
637.804	167.81
638.009	172.81
638.215	165.81
638.421	160.81
638.626	175.81
638.832	181.81
639.037	151.81
639.243	167.81
639.448	169.81
639.654	168.81
639.859	180.81
640.065	161.81
640.27	173.81
640.475	153.81
640.681	168.81
640.886	164.81
641.091	154.81
641.297	165.81
641.502	163.81
641.707	164.81
641.913	150.81
642.118	153.81
642.323	157.81
642.528	168.81
642.733	163.81
642.939	151.81
643.144	165.81
643.349	144.81
643.554	141.81
643.759	152.81
643.964	154.81
644.169	141.81
644.374	157.81
644.579	160.81
644.784	150.81
644.989	144.81
645.194	155.81
645.399	155.81
645.604	164.81
645.809	160.81
646.014	163.81
646.219	157.81
646.423	167.81
646.628	162.81
646.833	156.81
647.038	148.81
647.243	149.81
647.447	179.81
647.652	149.81
647.857	149.81
648.062	157.81
648.266	149.81
648.471	164.81
648.676	165.81
648.88	169.81
649.085	163.81
649.289	146.81
649.494	166.81
649.698	185.81
649.903	163.81
650.107	151.81
650.312	156.81
650.516	147.81
650.721	161.81
650.925	138.81
651.13	136.81
651.334	147.81
651.539	150.81
651.743	149.81
651.947	131.81
652.152	138.81
652.356	133.81
652.56	132.81
652.764	155.81
652.969	131.81
653.173	143.81
653.377	145.81
653.581	136.81
653.785	129.81
653.99	120.81
654.194	133.81
654.398	135.81
654.602	127.81
654.806	128.81
655.01	132.81
655.214	134.81
655.418	127.81
655.622	123.81
655.826	129.81
656.03	141.81
656.234	122.81
656.438	127.81
656.642	143.81
656.846	129.81
657.049	124.81
657.253	125.81
657.457	127.81
657.661	138.81
657.865	111.81
658.068	116.81
658.272	117.81
658.476	100.81
658.68	106.81
658.883	106.81
659.087	105.81
659.291	105.81
659.494	116.81
659.698	93.81
659.901	105.81
660.105	104.81
660.309	99.81
660.512	93.81
660.716	109.81
660.919	106.81
661.123	91.81
661.326	89.81
661.53	93.81
661.733	92.81
661.936	93.81
662.14	93.81
662.343	96.81
662.546	96.81
662.75	90.81
662.953	85.81
663.156	83.81
663.36	81.81
663.563	83.81
663.766	86.81
663.969	91.81
664.173	90.81
664.376	103.81
664.579	81.81
664.782	86.81
664.985	92.81
665.188	82.81
665.391	87.81
665.594	91.81
665.797	81.81
666	83.81
666.203	77.81
666.406	91.81
666.609	88.81
666.812	88.81
667.015	89.81
667.218	77.81
667.421	95.81
667.624	82.81
667.827	84.81
668.03	82.81
668.232	73.81
668.435	89.81
668.638	80.81
668.841	94.81
669.043	94.81
669.246	74.81
669.449	89.81
669.651	81.81
669.854	95.81
670.057	84.81
670.259	83.81
670.462	81.81
670.665	89.81
670.867	95.81
671.07	82.81
671.272	85.81
671.475	77.81
671.677	83.81
671.88	93.81
672.082	97.81
672.284	104.81
672.487	100.81
672.689	74.81
672.892	64.81
