Data from 1977.PennyLincolnUp.Lamp.En5.5.200Scan.071719.P1_HRD10591_16-05-14-864.txt Node
Date: Thu Jul 18 16:05:14 EDT 2019
User: cochatt
Spectrometer: HR+D1059
Trigger mode: 1
Integration Time (sec): 1.000000E-1
Scans to average: 1
Electric dark correction enabled: true
Nonlinearity correction enabled: false
Boxcar width: 0
XAxis mode: Wavelengths
Number of Pixels in Spectrum: 2048
>>>>>Begin Spectral Data<<<<<
223.165	-13.25
223.4	-13.25
223.635	-13.25
223.869	-12.25
224.104	-19.25
224.338	-14.25
224.573	-17.25
224.808	-20.25
225.042	-3.25
225.277	-12.25
225.511	6.75
225.746	8.75
225.98	-4.25
226.215	20.75
226.449	7.75
226.683	22.75
226.918	22.75
227.152	26.75
227.387	29.75
227.621	30.75
227.856	41.75
228.09	41.75
228.324	51.75
228.559	42.75
228.793	71.75
229.027	84.75
229.262	76.75
229.496	112.75
229.73	117.75
229.964	107.75
230.199	98.75
230.433	103.75
230.667	110.75
230.901	98.75
231.136	97.75
231.37	99.75
231.604	95.75
231.838	103.75
232.072	99.75
232.306	118.75
232.541	115.75
232.775	103.75
233.009	113.75
233.243	94.75
233.477	94.75
233.711	102.75
233.945	103.75
234.179	119.75
234.413	96.75
234.647	97.75
234.881	108.75
235.115	118.75
235.349	104.75
235.583	116.75
235.817	118.75
236.051	101.75
236.285	118.75
236.519	114.75
236.753	120.75
236.987	128.75
237.221	148.75
237.455	150.75
237.689	147.75
237.922	120.75
238.156	126.75
238.39	108.75
238.624	116.75
238.858	107.75
239.091	134.75
239.325	110.75
239.559	115.75
239.793	122.75
240.027	127.75
240.26	131.75
240.494	127.75
240.728	135.75
240.961	141.75
241.195	145.75
241.429	121.75
241.662	121.75
241.896	151.75
242.13	128.75
242.363	137.75
242.597	124.75
242.83	141.75
243.064	130.75
243.298	127.75
243.531	142.75
243.765	129.75
243.998	126.75
244.232	127.75
244.465	128.75
244.699	135.75
244.932	137.75
245.166	120.75
245.399	120.75
245.633	131.75
245.866	122.75
246.099	150.75
246.333	136.75
246.566	132.75
246.8	139.75
247.033	140.75
247.266	132.75
247.5	146.75
247.733	162.75
247.966	164.75
248.2	155.75
248.433	146.75
248.666	156.75
248.899	153.75
249.133	154.75
249.366	197.75
249.599	171.75
249.832	165.75
250.066	177.75
250.299	168.75
250.532	182.75
250.765	182.75
250.998	197.75
251.231	197.75
251.465	176.75
251.698	178.75
251.931	174.75
252.164	185.75
252.397	180.75
252.63	177.75
252.863	190.75
253.096	186.75
253.329	212.75
253.562	216.75
253.795	195.75
254.028	185.75
254.261	182.75
254.494	200.75
254.727	227.75
254.96	226.75
255.193	230.75
255.426	219.75
255.659	196.75
255.892	203.75
256.124	205.75
256.357	201.75
256.59	194.75
256.823	194.75
257.056	188.75
257.289	191.75
257.521	182.75
257.754	183.75
257.987	199.75
258.22	197.75
258.452	191.75
258.685	182.75
258.918	187.75
259.151	191.75
259.383	194.75
259.616	206.75
259.849	202.75
260.081	215.75
260.314	211.75
260.547	241.75
260.779	222.75
261.012	210.75
261.244	215.75
261.477	202.75
261.71	194.75
261.942	202.75
262.175	205.75
262.407	220.75
262.64	207.75
262.872	207.75
263.105	197.75
263.337	203.75
263.57	206.75
263.802	188.75
264.035	208.75
264.267	213.75
264.499	200.75
264.732	207.75
264.964	211.75
265.197	210.75
265.429	212.75
265.661	210.75
265.894	203.75
266.126	210.75
266.358	193.75
266.591	211.75
266.823	223.75
267.055	204.75
267.287	221.75
267.52	208.75
267.752	232.75
267.984	214.75
268.216	211.75
268.448	227.75
268.681	239.75
268.913	226.75
269.145	252.75
269.377	230.75
269.609	257.75
269.841	237.75
270.073	238.75
270.306	280.75
270.538	277.75
270.77	268.75
271.002	276.75
271.234	257.75
271.466	248.75
271.698	261.75
271.93	279.75
272.162	283.75
272.394	281.75
272.626	266.75
272.858	275.75
273.09	266.75
273.322	255.75
273.553	259.75
273.785	243.75
274.017	246.75
274.249	244.75
274.481	243.75
274.713	266.75
274.945	239.75
275.176	242.75
275.408	245.75
275.64	258.75
275.872	234.75
276.104	260.75
276.335	254.75
276.567	264.75
276.799	254.75
277.031	272.75
277.262	266.75
277.494	284.75
277.726	273.75
277.957	264.75
278.189	267.75
278.421	259.75
278.652	267.75
278.884	261.75
279.115	258.75
279.347	256.75
279.579	238.75
279.81	248.75
280.042	260.75
280.273	274.75
280.505	266.75
280.736	265.75
280.968	248.75
281.199	276.75
281.431	256.75
281.662	276.75
281.894	265.75
282.125	268.75
282.356	261.75
282.588	272.75
282.819	270.75
283.051	279.75
283.282	264.75
283.513	268.75
283.745	290.75
283.976	274.75
284.207	280.75
284.439	267.75
284.67	263.75
284.901	294.75
285.132	266.75
285.364	279.75
285.595	288.75
285.826	269.75
286.057	265.75
286.288	268.75
286.52	290.75
286.751	274.75
286.982	259.75
287.213	281.75
287.444	274.75
287.675	282.75
287.906	279.75
288.138	288.75
288.369	282.75
288.6	297.75
288.831	274.75
289.062	281.75
289.293	274.75
289.524	318.75
289.755	286.75
289.986	281.75
290.217	274.75
290.448	275.75
290.679	274.75
290.91	292.75
291.141	299.75
291.371	274.75
291.602	294.75
291.833	290.75
292.064	285.75
292.295	309.75
292.526	268.75
292.757	308.75
292.987	286.75
293.218	287.75
293.449	281.75
293.68	271.75
293.91	278.75
294.141	294.75
294.372	308.75
294.603	306.75
294.833	275.75
295.064	296.75
295.295	288.75
295.525	272.75
295.756	282.75
295.987	282.75
296.217	297.75
296.448	306.75
296.679	281.75
296.909	300.75
297.14	298.75
297.37	288.75
297.601	295.75
297.831	288.75
298.062	291.75
298.292	331.75
298.523	291.75
298.753	305.75
298.984	321.75
299.214	302.75
299.445	306.75
299.675	318.75
299.905	328.75
300.136	315.75
300.366	312.75
300.597	310.75
300.827	307.75
301.057	313.75
301.288	326.75
301.518	318.75
301.748	315.75
301.979	336.75
302.209	322.75
302.439	324.75
302.669	324.75
302.9	326.75
303.13	320.75
303.36	324.75
303.59	330.75
303.82	323.75
304.051	335.75
304.281	331.75
304.511	314.75
304.741	327.75
304.971	308.75
305.201	329.75
305.431	322.75
305.661	353.75
305.891	315.75
306.121	318.75
306.352	323.75
306.582	324.75
306.812	323.75
307.042	326.75
307.272	331.75
307.502	324.75
307.731	318.75
307.961	328.75
308.191	329.75
308.421	326.75
308.651	303.75
308.881	331.75
309.111	335.75
309.341	344.75
309.571	365.75
309.8	332.75
310.03	358.75
310.26	350.75
310.49	356.75
310.72	346.75
310.949	389.75
311.179	363.75
311.409	354.75
311.639	350.75
311.868	353.75
312.098	375.75
312.328	379.75
312.557	366.75
312.787	366.75
313.017	371.75
313.246	377.75
313.476	356.75
313.706	356.75
313.935	348.75
314.165	355.75
314.394	356.75
314.624	369.75
314.853	362.75
315.083	358.75
315.312	358.75
315.542	376.75
315.771	359.75
316.001	360.75
316.23	365.75
316.46	342.75
316.689	369.75
316.919	376.75
317.148	374.75
317.377	360.75
317.607	372.75
317.836	356.75
318.065	364.75
318.295	382.75
318.524	371.75
318.753	354.75
318.983	365.75
319.212	368.75
319.441	357.75
319.67	356.75
319.9	348.75
320.129	360.75
320.358	363.75
320.587	360.75
320.816	371.75
321.046	372.75
321.275	359.75
321.504	387.75
321.733	365.75
321.962	395.75
322.191	396.75
322.42	376.75
322.649	411.75
322.878	374.75
323.108	391.75
323.337	405.75
323.566	418.75
323.795	443.75
324.024	476.75
324.253	536.75
324.482	673.75
324.71	985.75
324.939	1318.75
325.168	1128.75
325.397	639.75
325.626	488.75
325.855	440.75
326.084	437.75
326.313	446.75
326.542	430.75
326.77	446.75
326.999	511.75
327.228	649.75
327.457	876.75
327.686	1010.75
327.914	706.75
328.143	526.75
328.372	458.75
328.6	456.75
328.829	452.75
329.058	459.75
329.287	470.75
329.515	447.75
329.744	428.75
329.972	422.75
330.201	466.75
330.43	458.75
330.658	462.75
330.887	472.75
331.115	473.75
331.344	454.75
331.572	418.75
331.801	440.75
332.03	438.75
332.258	418.75
332.486	396.75
332.715	406.75
332.943	426.75
333.172	440.75
333.4	452.75
333.629	435.75
333.857	452.75
334.085	468.75
334.314	456.75
334.542	472.75
334.771	490.75
334.999	453.75
335.227	453.75
335.455	454.75
335.684	441.75
335.912	448.75
336.14	435.75
336.369	440.75
336.597	416.75
336.825	445.75
337.053	412.75
337.281	426.75
337.51	395.75
337.738	426.75
337.966	420.75
338.194	422.75
338.422	424.75
338.65	422.75
338.878	393.75
339.106	405.75
339.334	400.75
339.562	395.75
339.79	400.75
340.018	403.75
340.246	394.75
340.474	417.75
340.702	401.75
340.93	396.75
341.158	408.75
341.386	416.75
341.614	405.75
341.842	406.75
342.07	413.75
342.298	415.75
342.526	403.75
342.754	409.75
342.981	400.75
343.209	395.75
343.437	394.75
343.665	420.75
343.893	420.75
344.12	443.75
344.348	408.75
344.576	451.75
344.804	436.75
345.031	406.75
345.259	411.75
345.487	393.75
345.714	402.75
345.942	424.75
346.17	401.75
346.397	397.75
346.625	378.75
346.853	393.75
347.08	372.75
347.308	404.75
347.535	393.75
347.763	386.75
347.99	375.75
348.218	377.75
348.445	364.75
348.673	384.75
348.9	393.75
349.128	378.75
349.355	394.75
349.583	390.75
349.81	364.75
350.037	373.75
350.265	374.75
350.492	373.75
350.72	388.75
350.947	374.75
351.174	378.75
351.402	390.75
351.629	377.75
351.856	390.75
352.083	365.75
352.311	385.75
352.538	376.75
352.765	394.75
352.992	366.75
353.22	363.75
353.447	380.75
353.674	372.75
353.901	372.75
354.128	369.75
354.355	364.75
354.583	380.75
354.81	355.75
355.037	371.75
355.264	355.75
355.491	361.75
355.718	380.75
355.945	375.75
356.172	363.75
356.399	353.75
356.626	346.75
356.853	346.75
357.08	372.75
357.307	376.75
357.534	354.75
357.761	363.75
357.988	348.75
358.215	361.75
358.441	354.75
358.668	379.75
358.895	355.75
359.122	373.75
359.349	386.75
359.576	361.75
359.802	386.75
360.029	395.75
360.256	392.75
360.483	376.75
360.709	364.75
360.936	372.75
361.163	377.75
361.39	376.75
361.616	362.75
361.843	374.75
362.07	378.75
362.296	382.75
362.523	381.75
362.749	379.75
362.976	376.75
363.203	375.75
363.429	372.75
363.656	379.75
363.882	374.75
364.109	363.75
364.335	374.75
364.562	368.75
364.788	373.75
365.015	360.75
365.241	361.75
365.468	351.75
365.694	375.75
365.92	372.75
366.147	362.75
366.373	363.75
366.599	365.75
366.826	357.75
367.052	356.75
367.278	364.75
367.505	359.75
367.731	372.75
367.957	359.75
368.184	374.75
368.41	364.75
368.636	362.75
368.862	364.75
369.089	379.75
369.315	363.75
369.541	356.75
369.767	371.75
369.993	354.75
370.219	359.75
370.445	368.75
370.672	362.75
370.898	357.75
371.124	348.75
371.35	382.75
371.576	347.75
371.802	374.75
372.028	366.75
372.254	375.75
372.48	360.75
372.706	360.75
372.932	360.75
373.158	367.75
373.384	364.75
373.61	378.75
373.835	364.75
374.061	362.75
374.287	351.75
374.513	366.75
374.739	374.75
374.965	391.75
375.191	386.75
375.416	388.75
375.642	374.75
375.868	380.75
376.094	366.75
376.319	375.75
376.545	357.75
376.771	364.75
376.997	363.75
377.222	361.75
377.448	373.75
377.674	372.75
377.899	355.75
378.125	362.75
378.35	372.75
378.576	357.75
378.802	356.75
379.027	356.75
379.253	351.75
379.478	386.75
379.704	350.75
379.929	370.75
380.155	354.75
380.38	364.75
380.606	382.75
380.831	368.75
381.057	359.75
381.282	358.75
381.507	375.75
381.733	366.75
381.958	370.75
382.184	369.75
382.409	387.75
382.634	379.75
382.86	368.75
383.085	355.75
383.31	378.75
383.535	372.75
383.761	376.75
383.986	385.75
384.211	402.75
384.436	374.75
384.662	396.75
384.887	398.75
385.112	402.75
385.337	411.75
385.562	389.75
385.787	407.75
386.013	448.75
386.238	402.75
386.463	424.75
386.688	407.75
386.913	401.75
387.138	390.75
387.363	403.75
387.588	400.75
387.813	407.75
388.038	378.75
388.263	404.75
388.488	399.75
388.713	392.75
388.938	396.75
389.163	392.75
389.387	391.75
389.612	391.75
389.837	396.75
390.062	381.75
390.287	392.75
390.512	404.75
390.736	392.75
390.961	397.75
391.186	387.75
391.411	411.75
391.636	416.75
391.86	434.75
392.085	424.75
392.31	420.75
392.534	415.75
392.759	419.75
392.984	422.75
393.208	410.75
393.433	426.75
393.658	430.75
393.882	409.75
394.107	407.75
394.331	406.75
394.556	390.75
394.78	421.75
395.005	418.75
395.229	409.75
395.454	406.75
395.678	422.75
395.903	402.75
396.127	443.75
396.352	412.75
396.576	434.75
396.801	417.75
397.025	394.75
397.249	407.75
397.474	438.75
397.698	440.75
397.922	430.75
398.147	429.75
398.371	450.75
398.595	438.75
398.82	436.75
399.044	472.75
399.268	486.75
399.492	535.75
399.717	564.75
399.941	574.75
400.165	580.75
400.389	574.75
400.613	513.75
400.837	495.75
401.062	472.75
401.286	480.75
401.51	468.75
401.734	454.75
401.958	448.75
402.182	459.75
402.406	447.75
402.63	468.75
402.854	469.75
403.078	458.75
403.302	469.75
403.526	475.75
403.75	475.75
403.974	481.75
404.198	457.75
404.422	481.75
404.645	468.75
404.869	469.75
405.093	506.75
405.317	529.75
405.541	550.75
405.765	502.75
405.988	470.75
406.212	505.75
406.436	498.75
406.66	518.75
406.883	497.75
407.107	514.75
407.331	534.75
407.555	575.75
407.778	608.75
408.002	565.75
408.226	507.75
408.449	520.75
408.673	515.75
408.896	543.75
409.12	550.75
409.344	543.75
409.567	482.75
409.791	480.75
410.014	473.75
410.238	456.75
410.461	459.75
410.685	475.75
410.908	492.75
411.132	492.75
411.355	512.75
411.578	486.75
411.802	473.75
412.025	446.75
412.249	483.75
412.472	478.75
412.695	484.75
412.919	480.75
413.142	470.75
413.365	442.75
413.589	444.75
413.812	437.75
414.035	435.75
414.258	462.75
414.482	450.75
414.705	447.75
414.928	459.75
415.151	436.75
415.374	440.75
415.597	450.75
415.821	436.75
416.044	432.75
416.267	433.75
416.49	428.75
416.713	444.75
416.936	449.75
417.159	436.75
417.382	451.75
417.605	454.75
417.828	433.75
418.051	471.75
418.274	448.75
418.497	442.75
418.72	441.75
418.943	420.75
419.166	454.75
419.389	450.75
419.611	483.75
419.834	458.75
420.057	454.75
420.28	463.75
420.503	454.75
420.726	439.75
420.948	457.75
421.171	507.75
421.394	494.75
421.617	438.75
421.839	440.75
422.062	458.75
422.285	451.75
422.507	502.75
422.73	542.75
422.953	523.75
423.175	479.75
423.398	455.75
423.621	474.75
423.843	476.75
424.066	490.75
424.288	485.75
424.511	471.75
424.733	528.75
424.956	574.75
425.178	546.75
425.401	527.75
425.623	574.75
425.846	498.75
426.068	450.75
426.291	464.75
426.513	484.75
426.735	475.75
426.958	515.75
427.18	550.75
427.402	635.75
427.625	680.75
427.847	584.75
428.069	520.75
428.292	473.75
428.514	422.75
428.736	448.75
428.958	423.75
429.181	417.75
429.403	396.75
429.625	442.75
429.847	463.75
430.069	502.75
430.292	507.75
430.514	449.75
430.736	428.75
430.958	426.75
431.18	435.75
431.402	426.75
431.624	432.75
431.846	410.75
432.068	414.75
432.29	403.75
432.512	416.75
432.734	424.75
432.956	422.75
433.178	430.75
433.4	407.75
433.622	392.75
433.844	418.75
434.066	415.75
434.287	413.75
434.509	422.75
434.731	431.75
434.953	444.75
435.175	435.75
435.397	468.75
435.618	448.75
435.84	482.75
436.062	579.75
436.284	600.75
436.505	503.75
436.727	460.75
436.949	430.75
437.17	424.75
437.392	418.75
437.614	430.75
437.835	446.75
438.057	513.75
438.278	578.75
438.5	600.75
438.721	640.75
438.943	640.75
439.165	491.75
439.386	435.75
439.608	458.75
439.829	446.75
440.05	454.75
440.272	503.75
440.493	478.75
440.715	442.75
440.936	429.75
441.158	423.75
441.379	426.75
441.6	445.75
441.822	466.75
442.043	471.75
442.264	526.75
442.486	572.75
442.707	487.75
442.928	483.75
443.149	466.75
443.371	477.75
443.592	484.75
443.813	583.75
444.034	618.75
444.255	517.75
444.476	470.75
444.698	463.75
444.919	471.75
445.14	561.75
445.361	528.75
445.582	496.75
445.803	538.75
446.024	577.75
446.245	587.75
446.466	548.75
446.687	471.75
446.908	425.75
447.129	423.75
447.35	415.75
447.571	427.75
447.792	430.75
448.013	419.75
448.234	412.75
448.455	457.75
448.675	532.75
448.896	611.75
449.117	514.75
449.338	516.75
449.559	608.75
449.779	663.75
450	522.75
450.221	451.75
450.442	424.75
450.662	400.75
450.883	409.75
451.104	411.75
451.324	415.75
451.545	383.75
451.766	378.75
451.986	380.75
452.207	379.75
452.428	378.75
452.648	378.75
452.869	379.75
453.089	373.75
453.31	405.75
453.53	363.75
453.751	382.75
453.971	378.75
454.192	389.75
454.412	376.75
454.633	366.75
454.853	362.75
455.073	392.75
455.294	397.75
455.514	446.75
455.734	411.75
455.955	378.75
456.175	370.75
456.395	345.75
456.616	340.75
456.836	378.75
457.056	371.75
457.276	356.75
457.497	352.75
457.717	346.75
457.937	368.75
458.157	374.75
458.377	367.75
458.598	361.75
458.818	404.75
459.038	458.75
459.258	461.75
459.478	429.75
459.698	408.75
459.918	402.75
460.138	407.75
460.358	413.75
460.578	400.75
460.798	424.75
461.018	437.75
461.238	425.75
461.458	431.75
461.678	393.75
461.898	448.75
462.118	433.75
462.338	448.75
462.558	457.75
462.777	457.75
462.997	474.75
463.217	499.75
463.437	489.75
463.657	489.75
463.876	476.75
464.096	471.75
464.316	453.75
464.536	462.75
464.755	459.75
464.975	456.75
465.195	451.75
465.414	456.75
465.634	434.75
465.854	432.75
466.073	390.75
466.293	404.75
466.512	396.75
466.732	416.75
466.951	383.75
467.171	385.75
467.391	403.75
467.61	402.75
467.829	405.75
468.049	390.75
468.268	393.75
468.488	390.75
468.707	384.75
468.927	375.75
469.146	402.75
469.365	383.75
469.585	378.75
469.804	387.75
470.023	385.75
470.243	372.75
470.462	390.75
470.681	414.75
470.901	387.75
471.12	393.75
471.339	391.75
471.558	403.75
471.777	402.75
471.997	384.75
472.216	408.75
472.435	395.75
472.654	408.75
472.873	370.75
473.092	384.75
473.311	387.75
473.53	384.75
473.749	404.75
473.968	409.75
474.187	480.75
474.406	514.75
474.625	430.75
474.844	428.75
475.063	383.75
475.282	385.75
475.501	389.75
475.72	415.75
475.939	389.75
476.158	399.75
476.377	430.75
476.596	386.75
476.814	404.75
477.033	439.75
477.252	413.75
477.471	416.75
477.69	424.75
477.908	417.75
478.127	447.75
478.346	442.75
478.564	441.75
478.783	446.75
479.002	443.75
479.22	434.75
479.439	455.75
479.658	442.75
479.876	480.75
480.095	481.75
480.313	490.75
480.532	490.75
480.751	481.75
480.969	472.75
481.188	474.75
481.406	474.75
481.624	490.75
481.843	488.75
482.061	478.75
482.28	432.75
482.498	435.75
482.717	444.75
482.935	442.75
483.153	433.75
483.372	430.75
483.59	448.75
483.808	438.75
484.027	441.75
484.245	443.75
484.463	450.75
484.681	473.75
484.9	462.75
485.118	466.75
485.336	452.75
485.554	476.75
485.772	481.75
485.99	448.75
486.209	464.75
486.427	478.75
486.645	465.75
486.863	457.75
487.081	466.75
487.299	454.75
487.517	466.75
487.735	485.75
487.953	470.75
488.171	492.75
488.389	455.75
488.607	482.75
488.825	472.75
489.043	490.75
489.261	472.75
489.479	492.75
489.696	505.75
489.914	472.75
490.132	487.75
490.35	499.75
490.568	506.75
490.786	517.75
491.003	497.75
491.221	494.75
491.439	496.75
491.657	492.75
491.874	517.75
492.092	539.75
492.31	522.75
492.527	530.75
492.745	513.75
492.963	534.75
493.18	552.75
493.398	530.75
493.615	530.75
493.833	533.75
494.05	538.75
494.268	536.75
494.485	545.75
494.703	514.75
494.92	528.75
495.138	544.75
495.355	537.75
495.573	548.75
495.79	550.75
496.008	529.75
496.225	528.75
496.442	559.75
496.66	554.75
496.877	564.75
497.094	584.75
497.312	551.75
497.529	580.75
497.746	604.75
497.963	584.75
498.181	619.75
498.398	632.75
498.615	644.75
498.832	664.75
499.049	686.75
499.267	690.75
499.484	721.75
499.701	769.75
499.918	798.75
500.135	819.75
500.352	890.75
500.569	896.75
500.786	906.75
501.003	882.75
501.22	842.75
501.437	808.75
501.654	766.75
501.871	752.75
502.088	722.75
502.305	699.75
502.522	660.75
502.739	650.75
502.956	613.75
503.172	626.75
503.389	606.75
503.606	597.75
503.823	573.75
504.04	579.75
504.256	582.75
504.473	584.75
504.69	586.75
504.907	574.75
505.123	551.75
505.34	534.75
505.557	533.75
505.773	542.75
505.99	515.75
506.207	542.75
506.423	516.75
506.64	518.75
506.856	507.75
507.073	474.75
507.289	494.75
507.506	507.75
507.722	518.75
507.939	496.75
508.155	499.75
508.372	513.75
508.588	492.75
508.805	496.75
509.021	480.75
509.238	522.75
509.454	490.75
509.67	502.75
509.887	489.75
510.103	494.75
510.319	471.75
510.536	546.75
510.752	702.75
510.968	583.75
511.184	450.75
511.401	465.75
511.617	458.75
511.833	458.75
512.049	452.75
512.265	466.75
512.481	487.75
512.698	441.75
512.914	457.75
513.13	465.75
513.346	462.75
513.562	441.75
513.778	468.75
513.994	454.75
514.21	444.75
514.426	470.75
514.642	480.75
514.858	487.75
515.074	529.75
515.29	546.75
515.506	704.75
515.721	619.75
515.937	504.75
516.153	494.75
516.369	487.75
516.585	495.75
516.801	479.75
517.016	483.75
517.232	480.75
517.448	494.75
517.664	525.75
517.879	518.75
518.095	521.75
518.311	488.75
518.527	498.75
518.742	469.75
518.958	468.75
519.173	470.75
519.389	468.75
519.605	473.75
519.82	456.75
520.036	476.75
520.251	469.75
520.467	482.75
520.682	496.75
520.898	478.75
521.113	467.75
521.329	505.75
521.544	524.75
521.76	578.75
521.975	811.75
522.19	760.75
522.406	552.75
522.621	485.75
522.836	453.75
523.052	434.75
523.267	444.75
523.482	418.75
523.698	420.75
523.913	439.75
524.128	422.75
524.343	414.75
524.559	378.75
524.774	432.75
524.989	423.75
525.204	417.75
525.419	413.75
525.634	391.75
525.849	387.75
526.064	410.75
526.28	414.75
526.495	392.75
526.71	394.75
526.925	388.75
527.14	381.75
527.355	394.75
527.57	395.75
527.785	386.75
527.999	380.75
528.214	392.75
528.429	400.75
528.644	390.75
528.859	394.75
529.074	400.75
529.289	405.75
529.503	422.75
529.718	402.75
529.933	397.75
530.148	383.75
530.363	405.75
530.577	378.75
530.792	388.75
531.007	393.75
531.221	392.75
531.436	382.75
531.651	387.75
531.865	384.75
532.08	379.75
532.295	376.75
532.509	373.75
532.724	388.75
532.938	378.75
533.153	386.75
533.367	392.75
533.582	373.75
533.796	381.75
534.011	370.75
534.225	369.75
534.44	364.75
534.654	378.75
534.868	388.75
535.083	383.75
535.297	393.75
535.511	376.75
535.726	385.75
535.94	360.75
536.154	358.75
536.369	369.75
536.583	360.75
536.797	386.75
537.011	361.75
537.225	362.75
537.44	364.75
537.654	354.75
537.868	355.75
538.082	370.75
538.296	366.75
538.51	378.75
538.724	353.75
538.938	352.75
539.153	359.75
539.367	374.75
539.581	368.75
539.795	354.75
540.009	352.75
540.222	358.75
540.436	364.75
540.65	355.75
540.864	372.75
541.078	384.75
541.292	353.75
541.506	354.75
541.72	369.75
541.934	356.75
542.147	356.75
542.361	356.75
542.575	373.75
542.789	348.75
543.002	347.75
543.216	361.75
543.43	378.75
543.644	390.75
543.857	379.75
544.071	377.75
544.285	356.75
544.498	369.75
544.712	362.75
544.925	351.75
545.139	350.75
545.352	355.75
545.566	352.75
545.779	377.75
545.993	375.75
546.206	362.75
546.42	360.75
546.633	352.75
546.847	346.75
547.06	354.75
547.274	352.75
547.487	364.75
547.7	360.75
547.914	368.75
548.127	366.75
548.34	366.75
548.554	356.75
548.767	353.75
548.98	332.75
549.193	343.75
549.407	358.75
549.62	345.75
549.833	347.75
550.046	338.75
550.259	363.75
550.473	361.75
550.686	348.75
550.899	350.75
551.112	363.75
551.325	366.75
551.538	362.75
551.751	349.75
551.964	355.75
552.177	356.75
552.39	363.75
552.603	356.75
552.816	374.75
553.029	363.75
553.242	370.75
553.455	363.75
553.667	362.75
553.88	372.75
554.093	371.75
554.306	377.75
554.519	367.75
554.732	358.75
554.944	335.75
555.157	342.75
555.37	337.75
555.583	332.75
555.795	330.75
556.008	337.75
556.221	350.75
556.433	345.75
556.646	298.75
556.859	334.75
557.071	323.75
557.284	310.75
557.496	329.75
557.709	318.75
557.921	327.75
558.134	314.75
558.346	327.75
558.559	327.75
558.771	306.75
558.984	319.75
559.196	300.75
559.409	326.75
559.621	314.75
559.833	319.75
560.046	321.75
560.258	308.75
560.47	295.75
560.683	308.75
560.895	324.75
561.107	328.75
561.32	319.75
561.532	313.75
561.744	309.75
561.956	317.75
562.168	310.75
562.381	299.75
562.593	310.75
562.805	328.75
563.017	326.75
563.229	321.75
563.441	315.75
563.653	337.75
563.865	325.75
564.077	312.75
564.289	309.75
564.501	321.75
564.713	355.75
564.925	324.75
565.137	344.75
565.349	339.75
565.561	352.75
565.773	363.75
565.985	375.75
566.197	355.75
566.408	376.75
566.62	398.75
566.832	403.75
567.044	411.75
567.255	419.75
567.467	423.75
567.679	438.75
567.891	449.75
568.102	436.75
568.314	433.75
568.526	410.75
568.737	397.75
568.949	366.75
569.161	351.75
569.372	350.75
569.584	360.75
569.795	340.75
570.007	330.75
570.218	330.75
570.43	324.75
570.641	320.75
570.853	328.75
571.064	316.75
571.276	321.75
571.487	303.75
571.698	306.75
571.91	297.75
572.121	274.75
572.333	297.75
572.544	289.75
572.755	289.75
572.966	300.75
573.178	289.75
573.389	298.75
573.6	287.75
573.811	291.75
574.023	272.75
574.234	299.75
574.445	301.75
574.656	272.75
574.867	279.75
575.078	268.75
575.289	267.75
575.501	262.75
575.712	267.75
575.923	264.75
576.134	270.75
576.345	266.75
576.556	267.75
576.767	265.75
576.978	288.75
577.188	280.75
577.399	267.75
577.61	276.75
577.821	267.75
578.032	262.75
578.243	282.75
578.454	359.75
578.665	299.75
578.875	276.75
579.086	252.75
579.297	249.75
579.508	282.75
579.718	246.75
579.929	232.75
580.14	265.75
580.35	235.75
580.561	257.75
580.772	234.75
580.982	256.75
581.193	252.75
581.403	256.75
581.614	262.75
581.825	263.75
582.035	247.75
582.246	251.75
582.456	264.75
582.667	259.75
582.877	244.75
583.087	265.75
583.298	239.75
583.508	249.75
583.719	258.75
583.929	246.75
584.139	249.75
584.35	269.75
584.56	262.75
584.77	241.75
584.981	244.75
585.191	256.75
585.401	254.75
585.611	250.75
585.821	256.75
586.032	241.75
586.242	265.75
586.452	244.75
586.662	232.75
586.872	233.75
587.082	255.75
587.292	256.75
587.502	245.75
587.713	236.75
587.923	240.75
588.133	247.75
588.343	248.75
588.553	251.75
588.762	244.75
588.972	266.75
589.182	239.75
589.392	245.75
589.602	238.75
589.812	266.75
590.022	238.75
590.232	264.75
590.441	246.75
590.651	220.75
590.861	234.75
591.071	243.75
591.281	247.75
591.49	246.75
591.7	238.75
591.91	271.75
592.119	244.75
592.329	262.75
592.539	272.75
592.748	256.75
592.958	280.75
593.167	258.75
593.377	264.75
593.587	272.75
593.796	281.75
594.006	276.75
594.215	263.75
594.424	280.75
594.634	273.75
594.843	268.75
595.053	263.75
595.262	257.75
595.472	250.75
595.681	243.75
595.89	231.75
596.1	236.75
596.309	242.75
596.518	239.75
596.727	239.75
596.937	238.75
597.146	239.75
597.355	237.75
597.564	222.75
597.774	229.75
597.983	227.75
598.192	221.75
598.401	240.75
598.61	219.75
598.819	226.75
599.028	227.75
599.237	212.75
599.446	220.75
599.655	219.75
599.864	226.75
600.073	203.75
600.282	227.75
600.491	204.75
600.7	223.75
600.909	215.75
601.118	209.75
601.327	213.75
601.536	203.75
601.745	209.75
601.953	203.75
602.162	225.75
602.371	212.75
602.58	191.75
602.789	218.75
602.997	219.75
603.206	206.75
603.415	208.75
603.623	201.75
603.832	207.75
604.041	207.75
604.249	203.75
604.458	209.75
604.666	188.75
604.875	212.75
605.084	204.75
605.292	201.75
605.501	208.75
605.709	220.75
605.918	206.75
606.126	201.75
606.334	204.75
606.543	202.75
606.751	193.75
606.96	210.75
607.168	206.75
607.376	210.75
607.585	181.75
607.793	211.75
608.001	204.75
608.21	206.75
608.418	191.75
608.626	206.75
608.834	204.75
609.043	203.75
609.251	206.75
609.459	187.75
609.667	187.75
609.875	174.75
610.083	198.75
610.291	190.75
610.499	204.75
610.707	199.75
610.916	193.75
611.124	201.75
611.332	212.75
611.54	212.75
611.748	214.75
611.955	198.75
612.163	203.75
612.371	187.75
612.579	192.75
612.787	188.75
612.995	200.75
613.203	209.75
613.411	190.75
613.618	208.75
613.826	180.75
614.034	201.75
614.242	213.75
614.449	182.75
614.657	207.75
614.865	198.75
615.072	202.75
615.28	216.75
615.488	191.75
615.695	195.75
615.903	202.75
616.111	197.75
616.318	202.75
616.526	193.75
616.733	181.75
616.941	204.75
617.148	178.75
617.356	196.75
617.563	187.75
617.771	210.75
617.978	172.75
618.185	177.75
618.393	191.75
618.6	189.75
618.807	184.75
619.015	208.75
619.222	194.75
619.429	192.75
619.637	182.75
619.844	192.75
620.051	185.75
620.258	178.75
620.466	190.75
620.673	171.75
620.88	176.75
621.087	174.75
621.294	183.75
621.501	184.75
621.708	183.75
621.915	190.75
622.122	194.75
622.329	187.75
622.536	190.75
622.743	162.75
622.95	174.75
623.157	172.75
623.364	195.75
623.571	183.75
623.778	183.75
623.985	178.75
624.192	169.75
624.399	174.75
624.606	187.75
624.812	187.75
625.019	174.75
625.226	192.75
625.433	178.75
625.639	177.75
625.846	170.75
626.053	176.75
626.259	164.75
626.466	168.75
626.673	167.75
626.879	162.75
627.086	178.75
627.293	158.75
627.499	168.75
627.706	179.75
627.912	184.75
628.119	180.75
628.325	172.75
628.532	162.75
628.738	173.75
628.945	158.75
629.151	176.75
629.357	180.75
629.564	173.75
629.77	155.75
629.976	177.75
630.183	154.75
630.389	165.75
630.595	164.75
630.802	163.75
631.008	145.75
631.214	167.75
631.42	156.75
631.627	158.75
631.833	163.75
632.039	168.75
632.245	171.75
632.451	152.75
632.657	168.75
632.863	151.75
633.069	157.75
633.275	162.75
633.481	154.75
633.688	169.75
633.893	161.75
634.099	162.75
634.305	178.75
634.511	153.75
634.717	166.75
634.923	156.75
635.129	152.75
635.335	166.75
635.541	159.75
635.747	167.75
635.952	171.75
636.158	163.75
636.364	158.75
636.57	159.75
636.775	151.75
636.981	153.75
637.187	156.75
637.392	148.75
637.598	161.75
637.804	151.75
638.009	161.75
638.215	178.75
638.421	153.75
638.626	150.75
638.832	152.75
639.037	144.75
639.243	143.75
639.448	160.75
639.654	143.75
639.859	163.75
640.065	154.75
640.27	134.75
640.475	152.75
640.681	144.75
640.886	143.75
641.091	146.75
641.297	156.75
641.502	132.75
641.707	159.75
641.913	136.75
642.118	134.75
642.323	149.75
642.528	144.75
642.733	131.75
642.939	162.75
643.144	142.75
643.349	156.75
643.554	146.75
643.759	158.75
643.964	138.75
644.169	148.75
644.374	139.75
644.579	155.75
644.784	150.75
644.989	152.75
645.194	131.75
645.399	138.75
645.604	152.75
645.809	153.75
646.014	158.75
646.219	144.75
646.423	145.75
646.628	128.75
646.833	138.75
647.038	153.75
647.243	154.75
647.447	129.75
647.652	148.75
647.857	132.75
648.062	151.75
648.266	139.75
648.471	146.75
648.676	142.75
648.88	152.75
649.085	137.75
649.289	150.75
649.494	145.75
649.698	156.75
649.903	156.75
650.107	154.75
650.312	150.75
650.516	162.75
650.721	150.75
650.925	155.75
651.13	132.75
651.334	132.75
651.539	137.75
651.743	139.75
651.947	147.75
652.152	122.75
652.356	137.75
652.56	126.75
652.764	129.75
652.969	145.75
653.173	127.75
653.377	119.75
653.581	129.75
653.785	123.75
653.99	124.75
654.194	134.75
654.398	114.75
654.602	140.75
654.806	136.75
655.01	116.75
655.214	120.75
655.418	123.75
655.622	125.75
655.826	112.75
656.03	126.75
656.234	125.75
656.438	130.75
656.642	125.75
656.846	111.75
657.049	124.75
657.253	129.75
657.457	117.75
657.661	117.75
657.865	103.75
658.068	103.75
658.272	93.75
658.476	98.75
658.68	106.75
658.883	112.75
659.087	110.75
659.291	90.75
659.494	89.75
659.698	88.75
659.901	90.75
660.105	73.75
660.309	88.75
660.512	86.75
660.716	104.75
660.919	94.75
661.123	91.75
661.326	75.75
661.53	84.75
661.733	86.75
661.936	82.75
662.14	75.75
662.343	66.75
662.546	78.75
662.75	81.75
662.953	72.75
663.156	95.75
663.36	71.75
663.563	89.75
663.766	77.75
663.969	72.75
664.173	61.75
664.376	65.75
664.579	85.75
664.782	88.75
664.985	75.75
665.188	66.75
665.391	76.75
665.594	73.75
665.797	88.75
666	82.75
666.203	83.75
666.406	88.75
666.609	80.75
666.812	66.75
667.015	73.75
667.218	92.75
667.421	80.75
667.624	83.75
667.827	87.75
668.03	74.75
668.232	77.75
668.435	76.75
668.638	70.75
668.841	71.75
669.043	82.75
669.246	86.75
669.449	79.75
669.651	84.75
669.854	80.75
670.057	67.75
670.259	75.75
670.462	73.75
670.665	80.75
670.867	78.75
671.07	73.75
671.272	62.75
671.475	75.75
671.677	84.75
671.88	76.75
672.082	75.75
672.284	78.75
672.487	89.75
672.689	87.75
672.892	68.75
