Data from 1977.PennyLincolnUp.Lamp.En5.5.200Scan.071719.P1_HRD10591_16-04-33-875.txt Node
Date: Thu Jul 18 16:04:33 EDT 2019
User: cochatt
Spectrometer: HR+D1059
Trigger mode: 1
Integration Time (sec): 1.000000E-1
Scans to average: 1
Electric dark correction enabled: true
Nonlinearity correction enabled: false
Boxcar width: 0
XAxis mode: Wavelengths
Number of Pixels in Spectrum: 2048
>>>>>Begin Spectral Data<<<<<
223.165	-8.62
223.4	-8.62
223.635	-8.62
223.869	-17.62
224.104	-17.62
224.338	-10.62
224.573	-14.62
224.808	-1.62
225.042	4.38
225.277	-1.62
225.511	2.38
225.746	5.38
225.98	8.38
226.215	6.38
226.449	-4.62
226.683	19.38
226.918	17.38
227.152	13.38
227.387	46.38
227.621	27.38
227.856	50.38
228.09	43.38
228.324	55.38
228.559	56.38
228.793	72.38
229.027	65.38
229.262	65.38
229.496	62.38
229.73	71.38
229.964	71.38
230.199	68.38
230.433	89.38
230.667	65.38
230.901	74.38
231.136	90.38
231.37	94.38
231.604	90.38
231.838	85.38
232.072	94.38
232.306	100.38
232.541	100.38
232.775	94.38
233.009	79.38
233.243	77.38
233.477	85.38
233.711	91.38
233.945	90.38
234.179	80.38
234.413	87.38
234.647	88.38
234.881	84.38
235.115	91.38
235.349	92.38
235.583	85.38
235.817	88.38
236.051	102.38
236.285	86.38
236.519	88.38
236.753	84.38
236.987	77.38
237.221	81.38
237.455	83.38
237.689	102.38
237.922	88.38
238.156	85.38
238.39	97.38
238.624	74.38
238.858	81.38
239.091	87.38
239.325	84.38
239.559	85.38
239.793	106.38
240.027	73.38
240.26	85.38
240.494	93.38
240.728	86.38
240.961	87.38
241.195	87.38
241.429	95.38
241.662	82.38
241.896	92.38
242.13	98.38
242.363	85.38
242.597	85.38
242.83	88.38
243.064	89.38
243.298	94.38
243.531	90.38
243.765	95.38
243.998	88.38
244.232	77.38
244.465	87.38
244.699	79.38
244.932	102.38
245.166	87.38
245.399	79.38
245.633	84.38
245.866	88.38
246.099	82.38
246.333	100.38
246.566	79.38
246.8	83.38
247.033	89.38
247.266	96.38
247.5	102.38
247.733	97.38
247.966	79.38
248.2	88.38
248.433	82.38
248.666	95.38
248.899	92.38
249.133	87.38
249.366	92.38
249.599	93.38
249.832	85.38
250.066	94.38
250.299	89.38
250.532	105.38
250.765	85.38
250.998	99.38
251.231	103.38
251.465	106.38
251.698	100.38
251.931	87.38
252.164	92.38
252.397	98.38
252.63	98.38
252.863	90.38
253.096	100.38
253.329	92.38
253.562	98.38
253.795	98.38
254.028	91.38
254.261	91.38
254.494	96.38
254.727	125.38
254.96	105.38
255.193	86.38
255.426	98.38
255.659	109.38
255.892	110.38
256.124	95.38
256.357	92.38
256.59	98.38
256.823	105.38
257.056	93.38
257.289	91.38
257.521	101.38
257.754	95.38
257.987	103.38
258.22	93.38
258.452	99.38
258.685	98.38
258.918	101.38
259.151	95.38
259.383	101.38
259.616	103.38
259.849	114.38
260.081	115.38
260.314	92.38
260.547	102.38
260.779	98.38
261.012	93.38
261.244	85.38
261.477	106.38
261.71	94.38
261.942	99.38
262.175	97.38
262.407	100.38
262.64	96.38
262.872	100.38
263.105	109.38
263.337	99.38
263.57	104.38
263.802	115.38
264.035	108.38
264.267	103.38
264.499	102.38
264.732	102.38
264.964	108.38
265.197	110.38
265.429	86.38
265.661	100.38
265.894	109.38
266.126	109.38
266.358	103.38
266.591	93.38
266.823	102.38
267.055	98.38
267.287	107.38
267.52	103.38
267.752	103.38
267.984	101.38
268.216	106.38
268.448	101.38
268.681	97.38
268.913	101.38
269.145	127.38
269.377	113.38
269.609	115.38
269.841	114.38
270.073	98.38
270.306	115.38
270.538	110.38
270.77	100.38
271.002	108.38
271.234	107.38
271.466	111.38
271.698	106.38
271.93	104.38
272.162	114.38
272.394	108.38
272.626	116.38
272.858	106.38
273.09	123.38
273.322	121.38
273.553	119.38
273.785	116.38
274.017	108.38
274.249	108.38
274.481	111.38
274.713	115.38
274.945	110.38
275.176	113.38
275.408	97.38
275.64	110.38
275.872	111.38
276.104	110.38
276.335	102.38
276.567	113.38
276.799	106.38
277.031	106.38
277.262	120.38
277.494	128.38
277.726	120.38
277.957	106.38
278.189	108.38
278.421	101.38
278.652	104.38
278.884	95.38
279.115	94.38
279.347	119.38
279.579	128.38
279.81	115.38
280.042	119.38
280.273	119.38
280.505	109.38
280.736	115.38
280.968	107.38
281.199	113.38
281.431	127.38
281.662	125.38
281.894	101.38
282.125	114.38
282.356	115.38
282.588	106.38
282.819	111.38
283.051	129.38
283.282	129.38
283.513	118.38
283.745	107.38
283.976	110.38
284.207	108.38
284.439	121.38
284.67	117.38
284.901	119.38
285.132	120.38
285.364	110.38
285.595	115.38
285.826	115.38
286.057	129.38
286.288	114.38
286.52	119.38
286.751	102.38
286.982	102.38
287.213	111.38
287.444	114.38
287.675	105.38
287.906	122.38
288.138	121.38
288.369	100.38
288.6	125.38
288.831	129.38
289.062	116.38
289.293	116.38
289.524	117.38
289.755	122.38
289.986	101.38
290.217	123.38
290.448	114.38
290.679	113.38
290.91	122.38
291.141	116.38
291.371	136.38
291.602	124.38
291.833	125.38
292.064	109.38
292.295	116.38
292.526	123.38
292.757	123.38
292.987	130.38
293.218	111.38
293.449	110.38
293.68	121.38
293.91	115.38
294.141	114.38
294.372	115.38
294.603	120.38
294.833	119.38
295.064	121.38
295.295	129.38
295.525	124.38
295.756	138.38
295.987	125.38
296.217	120.38
296.448	113.38
296.679	118.38
296.909	124.38
297.14	121.38
297.37	117.38
297.601	122.38
297.831	131.38
298.062	116.38
298.292	113.38
298.523	126.38
298.753	121.38
298.984	119.38
299.214	131.38
299.445	120.38
299.675	120.38
299.905	121.38
300.136	111.38
300.366	119.38
300.597	125.38
300.827	117.38
301.057	136.38
301.288	121.38
301.518	127.38
301.748	136.38
301.979	132.38
302.209	134.38
302.439	141.38
302.669	146.38
302.9	123.38
303.13	139.38
303.36	126.38
303.59	137.38
303.82	120.38
304.051	141.38
304.281	130.38
304.511	125.38
304.741	133.38
304.971	126.38
305.201	120.38
305.431	134.38
305.661	121.38
305.891	133.38
306.121	126.38
306.352	133.38
306.582	123.38
306.812	131.38
307.042	126.38
307.272	117.38
307.502	126.38
307.731	122.38
307.961	133.38
308.191	127.38
308.421	133.38
308.651	123.38
308.881	122.38
309.111	122.38
309.341	133.38
309.571	136.38
309.8	127.38
310.03	137.38
310.26	137.38
310.49	131.38
310.72	125.38
310.949	129.38
311.179	138.38
311.409	122.38
311.639	129.38
311.868	140.38
312.098	138.38
312.328	126.38
312.557	116.38
312.787	133.38
313.017	115.38
313.246	121.38
313.476	109.38
313.706	118.38
313.935	133.38
314.165	122.38
314.394	137.38
314.624	124.38
314.853	136.38
315.083	136.38
315.312	129.38
315.542	126.38
315.771	124.38
316.001	134.38
316.23	124.38
316.46	141.38
316.689	138.38
316.919	129.38
317.148	153.38
317.377	144.38
317.607	129.38
317.836	131.38
318.065	115.38
318.295	129.38
318.524	115.38
318.753	134.38
318.983	124.38
319.212	133.38
319.441	133.38
319.67	138.38
319.9	135.38
320.129	129.38
320.358	143.38
320.587	142.38
320.816	135.38
321.046	123.38
321.275	127.38
321.504	125.38
321.733	135.38
321.962	125.38
322.191	129.38
322.42	123.38
322.649	137.38
322.878	128.38
323.108	156.38
323.337	123.38
323.566	136.38
323.795	128.38
324.024	144.38
324.253	132.38
324.482	160.38
324.71	187.38
324.939	199.38
325.168	187.38
325.397	150.38
325.626	130.38
325.855	141.38
326.084	147.38
326.313	127.38
326.542	141.38
326.77	131.38
326.999	159.38
327.228	164.38
327.457	187.38
327.686	170.38
327.914	171.38
328.143	148.38
328.372	135.38
328.6	134.38
328.829	138.38
329.058	140.38
329.287	134.38
329.515	144.38
329.744	156.38
329.972	148.38
330.201	138.38
330.43	137.38
330.658	136.38
330.887	154.38
331.115	137.38
331.344	139.38
331.572	142.38
331.801	134.38
332.03	140.38
332.258	148.38
332.486	136.38
332.715	133.38
332.943	133.38
333.172	157.38
333.4	149.38
333.629	124.38
333.857	142.38
334.085	148.38
334.314	162.38
334.542	149.38
334.771	150.38
334.999	138.38
335.227	131.38
335.455	131.38
335.684	141.38
335.912	138.38
336.14	151.38
336.369	135.38
336.597	136.38
336.825	133.38
337.053	156.38
337.281	138.38
337.51	144.38
337.738	142.38
337.966	121.38
338.194	135.38
338.422	151.38
338.65	150.38
338.878	134.38
339.106	132.38
339.334	141.38
339.562	134.38
339.79	136.38
340.018	141.38
340.246	138.38
340.474	142.38
340.702	123.38
340.93	135.38
341.158	149.38
341.386	147.38
341.614	151.38
341.842	157.38
342.07	145.38
342.298	128.38
342.526	155.38
342.754	142.38
342.981	137.38
343.209	131.38
343.437	147.38
343.665	147.38
343.893	153.38
344.12	151.38
344.348	145.38
344.576	142.38
344.804	133.38
345.031	127.38
345.259	155.38
345.487	160.38
345.714	140.38
345.942	127.38
346.17	136.38
346.397	137.38
346.625	141.38
346.853	139.38
347.08	140.38
347.308	137.38
347.535	133.38
347.763	134.38
347.99	130.38
348.218	142.38
348.445	135.38
348.673	139.38
348.9	139.38
349.128	138.38
349.355	130.38
349.583	131.38
349.81	127.38
350.037	135.38
350.265	131.38
350.492	133.38
350.72	128.38
350.947	130.38
351.174	129.38
351.402	143.38
351.629	132.38
351.856	132.38
352.083	132.38
352.311	137.38
352.538	131.38
352.765	140.38
352.992	133.38
353.22	139.38
353.447	144.38
353.674	144.38
353.901	144.38
354.128	148.38
354.355	127.38
354.583	140.38
354.81	144.38
355.037	150.38
355.264	142.38
355.491	141.38
355.718	126.38
355.945	129.38
356.172	123.38
356.399	116.38
356.626	133.38
356.853	126.38
357.08	118.38
357.307	126.38
357.534	120.38
357.761	138.38
357.988	141.38
358.215	136.38
358.441	127.38
358.668	139.38
358.895	139.38
359.122	131.38
359.349	133.38
359.576	139.38
359.802	122.38
360.029	122.38
360.256	130.38
360.483	134.38
360.709	137.38
360.936	137.38
361.163	142.38
361.39	131.38
361.616	147.38
361.843	137.38
362.07	138.38
362.296	139.38
362.523	147.38
362.749	139.38
362.976	135.38
363.203	151.38
363.429	123.38
363.656	139.38
363.882	136.38
364.109	132.38
364.335	129.38
364.562	143.38
364.788	142.38
365.015	142.38
365.241	140.38
365.468	115.38
365.694	137.38
365.92	133.38
366.147	117.38
366.373	117.38
366.599	142.38
366.826	144.38
367.052	137.38
367.278	127.38
367.505	139.38
367.731	135.38
367.957	127.38
368.184	129.38
368.41	151.38
368.636	145.38
368.862	146.38
369.089	132.38
369.315	139.38
369.541	122.38
369.767	148.38
369.993	137.38
370.219	130.38
370.445	129.38
370.672	135.38
370.898	143.38
371.124	140.38
371.35	163.38
371.576	139.38
371.802	136.38
372.028	129.38
372.254	132.38
372.48	140.38
372.706	148.38
372.932	142.38
373.158	139.38
373.384	137.38
373.61	141.38
373.835	156.38
374.061	139.38
374.287	124.38
374.513	124.38
374.739	121.38
374.965	138.38
375.191	174.38
375.416	159.38
375.642	156.38
375.868	147.38
376.094	158.38
376.319	144.38
376.545	115.38
376.771	129.38
376.997	127.38
377.222	147.38
377.448	135.38
377.674	140.38
377.899	123.38
378.125	147.38
378.35	143.38
378.576	135.38
378.802	137.38
379.027	133.38
379.253	127.38
379.478	131.38
379.704	136.38
379.929	141.38
380.155	127.38
380.38	141.38
380.606	141.38
380.831	134.38
381.057	150.38
381.282	153.38
381.507	144.38
381.733	142.38
381.958	141.38
382.184	143.38
382.409	126.38
382.634	146.38
382.86	131.38
383.085	131.38
383.31	150.38
383.535	141.38
383.761	133.38
383.986	131.38
384.211	146.38
384.436	149.38
384.662	146.38
384.887	142.38
385.112	138.38
385.337	138.38
385.562	157.38
385.787	157.38
386.013	158.38
386.238	170.38
386.463	139.38
386.688	157.38
386.913	166.38
387.138	133.38
387.363	156.38
387.588	161.38
387.813	154.38
388.038	142.38
388.263	169.38
388.488	149.38
388.713	166.38
388.938	151.38
389.163	131.38
389.387	150.38
389.612	149.38
389.837	156.38
390.062	139.38
390.287	139.38
390.512	140.38
390.736	155.38
390.961	137.38
391.186	150.38
391.411	137.38
391.636	142.38
391.86	148.38
392.085	161.38
392.31	149.38
392.534	153.38
392.759	148.38
392.984	161.38
393.208	146.38
393.433	167.38
393.658	153.38
393.882	151.38
394.107	146.38
394.331	155.38
394.556	138.38
394.78	141.38
395.005	159.38
395.229	141.38
395.454	145.38
395.678	158.38
395.903	147.38
396.127	148.38
396.352	136.38
396.576	149.38
396.801	166.38
397.025	144.38
397.249	149.38
397.474	154.38
397.698	159.38
397.922	161.38
398.147	157.38
398.371	167.38
398.595	154.38
398.82	178.38
399.044	154.38
399.268	161.38
399.492	182.38
399.717	190.38
399.941	197.38
400.165	185.38
400.389	181.38
400.613	173.38
400.837	175.38
401.062	165.38
401.286	173.38
401.51	161.38
401.734	161.38
401.958	164.38
402.182	172.38
402.406	153.38
402.63	167.38
402.854	163.38
403.078	171.38
403.302	165.38
403.526	166.38
403.75	167.38
403.974	168.38
404.198	161.38
404.422	161.38
404.645	172.38
404.869	165.38
405.093	164.38
405.317	168.38
405.541	169.38
405.765	165.38
405.988	171.38
406.212	171.38
406.436	164.38
406.66	174.38
406.883	175.38
407.107	179.38
407.331	175.38
407.555	190.38
407.778	200.38
408.002	174.38
408.226	177.38
408.449	183.38
408.673	186.38
408.896	169.38
409.12	186.38
409.344	184.38
409.567	173.38
409.791	172.38
410.014	158.38
410.238	161.38
410.461	162.38
410.685	181.38
410.908	185.38
411.132	162.38
411.355	177.38
411.578	165.38
411.802	174.38
412.025	163.38
412.249	151.38
412.472	165.38
412.695	164.38
412.919	156.38
413.142	157.38
413.365	166.38
413.589	169.38
413.812	158.38
414.035	153.38
414.258	155.38
414.482	150.38
414.705	169.38
414.928	162.38
415.151	174.38
415.374	171.38
415.597	164.38
415.821	153.38
416.044	165.38
416.267	158.38
416.49	150.38
416.713	158.38
416.936	157.38
417.159	158.38
417.382	163.38
417.605	155.38
417.828	159.38
418.051	169.38
418.274	156.38
418.497	161.38
418.72	161.38
418.943	167.38
419.166	182.38
419.389	181.38
419.611	160.38
419.834	168.38
420.057	177.38
420.28	170.38
420.503	175.38
420.726	167.38
420.948	154.38
421.171	167.38
421.394	170.38
421.617	161.38
421.839	154.38
422.062	167.38
422.285	157.38
422.507	187.38
422.73	173.38
422.953	173.38
423.175	148.38
423.398	158.38
423.621	157.38
423.843	157.38
424.066	177.38
424.288	157.38
424.511	172.38
424.733	173.38
424.956	169.38
425.178	172.38
425.401	178.38
425.623	173.38
425.846	157.38
426.068	147.38
426.291	179.38
426.513	156.38
426.735	166.38
426.958	154.38
427.18	183.38
427.402	190.38
427.625	180.38
427.847	171.38
428.069	188.38
428.292	153.38
428.514	150.38
428.736	165.38
428.958	161.38
429.181	162.38
429.403	158.38
429.625	159.38
429.847	159.38
430.069	168.38
430.292	154.38
430.514	144.38
430.736	167.38
430.958	153.38
431.18	158.38
431.402	144.38
431.624	164.38
431.846	152.38
432.068	146.38
432.29	142.38
432.512	164.38
432.734	156.38
432.956	159.38
433.178	150.38
433.4	160.38
433.622	157.38
433.844	158.38
434.066	148.38
434.287	155.38
434.509	148.38
434.731	155.38
434.953	168.38
435.175	157.38
435.397	153.38
435.618	177.38
435.84	175.38
436.062	181.38
436.284	173.38
436.505	173.38
436.727	153.38
436.949	165.38
437.17	157.38
437.392	137.38
437.614	158.38
437.835	161.38
438.057	158.38
438.278	169.38
438.5	181.38
438.721	168.38
438.943	187.38
439.165	164.38
439.386	153.38
439.608	166.38
439.829	167.38
440.05	155.38
440.272	166.38
440.493	171.38
440.715	150.38
440.936	157.38
441.158	151.38
441.379	170.38
441.6	171.38
441.822	172.38
442.043	152.38
442.264	156.38
442.486	166.38
442.707	185.38
442.928	171.38
443.149	171.38
443.371	169.38
443.592	178.38
443.813	173.38
444.034	195.38
444.255	165.38
444.476	181.38
444.698	170.38
444.919	170.38
445.14	237.38
445.361	203.38
445.582	171.38
445.803	172.38
446.024	169.38
446.245	177.38
446.466	154.38
446.687	153.38
446.908	168.38
447.129	149.38
447.35	164.38
447.571	138.38
447.792	141.38
448.013	140.38
448.234	151.38
448.455	157.38
448.675	159.38
448.896	166.38
449.117	156.38
449.338	153.38
449.559	167.38
449.779	183.38
450	172.38
450.221	153.38
450.442	136.38
450.662	137.38
450.883	139.38
451.104	166.38
451.324	152.38
451.545	161.38
451.766	143.38
451.986	150.38
452.207	142.38
452.428	153.38
452.648	159.38
452.869	140.38
453.089	153.38
453.31	159.38
453.53	147.38
453.751	134.38
453.971	142.38
454.192	136.38
454.412	150.38
454.633	146.38
454.853	147.38
455.073	155.38
455.294	142.38
455.514	153.38
455.734	142.38
455.955	145.38
456.175	140.38
456.395	129.38
456.616	132.38
456.836	146.38
457.056	131.38
457.276	131.38
457.497	137.38
457.717	143.38
457.937	155.38
458.157	142.38
458.377	145.38
458.598	147.38
458.818	154.38
459.038	164.38
459.258	159.38
459.478	143.38
459.698	183.38
459.918	155.38
460.138	163.38
460.358	159.38
460.578	157.38
460.798	165.38
461.018	165.38
461.238	151.38
461.458	155.38
461.678	164.38
461.898	167.38
462.118	180.38
462.338	169.38
462.558	163.38
462.777	161.38
462.997	171.38
463.217	172.38
463.437	176.38
463.657	180.38
463.876	166.38
464.096	170.38
464.316	182.38
464.536	175.38
464.755	180.38
464.975	172.38
465.195	181.38
465.414	182.38
465.634	163.38
465.854	159.38
466.073	150.38
466.293	165.38
466.512	151.38
466.732	143.38
466.951	153.38
467.171	159.38
467.391	163.38
467.61	146.38
467.829	145.38
468.049	154.38
468.268	157.38
468.488	165.38
468.707	150.38
468.927	149.38
469.146	151.38
469.365	151.38
469.585	149.38
469.804	142.38
470.023	167.38
470.243	164.38
470.462	150.38
470.681	174.38
470.901	141.38
471.12	165.38
471.339	168.38
471.558	142.38
471.777	147.38
471.997	147.38
472.216	153.38
472.435	134.38
472.654	153.38
472.873	167.38
473.092	153.38
473.311	158.38
473.53	157.38
473.749	152.38
473.968	149.38
474.187	164.38
474.406	163.38
474.625	152.38
474.844	152.38
475.063	164.38
475.282	158.38
475.501	147.38
475.72	155.38
475.939	136.38
476.158	167.38
476.377	171.38
476.596	159.38
476.814	164.38
477.033	151.38
477.252	165.38
477.471	153.38
477.69	146.38
477.908	156.38
478.127	156.38
478.346	156.38
478.564	168.38
478.783	169.38
479.002	179.38
479.22	162.38
479.439	175.38
479.658	160.38
479.876	162.38
480.095	187.38
480.313	165.38
480.532	179.38
480.751	185.38
480.969	163.38
481.188	161.38
481.406	180.38
481.624	175.38
481.843	149.38
482.061	171.38
482.28	161.38
482.498	162.38
482.717	158.38
482.935	170.38
483.153	169.38
483.372	163.38
483.59	168.38
483.808	158.38
484.027	158.38
484.245	157.38
484.463	164.38
484.681	166.38
484.9	165.38
485.118	184.38
485.336	174.38
485.554	189.38
485.772	153.38
485.99	163.38
486.209	148.38
486.427	166.38
486.645	143.38
486.863	170.38
487.081	180.38
487.299	172.38
487.517	180.38
487.735	168.38
487.953	168.38
488.171	167.38
488.389	177.38
488.607	160.38
488.825	178.38
489.043	167.38
489.261	163.38
489.479	182.38
489.696	157.38
489.914	162.38
490.132	169.38
490.35	163.38
490.568	164.38
490.786	177.38
491.003	182.38
491.221	183.38
491.439	181.38
491.657	175.38
491.874	177.38
492.092	165.38
492.31	179.38
492.527	182.38
492.745	170.38
492.963	183.38
493.18	169.38
493.398	184.38
493.615	197.38
493.833	186.38
494.05	189.38
494.268	183.38
494.485	191.38
494.703	200.38
494.92	191.38
495.138	187.38
495.355	188.38
495.573	205.38
495.79	182.38
496.008	200.38
496.225	194.38
496.442	201.38
496.66	179.38
496.877	191.38
497.094	197.38
497.312	178.38
497.529	188.38
497.746	205.38
497.963	201.38
498.181	196.38
498.398	208.38
498.615	215.38
498.832	222.38
499.049	229.38
499.267	223.38
499.484	231.38
499.701	262.38
499.918	243.38
500.135	282.38
500.352	292.38
500.569	302.38
500.786	293.38
501.003	298.38
501.22	284.38
501.437	259.38
501.654	232.38
501.871	264.38
502.088	219.38
502.305	226.38
502.522	202.38
502.739	220.38
502.956	213.38
503.172	203.38
503.389	213.38
503.606	195.38
503.823	195.38
504.04	214.38
504.256	198.38
504.473	192.38
504.69	195.38
504.907	180.38
505.123	207.38
505.34	177.38
505.557	186.38
505.773	159.38
505.99	189.38
506.207	182.38
506.423	166.38
506.64	168.38
506.856	184.38
507.073	169.38
507.289	173.38
507.506	178.38
507.722	162.38
507.939	164.38
508.155	154.38
508.372	163.38
508.588	170.38
508.805	187.38
509.021	171.38
509.238	179.38
509.454	187.38
509.67	161.38
509.887	190.38
510.103	157.38
510.319	166.38
510.536	168.38
510.752	200.38
510.968	175.38
511.184	158.38
511.401	152.38
511.617	162.38
511.833	162.38
512.049	162.38
512.265	157.38
512.481	165.38
512.698	181.38
512.914	158.38
513.13	167.38
513.346	164.38
513.562	167.38
513.778	162.38
513.994	163.38
514.21	182.38
514.426	177.38
514.642	167.38
514.858	184.38
515.074	160.38
515.29	179.38
515.506	197.38
515.721	187.38
515.937	165.38
516.153	189.38
516.369	186.38
516.585	170.38
516.801	166.38
517.016	180.38
517.232	166.38
517.448	163.38
517.664	189.38
517.879	192.38
518.095	198.38
518.311	165.38
518.527	165.38
518.742	189.38
518.958	163.38
519.173	173.38
519.389	165.38
519.605	154.38
519.82	165.38
520.036	142.38
520.251	170.38
520.467	182.38
520.682	171.38
520.898	162.38
521.113	174.38
521.329	169.38
521.544	191.38
521.76	182.38
521.975	194.38
522.19	187.38
522.406	162.38
522.621	141.38
522.836	167.38
523.052	168.38
523.267	163.38
523.482	154.38
523.698	153.38
523.913	164.38
524.128	157.38
524.343	156.38
524.559	165.38
524.774	159.38
524.989	157.38
525.204	157.38
525.419	155.38
525.634	144.38
525.849	170.38
526.064	156.38
526.28	152.38
526.495	148.38
526.71	151.38
526.925	162.38
527.14	159.38
527.355	157.38
527.57	149.38
527.785	157.38
527.999	146.38
528.214	153.38
528.429	151.38
528.644	160.38
528.859	154.38
529.074	156.38
529.289	153.38
529.503	153.38
529.718	161.38
529.933	151.38
530.148	154.38
530.363	158.38
530.577	160.38
530.792	154.38
531.007	161.38
531.221	157.38
531.436	142.38
531.651	169.38
531.865	150.38
532.08	157.38
532.295	157.38
532.509	155.38
532.724	160.38
532.938	150.38
533.153	170.38
533.367	148.38
533.582	153.38
533.796	143.38
534.011	138.38
534.225	143.38
534.44	147.38
534.654	147.38
534.868	142.38
535.083	156.38
535.297	144.38
535.511	161.38
535.726	164.38
535.94	144.38
536.154	145.38
536.369	157.38
536.583	137.38
536.797	156.38
537.011	165.38
537.225	149.38
537.44	148.38
537.654	151.38
537.868	148.38
538.082	150.38
538.296	152.38
538.51	157.38
538.724	151.38
538.938	141.38
539.153	147.38
539.367	143.38
539.581	141.38
539.795	138.38
540.009	163.38
540.222	153.38
540.436	150.38
540.65	157.38
540.864	150.38
541.078	163.38
541.292	153.38
541.506	138.38
541.72	142.38
541.934	158.38
542.147	156.38
542.361	148.38
542.575	151.38
542.789	147.38
543.002	158.38
543.216	150.38
543.43	138.38
543.644	153.38
543.857	164.38
544.071	159.38
544.285	180.38
544.498	159.38
544.712	144.38
544.925	156.38
545.139	152.38
545.352	154.38
545.566	143.38
545.779	157.38
545.993	152.38
546.206	164.38
546.42	153.38
546.633	163.38
546.847	162.38
547.06	156.38
547.274	161.38
547.487	155.38
547.7	156.38
547.914	148.38
548.127	171.38
548.34	152.38
548.554	148.38
548.767	154.38
548.98	155.38
549.193	160.38
549.407	137.38
549.62	158.38
549.833	149.38
550.046	136.38
550.259	148.38
550.473	166.38
550.686	142.38
550.899	150.38
551.112	156.38
551.325	157.38
551.538	149.38
551.751	155.38
551.964	148.38
552.177	151.38
552.39	155.38
552.603	146.38
552.816	143.38
553.029	139.38
553.242	166.38
553.455	157.38
553.667	156.38
553.88	172.38
554.093	163.38
554.306	165.38
554.519	141.38
554.732	147.38
554.944	153.38
555.157	143.38
555.37	155.38
555.583	153.38
555.795	138.38
556.008	145.38
556.221	163.38
556.433	156.38
556.646	149.38
556.859	129.38
557.071	143.38
557.284	155.38
557.496	138.38
557.709	149.38
557.921	147.38
558.134	130.38
558.346	146.38
558.559	157.38
558.771	144.38
558.984	144.38
559.196	142.38
559.409	151.38
559.621	137.38
559.833	124.38
560.046	135.38
560.258	130.38
560.47	148.38
560.683	133.38
560.895	150.38
561.107	141.38
561.32	134.38
561.532	147.38
561.744	135.38
561.956	140.38
562.168	143.38
562.381	146.38
562.593	131.38
562.805	145.38
563.017	149.38
563.229	130.38
563.441	155.38
563.653	139.38
563.865	135.38
564.077	138.38
564.289	150.38
564.501	144.38
564.713	157.38
564.925	143.38
565.137	158.38
565.349	149.38
565.561	145.38
565.773	155.38
565.985	157.38
566.197	166.38
566.408	145.38
566.62	170.38
566.832	171.38
567.044	180.38
567.255	164.38
567.467	168.38
567.679	171.38
567.891	190.38
568.102	174.38
568.314	182.38
568.526	174.38
568.737	167.38
568.949	167.38
569.161	161.38
569.372	163.38
569.584	162.38
569.795	164.38
570.007	143.38
570.218	134.38
570.43	139.38
570.641	133.38
570.853	133.38
571.064	137.38
571.276	146.38
571.487	142.38
571.698	149.38
571.91	137.38
572.121	135.38
572.333	125.38
572.544	143.38
572.755	143.38
572.966	143.38
573.178	154.38
573.389	143.38
573.6	120.38
573.811	113.38
574.023	129.38
574.234	140.38
574.445	141.38
574.656	130.38
574.867	133.38
575.078	130.38
575.289	121.38
575.501	133.38
575.712	124.38
575.923	122.38
576.134	146.38
576.345	140.38
576.556	125.38
576.767	133.38
576.978	135.38
577.188	129.38
577.399	130.38
577.61	143.38
577.821	131.38
578.032	139.38
578.243	149.38
578.454	135.38
578.665	141.38
578.875	119.38
579.086	130.38
579.297	119.38
579.508	125.38
579.718	132.38
579.929	137.38
580.14	110.38
580.35	118.38
580.561	126.38
580.772	129.38
580.982	132.38
581.193	135.38
581.403	116.38
581.614	129.38
581.825	139.38
582.035	131.38
582.246	131.38
582.456	120.38
582.667	125.38
582.877	118.38
583.087	123.38
583.298	128.38
583.508	118.38
583.719	120.38
583.929	132.38
584.139	123.38
584.35	134.38
584.56	141.38
584.77	121.38
584.981	111.38
585.191	125.38
585.401	130.38
585.611	146.38
585.821	138.38
586.032	126.38
586.242	136.38
586.452	129.38
586.662	116.38
586.872	135.38
587.082	142.38
587.292	120.38
587.502	114.38
587.713	117.38
587.923	126.38
588.133	113.38
588.343	116.38
588.553	103.38
588.762	129.38
588.972	128.38
589.182	139.38
589.392	135.38
589.602	135.38
589.812	116.38
590.022	142.38
590.232	121.38
590.441	126.38
590.651	118.38
590.861	137.38
591.071	121.38
591.281	119.38
591.49	131.38
591.7	128.38
591.91	133.38
592.119	142.38
592.329	132.38
592.539	126.38
592.748	124.38
592.958	132.38
593.167	121.38
593.377	142.38
593.587	143.38
593.796	144.38
594.006	137.38
594.215	146.38
594.424	125.38
594.634	133.38
594.843	124.38
595.053	140.38
595.262	133.38
595.472	134.38
595.681	116.38
595.89	136.38
596.1	129.38
596.309	132.38
596.518	126.38
596.727	127.38
596.937	120.38
597.146	116.38
597.355	120.38
597.564	122.38
597.774	124.38
597.983	128.38
598.192	132.38
598.401	113.38
598.61	109.38
598.819	114.38
599.028	133.38
599.237	122.38
599.446	132.38
599.655	122.38
599.864	123.38
600.073	124.38
600.282	123.38
600.491	113.38
600.7	120.38
600.909	125.38
601.118	113.38
601.327	125.38
601.536	126.38
601.745	130.38
601.953	132.38
602.162	116.38
602.371	114.38
602.58	114.38
602.789	115.38
602.997	126.38
603.206	119.38
603.415	114.38
603.623	116.38
603.832	117.38
604.041	120.38
604.249	130.38
604.458	109.38
604.666	111.38
604.875	123.38
605.084	110.38
605.292	112.38
605.501	117.38
605.709	109.38
605.918	113.38
606.126	108.38
606.334	128.38
606.543	125.38
606.751	123.38
606.96	118.38
607.168	104.38
607.376	123.38
607.585	126.38
607.793	107.38
608.001	112.38
608.21	121.38
608.418	115.38
608.626	113.38
608.834	117.38
609.043	119.38
609.251	116.38
609.459	125.38
609.667	126.38
609.875	123.38
610.083	104.38
610.291	113.38
610.499	119.38
610.707	121.38
610.916	110.38
611.124	123.38
611.332	112.38
611.54	121.38
611.748	121.38
611.955	122.38
612.163	122.38
612.371	121.38
612.579	124.38
612.787	128.38
612.995	118.38
613.203	133.38
613.411	115.38
613.618	120.38
613.826	124.38
614.034	111.38
614.242	116.38
614.449	119.38
614.657	127.38
614.865	115.38
615.072	117.38
615.28	115.38
615.488	115.38
615.695	134.38
615.903	122.38
616.111	115.38
616.318	116.38
616.526	114.38
616.733	127.38
616.941	127.38
617.148	110.38
617.356	106.38
617.563	117.38
617.771	117.38
617.978	104.38
618.185	125.38
618.393	114.38
618.6	118.38
618.807	121.38
619.015	127.38
619.222	111.38
619.429	119.38
619.637	120.38
619.844	111.38
620.051	122.38
620.258	108.38
620.466	118.38
620.673	122.38
620.88	131.38
621.087	129.38
621.294	115.38
621.501	106.38
621.708	119.38
621.915	115.38
622.122	114.38
622.329	111.38
622.536	111.38
622.743	110.38
622.95	114.38
623.157	105.38
623.364	97.38
623.571	117.38
623.778	120.38
623.985	108.38
624.192	119.38
624.399	119.38
624.606	117.38
624.812	108.38
625.019	109.38
625.226	100.38
625.433	104.38
625.639	107.38
625.846	117.38
626.053	110.38
626.259	104.38
626.466	102.38
626.673	98.38
626.879	121.38
627.086	120.38
627.293	108.38
627.499	130.38
627.706	136.38
627.912	125.38
628.119	102.38
628.325	121.38
628.532	126.38
628.738	120.38
628.945	121.38
629.151	107.38
629.357	115.38
629.564	113.38
629.77	103.38
629.976	106.38
630.183	106.38
630.389	109.38
630.595	119.38
630.802	119.38
631.008	109.38
631.214	108.38
631.42	117.38
631.627	117.38
631.833	111.38
632.039	100.38
632.245	102.38
632.451	104.38
632.657	108.38
632.863	114.38
633.069	118.38
633.275	110.38
633.481	111.38
633.688	98.38
633.893	99.38
634.099	115.38
634.305	108.38
634.511	97.38
634.717	109.38
634.923	94.38
635.129	99.38
635.335	119.38
635.541	114.38
635.747	115.38
635.952	114.38
636.158	100.38
636.364	102.38
636.57	102.38
636.775	117.38
636.981	119.38
637.187	109.38
637.392	103.38
637.598	110.38
637.804	116.38
638.009	123.38
638.215	98.38
638.421	107.38
638.626	116.38
638.832	108.38
639.037	104.38
639.243	99.38
639.448	105.38
639.654	107.38
639.859	97.38
640.065	111.38
640.27	105.38
640.475	88.38
640.681	110.38
640.886	106.38
641.091	108.38
641.297	109.38
641.502	98.38
641.707	94.38
641.913	103.38
642.118	96.38
642.323	105.38
642.528	113.38
642.733	103.38
642.939	105.38
643.144	110.38
643.349	104.38
643.554	115.38
643.759	105.38
643.964	99.38
644.169	101.38
644.374	113.38
644.579	110.38
644.784	113.38
644.989	100.38
645.194	101.38
645.399	91.38
645.604	94.38
645.809	105.38
646.014	96.38
646.219	99.38
646.423	100.38
646.628	106.38
646.833	91.38
647.038	102.38
647.243	121.38
647.447	109.38
647.652	104.38
647.857	97.38
648.062	104.38
648.266	109.38
648.471	98.38
648.676	96.38
648.88	99.38
649.085	111.38
649.289	108.38
649.494	108.38
649.698	109.38
649.903	102.38
650.107	87.38
650.312	105.38
650.516	106.38
650.721	99.38
650.925	102.38
651.13	116.38
651.334	91.38
651.539	104.38
651.743	102.38
651.947	108.38
652.152	95.38
652.356	105.38
652.56	117.38
652.764	92.38
652.969	113.38
653.173	113.38
653.377	103.38
653.581	109.38
653.785	104.38
653.99	105.38
654.194	97.38
654.398	100.38
654.602	109.38
654.806	95.38
655.01	105.38
655.214	101.38
655.418	99.38
655.622	98.38
655.826	105.38
656.03	98.38
656.234	99.38
656.438	106.38
656.642	105.38
656.846	110.38
657.049	103.38
657.253	92.38
657.457	97.38
657.661	91.38
657.865	89.38
658.068	93.38
658.272	101.38
658.476	99.38
658.68	97.38
658.883	88.38
659.087	88.38
659.291	93.38
659.494	85.38
659.698	83.38
659.901	83.38
660.105	79.38
660.309	84.38
660.512	84.38
660.716	93.38
660.919	94.38
661.123	91.38
661.326	87.38
661.53	91.38
661.733	102.38
661.936	80.38
662.14	74.38
662.343	94.38
662.546	88.38
662.75	101.38
662.953	85.38
663.156	90.38
663.36	87.38
663.563	96.38
663.766	83.38
663.969	89.38
664.173	73.38
664.376	82.38
664.579	82.38
664.782	91.38
664.985	101.38
665.188	92.38
665.391	83.38
665.594	91.38
665.797	86.38
666	81.38
666.203	81.38
666.406	77.38
666.609	102.38
666.812	84.38
667.015	78.38
667.218	84.38
667.421	76.38
667.624	81.38
667.827	73.38
668.03	77.38
668.232	87.38
668.435	73.38
668.638	87.38
668.841	92.38
669.043	78.38
669.246	82.38
669.449	79.38
669.651	93.38
669.854	76.38
670.057	83.38
670.259	91.38
670.462	93.38
670.665	90.38
670.867	81.38
671.07	90.38
671.272	85.38
671.475	80.38
671.677	95.38
671.88	76.38
672.082	88.38
672.284	88.38
672.487	82.38
672.689	82.38
672.892	94.38
