Data from 1977.PennyLincolnUp.Lamp.En5.5.200Scan.071719.P1_HRD10591_16-06-01-864.txt Node
Date: Thu Jul 18 16:06:01 EDT 2019
User: cochatt
Spectrometer: HR+D1059
Trigger mode: 1
Integration Time (sec): 1.000000E-1
Scans to average: 1
Electric dark correction enabled: true
Nonlinearity correction enabled: false
Boxcar width: 0
XAxis mode: Wavelengths
Number of Pixels in Spectrum: 2048
>>>>>Begin Spectral Data<<<<<
223.165	-19.31
223.4	-19.31
223.635	-19.31
223.869	-18.31
224.104	-9.31
224.338	-6.31
224.573	-18.31
224.808	-12.31
225.042	-11.31
225.277	-15.31
225.511	1.69
225.746	7.69
225.98	-14.31
226.215	-2.31
226.449	17.69
226.683	26.69
226.918	33.69
227.152	39.69
227.387	36.69
227.621	31.69
227.856	40.69
228.09	40.69
228.324	49.69
228.559	58.69
228.793	60.69
229.027	85.69
229.262	100.69
229.496	109.69
229.73	104.69
229.964	129.69
230.199	107.69
230.433	105.69
230.667	109.69
230.901	98.69
231.136	117.69
231.37	107.69
231.604	111.69
231.838	97.69
232.072	111.69
232.306	106.69
232.541	96.69
232.775	107.69
233.009	110.69
233.243	105.69
233.477	100.69
233.711	113.69
233.945	95.69
234.179	116.69
234.413	113.69
234.647	107.69
234.881	115.69
235.115	117.69
235.349	108.69
235.583	97.69
235.817	101.69
236.051	121.69
236.285	118.69
236.519	123.69
236.753	123.69
236.987	139.69
237.221	149.69
237.455	188.69
237.689	151.69
237.922	133.69
238.156	124.69
238.39	129.69
238.624	119.69
238.858	117.69
239.091	111.69
239.325	101.69
239.559	108.69
239.793	117.69
240.027	134.69
240.26	122.69
240.494	151.69
240.728	131.69
240.961	138.69
241.195	131.69
241.429	124.69
241.662	131.69
241.896	118.69
242.13	118.69
242.363	136.69
242.597	134.69
242.83	133.69
243.064	133.69
243.298	122.69
243.531	111.69
243.765	135.69
243.998	139.69
244.232	135.69
244.465	126.69
244.699	145.69
244.932	127.69
245.166	143.69
245.399	129.69
245.633	133.69
245.866	141.69
246.099	141.69
246.333	144.69
246.566	144.69
246.8	134.69
247.033	151.69
247.266	137.69
247.5	169.69
247.733	157.69
247.966	153.69
248.2	161.69
248.433	167.69
248.666	166.69
248.899	172.69
249.133	176.69
249.366	191.69
249.599	180.69
249.832	161.69
250.066	163.69
250.299	188.69
250.532	187.69
250.765	196.69
250.998	204.69
251.231	205.69
251.465	200.69
251.698	181.69
251.931	193.69
252.164	188.69
252.397	180.69
252.63	177.69
252.863	196.69
253.096	191.69
253.329	208.69
253.562	203.69
253.795	216.69
254.028	184.69
254.261	216.69
254.494	226.69
254.727	215.69
254.96	249.69
255.193	236.69
255.426	224.69
255.659	194.69
255.892	208.69
256.124	209.69
256.357	212.69
256.59	216.69
256.823	210.69
257.056	202.69
257.289	201.69
257.521	192.69
257.754	200.69
257.987	224.69
258.22	211.69
258.452	197.69
258.685	195.69
258.918	202.69
259.151	205.69
259.383	205.69
259.616	213.69
259.849	221.69
260.081	226.69
260.314	227.69
260.547	232.69
260.779	220.69
261.012	227.69
261.244	217.69
261.477	215.69
261.71	205.69
261.942	219.69
262.175	213.69
262.407	223.69
262.64	216.69
262.872	213.69
263.105	219.69
263.337	213.69
263.57	202.69
263.802	234.69
264.035	213.69
264.267	213.69
264.499	194.69
264.732	205.69
264.964	206.69
265.197	197.69
265.429	205.69
265.661	216.69
265.894	216.69
266.126	215.69
266.358	216.69
266.591	226.69
266.823	231.69
267.055	223.69
267.287	220.69
267.52	234.69
267.752	231.69
267.984	217.69
268.216	226.69
268.448	234.69
268.681	256.69
268.913	243.69
269.145	240.69
269.377	268.69
269.609	262.69
269.841	265.69
270.073	263.69
270.306	278.69
270.538	284.69
270.77	292.69
271.002	298.69
271.234	261.69
271.466	275.69
271.698	280.69
271.93	299.69
272.162	305.69
272.394	305.69
272.626	291.69
272.858	283.69
273.09	267.69
273.322	266.69
273.553	273.69
273.785	291.69
274.017	268.69
274.249	254.69
274.481	278.69
274.713	263.69
274.945	260.69
275.176	264.69
275.408	277.69
275.64	248.69
275.872	252.69
276.104	254.69
276.335	259.69
276.567	272.69
276.799	275.69
277.031	297.69
277.262	303.69
277.494	310.69
277.726	280.69
277.957	309.69
278.189	289.69
278.421	286.69
278.652	275.69
278.884	281.69
279.115	282.69
279.347	269.69
279.579	264.69
279.81	267.69
280.042	280.69
280.273	267.69
280.505	281.69
280.736	273.69
280.968	265.69
281.199	268.69
281.431	276.69
281.662	280.69
281.894	277.69
282.125	269.69
282.356	266.69
282.588	304.69
282.819	299.69
283.051	281.69
283.282	283.69
283.513	276.69
283.745	288.69
283.976	279.69
284.207	269.69
284.439	260.69
284.67	280.69
284.901	280.69
285.132	279.69
285.364	294.69
285.595	288.69
285.826	290.69
286.057	296.69
286.288	293.69
286.52	295.69
286.751	285.69
286.982	278.69
287.213	295.69
287.444	289.69
287.675	311.69
287.906	298.69
288.138	280.69
288.369	310.69
288.6	307.69
288.831	305.69
289.062	301.69
289.293	309.69
289.524	307.69
289.755	286.69
289.986	294.69
290.217	282.69
290.448	288.69
290.679	281.69
290.91	305.69
291.141	300.69
291.371	289.69
291.602	313.69
291.833	298.69
292.064	299.69
292.295	304.69
292.526	297.69
292.757	299.69
292.987	281.69
293.218	293.69
293.449	292.69
293.68	304.69
293.91	301.69
294.141	300.69
294.372	295.69
294.603	293.69
294.833	308.69
295.064	296.69
295.295	313.69
295.525	299.69
295.756	270.69
295.987	313.69
296.217	322.69
296.448	324.69
296.679	306.69
296.909	311.69
297.14	318.69
297.37	316.69
297.601	315.69
297.831	290.69
298.062	307.69
298.292	298.69
298.523	310.69
298.753	339.69
298.984	331.69
299.214	314.69
299.445	315.69
299.675	317.69
299.905	336.69
300.136	328.69
300.366	309.69
300.597	324.69
300.827	342.69
301.057	313.69
301.288	333.69
301.518	330.69
301.748	327.69
301.979	333.69
302.209	331.69
302.439	347.69
302.669	333.69
302.9	332.69
303.13	328.69
303.36	324.69
303.59	340.69
303.82	322.69
304.051	333.69
304.281	336.69
304.511	352.69
304.741	345.69
304.971	337.69
305.201	343.69
305.431	335.69
305.661	331.69
305.891	348.69
306.121	316.69
306.352	342.69
306.582	329.69
306.812	349.69
307.042	345.69
307.272	328.69
307.502	341.69
307.731	348.69
307.961	356.69
308.191	353.69
308.421	341.69
308.651	343.69
308.881	349.69
309.111	360.69
309.341	344.69
309.571	353.69
309.8	359.69
310.03	356.69
310.26	352.69
310.49	345.69
310.72	374.69
310.949	383.69
311.179	369.69
311.409	387.69
311.639	362.69
311.868	360.69
312.098	382.69
312.328	386.69
312.557	393.69
312.787	359.69
313.017	379.69
313.246	369.69
313.476	392.69
313.706	378.69
313.935	386.69
314.165	415.69
314.394	376.69
314.624	398.69
314.853	383.69
315.083	390.69
315.312	370.69
315.542	385.69
315.771	393.69
316.001	390.69
316.23	370.69
316.46	360.69
316.689	373.69
316.919	387.69
317.148	386.69
317.377	394.69
317.607	385.69
317.836	388.69
318.065	384.69
318.295	376.69
318.524	368.69
318.753	394.69
318.983	359.69
319.212	371.69
319.441	387.69
319.67	386.69
319.9	377.69
320.129	394.69
320.358	396.69
320.587	386.69
320.816	387.69
321.046	393.69
321.275	416.69
321.504	383.69
321.733	401.69
321.962	407.69
322.191	418.69
322.42	395.69
322.649	415.69
322.878	413.69
323.108	443.69
323.337	437.69
323.566	464.69
323.795	465.69
324.024	515.69
324.253	601.69
324.482	793.69
324.71	1175.69
324.939	1594.69
325.168	1341.69
325.397	744.69
325.626	545.69
325.855	501.69
326.084	458.69
326.313	458.69
326.542	433.69
326.77	488.69
326.999	580.69
327.228	726.69
327.457	1053.69
327.686	1183.69
327.914	832.69
328.143	585.69
328.372	529.69
328.6	519.69
328.829	483.69
329.058	497.69
329.287	499.69
329.515	500.69
329.744	469.69
329.972	449.69
330.201	467.69
330.43	508.69
330.658	505.69
330.887	532.69
331.115	521.69
331.344	477.69
331.572	456.69
331.801	483.69
332.03	469.69
332.258	460.69
332.486	443.69
332.715	434.69
332.943	470.69
333.172	462.69
333.4	442.69
333.629	463.69
333.857	478.69
334.085	474.69
334.314	477.69
334.542	484.69
334.771	504.69
334.999	490.69
335.227	451.69
335.455	458.69
335.684	459.69
335.912	441.69
336.14	427.69
336.369	435.69
336.597	469.69
336.825	451.69
337.053	441.69
337.281	441.69
337.51	437.69
337.738	436.69
337.966	432.69
338.194	431.69
338.422	440.69
338.65	435.69
338.878	414.69
339.106	407.69
339.334	426.69
339.562	408.69
339.79	437.69
340.018	441.69
340.246	422.69
340.474	426.69
340.702	434.69
340.93	409.69
341.158	404.69
341.386	431.69
341.614	440.69
341.842	415.69
342.07	424.69
342.298	425.69
342.526	414.69
342.754	408.69
342.981	409.69
343.209	411.69
343.437	417.69
343.665	438.69
343.893	444.69
344.12	449.69
344.348	441.69
344.576	443.69
344.804	431.69
345.031	441.69
345.259	441.69
345.487	430.69
345.714	425.69
345.942	437.69
346.17	404.69
346.397	399.69
346.625	399.69
346.853	410.69
347.08	413.69
347.308	421.69
347.535	420.69
347.763	413.69
347.99	411.69
348.218	400.69
348.445	432.69
348.673	413.69
348.9	405.69
349.128	408.69
349.355	384.69
349.583	395.69
349.81	401.69
350.037	385.69
350.265	381.69
350.492	393.69
350.72	387.69
350.947	389.69
351.174	403.69
351.402	396.69
351.629	399.69
351.856	391.69
352.083	402.69
352.311	407.69
352.538	394.69
352.765	413.69
352.992	381.69
353.22	401.69
353.447	397.69
353.674	385.69
353.901	381.69
354.128	396.69
354.355	383.69
354.583	387.69
354.81	375.69
355.037	393.69
355.264	395.69
355.491	370.69
355.718	380.69
355.945	377.69
356.172	388.69
356.399	354.69
356.626	367.69
356.853	375.69
357.08	383.69
357.307	371.69
357.534	387.69
357.761	373.69
357.988	388.69
358.215	376.69
358.441	377.69
358.668	378.69
358.895	379.69
359.122	403.69
359.349	377.69
359.576	398.69
359.802	397.69
360.029	401.69
360.256	427.69
360.483	391.69
360.709	369.69
360.936	385.69
361.163	391.69
361.39	393.69
361.616	385.69
361.843	387.69
362.07	392.69
362.296	401.69
362.523	379.69
362.749	395.69
362.976	395.69
363.203	388.69
363.429	388.69
363.656	382.69
363.882	381.69
364.109	393.69
364.335	371.69
364.562	354.69
364.788	373.69
365.015	367.69
365.241	387.69
365.468	384.69
365.694	381.69
365.92	380.69
366.147	373.69
366.373	354.69
366.599	391.69
366.826	375.69
367.052	364.69
367.278	360.69
367.505	345.69
367.731	384.69
367.957	374.69
368.184	375.69
368.41	376.69
368.636	395.69
368.862	395.69
369.089	383.69
369.315	377.69
369.541	371.69
369.767	369.69
369.993	399.69
370.219	369.69
370.445	367.69
370.672	389.69
370.898	376.69
371.124	387.69
371.35	388.69
371.576	371.69
371.802	378.69
372.028	375.69
372.254	370.69
372.48	378.69
372.706	369.69
372.932	399.69
373.158	380.69
373.384	394.69
373.61	377.69
373.835	386.69
374.061	377.69
374.287	387.69
374.513	384.69
374.739	394.69
374.965	373.69
375.191	385.69
375.416	387.69
375.642	386.69
375.868	388.69
376.094	376.69
376.319	385.69
376.545	371.69
376.771	388.69
376.997	369.69
377.222	386.69
377.448	375.69
377.674	382.69
377.899	389.69
378.125	347.69
378.35	350.69
378.576	356.69
378.802	376.69
379.027	372.69
379.253	353.69
379.478	379.69
379.704	360.69
379.929	393.69
380.155	371.69
380.38	365.69
380.606	379.69
380.831	371.69
381.057	371.69
381.282	385.69
381.507	360.69
381.733	383.69
381.958	357.69
382.184	395.69
382.409	379.69
382.634	372.69
382.86	376.69
383.085	387.69
383.31	401.69
383.535	393.69
383.761	397.69
383.986	395.69
384.211	394.69
384.436	384.69
384.662	407.69
384.887	395.69
385.112	415.69
385.337	399.69
385.562	403.69
385.787	402.69
386.013	416.69
386.238	423.69
386.463	437.69
386.688	407.69
386.913	401.69
387.138	417.69
387.363	394.69
387.588	416.69
387.813	401.69
388.038	393.69
388.263	409.69
388.488	405.69
388.713	406.69
388.938	426.69
389.163	436.69
389.387	417.69
389.612	396.69
389.837	418.69
390.062	394.69
390.287	404.69
390.512	407.69
390.736	391.69
390.961	422.69
391.186	391.69
391.411	424.69
391.636	411.69
391.86	433.69
392.085	428.69
392.31	417.69
392.534	411.69
392.759	401.69
392.984	417.69
393.208	404.69
393.433	419.69
393.658	405.69
393.882	421.69
394.107	395.69
394.331	421.69
394.556	397.69
394.78	409.69
395.005	413.69
395.229	420.69
395.454	412.69
395.678	413.69
395.903	439.69
396.127	455.69
396.352	441.69
396.576	433.69
396.801	441.69
397.025	444.69
397.249	445.69
397.474	423.69
397.698	456.69
397.922	457.69
398.147	464.69
398.371	467.69
398.595	444.69
398.82	462.69
399.044	475.69
399.268	501.69
399.492	537.69
399.717	578.69
399.941	588.69
400.165	591.69
400.389	588.69
400.613	537.69
400.837	519.69
401.062	484.69
401.286	469.69
401.51	471.69
401.734	487.69
401.958	498.69
402.182	472.69
402.406	475.69
402.63	459.69
402.854	482.69
403.078	469.69
403.302	490.69
403.526	498.69
403.75	482.69
403.974	491.69
404.198	493.69
404.422	506.69
404.645	486.69
404.869	493.69
405.093	513.69
405.317	571.69
405.541	556.69
405.765	526.69
405.988	503.69
406.212	526.69
406.436	517.69
406.66	531.69
406.883	536.69
407.107	563.69
407.331	580.69
407.555	585.69
407.778	611.69
408.002	576.69
408.226	549.69
408.449	546.69
408.673	522.69
408.896	545.69
409.12	589.69
409.344	526.69
409.567	496.69
409.791	483.69
410.014	504.69
410.238	490.69
410.461	500.69
410.685	483.69
410.908	497.69
411.132	515.69
411.355	544.69
411.578	511.69
411.802	483.69
412.025	487.69
412.249	496.69
412.472	489.69
412.695	543.69
412.919	524.69
413.142	472.69
413.365	444.69
413.589	476.69
413.812	472.69
414.035	432.69
414.258	469.69
414.482	467.69
414.705	451.69
414.928	473.69
415.151	455.69
415.374	441.69
415.597	453.69
415.821	443.69
416.044	450.69
416.267	452.69
416.49	437.69
416.713	452.69
416.936	443.69
417.159	462.69
417.382	460.69
417.605	450.69
417.828	448.69
418.051	471.69
418.274	474.69
418.497	467.69
418.72	448.69
418.943	428.69
419.166	454.69
419.389	493.69
419.611	486.69
419.834	482.69
420.057	473.69
420.28	455.69
420.503	471.69
420.726	479.69
420.948	472.69
421.171	509.69
421.394	521.69
421.617	473.69
421.839	457.69
422.062	474.69
422.285	477.69
422.507	524.69
422.73	569.69
422.953	569.69
423.175	502.69
423.398	486.69
423.621	501.69
423.843	505.69
424.066	523.69
424.288	486.69
424.511	529.69
424.733	523.69
424.956	589.69
425.178	576.69
425.401	569.69
425.623	610.69
425.846	535.69
426.068	479.69
426.291	506.69
426.513	467.69
426.735	473.69
426.958	546.69
427.18	583.69
427.402	689.69
427.625	774.69
427.847	641.69
428.069	527.69
428.292	516.69
428.514	471.69
428.736	471.69
428.958	455.69
429.181	447.69
429.403	437.69
429.625	457.69
429.847	489.69
430.069	525.69
430.292	521.69
430.514	468.69
430.736	434.69
430.958	428.69
431.18	443.69
431.402	441.69
431.624	413.69
431.846	411.69
432.068	397.69
432.29	413.69
432.512	437.69
432.734	439.69
432.956	432.69
433.178	444.69
433.4	429.69
433.622	446.69
433.844	437.69
434.066	427.69
434.287	445.69
434.509	428.69
434.731	451.69
434.953	460.69
435.175	459.69
435.397	468.69
435.618	479.69
435.84	523.69
436.062	582.69
436.284	618.69
436.505	526.69
436.727	484.69
436.949	459.69
437.17	442.69
437.392	451.69
437.614	466.69
437.835	468.69
438.057	538.69
438.278	611.69
438.5	629.69
438.721	663.69
438.943	667.69
439.165	536.69
439.386	470.69
439.608	467.69
439.829	490.69
440.05	489.69
440.272	538.69
440.493	503.69
440.715	460.69
440.936	463.69
441.158	459.69
441.379	457.69
441.6	468.69
441.822	457.69
442.043	505.69
442.264	557.69
442.486	615.69
442.707	519.69
442.928	498.69
443.149	498.69
443.371	530.69
443.592	543.69
443.813	607.69
444.034	672.69
444.255	566.69
444.476	516.69
444.698	486.69
444.919	491.69
445.14	596.69
445.361	556.69
445.582	522.69
445.803	560.69
446.024	633.69
446.245	649.69
446.466	567.69
446.687	509.69
446.908	477.69
447.129	447.69
447.35	426.69
447.571	418.69
447.792	408.69
448.013	425.69
448.234	450.69
448.455	511.69
448.675	595.69
448.896	669.69
449.117	564.69
449.338	528.69
449.559	638.69
449.779	706.69
450	575.69
450.221	466.69
450.442	432.69
450.662	435.69
450.883	435.69
451.104	444.69
451.324	414.69
451.545	415.69
451.766	415.69
451.986	398.69
452.207	383.69
452.428	387.69
452.648	383.69
452.869	385.69
453.089	388.69
453.31	395.69
453.53	379.69
453.751	397.69
453.971	390.69
454.192	409.69
454.412	411.69
454.633	409.69
454.853	378.69
455.073	388.69
455.294	403.69
455.514	463.69
455.734	447.69
455.955	399.69
456.175	387.69
456.395	377.69
456.616	360.69
456.836	391.69
457.056	385.69
457.276	362.69
457.497	371.69
457.717	371.69
457.937	378.69
458.157	395.69
458.377	378.69
458.598	406.69
458.818	436.69
459.038	496.69
459.258	538.69
459.478	463.69
459.698	402.69
459.918	425.69
460.138	411.69
460.358	427.69
460.578	429.69
460.798	448.69
461.018	441.69
461.238	466.69
461.458	439.69
461.678	433.69
461.898	451.69
462.118	439.69
462.338	456.69
462.558	450.69
462.777	477.69
462.997	470.69
463.217	488.69
463.437	493.69
463.657	496.69
463.876	478.69
464.096	466.69
464.316	489.69
464.536	480.69
464.755	479.69
464.975	471.69
465.195	481.69
465.414	514.69
465.634	472.69
465.854	418.69
466.073	419.69
466.293	426.69
466.512	408.69
466.732	407.69
466.951	408.69
467.171	393.69
467.391	416.69
467.61	428.69
467.829	419.69
468.049	413.69
468.268	410.69
468.488	376.69
468.707	385.69
468.927	395.69
469.146	419.69
469.365	379.69
469.585	387.69
469.804	411.69
470.023	398.69
470.243	401.69
470.462	425.69
470.681	426.69
470.901	426.69
471.12	420.69
471.339	404.69
471.558	412.69
471.777	402.69
471.997	403.69
472.216	408.69
472.435	397.69
472.654	407.69
472.873	425.69
473.092	392.69
473.311	427.69
473.53	407.69
473.749	419.69
473.968	431.69
474.187	511.69
474.406	546.69
474.625	458.69
474.844	443.69
475.063	416.69
475.282	393.69
475.501	399.69
475.72	418.69
475.939	419.69
476.158	404.69
476.377	423.69
476.596	425.69
476.814	443.69
477.033	425.69
477.252	448.69
477.471	411.69
477.69	435.69
477.908	436.69
478.127	452.69
478.346	446.69
478.564	468.69
478.783	459.69
479.002	454.69
479.22	482.69
479.439	501.69
479.658	485.69
479.876	500.69
480.095	507.69
480.313	511.69
480.532	508.69
480.751	503.69
480.969	502.69
481.188	512.69
481.406	522.69
481.624	531.69
481.843	479.69
482.061	460.69
482.28	466.69
482.498	482.69
482.717	456.69
482.935	480.69
483.153	478.69
483.372	468.69
483.59	456.69
483.808	472.69
484.027	465.69
484.245	462.69
484.463	460.69
484.681	464.69
484.9	502.69
485.118	480.69
485.336	480.69
485.554	491.69
485.772	515.69
485.99	491.69
486.209	472.69
486.427	471.69
486.645	511.69
486.863	489.69
487.081	505.69
487.299	497.69
487.517	489.69
487.735	505.69
487.953	500.69
488.171	512.69
488.389	505.69
488.607	500.69
488.825	488.69
489.043	490.69
489.261	514.69
489.479	505.69
489.696	513.69
489.914	523.69
490.132	490.69
490.35	525.69
490.568	533.69
490.786	541.69
491.003	540.69
491.221	532.69
491.439	532.69
491.657	544.69
491.874	544.69
492.092	559.69
492.31	559.69
492.527	543.69
492.745	562.69
492.963	547.69
493.18	572.69
493.398	566.69
493.615	576.69
493.833	577.69
494.05	566.69
494.268	576.69
494.485	569.69
494.703	551.69
494.92	576.69
495.138	569.69
495.355	586.69
495.573	563.69
495.79	582.69
496.008	582.69
496.225	583.69
496.442	591.69
496.66	570.69
496.877	597.69
497.094	596.69
497.312	578.69
497.529	611.69
497.746	628.69
497.963	631.69
498.181	668.69
498.398	654.69
498.615	664.69
498.832	676.69
499.049	717.69
499.267	713.69
499.484	739.69
499.701	797.69
499.918	834.69
500.135	886.69
500.352	891.69
500.569	919.69
500.786	927.69
501.003	899.69
501.22	875.69
501.437	819.69
501.654	813.69
501.871	769.69
502.088	748.69
502.305	733.69
502.522	684.69
502.739	667.69
502.956	653.69
503.172	645.69
503.389	631.69
503.606	617.69
503.823	630.69
504.04	610.69
504.256	616.69
504.473	629.69
504.69	616.69
504.907	599.69
505.123	580.69
505.34	567.69
505.557	558.69
505.773	573.69
505.99	575.69
506.207	569.69
506.423	541.69
506.64	565.69
506.856	545.69
507.073	531.69
507.289	536.69
507.506	558.69
507.722	537.69
507.939	518.69
508.155	521.69
508.372	532.69
508.588	527.69
508.805	500.69
509.021	518.69
509.238	531.69
509.454	521.69
509.67	514.69
509.887	516.69
510.103	532.69
510.319	531.69
510.536	553.69
510.752	858.69
510.968	676.69
511.184	487.69
511.401	488.69
511.617	494.69
511.833	497.69
512.049	492.69
512.265	480.69
512.481	512.69
512.698	490.69
512.914	490.69
513.13	502.69
513.346	470.69
513.562	493.69
513.778	460.69
513.994	487.69
514.21	487.69
514.426	502.69
514.642	525.69
514.858	541.69
515.074	546.69
515.29	642.69
515.506	820.69
515.721	697.69
515.937	560.69
516.153	535.69
516.369	515.69
516.585	522.69
516.801	532.69
517.016	523.69
517.232	520.69
517.448	520.69
517.664	538.69
517.879	530.69
518.095	529.69
518.311	521.69
518.527	500.69
518.742	520.69
518.958	480.69
519.173	490.69
519.389	501.69
519.605	503.69
519.82	488.69
520.036	522.69
520.251	503.69
520.467	523.69
520.682	511.69
520.898	513.69
521.113	518.69
521.329	544.69
521.544	551.69
521.76	683.69
521.975	1026.69
522.19	992.69
522.406	617.69
522.621	505.69
522.836	498.69
523.052	471.69
523.267	442.69
523.482	446.69
523.698	447.69
523.913	452.69
524.128	456.69
524.343	448.69
524.559	426.69
524.774	422.69
524.989	419.69
525.204	425.69
525.419	432.69
525.634	432.69
525.849	435.69
526.064	414.69
526.28	428.69
526.495	418.69
526.71	423.69
526.925	417.69
527.14	408.69
527.355	408.69
527.57	420.69
527.785	391.69
527.999	405.69
528.214	409.69
528.429	416.69
528.644	399.69
528.859	388.69
529.074	407.69
529.289	427.69
529.503	452.69
529.718	470.69
529.933	412.69
530.148	406.69
530.363	416.69
530.577	379.69
530.792	413.69
531.007	418.69
531.221	408.69
531.436	424.69
531.651	406.69
531.865	395.69
532.08	390.69
532.295	395.69
532.509	410.69
532.724	405.69
532.938	413.69
533.153	392.69
533.367	397.69
533.582	389.69
533.796	407.69
534.011	386.69
534.225	385.69
534.44	388.69
534.654	389.69
534.868	405.69
535.083	421.69
535.297	396.69
535.511	401.69
535.726	380.69
535.94	387.69
536.154	380.69
536.369	396.69
536.583	388.69
536.797	385.69
537.011	378.69
537.225	384.69
537.44	392.69
537.654	385.69
537.868	371.69
538.082	367.69
538.296	367.69
538.51	389.69
538.724	385.69
538.938	372.69
539.153	382.69
539.367	391.69
539.581	407.69
539.795	379.69
540.009	376.69
540.222	376.69
540.436	393.69
540.65	375.69
540.864	381.69
541.078	341.69
541.292	383.69
541.506	373.69
541.72	373.69
541.934	376.69
542.147	385.69
542.361	367.69
542.575	385.69
542.789	375.69
543.002	380.69
543.216	381.69
543.43	382.69
543.644	381.69
543.857	373.69
544.071	373.69
544.285	384.69
544.498	364.69
544.712	379.69
544.925	365.69
545.139	358.69
545.352	355.69
545.566	374.69
545.779	400.69
545.993	353.69
546.206	380.69
546.42	377.69
546.633	376.69
546.847	370.69
547.06	370.69
547.274	374.69
547.487	374.69
547.7	370.69
547.914	368.69
548.127	361.69
548.34	359.69
548.554	367.69
548.767	395.69
548.98	385.69
549.193	391.69
549.407	367.69
549.62	360.69
549.833	369.69
550.046	380.69
550.259	359.69
550.473	347.69
550.686	352.69
550.899	359.69
551.112	353.69
551.325	344.69
551.538	363.69
551.751	352.69
551.964	365.69
552.177	389.69
552.39	355.69
552.603	358.69
552.816	358.69
553.029	375.69
553.242	383.69
553.455	370.69
553.667	372.69
553.88	360.69
554.093	369.69
554.306	386.69
554.519	355.69
554.732	370.69
554.944	354.69
555.157	333.69
555.37	332.69
555.583	362.69
555.795	341.69
556.008	334.69
556.221	360.69
556.433	339.69
556.646	339.69
556.859	347.69
557.071	336.69
557.284	336.69
557.496	322.69
557.709	335.69
557.921	327.69
558.134	342.69
558.346	311.69
558.559	336.69
558.771	309.69
558.984	319.69
559.196	328.69
559.409	331.69
559.621	315.69
559.833	316.69
560.046	318.69
560.258	332.69
560.47	314.69
560.683	314.69
560.895	319.69
561.107	342.69
561.32	329.69
561.532	339.69
561.744	325.69
561.956	331.69
562.168	335.69
562.381	364.69
562.593	307.69
562.805	323.69
563.017	337.69
563.229	351.69
563.441	325.69
563.653	319.69
563.865	336.69
564.077	343.69
564.289	326.69
564.501	340.69
564.713	359.69
564.925	329.69
565.137	367.69
565.349	343.69
565.561	349.69
565.773	369.69
565.985	365.69
566.197	387.69
566.408	401.69
566.62	385.69
566.832	424.69
567.044	428.69
567.255	430.69
567.467	437.69
567.679	453.69
567.891	440.69
568.102	457.69
568.314	431.69
568.526	395.69
568.737	397.69
568.949	396.69
569.161	362.69
569.372	383.69
569.584	337.69
569.795	338.69
570.007	346.69
570.218	379.69
570.43	358.69
570.641	315.69
570.853	312.69
571.064	325.69
571.276	330.69
571.487	319.69
571.698	307.69
571.91	299.69
572.121	316.69
572.333	310.69
572.544	313.69
572.755	303.69
572.966	293.69
573.178	291.69
573.389	288.69
573.6	292.69
573.811	285.69
574.023	286.69
574.234	283.69
574.445	304.69
574.656	284.69
574.867	288.69
575.078	293.69
575.289	305.69
575.501	260.69
575.712	281.69
575.923	258.69
576.134	284.69
576.345	276.69
576.556	286.69
576.767	288.69
576.978	286.69
577.188	279.69
577.399	266.69
577.61	266.69
577.821	287.69
578.032	295.69
578.243	273.69
578.454	406.69
578.665	337.69
578.875	263.69
579.086	271.69
579.297	267.69
579.508	267.69
579.718	279.69
579.929	281.69
580.14	262.69
580.35	281.69
580.561	252.69
580.772	256.69
580.982	263.69
581.193	259.69
581.403	250.69
581.614	272.69
581.825	249.69
582.035	261.69
582.246	242.69
582.456	231.69
582.667	246.69
582.877	258.69
583.087	248.69
583.298	252.69
583.508	247.69
583.719	249.69
583.929	265.69
584.139	243.69
584.35	262.69
584.56	267.69
584.77	243.69
584.981	261.69
585.191	260.69
585.401	261.69
585.611	260.69
585.821	252.69
586.032	243.69
586.242	254.69
586.452	259.69
586.662	246.69
586.872	250.69
587.082	245.69
587.292	255.69
587.502	260.69
587.713	257.69
587.923	245.69
588.133	240.69
588.343	241.69
588.553	244.69
588.762	257.69
588.972	233.69
589.182	257.69
589.392	261.69
589.602	251.69
589.812	260.69
590.022	242.69
590.232	251.69
590.441	240.69
590.651	247.69
590.861	264.69
591.071	245.69
591.281	252.69
591.49	252.69
591.7	263.69
591.91	248.69
592.119	266.69
592.329	245.69
592.539	249.69
592.748	280.69
592.958	281.69
593.167	276.69
593.377	283.69
593.587	289.69
593.796	263.69
594.006	262.69
594.215	269.69
594.424	276.69
594.634	280.69
594.843	290.69
595.053	269.69
595.262	271.69
595.472	277.69
595.681	250.69
595.89	239.69
596.1	263.69
596.309	260.69
596.518	241.69
596.727	243.69
596.937	236.69
597.146	238.69
597.355	239.69
597.564	220.69
597.774	228.69
597.983	235.69
598.192	227.69
598.401	224.69
598.61	231.69
598.819	208.69
599.028	232.69
599.237	234.69
599.446	224.69
599.655	233.69
599.864	230.69
600.073	213.69
600.282	219.69
600.491	224.69
600.7	228.69
600.909	219.69
601.118	225.69
601.327	212.69
601.536	204.69
601.745	209.69
601.953	232.69
602.162	222.69
602.371	217.69
602.58	219.69
602.789	216.69
602.997	225.69
603.206	208.69
603.415	212.69
603.623	216.69
603.832	202.69
604.041	206.69
604.249	200.69
604.458	226.69
604.666	199.69
604.875	215.69
605.084	197.69
605.292	204.69
605.501	224.69
605.709	204.69
605.918	198.69
606.126	218.69
606.334	201.69
606.543	201.69
606.751	203.69
606.96	203.69
607.168	209.69
607.376	203.69
607.585	212.69
607.793	213.69
608.001	205.69
608.21	201.69
608.418	214.69
608.626	206.69
608.834	202.69
609.043	211.69
609.251	192.69
609.459	201.69
609.667	216.69
609.875	211.69
610.083	203.69
610.291	206.69
610.499	192.69
610.707	197.69
610.916	214.69
611.124	204.69
611.332	200.69
611.54	208.69
611.748	197.69
611.955	219.69
612.163	207.69
612.371	204.69
612.579	200.69
612.787	206.69
612.995	208.69
613.203	212.69
613.411	223.69
613.618	203.69
613.826	202.69
614.034	203.69
614.242	200.69
614.449	210.69
614.657	217.69
614.865	206.69
615.072	193.69
615.28	205.69
615.488	211.69
615.695	206.69
615.903	204.69
616.111	199.69
616.318	194.69
616.526	216.69
616.733	199.69
616.941	204.69
617.148	188.69
617.356	186.69
617.563	207.69
617.771	217.69
617.978	193.69
618.185	202.69
618.393	188.69
618.6	211.69
618.807	199.69
619.015	201.69
619.222	208.69
619.429	189.69
619.637	186.69
619.844	199.69
620.051	188.69
620.258	188.69
620.466	179.69
620.673	187.69
620.88	179.69
621.087	179.69
621.294	191.69
621.501	195.69
621.708	192.69
621.915	177.69
622.122	193.69
622.329	193.69
622.536	197.69
622.743	186.69
622.95	195.69
623.157	186.69
623.364	187.69
623.571	202.69
623.778	184.69
623.985	185.69
624.192	189.69
624.399	189.69
624.606	198.69
624.812	183.69
625.019	175.69
625.226	168.69
625.433	179.69
625.639	179.69
625.846	177.69
626.053	186.69
626.259	175.69
626.466	209.69
626.673	197.69
626.879	175.69
627.086	185.69
627.293	176.69
627.499	181.69
627.706	178.69
627.912	162.69
628.119	169.69
628.325	171.69
628.532	170.69
628.738	172.69
628.945	178.69
629.151	184.69
629.357	170.69
629.564	163.69
629.77	163.69
629.976	172.69
630.183	167.69
630.389	171.69
630.595	169.69
630.802	168.69
631.008	153.69
631.214	175.69
631.42	161.69
631.627	166.69
631.833	170.69
632.039	165.69
632.245	172.69
632.451	160.69
632.657	173.69
632.863	155.69
633.069	179.69
633.275	160.69
633.481	145.69
633.688	164.69
633.893	168.69
634.099	171.69
634.305	166.69
634.511	176.69
634.717	149.69
634.923	170.69
635.129	157.69
635.335	142.69
635.541	166.69
635.747	169.69
635.952	155.69
636.158	137.69
636.364	166.69
636.57	165.69
636.775	167.69
636.981	164.69
637.187	187.69
637.392	142.69
637.598	163.69
637.804	152.69
638.009	163.69
638.215	161.69
638.421	157.69
638.626	146.69
638.832	164.69
639.037	148.69
639.243	153.69
639.448	151.69
639.654	146.69
639.859	149.69
640.065	144.69
640.27	169.69
640.475	155.69
640.681	151.69
640.886	146.69
641.091	156.69
641.297	151.69
641.502	142.69
641.707	153.69
641.913	144.69
642.118	148.69
642.323	154.69
642.528	154.69
642.733	147.69
642.939	165.69
643.144	141.69
643.349	143.69
643.554	129.69
643.759	149.69
643.964	130.69
644.169	143.69
644.374	147.69
644.579	162.69
644.784	157.69
644.989	164.69
645.194	151.69
645.399	149.69
645.604	153.69
645.809	152.69
646.014	148.69
646.219	133.69
646.423	138.69
646.628	140.69
646.833	160.69
647.038	148.69
647.243	140.69
647.447	139.69
647.652	144.69
647.857	147.69
648.062	147.69
648.266	134.69
648.471	147.69
648.676	151.69
648.88	134.69
649.085	156.69
649.289	161.69
649.494	155.69
649.698	156.69
649.903	138.69
650.107	155.69
650.312	155.69
650.516	138.69
650.721	140.69
650.925	144.69
651.13	149.69
651.334	143.69
651.539	132.69
651.743	119.69
651.947	145.69
652.152	135.69
652.356	140.69
652.56	135.69
652.764	131.69
652.969	132.69
653.173	137.69
653.377	117.69
653.581	124.69
653.785	129.69
653.99	140.69
654.194	129.69
654.398	115.69
654.602	122.69
654.806	129.69
655.01	137.69
655.214	117.69
655.418	130.69
655.622	130.69
655.826	116.69
656.03	128.69
656.234	128.69
656.438	128.69
656.642	129.69
656.846	115.69
657.049	112.69
657.253	115.69
657.457	87.69
657.661	115.69
657.865	104.69
658.068	111.69
658.272	105.69
658.476	95.69
658.68	117.69
658.883	102.69
659.087	111.69
659.291	90.69
659.494	97.69
659.698	93.69
659.901	92.69
660.105	90.69
660.309	91.69
660.512	88.69
660.716	111.69
660.919	89.69
661.123	93.69
661.326	98.69
661.53	80.69
661.733	87.69
661.936	78.69
662.14	83.69
662.343	80.69
662.546	80.69
662.75	85.69
662.953	93.69
663.156	82.69
663.36	91.69
663.563	90.69
663.766	80.69
663.969	76.69
664.173	79.69
664.376	76.69
664.579	90.69
664.782	97.69
664.985	79.69
665.188	76.69
665.391	85.69
665.594	71.69
665.797	83.69
666	94.69
666.203	89.69
666.406	85.69
666.609	67.69
666.812	89.69
667.015	85.69
667.218	79.69
667.421	73.69
667.624	83.69
667.827	81.69
668.03	75.69
668.232	87.69
668.435	68.69
668.638	75.69
668.841	71.69
669.043	77.69
669.246	74.69
669.449	76.69
669.651	76.69
669.854	81.69
670.057	72.69
670.259	62.69
670.462	80.69
670.665	84.69
670.867	74.69
671.07	88.69
671.272	95.69
671.475	95.69
671.677	80.69
671.88	73.69
672.082	76.69
672.284	67.69
672.487	71.69
672.689	76.69
672.892	88.69
