Data from 1977.PennyLincolnUp.Lamp.En5.5.200Scan.071719.P1_HRD10591_16-06-30-864.txt Node
Date: Thu Jul 18 16:06:30 EDT 2019
User: cochatt
Spectrometer: HR+D1059
Trigger mode: 1
Integration Time (sec): 1.000000E-1
Scans to average: 1
Electric dark correction enabled: true
Nonlinearity correction enabled: false
Boxcar width: 0
XAxis mode: Wavelengths
Number of Pixels in Spectrum: 2048
>>>>>Begin Spectral Data<<<<<
223.165	-14.44
223.4	-14.44
223.635	-14.44
223.869	-12.44
224.104	-10.44
224.338	-11.44
224.573	-18.44
224.808	-14.44
225.042	-7.44
225.277	-13.44
225.511	6.56
225.746	3.56
225.98	-1.44
226.215	19.56
226.449	13.56
226.683	22.56
226.918	16.56
227.152	21.56
227.387	45.56
227.621	28.56
227.856	43.56
228.09	38.56
228.324	47.56
228.559	44.56
228.793	61.56
229.027	99.56
229.262	85.56
229.496	99.56
229.73	112.56
229.964	133.56
230.199	117.56
230.433	119.56
230.667	118.56
230.901	91.56
231.136	105.56
231.37	106.56
231.604	103.56
231.838	110.56
232.072	100.56
232.306	100.56
232.541	118.56
232.775	110.56
233.009	121.56
233.243	118.56
233.477	122.56
233.711	115.56
233.945	116.56
234.179	109.56
234.413	134.56
234.647	120.56
234.881	116.56
235.115	115.56
235.349	105.56
235.583	116.56
235.817	128.56
236.051	123.56
236.285	121.56
236.519	119.56
236.753	115.56
236.987	126.56
237.221	178.56
237.455	196.56
237.689	162.56
237.922	136.56
238.156	132.56
238.39	125.56
238.624	139.56
238.858	133.56
239.091	126.56
239.325	117.56
239.559	117.56
239.793	117.56
240.027	123.56
240.26	153.56
240.494	141.56
240.728	155.56
240.961	146.56
241.195	137.56
241.429	144.56
241.662	136.56
241.896	145.56
242.13	136.56
242.363	134.56
242.597	146.56
242.83	140.56
243.064	129.56
243.298	142.56
243.531	148.56
243.765	132.56
243.998	134.56
244.232	145.56
244.465	134.56
244.699	160.56
244.932	138.56
245.166	141.56
245.399	150.56
245.633	131.56
245.866	149.56
246.099	142.56
246.333	150.56
246.566	141.56
246.8	146.56
247.033	160.56
247.266	154.56
247.5	146.56
247.733	151.56
247.966	184.56
248.2	167.56
248.433	157.56
248.666	163.56
248.899	176.56
249.133	188.56
249.366	188.56
249.599	177.56
249.832	159.56
250.066	192.56
250.299	179.56
250.532	183.56
250.765	189.56
250.998	213.56
251.231	217.56
251.465	205.56
251.698	201.56
251.931	193.56
252.164	194.56
252.397	207.56
252.63	212.56
252.863	203.56
253.096	208.56
253.329	210.56
253.562	211.56
253.795	221.56
254.028	234.56
254.261	212.56
254.494	226.56
254.727	244.56
254.96	266.56
255.193	258.56
255.426	243.56
255.659	219.56
255.892	233.56
256.124	234.56
256.357	226.56
256.59	221.56
256.823	220.56
257.056	212.56
257.289	202.56
257.521	217.56
257.754	224.56
257.987	218.56
258.22	220.56
258.452	211.56
258.685	216.56
258.918	211.56
259.151	205.56
259.383	216.56
259.616	220.56
259.849	223.56
260.081	237.56
260.314	253.56
260.547	263.56
260.779	254.56
261.012	230.56
261.244	220.56
261.477	217.56
261.71	226.56
261.942	237.56
262.175	224.56
262.407	226.56
262.64	226.56
262.872	221.56
263.105	217.56
263.337	221.56
263.57	220.56
263.802	227.56
264.035	213.56
264.267	218.56
264.499	208.56
264.732	216.56
264.964	220.56
265.197	228.56
265.429	227.56
265.661	218.56
265.894	234.56
266.126	225.56
266.358	212.56
266.591	252.56
266.823	234.56
267.055	246.56
267.287	251.56
267.52	217.56
267.752	220.56
267.984	232.56
268.216	244.56
268.448	260.56
268.681	251.56
268.913	236.56
269.145	258.56
269.377	286.56
269.609	277.56
269.841	277.56
270.073	270.56
270.306	285.56
270.538	301.56
270.77	310.56
271.002	298.56
271.234	297.56
271.466	296.56
271.698	311.56
271.93	326.56
272.162	326.56
272.394	299.56
272.626	310.56
272.858	290.56
273.09	284.56
273.322	305.56
273.553	282.56
273.785	272.56
274.017	269.56
274.249	249.56
274.481	277.56
274.713	270.56
274.945	286.56
275.176	284.56
275.408	296.56
275.64	260.56
275.872	282.56
276.104	283.56
276.335	281.56
276.567	270.56
276.799	284.56
277.031	315.56
277.262	309.56
277.494	337.56
277.726	302.56
277.957	304.56
278.189	292.56
278.421	276.56
278.652	290.56
278.884	286.56
279.115	298.56
279.347	304.56
279.579	264.56
279.81	286.56
280.042	278.56
280.273	274.56
280.505	289.56
280.736	270.56
280.968	288.56
281.199	301.56
281.431	280.56
281.662	312.56
281.894	264.56
282.125	308.56
282.356	285.56
282.588	334.56
282.819	288.56
283.051	290.56
283.282	293.56
283.513	293.56
283.745	300.56
283.976	299.56
284.207	299.56
284.439	300.56
284.67	313.56
284.901	288.56
285.132	290.56
285.364	289.56
285.595	296.56
285.826	306.56
286.057	306.56
286.288	311.56
286.52	320.56
286.751	305.56
286.982	290.56
287.213	294.56
287.444	316.56
287.675	320.56
287.906	317.56
288.138	327.56
288.369	324.56
288.6	310.56
288.831	328.56
289.062	325.56
289.293	316.56
289.524	313.56
289.755	318.56
289.986	309.56
290.217	317.56
290.448	306.56
290.679	292.56
290.91	322.56
291.141	309.56
291.371	313.56
291.602	309.56
291.833	320.56
292.064	309.56
292.295	312.56
292.526	342.56
292.757	315.56
292.987	307.56
293.218	300.56
293.449	305.56
293.68	327.56
293.91	323.56
294.141	297.56
294.372	313.56
294.603	327.56
294.833	317.56
295.064	312.56
295.295	306.56
295.525	297.56
295.756	316.56
295.987	329.56
296.217	351.56
296.448	339.56
296.679	318.56
296.909	324.56
297.14	329.56
297.37	327.56
297.601	330.56
297.831	308.56
298.062	316.56
298.292	345.56
298.523	331.56
298.753	337.56
298.984	311.56
299.214	346.56
299.445	346.56
299.675	347.56
299.905	329.56
300.136	313.56
300.366	343.56
300.597	337.56
300.827	327.56
301.057	329.56
301.288	361.56
301.518	350.56
301.748	345.56
301.979	350.56
302.209	347.56
302.439	350.56
302.669	366.56
302.9	389.56
303.13	372.56
303.36	351.56
303.59	343.56
303.82	353.56
304.051	379.56
304.281	348.56
304.511	363.56
304.741	349.56
304.971	340.56
305.201	362.56
305.431	369.56
305.661	370.56
305.891	348.56
306.121	368.56
306.352	360.56
306.582	352.56
306.812	359.56
307.042	368.56
307.272	376.56
307.502	345.56
307.731	354.56
307.961	352.56
308.191	357.56
308.421	364.56
308.651	376.56
308.881	378.56
309.111	358.56
309.341	355.56
309.571	379.56
309.8	365.56
310.03	396.56
310.26	376.56
310.49	386.56
310.72	393.56
310.949	390.56
311.179	396.56
311.409	406.56
311.639	412.56
311.868	401.56
312.098	377.56
312.328	414.56
312.557	409.56
312.787	400.56
313.017	416.56
313.246	418.56
313.476	403.56
313.706	399.56
313.935	409.56
314.165	408.56
314.394	401.56
314.624	381.56
314.853	424.56
315.083	392.56
315.312	403.56
315.542	380.56
315.771	388.56
316.001	399.56
316.23	424.56
316.46	403.56
316.689	407.56
316.919	405.56
317.148	427.56
317.377	396.56
317.607	419.56
317.836	409.56
318.065	413.56
318.295	385.56
318.524	394.56
318.753	392.56
318.983	396.56
319.212	399.56
319.441	406.56
319.67	418.56
319.9	393.56
320.129	408.56
320.358	402.56
320.587	403.56
320.816	411.56
321.046	414.56
321.275	425.56
321.504	435.56
321.733	426.56
321.962	423.56
322.191	458.56
322.42	448.56
322.649	438.56
322.878	462.56
323.108	449.56
323.337	459.56
323.566	480.56
323.795	521.56
324.024	541.56
324.253	623.56
324.482	888.56
324.71	1261.56
324.939	1746.56
325.168	1474.56
325.397	805.56
325.626	585.56
325.855	542.56
326.084	496.56
326.313	491.56
326.542	475.56
326.77	531.56
326.999	614.56
327.228	796.56
327.457	1162.56
327.686	1332.56
327.914	918.56
328.143	624.56
328.372	565.56
328.6	535.56
328.829	538.56
329.058	539.56
329.287	542.56
329.515	541.56
329.744	513.56
329.972	510.56
330.201	505.56
330.43	536.56
330.658	554.56
330.887	571.56
331.115	538.56
331.344	516.56
331.572	501.56
331.801	480.56
332.03	497.56
332.258	497.56
332.486	486.56
332.715	473.56
332.943	483.56
333.172	479.56
333.4	487.56
333.629	510.56
333.857	513.56
334.085	524.56
334.314	500.56
334.542	530.56
334.771	525.56
334.999	521.56
335.227	488.56
335.455	480.56
335.684	477.56
335.912	486.56
336.14	490.56
336.369	483.56
336.597	492.56
336.825	479.56
337.053	460.56
337.281	452.56
337.51	459.56
337.738	452.56
337.966	460.56
338.194	452.56
338.422	451.56
338.65	469.56
338.878	444.56
339.106	436.56
339.334	460.56
339.562	452.56
339.79	449.56
340.018	441.56
340.246	421.56
340.474	444.56
340.702	455.56
340.93	443.56
341.158	435.56
341.386	443.56
341.614	451.56
341.842	438.56
342.07	436.56
342.298	452.56
342.526	440.56
342.754	437.56
342.981	417.56
343.209	429.56
343.437	448.56
343.665	428.56
343.893	451.56
344.12	477.56
344.348	485.56
344.576	454.56
344.804	455.56
345.031	452.56
345.259	468.56
345.487	411.56
345.714	427.56
345.942	435.56
346.17	434.56
346.397	440.56
346.625	436.56
346.853	409.56
347.08	432.56
347.308	427.56
347.535	441.56
347.763	447.56
347.99	437.56
348.218	427.56
348.445	438.56
348.673	426.56
348.9	407.56
349.128	419.56
349.355	400.56
349.583	429.56
349.81	396.56
350.037	420.56
350.265	418.56
350.492	395.56
350.72	404.56
350.947	406.56
351.174	402.56
351.402	404.56
351.629	421.56
351.856	411.56
352.083	423.56
352.311	437.56
352.538	425.56
352.765	404.56
352.992	405.56
353.22	416.56
353.447	415.56
353.674	421.56
353.901	405.56
354.128	387.56
354.355	404.56
354.583	413.56
354.81	406.56
355.037	393.56
355.264	399.56
355.491	389.56
355.718	394.56
355.945	393.56
356.172	393.56
356.399	393.56
356.626	402.56
356.853	397.56
357.08	386.56
357.307	395.56
357.534	394.56
357.761	393.56
357.988	390.56
358.215	396.56
358.441	393.56
358.668	400.56
358.895	389.56
359.122	398.56
359.349	408.56
359.576	426.56
359.802	429.56
360.029	443.56
360.256	443.56
360.483	443.56
360.709	414.56
360.936	416.56
361.163	407.56
361.39	415.56
361.616	418.56
361.843	425.56
362.07	398.56
362.296	408.56
362.523	398.56
362.749	409.56
362.976	418.56
363.203	392.56
363.429	402.56
363.656	386.56
363.882	393.56
364.109	410.56
364.335	390.56
364.562	402.56
364.788	396.56
365.015	405.56
365.241	384.56
365.468	395.56
365.694	401.56
365.92	413.56
366.147	377.56
366.373	391.56
366.599	394.56
366.826	389.56
367.052	392.56
367.278	402.56
367.505	398.56
367.731	387.56
367.957	392.56
368.184	402.56
368.41	400.56
368.636	414.56
368.862	392.56
369.089	399.56
369.315	376.56
369.541	401.56
369.767	384.56
369.993	404.56
370.219	386.56
370.445	389.56
370.672	393.56
370.898	402.56
371.124	402.56
371.35	403.56
371.576	404.56
371.802	405.56
372.028	385.56
372.254	412.56
372.48	400.56
372.706	388.56
372.932	397.56
373.158	411.56
373.384	406.56
373.61	404.56
373.835	405.56
374.061	394.56
374.287	409.56
374.513	405.56
374.739	398.56
374.965	409.56
375.191	413.56
375.416	403.56
375.642	405.56
375.868	401.56
376.094	400.56
376.319	410.56
376.545	378.56
376.771	394.56
376.997	404.56
377.222	402.56
377.448	388.56
377.674	390.56
377.899	373.56
378.125	394.56
378.35	392.56
378.576	398.56
378.802	388.56
379.027	385.56
379.253	404.56
379.478	386.56
379.704	399.56
379.929	390.56
380.155	388.56
380.38	390.56
380.606	375.56
380.831	372.56
381.057	406.56
381.282	388.56
381.507	421.56
381.733	394.56
381.958	392.56
382.184	396.56
382.409	392.56
382.634	415.56
382.86	392.56
383.085	396.56
383.31	417.56
383.535	412.56
383.761	404.56
383.986	434.56
384.211	408.56
384.436	424.56
384.662	426.56
384.887	419.56
385.112	414.56
385.337	422.56
385.562	443.56
385.787	436.56
386.013	449.56
386.238	446.56
386.463	449.56
386.688	442.56
386.913	437.56
387.138	430.56
387.363	438.56
387.588	429.56
387.813	457.56
388.038	438.56
388.263	432.56
388.488	442.56
388.713	425.56
388.938	438.56
389.163	421.56
389.387	426.56
389.612	432.56
389.837	417.56
390.062	420.56
390.287	430.56
390.512	436.56
390.736	446.56
390.961	424.56
391.186	437.56
391.411	434.56
391.636	446.56
391.86	469.56
392.085	469.56
392.31	450.56
392.534	436.56
392.759	427.56
392.984	436.56
393.208	433.56
393.433	440.56
393.658	442.56
393.882	440.56
394.107	433.56
394.331	443.56
394.556	416.56
394.78	443.56
395.005	460.56
395.229	441.56
395.454	453.56
395.678	475.56
395.903	471.56
396.127	471.56
396.352	454.56
396.576	478.56
396.801	445.56
397.025	456.56
397.249	462.56
397.474	499.56
397.698	484.56
397.922	462.56
398.147	482.56
398.371	484.56
398.595	475.56
398.82	491.56
399.044	527.56
399.268	537.56
399.492	553.56
399.717	565.56
399.941	630.56
400.165	624.56
400.389	615.56
400.613	563.56
400.837	535.56
401.062	506.56
401.286	498.56
401.51	515.56
401.734	473.56
401.958	505.56
402.182	496.56
402.406	507.56
402.63	518.56
402.854	509.56
403.078	483.56
403.302	482.56
403.526	503.56
403.75	512.56
403.974	497.56
404.198	508.56
404.422	534.56
404.645	534.56
404.869	531.56
405.093	545.56
405.317	578.56
405.541	615.56
405.765	557.56
405.988	539.56
406.212	542.56
406.436	562.56
406.66	570.56
406.883	530.56
407.107	578.56
407.331	607.56
407.555	650.56
407.778	652.56
408.002	604.56
408.226	565.56
408.449	579.56
408.673	543.56
408.896	573.56
409.12	626.56
409.344	570.56
409.567	525.56
409.791	545.56
410.014	502.56
410.238	476.56
410.461	488.56
410.685	498.56
410.908	524.56
411.132	537.56
411.355	570.56
411.578	560.56
411.802	495.56
412.025	505.56
412.249	521.56
412.472	529.56
412.695	557.56
412.919	556.56
413.142	505.56
413.365	515.56
413.589	484.56
413.812	484.56
414.035	450.56
414.258	465.56
414.482	478.56
414.705	458.56
414.928	494.56
415.151	491.56
415.374	461.56
415.597	499.56
415.821	458.56
416.044	473.56
416.267	461.56
416.49	487.56
416.713	452.56
416.936	461.56
417.159	489.56
417.382	459.56
417.605	465.56
417.828	484.56
418.051	492.56
418.274	487.56
418.497	449.56
418.72	505.56
418.943	481.56
419.166	493.56
419.389	499.56
419.611	516.56
419.834	509.56
420.057	496.56
420.28	483.56
420.503	489.56
420.726	488.56
420.948	506.56
421.171	523.56
421.394	574.56
421.617	530.56
421.839	476.56
422.062	500.56
422.285	516.56
422.507	565.56
422.73	618.56
422.953	597.56
423.175	536.56
423.398	507.56
423.621	531.56
423.843	527.56
424.066	515.56
424.288	508.56
424.511	542.56
424.733	566.56
424.956	633.56
425.178	620.56
425.401	606.56
425.623	628.56
425.846	546.56
426.068	531.56
426.291	516.56
426.513	498.56
426.735	499.56
426.958	544.56
427.18	619.56
427.402	758.56
427.625	802.56
427.847	678.56
428.069	587.56
428.292	536.56
428.514	504.56
428.736	493.56
428.958	485.56
429.181	490.56
429.403	468.56
429.625	485.56
429.847	482.56
430.069	567.56
430.292	541.56
430.514	492.56
430.736	474.56
430.958	477.56
431.18	460.56
431.402	453.56
431.624	451.56
431.846	450.56
432.068	446.56
432.29	457.56
432.512	457.56
432.734	468.56
432.956	456.56
433.178	443.56
433.4	461.56
433.622	470.56
433.844	455.56
434.066	473.56
434.287	448.56
434.509	469.56
434.731	473.56
434.953	488.56
435.175	506.56
435.397	502.56
435.618	489.56
435.84	550.56
436.062	611.56
436.284	677.56
436.505	564.56
436.727	510.56
436.949	490.56
437.17	473.56
437.392	471.56
437.614	492.56
437.835	499.56
438.057	554.56
438.278	664.56
438.5	637.56
438.721	737.56
438.943	696.56
439.165	556.56
439.386	501.56
439.608	494.56
439.829	496.56
440.05	522.56
440.272	580.56
440.493	511.56
440.715	489.56
440.936	486.56
441.158	472.56
441.379	496.56
441.6	488.56
441.822	531.56
442.043	546.56
442.264	601.56
442.486	611.56
442.707	554.56
442.928	542.56
443.149	514.56
443.371	554.56
443.592	569.56
443.813	628.56
444.034	704.56
444.255	595.56
444.476	540.56
444.698	532.56
444.919	532.56
445.14	613.56
445.361	551.56
445.582	554.56
445.803	574.56
446.024	682.56
446.245	672.56
446.466	605.56
446.687	530.56
446.908	501.56
447.129	465.56
447.35	472.56
447.571	466.56
447.792	451.56
448.013	464.56
448.234	482.56
448.455	505.56
448.675	613.56
448.896	706.56
449.117	601.56
449.338	578.56
449.559	653.56
449.779	766.56
450	612.56
450.221	514.56
450.442	487.56
450.662	461.56
450.883	455.56
451.104	451.56
451.324	466.56
451.545	430.56
451.766	436.56
451.986	412.56
452.207	431.56
452.428	425.56
452.648	398.56
452.869	412.56
453.089	416.56
453.31	428.56
453.53	420.56
453.751	412.56
453.971	423.56
454.192	424.56
454.412	435.56
454.633	432.56
454.853	397.56
455.073	415.56
455.294	452.56
455.514	494.56
455.734	458.56
455.955	458.56
456.175	405.56
456.395	388.56
456.616	422.56
456.836	395.56
457.056	397.56
457.276	366.56
457.497	378.56
457.717	396.56
457.937	399.56
458.157	424.56
458.377	405.56
458.598	419.56
458.818	451.56
459.038	530.56
459.258	543.56
459.478	479.56
459.698	443.56
459.918	445.56
460.138	461.56
460.358	466.56
460.578	474.56
460.798	484.56
461.018	474.56
461.238	472.56
461.458	459.56
461.678	477.56
461.898	470.56
462.118	454.56
462.338	448.56
462.558	488.56
462.777	479.56
462.997	526.56
463.217	528.56
463.437	520.56
463.657	501.56
463.876	508.56
464.096	506.56
464.316	480.56
464.536	494.56
464.755	504.56
464.975	501.56
465.195	512.56
465.414	540.56
465.634	489.56
465.854	482.56
466.073	462.56
466.293	443.56
466.512	425.56
466.732	432.56
466.951	437.56
467.171	432.56
467.391	434.56
467.61	424.56
467.829	434.56
468.049	438.56
468.268	450.56
468.488	418.56
468.707	399.56
468.927	424.56
469.146	405.56
469.365	432.56
469.585	441.56
469.804	429.56
470.023	417.56
470.243	429.56
470.462	410.56
470.681	446.56
470.901	439.56
471.12	435.56
471.339	442.56
471.558	409.56
471.777	443.56
471.997	459.56
472.216	434.56
472.435	429.56
472.654	453.56
472.873	430.56
473.092	426.56
473.311	413.56
473.53	427.56
473.749	435.56
473.968	459.56
474.187	558.56
474.406	548.56
474.625	464.56
474.844	441.56
475.063	434.56
475.282	454.56
475.501	414.56
475.72	432.56
475.939	427.56
476.158	442.56
476.377	417.56
476.596	442.56
476.814	435.56
477.033	442.56
477.252	455.56
477.471	452.56
477.69	487.56
477.908	466.56
478.127	474.56
478.346	469.56
478.564	502.56
478.783	469.56
479.002	473.56
479.22	483.56
479.439	500.56
479.658	522.56
479.876	503.56
480.095	520.56
480.313	539.56
480.532	557.56
480.751	530.56
480.969	527.56
481.188	555.56
481.406	567.56
481.624	548.56
481.843	508.56
482.061	488.56
482.28	477.56
482.498	491.56
482.717	490.56
482.935	512.56
483.153	466.56
483.372	498.56
483.59	493.56
483.808	492.56
484.027	479.56
484.245	524.56
484.463	489.56
484.681	496.56
484.9	502.56
485.118	516.56
485.336	508.56
485.554	502.56
485.772	516.56
485.99	528.56
486.209	508.56
486.427	522.56
486.645	515.56
486.863	518.56
487.081	531.56
487.299	510.56
487.517	533.56
487.735	533.56
487.953	509.56
488.171	538.56
488.389	545.56
488.607	530.56
488.825	512.56
489.043	516.56
489.261	542.56
489.479	532.56
489.696	549.56
489.914	524.56
490.132	543.56
490.35	549.56
490.568	541.56
490.786	551.56
491.003	572.56
491.221	561.56
491.439	571.56
491.657	575.56
491.874	579.56
492.092	588.56
492.31	583.56
492.527	600.56
492.745	588.56
492.963	580.56
493.18	597.56
493.398	608.56
493.615	621.56
493.833	600.56
494.05	612.56
494.268	630.56
494.485	600.56
494.703	610.56
494.92	601.56
495.138	609.56
495.355	589.56
495.573	636.56
495.79	618.56
496.008	619.56
496.225	608.56
496.442	621.56
496.66	622.56
496.877	614.56
497.094	623.56
497.312	648.56
497.529	622.56
497.746	648.56
497.963	678.56
498.181	700.56
498.398	710.56
498.615	717.56
498.832	740.56
499.049	726.56
499.267	749.56
499.484	778.56
499.701	857.56
499.918	832.56
500.135	911.56
500.352	981.56
500.569	960.56
500.786	989.56
501.003	950.56
501.22	924.56
501.437	895.56
501.654	845.56
501.871	846.56
502.088	790.56
502.305	754.56
502.522	750.56
502.739	692.56
502.956	676.56
503.172	673.56
503.389	658.56
503.606	609.56
503.823	672.56
504.04	633.56
504.256	620.56
504.473	642.56
504.69	640.56
504.907	628.56
505.123	595.56
505.34	613.56
505.557	599.56
505.773	603.56
505.99	612.56
506.207	582.56
506.423	592.56
506.64	577.56
506.856	593.56
507.073	556.56
507.289	557.56
507.506	556.56
507.722	570.56
507.939	603.56
508.155	554.56
508.372	533.56
508.588	536.56
508.805	535.56
509.021	539.56
509.238	531.56
509.454	566.56
509.67	550.56
509.887	514.56
510.103	541.56
510.319	551.56
510.536	627.56
510.752	877.56
510.968	739.56
511.184	557.56
511.401	535.56
511.617	530.56
511.833	539.56
512.049	523.56
512.265	518.56
512.481	536.56
512.698	530.56
512.914	506.56
513.13	517.56
513.346	517.56
513.562	513.56
513.778	499.56
513.994	506.56
514.21	517.56
514.426	534.56
514.642	576.56
514.858	573.56
515.074	594.56
515.29	676.56
515.506	874.56
515.721	750.56
515.937	569.56
516.153	552.56
516.369	552.56
516.585	546.56
516.801	551.56
517.016	564.56
517.232	551.56
517.448	569.56
517.664	561.56
517.879	570.56
518.095	549.56
518.311	549.56
518.527	539.56
518.742	551.56
518.958	548.56
519.173	539.56
519.389	508.56
519.605	529.56
519.82	516.56
520.036	524.56
520.251	546.56
520.467	562.56
520.682	530.56
520.898	554.56
521.113	566.56
521.329	561.56
521.544	610.56
521.76	729.56
521.975	1117.56
522.19	1058.56
522.406	651.56
522.621	542.56
522.836	516.56
523.052	514.56
523.267	460.56
523.482	478.56
523.698	466.56
523.913	487.56
524.128	466.56
524.343	470.56
524.559	464.56
524.774	466.56
524.989	471.56
525.204	463.56
525.419	453.56
525.634	435.56
525.849	428.56
526.064	437.56
526.28	416.56
526.495	440.56
526.71	432.56
526.925	434.56
527.14	425.56
527.355	424.56
527.57	432.56
527.785	414.56
527.999	434.56
528.214	427.56
528.429	414.56
528.644	452.56
528.859	423.56
529.074	433.56
529.289	429.56
529.503	490.56
529.718	466.56
529.933	428.56
530.148	452.56
530.363	441.56
530.577	441.56
530.792	423.56
531.007	429.56
531.221	420.56
531.436	433.56
531.651	435.56
531.865	423.56
532.08	394.56
532.295	423.56
532.509	419.56
532.724	409.56
532.938	418.56
533.153	415.56
533.367	400.56
533.582	408.56
533.796	423.56
534.011	428.56
534.225	411.56
534.44	430.56
534.654	388.56
534.868	404.56
535.083	400.56
535.297	424.56
535.511	408.56
535.726	433.56
535.94	424.56
536.154	439.56
536.369	407.56
536.583	412.56
536.797	410.56
537.011	395.56
537.225	388.56
537.44	395.56
537.654	403.56
537.868	417.56
538.082	410.56
538.296	402.56
538.51	412.56
538.724	417.56
538.938	420.56
539.153	415.56
539.367	400.56
539.581	402.56
539.795	387.56
540.009	409.56
540.222	402.56
540.436	396.56
540.65	390.56
540.864	391.56
541.078	396.56
541.292	410.56
541.506	372.56
541.72	391.56
541.934	395.56
542.147	381.56
542.361	391.56
542.575	395.56
542.789	387.56
543.002	386.56
543.216	408.56
543.43	397.56
543.644	394.56
543.857	396.56
544.071	412.56
544.285	396.56
544.498	396.56
544.712	387.56
544.925	389.56
545.139	394.56
545.352	394.56
545.566	388.56
545.779	391.56
545.993	377.56
546.206	406.56
546.42	397.56
546.633	388.56
546.847	359.56
547.06	412.56
547.274	390.56
547.487	372.56
547.7	379.56
547.914	390.56
548.127	384.56
548.34	389.56
548.554	389.56
548.767	398.56
548.98	387.56
549.193	404.56
549.407	396.56
549.62	389.56
549.833	365.56
550.046	379.56
550.259	386.56
550.473	366.56
550.686	380.56
550.899	398.56
551.112	381.56
551.325	384.56
551.538	378.56
551.751	375.56
551.964	372.56
552.177	384.56
552.39	387.56
552.603	396.56
552.816	379.56
553.029	389.56
553.242	409.56
553.455	407.56
553.667	409.56
553.88	414.56
554.093	402.56
554.306	388.56
554.519	389.56
554.732	371.56
554.944	373.56
555.157	384.56
555.37	363.56
555.583	374.56
555.795	376.56
556.008	372.56
556.221	363.56
556.433	376.56
556.646	348.56
556.859	343.56
557.071	348.56
557.284	333.56
557.496	356.56
557.709	344.56
557.921	334.56
558.134	360.56
558.346	354.56
558.559	347.56
558.771	336.56
558.984	333.56
559.196	338.56
559.409	336.56
559.621	357.56
559.833	340.56
560.046	310.56
560.258	332.56
560.47	358.56
560.683	335.56
560.895	338.56
561.107	345.56
561.32	342.56
561.532	338.56
561.744	350.56
561.956	337.56
562.168	341.56
562.381	340.56
562.593	329.56
562.805	344.56
563.017	323.56
563.229	334.56
563.441	347.56
563.653	352.56
563.865	364.56
564.077	364.56
564.289	348.56
564.501	359.56
564.713	380.56
564.925	371.56
565.137	357.56
565.349	377.56
565.561	369.56
565.773	390.56
565.985	412.56
566.197	390.56
566.408	413.56
566.62	434.56
566.832	439.56
567.044	426.56
567.255	443.56
567.467	436.56
567.679	477.56
567.891	455.56
568.102	469.56
568.314	459.56
568.526	425.56
568.737	423.56
568.949	415.56
569.161	393.56
569.372	369.56
569.584	364.56
569.795	360.56
570.007	368.56
570.218	385.56
570.43	373.56
570.641	363.56
570.853	354.56
571.064	345.56
571.276	337.56
571.487	322.56
571.698	333.56
571.91	336.56
572.121	326.56
572.333	310.56
572.544	316.56
572.755	311.56
572.966	321.56
573.178	324.56
573.389	297.56
573.6	285.56
573.811	305.56
574.023	300.56
574.234	318.56
574.445	275.56
574.656	296.56
574.867	312.56
575.078	312.56
575.289	290.56
575.501	306.56
575.712	297.56
575.923	281.56
576.134	286.56
576.345	274.56
576.556	296.56
576.767	292.56
576.978	274.56
577.188	294.56
577.399	280.56
577.61	275.56
577.821	277.56
578.032	295.56
578.243	309.56
578.454	418.56
578.665	358.56
578.875	285.56
579.086	267.56
579.297	277.56
579.508	300.56
579.718	283.56
579.929	278.56
580.14	265.56
580.35	262.56
580.561	278.56
580.772	278.56
580.982	260.56
581.193	263.56
581.403	278.56
581.614	275.56
581.825	270.56
582.035	255.56
582.246	281.56
582.456	262.56
582.667	273.56
582.877	257.56
583.087	268.56
583.298	280.56
583.508	277.56
583.719	265.56
583.929	273.56
584.139	253.56
584.35	268.56
584.56	251.56
584.77	270.56
584.981	271.56
585.191	262.56
585.401	259.56
585.611	257.56
585.821	242.56
586.032	286.56
586.242	273.56
586.452	256.56
586.662	260.56
586.872	249.56
587.082	274.56
587.292	262.56
587.502	266.56
587.713	278.56
587.923	274.56
588.133	255.56
588.343	262.56
588.553	256.56
588.762	262.56
588.972	274.56
589.182	275.56
589.392	260.56
589.602	250.56
589.812	267.56
590.022	253.56
590.232	254.56
590.441	262.56
590.651	265.56
590.861	251.56
591.071	252.56
591.281	263.56
591.49	273.56
591.7	275.56
591.91	288.56
592.119	295.56
592.329	291.56
592.539	283.56
592.748	276.56
592.958	291.56
593.167	299.56
593.377	288.56
593.587	312.56
593.796	290.56
594.006	278.56
594.215	311.56
594.424	285.56
594.634	293.56
594.843	296.56
595.053	280.56
595.262	273.56
595.472	264.56
595.681	270.56
595.89	258.56
596.1	262.56
596.309	257.56
596.518	264.56
596.727	259.56
596.937	237.56
597.146	270.56
597.355	239.56
597.564	246.56
597.774	235.56
597.983	231.56
598.192	230.56
598.401	223.56
598.61	245.56
598.819	237.56
599.028	230.56
599.237	215.56
599.446	242.56
599.655	232.56
599.864	243.56
600.073	240.56
600.282	237.56
600.491	219.56
600.7	226.56
600.909	234.56
601.118	236.56
601.327	232.56
601.536	238.56
601.745	243.56
601.953	223.56
602.162	225.56
602.371	222.56
602.58	232.56
602.789	225.56
602.997	229.56
603.206	222.56
603.415	226.56
603.623	222.56
603.832	212.56
604.041	227.56
604.249	226.56
604.458	231.56
604.666	222.56
604.875	214.56
605.084	221.56
605.292	212.56
605.501	222.56
605.709	212.56
605.918	224.56
606.126	212.56
606.334	210.56
606.543	233.56
606.751	219.56
606.96	210.56
607.168	227.56
607.376	213.56
607.585	213.56
607.793	213.56
608.001	226.56
608.21	214.56
608.418	228.56
608.626	220.56
608.834	201.56
609.043	206.56
609.251	211.56
609.459	210.56
609.667	200.56
609.875	210.56
610.083	210.56
610.291	220.56
610.499	210.56
610.707	216.56
610.916	197.56
611.124	230.56
611.332	214.56
611.54	217.56
611.748	234.56
611.955	229.56
612.163	205.56
612.371	202.56
612.579	207.56
612.787	204.56
612.995	220.56
613.203	210.56
613.411	205.56
613.618	200.56
613.826	198.56
614.034	203.56
614.242	199.56
614.449	203.56
614.657	202.56
614.865	214.56
615.072	214.56
615.28	219.56
615.488	216.56
615.695	198.56
615.903	204.56
616.111	194.56
616.318	195.56
616.526	210.56
616.733	200.56
616.941	200.56
617.148	210.56
617.356	196.56
617.563	202.56
617.771	217.56
617.978	210.56
618.185	204.56
618.393	209.56
618.6	224.56
618.807	206.56
619.015	196.56
619.222	201.56
619.429	210.56
619.637	206.56
619.844	203.56
620.051	212.56
620.258	212.56
620.466	206.56
620.673	195.56
620.88	176.56
621.087	187.56
621.294	196.56
621.501	187.56
621.708	202.56
621.915	205.56
622.122	209.56
622.329	202.56
622.536	194.56
622.743	200.56
622.95	200.56
623.157	199.56
623.364	193.56
623.571	196.56
623.778	193.56
623.985	192.56
624.192	184.56
624.399	193.56
624.606	197.56
624.812	187.56
625.019	176.56
625.226	188.56
625.433	188.56
625.639	173.56
625.846	181.56
626.053	191.56
626.259	190.56
626.466	192.56
626.673	187.56
626.879	172.56
627.086	192.56
627.293	189.56
627.499	167.56
627.706	180.56
627.912	188.56
628.119	164.56
628.325	189.56
628.532	185.56
628.738	185.56
628.945	190.56
629.151	179.56
629.357	180.56
629.564	176.56
629.77	188.56
629.976	188.56
630.183	154.56
630.389	177.56
630.595	191.56
630.802	182.56
631.008	185.56
631.214	189.56
631.42	151.56
631.627	180.56
631.833	181.56
632.039	178.56
632.245	164.56
632.451	183.56
632.657	166.56
632.863	177.56
633.069	168.56
633.275	160.56
633.481	169.56
633.688	166.56
633.893	176.56
634.099	177.56
634.305	162.56
634.511	165.56
634.717	160.56
634.923	168.56
635.129	152.56
635.335	149.56
635.541	171.56
635.747	161.56
635.952	166.56
636.158	145.56
636.364	173.56
636.57	170.56
636.775	163.56
636.981	165.56
637.187	157.56
637.392	166.56
637.598	157.56
637.804	167.56
638.009	168.56
638.215	163.56
638.421	166.56
638.626	179.56
638.832	165.56
639.037	163.56
639.243	158.56
639.448	149.56
639.654	155.56
639.859	147.56
640.065	148.56
640.27	162.56
640.475	155.56
640.681	156.56
640.886	137.56
641.091	160.56
641.297	155.56
641.502	154.56
641.707	153.56
641.913	160.56
642.118	165.56
642.323	153.56
642.528	171.56
642.733	163.56
642.939	151.56
643.144	150.56
643.349	138.56
643.554	155.56
643.759	149.56
643.964	156.56
644.169	148.56
644.374	148.56
644.579	158.56
644.784	154.56
644.989	168.56
645.194	161.56
645.399	143.56
645.604	143.56
645.809	141.56
646.014	137.56
646.219	152.56
646.423	146.56
646.628	143.56
646.833	152.56
647.038	154.56
647.243	157.56
647.447	153.56
647.652	145.56
647.857	154.56
648.062	160.56
648.266	154.56
648.471	151.56
648.676	156.56
648.88	156.56
649.085	154.56
649.289	152.56
649.494	165.56
649.698	172.56
649.903	182.56
650.107	160.56
650.312	151.56
650.516	150.56
650.721	143.56
650.925	151.56
651.13	133.56
651.334	132.56
651.539	149.56
651.743	146.56
651.947	142.56
652.152	135.56
652.356	148.56
652.56	132.56
652.764	142.56
652.969	142.56
653.173	135.56
653.377	134.56
653.581	140.56
653.785	135.56
653.99	131.56
654.194	118.56
654.398	149.56
654.602	125.56
654.806	129.56
655.01	124.56
655.214	148.56
655.418	113.56
655.622	118.56
655.826	114.56
656.03	151.56
656.234	123.56
656.438	120.56
656.642	119.56
656.846	128.56
657.049	118.56
657.253	126.56
657.457	118.56
657.661	126.56
657.865	124.56
658.068	116.56
658.272	117.56
658.476	105.56
658.68	101.56
658.883	93.56
659.087	96.56
659.291	104.56
659.494	92.56
659.698	96.56
659.901	93.56
660.105	101.56
660.309	99.56
660.512	94.56
660.716	94.56
660.919	91.56
661.123	93.56
661.326	81.56
661.53	91.56
661.733	95.56
661.936	80.56
662.14	79.56
662.343	85.56
662.546	95.56
662.75	86.56
662.953	95.56
663.156	75.56
663.36	81.56
663.563	81.56
663.766	77.56
663.969	85.56
664.173	89.56
664.376	87.56
664.579	82.56
664.782	76.56
664.985	81.56
665.188	72.56
665.391	79.56
665.594	95.56
665.797	70.56
666	85.56
666.203	69.56
666.406	81.56
666.609	100.56
666.812	77.56
667.015	75.56
667.218	77.56
667.421	80.56
667.624	70.56
667.827	86.56
668.03	73.56
668.232	90.56
668.435	82.56
668.638	74.56
668.841	79.56
669.043	90.56
669.246	74.56
669.449	83.56
669.651	73.56
669.854	76.56
670.057	82.56
670.259	75.56
670.462	82.56
670.665	77.56
670.867	81.56
671.07	77.56
671.272	71.56
671.475	82.56
671.677	77.56
671.88	98.56
672.082	74.56
672.284	78.56
672.487	88.56
672.689	88.56
672.892	78.56
