Data from 1977.PennyLincolnUp.Lamp.En5.5.200Scan.071719.P1_HRD10591_16-07-31-864.txt Node
Date: Thu Jul 18 16:07:31 EDT 2019
User: cochatt
Spectrometer: HR+D1059
Trigger mode: 1
Integration Time (sec): 1.000000E-1
Scans to average: 1
Electric dark correction enabled: true
Nonlinearity correction enabled: false
Boxcar width: 0
XAxis mode: Wavelengths
Number of Pixels in Spectrum: 2048
>>>>>Begin Spectral Data<<<<<
223.165	-1.12
223.4	-1.12
223.635	-1.12
223.869	-19.12
224.104	-21.12
224.338	-19.12
224.573	-29.12
224.808	-17.12
225.042	-2.12
225.277	-10.12
225.511	-1.12
225.746	10.88
225.98	7.88
226.215	-0.12
226.449	26.88
226.683	16.88
226.918	22.88
227.152	34.88
227.387	38.88
227.621	42.88
227.856	43.88
228.09	38.88
228.324	42.88
228.559	69.88
228.793	61.88
229.027	90.88
229.262	99.88
229.496	101.88
229.73	126.88
229.964	149.88
230.199	125.88
230.433	123.88
230.667	116.88
230.901	115.88
231.136	105.88
231.37	106.88
231.604	117.88
231.838	117.88
232.072	123.88
232.306	137.88
232.541	116.88
232.775	123.88
233.009	119.88
233.243	125.88
233.477	118.88
233.711	128.88
233.945	127.88
234.179	120.88
234.413	107.88
234.647	123.88
234.881	103.88
235.115	113.88
235.349	115.88
235.583	103.88
235.817	123.88
236.051	122.88
236.285	123.88
236.519	128.88
236.753	137.88
236.987	141.88
237.221	172.88
237.455	215.88
237.689	165.88
237.922	143.88
238.156	144.88
238.39	133.88
238.624	119.88
238.858	140.88
239.091	133.88
239.325	126.88
239.559	136.88
239.793	130.88
240.027	129.88
240.26	123.88
240.494	150.88
240.728	158.88
240.961	167.88
241.195	152.88
241.429	140.88
241.662	143.88
241.896	139.88
242.13	131.88
242.363	144.88
242.597	137.88
242.83	135.88
243.064	155.88
243.298	142.88
243.531	140.88
243.765	143.88
243.998	143.88
244.232	136.88
244.465	148.88
244.699	130.88
244.932	143.88
245.166	130.88
245.399	148.88
245.633	144.88
245.866	182.88
246.099	141.88
246.333	151.88
246.566	154.88
246.8	137.88
247.033	165.88
247.266	159.88
247.5	179.88
247.733	188.88
247.966	158.88
248.2	148.88
248.433	170.88
248.666	204.88
248.899	177.88
249.133	191.88
249.366	203.88
249.599	190.88
249.832	179.88
250.066	170.88
250.299	171.88
250.532	170.88
250.765	194.88
250.998	226.88
251.231	218.88
251.465	221.88
251.698	195.88
251.931	201.88
252.164	207.88
252.397	198.88
252.63	201.88
252.863	220.88
253.096	212.88
253.329	215.88
253.562	200.88
253.795	214.88
254.028	215.88
254.261	229.88
254.494	228.88
254.727	263.88
254.96	275.88
255.193	246.88
255.426	238.88
255.659	228.88
255.892	231.88
256.124	217.88
256.357	243.88
256.59	233.88
256.823	226.88
257.056	219.88
257.289	197.88
257.521	191.88
257.754	204.88
257.987	204.88
258.22	221.88
258.452	203.88
258.685	202.88
258.918	202.88
259.151	213.88
259.383	219.88
259.616	220.88
259.849	227.88
260.081	251.88
260.314	275.88
260.547	245.88
260.779	250.88
261.012	249.88
261.244	229.88
261.477	213.88
261.71	220.88
261.942	221.88
262.175	222.88
262.407	212.88
262.64	211.88
262.872	229.88
263.105	219.88
263.337	224.88
263.57	218.88
263.802	230.88
264.035	215.88
264.267	223.88
264.499	239.88
264.732	224.88
264.964	240.88
265.197	226.88
265.429	219.88
265.661	218.88
265.894	227.88
266.126	237.88
266.358	211.88
266.591	234.88
266.823	242.88
267.055	254.88
267.287	250.88
267.52	245.88
267.752	256.88
267.984	231.88
268.216	230.88
268.448	238.88
268.681	241.88
268.913	241.88
269.145	277.88
269.377	285.88
269.609	273.88
269.841	281.88
270.073	269.88
270.306	305.88
270.538	323.88
270.77	327.88
271.002	309.88
271.234	287.88
271.466	301.88
271.698	287.88
271.93	315.88
272.162	312.88
272.394	307.88
272.626	311.88
272.858	272.88
273.09	285.88
273.322	290.88
273.553	280.88
273.785	261.88
274.017	269.88
274.249	276.88
274.481	286.88
274.713	276.88
274.945	262.88
275.176	280.88
275.408	290.88
275.64	295.88
275.872	279.88
276.104	286.88
276.335	277.88
276.567	285.88
276.799	295.88
277.031	325.88
277.262	320.88
277.494	329.88
277.726	313.88
277.957	295.88
278.189	281.88
278.421	302.88
278.652	296.88
278.884	284.88
279.115	287.88
279.347	287.88
279.579	303.88
279.81	267.88
280.042	293.88
280.273	297.88
280.505	286.88
280.736	285.88
280.968	273.88
281.199	278.88
281.431	295.88
281.662	274.88
281.894	280.88
282.125	295.88
282.356	313.88
282.588	315.88
282.819	316.88
283.051	306.88
283.282	290.88
283.513	298.88
283.745	299.88
283.976	303.88
284.207	312.88
284.439	307.88
284.67	303.88
284.901	299.88
285.132	301.88
285.364	315.88
285.595	301.88
285.826	287.88
286.057	293.88
286.288	322.88
286.52	314.88
286.751	287.88
286.982	307.88
287.213	295.88
287.444	297.88
287.675	306.88
287.906	307.88
288.138	336.88
288.369	337.88
288.6	327.88
288.831	339.88
289.062	330.88
289.293	308.88
289.524	319.88
289.755	318.88
289.986	313.88
290.217	313.88
290.448	310.88
290.679	314.88
290.91	317.88
291.141	318.88
291.371	319.88
291.602	297.88
291.833	317.88
292.064	327.88
292.295	327.88
292.526	321.88
292.757	301.88
292.987	299.88
293.218	299.88
293.449	306.88
293.68	328.88
293.91	315.88
294.141	334.88
294.372	313.88
294.603	295.88
294.833	314.88
295.064	305.88
295.295	324.88
295.525	314.88
295.756	315.88
295.987	325.88
296.217	334.88
296.448	343.88
296.679	339.88
296.909	312.88
297.14	327.88
297.37	331.88
297.601	326.88
297.831	332.88
298.062	330.88
298.292	318.88
298.523	346.88
298.753	320.88
298.984	331.88
299.214	336.88
299.445	335.88
299.675	342.88
299.905	336.88
300.136	326.88
300.366	362.88
300.597	339.88
300.827	333.88
301.057	344.88
301.288	359.88
301.518	358.88
301.748	342.88
301.979	353.88
302.209	343.88
302.439	358.88
302.669	357.88
302.9	363.88
303.13	358.88
303.36	358.88
303.59	373.88
303.82	362.88
304.051	334.88
304.281	350.88
304.511	354.88
304.741	346.88
304.971	338.88
305.201	358.88
305.431	348.88
305.661	370.88
305.891	377.88
306.121	370.88
306.352	349.88
306.582	356.88
306.812	362.88
307.042	366.88
307.272	353.88
307.502	353.88
307.731	370.88
307.961	384.88
308.191	348.88
308.421	362.88
308.651	374.88
308.881	348.88
309.111	369.88
309.341	373.88
309.571	407.88
309.8	378.88
310.03	375.88
310.26	389.88
310.49	408.88
310.72	399.88
310.949	405.88
311.179	418.88
311.409	398.88
311.639	383.88
311.868	378.88
312.098	390.88
312.328	404.88
312.557	433.88
312.787	414.88
313.017	417.88
313.246	395.88
313.476	385.88
313.706	381.88
313.935	425.88
314.165	413.88
314.394	408.88
314.624	406.88
314.853	421.88
315.083	394.88
315.312	390.88
315.542	398.88
315.771	391.88
316.001	421.88
316.23	389.88
316.46	374.88
316.689	397.88
316.919	411.88
317.148	428.88
317.377	409.88
317.607	390.88
317.836	405.88
318.065	410.88
318.295	404.88
318.524	387.88
318.753	399.88
318.983	392.88
319.212	407.88
319.441	419.88
319.67	403.88
319.9	419.88
320.129	405.88
320.358	390.88
320.587	413.88
320.816	428.88
321.046	435.88
321.275	437.88
321.504	440.88
321.733	414.88
321.962	433.88
322.191	427.88
322.42	437.88
322.649	450.88
322.878	464.88
323.108	479.88
323.337	475.88
323.566	482.88
323.795	515.88
324.024	579.88
324.253	677.88
324.482	887.88
324.71	1327.88
324.939	1826.88
325.168	1571.88
325.397	839.88
325.626	619.88
325.855	533.88
326.084	498.88
326.313	494.88
326.542	484.88
326.77	554.88
326.999	635.88
327.228	810.88
327.457	1167.88
327.686	1405.88
327.914	964.88
328.143	650.88
328.372	577.88
328.6	557.88
328.829	532.88
329.058	520.88
329.287	551.88
329.515	517.88
329.744	503.88
329.972	494.88
330.201	487.88
330.43	545.88
330.658	564.88
330.887	583.88
331.115	574.88
331.344	511.88
331.572	489.88
331.801	510.88
332.03	494.88
332.258	500.88
332.486	482.88
332.715	475.88
332.943	498.88
333.172	488.88
333.4	495.88
333.629	493.88
333.857	498.88
334.085	511.88
334.314	527.88
334.542	557.88
334.771	551.88
334.999	542.88
335.227	507.88
335.455	486.88
335.684	480.88
335.912	461.88
336.14	490.88
336.369	476.88
336.597	484.88
336.825	463.88
337.053	478.88
337.281	435.88
337.51	489.88
337.738	465.88
337.966	485.88
338.194	468.88
338.422	467.88
338.65	445.88
338.878	463.88
339.106	466.88
339.334	462.88
339.562	459.88
339.79	460.88
340.018	453.88
340.246	460.88
340.474	473.88
340.702	453.88
340.93	459.88
341.158	438.88
341.386	462.88
341.614	454.88
341.842	457.88
342.07	456.88
342.298	444.88
342.526	447.88
342.754	448.88
342.981	431.88
343.209	450.88
343.437	433.88
343.665	450.88
343.893	454.88
344.12	459.88
344.348	458.88
344.576	458.88
344.804	470.88
345.031	456.88
345.259	461.88
345.487	444.88
345.714	438.88
345.942	434.88
346.17	439.88
346.397	443.88
346.625	429.88
346.853	425.88
347.08	428.88
347.308	440.88
347.535	441.88
347.763	423.88
347.99	426.88
348.218	422.88
348.445	447.88
348.673	429.88
348.9	429.88
349.128	428.88
349.355	409.88
349.583	413.88
349.81	405.88
350.037	421.88
350.265	409.88
350.492	415.88
350.72	415.88
350.947	412.88
351.174	418.88
351.402	428.88
351.629	454.88
351.856	435.88
352.083	441.88
352.311	433.88
352.538	437.88
352.765	422.88
352.992	422.88
353.22	417.88
353.447	397.88
353.674	418.88
353.901	387.88
354.128	404.88
354.355	377.88
354.583	387.88
354.81	398.88
355.037	398.88
355.264	373.88
355.491	409.88
355.718	384.88
355.945	403.88
356.172	385.88
356.399	405.88
356.626	407.88
356.853	389.88
357.08	407.88
357.307	399.88
357.534	390.88
357.761	386.88
357.988	400.88
358.215	369.88
358.441	408.88
358.668	389.88
358.895	397.88
359.122	400.88
359.349	429.88
359.576	422.88
359.802	446.88
360.029	439.88
360.256	442.88
360.483	445.88
360.709	445.88
360.936	416.88
361.163	430.88
361.39	421.88
361.616	419.88
361.843	409.88
362.07	406.88
362.296	398.88
362.523	417.88
362.749	421.88
362.976	419.88
363.203	395.88
363.429	398.88
363.656	389.88
363.882	383.88
364.109	376.88
364.335	383.88
364.562	389.88
364.788	396.88
365.015	400.88
365.241	407.88
365.468	409.88
365.694	386.88
365.92	402.88
366.147	396.88
366.373	392.88
366.599	394.88
366.826	382.88
367.052	397.88
367.278	406.88
367.505	425.88
367.731	404.88
367.957	382.88
368.184	395.88
368.41	410.88
368.636	399.88
368.862	403.88
369.089	401.88
369.315	407.88
369.541	395.88
369.767	379.88
369.993	399.88
370.219	394.88
370.445	387.88
370.672	376.88
370.898	380.88
371.124	394.88
371.35	395.88
371.576	386.88
371.802	408.88
372.028	371.88
372.254	389.88
372.48	397.88
372.706	401.88
372.932	395.88
373.158	380.88
373.384	398.88
373.61	402.88
373.835	406.88
374.061	403.88
374.287	414.88
374.513	399.88
374.739	412.88
374.965	408.88
375.191	409.88
375.416	422.88
375.642	415.88
375.868	396.88
376.094	407.88
376.319	409.88
376.545	386.88
376.771	385.88
376.997	388.88
377.222	388.88
377.448	393.88
377.674	409.88
377.899	389.88
378.125	384.88
378.35	372.88
378.576	414.88
378.802	378.88
379.027	379.88
379.253	384.88
379.478	389.88
379.704	368.88
379.929	383.88
380.155	386.88
380.38	391.88
380.606	390.88
380.831	386.88
381.057	394.88
381.282	407.88
381.507	394.88
381.733	396.88
381.958	402.88
382.184	390.88
382.409	415.88
382.634	413.88
382.86	403.88
383.085	437.88
383.31	411.88
383.535	415.88
383.761	395.88
383.986	404.88
384.211	414.88
384.436	413.88
384.662	405.88
384.887	405.88
385.112	430.88
385.337	437.88
385.562	437.88
385.787	410.88
386.013	436.88
386.238	426.88
386.463	437.88
386.688	430.88
386.913	413.88
387.138	428.88
387.363	431.88
387.588	404.88
387.813	438.88
388.038	435.88
388.263	410.88
388.488	419.88
388.713	426.88
388.938	413.88
389.163	421.88
389.387	433.88
389.612	418.88
389.837	443.88
390.062	433.88
390.287	425.88
390.512	424.88
390.736	417.88
390.961	441.88
391.186	437.88
391.411	438.88
391.636	442.88
391.86	442.88
392.085	446.88
392.31	460.88
392.534	446.88
392.759	449.88
392.984	450.88
393.208	428.88
393.433	451.88
393.658	453.88
393.882	440.88
394.107	428.88
394.331	420.88
394.556	429.88
394.78	418.88
395.005	445.88
395.229	463.88
395.454	435.88
395.678	466.88
395.903	466.88
396.127	476.88
396.352	468.88
396.576	454.88
396.801	449.88
397.025	450.88
397.249	431.88
397.474	460.88
397.698	460.88
397.922	454.88
398.147	475.88
398.371	487.88
398.595	490.88
398.82	498.88
399.044	519.88
399.268	523.88
399.492	567.88
399.717	589.88
399.941	623.88
400.165	619.88
400.389	616.88
400.613	556.88
400.837	521.88
401.062	515.88
401.286	497.88
401.51	491.88
401.734	505.88
401.958	511.88
402.182	493.88
402.406	508.88
402.63	496.88
402.854	506.88
403.078	509.88
403.302	515.88
403.526	510.88
403.75	505.88
403.974	507.88
404.198	522.88
404.422	532.88
404.645	519.88
404.869	527.88
405.093	566.88
405.317	594.88
405.541	577.88
405.765	541.88
405.988	533.88
406.212	533.88
406.436	549.88
406.66	553.88
406.883	549.88
407.107	569.88
407.331	586.88
407.555	664.88
407.778	662.88
408.002	580.88
408.226	569.88
408.449	547.88
408.673	561.88
408.896	569.88
409.12	606.88
409.344	556.88
409.567	520.88
409.791	539.88
410.014	508.88
410.238	501.88
410.461	521.88
410.685	518.88
410.908	530.88
411.132	567.88
411.355	558.88
411.578	543.88
411.802	503.88
412.025	482.88
412.249	507.88
412.472	507.88
412.695	535.88
412.919	538.88
413.142	509.88
413.365	505.88
413.589	502.88
413.812	491.88
414.035	455.88
414.258	481.88
414.482	497.88
414.705	483.88
414.928	484.88
415.151	463.88
415.374	463.88
415.597	473.88
415.821	464.88
416.044	472.88
416.267	484.88
416.49	473.88
416.713	456.88
416.936	477.88
417.159	470.88
417.382	484.88
417.605	469.88
417.828	473.88
418.051	504.88
418.274	459.88
418.497	481.88
418.72	497.88
418.943	487.88
419.166	499.88
419.389	494.88
419.611	521.88
419.834	499.88
420.057	522.88
420.28	493.88
420.503	491.88
420.726	484.88
420.948	509.88
421.171	527.88
421.394	561.88
421.617	506.88
421.839	494.88
422.062	495.88
422.285	513.88
422.507	557.88
422.73	610.88
422.953	597.88
423.175	539.88
423.398	514.88
423.621	513.88
423.843	535.88
424.066	536.88
424.288	509.88
424.511	541.88
424.733	578.88
424.956	663.88
425.178	621.88
425.401	633.88
425.623	608.88
425.846	583.88
426.068	531.88
426.291	493.88
426.513	521.88
426.735	513.88
426.958	561.88
427.18	631.88
427.402	702.88
427.625	790.88
427.847	677.88
428.069	596.88
428.292	543.88
428.514	506.88
428.736	486.88
428.958	498.88
429.181	471.88
429.403	467.88
429.625	480.88
429.847	494.88
430.069	563.88
430.292	563.88
430.514	494.88
430.736	458.88
430.958	473.88
431.18	454.88
431.402	465.88
431.624	438.88
431.846	453.88
432.068	447.88
432.29	455.88
432.512	445.88
432.734	452.88
432.956	466.88
433.178	467.88
433.4	455.88
433.622	442.88
433.844	439.88
434.066	443.88
434.287	446.88
434.509	477.88
434.731	454.88
434.953	474.88
435.175	483.88
435.397	499.88
435.618	516.88
435.84	555.88
436.062	630.88
436.284	672.88
436.505	578.88
436.727	507.88
436.949	495.88
437.17	487.88
437.392	466.88
437.614	473.88
437.835	497.88
438.057	594.88
438.278	655.88
438.5	661.88
438.721	705.88
438.943	705.88
439.165	574.88
439.386	513.88
439.608	500.88
439.829	511.88
440.05	525.88
440.272	565.88
440.493	547.88
440.715	508.88
440.936	473.88
441.158	477.88
441.379	499.88
441.6	501.88
441.822	516.88
442.043	531.88
442.264	591.88
442.486	642.88
442.707	563.88
442.928	511.88
443.149	513.88
443.371	559.88
443.592	577.88
443.813	668.88
444.034	722.88
444.255	594.88
444.476	547.88
444.698	534.88
444.919	521.88
445.14	637.88
445.361	601.88
445.582	562.88
445.803	590.88
446.024	683.88
446.245	698.88
446.466	618.88
446.687	547.88
446.908	529.88
447.129	468.88
447.35	479.88
447.571	472.88
447.792	453.88
448.013	467.88
448.234	482.88
448.455	534.88
448.675	610.88
448.896	709.88
449.117	595.88
449.338	600.88
449.559	664.88
449.779	769.88
450	619.88
450.221	523.88
450.442	482.88
450.662	459.88
450.883	485.88
451.104	467.88
451.324	462.88
451.545	431.88
451.766	429.88
451.986	413.88
452.207	414.88
452.428	413.88
452.648	422.88
452.869	413.88
453.089	422.88
453.31	422.88
453.53	421.88
453.751	421.88
453.971	405.88
454.192	416.88
454.412	422.88
454.633	407.88
454.853	419.88
455.073	412.88
455.294	446.88
455.514	483.88
455.734	467.88
455.955	442.88
456.175	407.88
456.395	403.88
456.616	392.88
456.836	409.88
457.056	391.88
457.276	376.88
457.497	403.88
457.717	398.88
457.937	414.88
458.157	409.88
458.377	419.88
458.598	442.88
458.818	459.88
459.038	532.88
459.258	561.88
459.478	485.88
459.698	433.88
459.918	467.88
460.138	451.88
460.358	458.88
460.578	473.88
460.798	484.88
461.018	456.88
461.238	484.88
461.458	469.88
461.678	462.88
461.898	475.88
462.118	445.88
462.338	454.88
462.558	490.88
462.777	487.88
462.997	503.88
463.217	521.88
463.437	514.88
463.657	495.88
463.876	514.88
464.096	521.88
464.316	500.88
464.536	514.88
464.755	490.88
464.975	523.88
465.195	525.88
465.414	556.88
465.634	497.88
465.854	474.88
466.073	453.88
466.293	452.88
466.512	418.88
466.732	435.88
466.951	413.88
467.171	426.88
467.391	424.88
467.61	425.88
467.829	454.88
468.049	462.88
468.268	427.88
468.488	424.88
468.707	397.88
468.927	415.88
469.146	399.88
469.365	412.88
469.585	412.88
469.804	441.88
470.023	417.88
470.243	398.88
470.462	433.88
470.681	459.88
470.901	446.88
471.12	441.88
471.339	458.88
471.558	429.88
471.777	413.88
471.997	433.88
472.216	420.88
472.435	451.88
472.654	436.88
472.873	437.88
473.092	448.88
473.311	409.88
473.53	412.88
473.749	441.88
473.968	462.88
474.187	545.88
474.406	573.88
474.625	470.88
474.844	451.88
475.063	441.88
475.282	411.88
475.501	438.88
475.72	439.88
475.939	436.88
476.158	428.88
476.377	441.88
476.596	429.88
476.814	455.88
477.033	459.88
477.252	462.88
477.471	468.88
477.69	458.88
477.908	459.88
478.127	478.88
478.346	464.88
478.564	485.88
478.783	486.88
479.002	482.88
479.22	482.88
479.439	511.88
479.658	490.88
479.876	527.88
480.095	525.88
480.313	562.88
480.532	569.88
480.751	537.88
480.969	540.88
481.188	575.88
481.406	579.88
481.624	556.88
481.843	511.88
482.061	506.88
482.28	511.88
482.498	488.88
482.717	483.88
482.935	512.88
483.153	498.88
483.372	495.88
483.59	486.88
483.808	510.88
484.027	502.88
484.245	492.88
484.463	485.88
484.681	502.88
484.9	517.88
485.118	505.88
485.336	519.88
485.554	500.88
485.772	525.88
485.99	501.88
486.209	505.88
486.427	510.88
486.645	520.88
486.863	555.88
487.081	523.88
487.299	535.88
487.517	540.88
487.735	529.88
487.953	523.88
488.171	525.88
488.389	537.88
488.607	539.88
488.825	510.88
489.043	524.88
489.261	520.88
489.479	545.88
489.696	537.88
489.914	547.88
490.132	553.88
490.35	533.88
490.568	550.88
490.786	554.88
491.003	563.88
491.221	572.88
491.439	582.88
491.657	582.88
491.874	599.88
492.092	576.88
492.31	598.88
492.527	596.88
492.745	586.88
492.963	588.88
493.18	606.88
493.398	588.88
493.615	595.88
493.833	620.88
494.05	620.88
494.268	625.88
494.485	612.88
494.703	608.88
494.92	605.88
495.138	626.88
495.355	624.88
495.573	638.88
495.79	628.88
496.008	610.88
496.225	594.88
496.442	610.88
496.66	609.88
496.877	631.88
497.094	637.88
497.312	611.88
497.529	636.88
497.746	645.88
497.963	649.88
498.181	689.88
498.398	699.88
498.615	700.88
498.832	724.88
499.049	757.88
499.267	780.88
499.484	773.88
499.701	812.88
499.918	869.88
500.135	923.88
500.352	937.88
500.569	982.88
500.786	943.88
501.003	931.88
501.22	922.88
501.437	886.88
501.654	830.88
501.871	844.88
502.088	796.88
502.305	738.88
502.522	749.88
502.739	719.88
502.956	693.88
503.172	673.88
503.389	662.88
503.606	646.88
503.823	661.88
504.04	661.88
504.256	644.88
504.473	617.88
504.69	617.88
504.907	630.88
505.123	628.88
505.34	604.88
505.557	585.88
505.773	590.88
505.99	594.88
506.207	594.88
506.423	564.88
506.64	574.88
506.856	570.88
507.073	587.88
507.289	594.88
507.506	579.88
507.722	566.88
507.939	560.88
508.155	561.88
508.372	563.88
508.588	563.88
508.805	555.88
509.021	550.88
509.238	578.88
509.454	577.88
509.67	558.88
509.887	558.88
510.103	524.88
510.319	545.88
510.536	626.88
510.752	921.88
510.968	772.88
511.184	571.88
511.401	535.88
511.617	536.88
511.833	521.88
512.049	513.88
512.265	549.88
512.481	536.88
512.698	515.88
512.914	513.88
513.13	527.88
513.346	511.88
513.562	515.88
513.778	503.88
513.994	515.88
514.21	521.88
514.426	525.88
514.642	543.88
514.858	557.88
515.074	585.88
515.29	683.88
515.506	891.88
515.721	765.88
515.937	589.88
516.153	560.88
516.369	558.88
516.585	549.88
516.801	542.88
517.016	542.88
517.232	555.88
517.448	552.88
517.664	565.88
517.879	542.88
518.095	572.88
518.311	577.88
518.527	545.88
518.742	538.88
518.958	539.88
519.173	535.88
519.389	531.88
519.605	550.88
519.82	528.88
520.036	538.88
520.251	527.88
520.467	547.88
520.682	554.88
520.898	539.88
521.113	556.88
521.329	564.88
521.544	610.88
521.76	751.88
521.975	1110.88
522.19	1060.88
522.406	656.88
522.621	545.88
522.836	515.88
523.052	510.88
523.267	481.88
523.482	474.88
523.698	473.88
523.913	487.88
524.128	466.88
524.343	451.88
524.559	482.88
524.774	440.88
524.989	461.88
525.204	441.88
525.419	463.88
525.634	451.88
525.849	441.88
526.064	436.88
526.28	434.88
526.495	440.88
526.71	450.88
526.925	438.88
527.14	414.88
527.355	400.88
527.57	413.88
527.785	445.88
527.999	420.88
528.214	415.88
528.429	443.88
528.644	433.88
528.859	437.88
529.074	444.88
529.289	448.88
529.503	484.88
529.718	496.88
529.933	446.88
530.148	466.88
530.363	452.88
530.577	430.88
530.792	412.88
531.007	405.88
531.221	404.88
531.436	415.88
531.651	416.88
531.865	429.88
532.08	421.88
532.295	405.88
532.509	423.88
532.724	405.88
532.938	424.88
533.153	411.88
533.367	394.88
533.582	420.88
533.796	414.88
534.011	423.88
534.225	412.88
534.44	412.88
534.654	404.88
534.868	415.88
535.083	393.88
535.297	424.88
535.511	419.88
535.726	417.88
535.94	403.88
536.154	402.88
536.369	409.88
536.583	402.88
536.797	407.88
537.011	414.88
537.225	407.88
537.44	394.88
537.654	391.88
537.868	398.88
538.082	392.88
538.296	412.88
538.51	397.88
538.724	402.88
538.938	390.88
539.153	390.88
539.367	387.88
539.581	392.88
539.795	405.88
540.009	417.88
540.222	402.88
540.436	400.88
540.65	400.88
540.864	397.88
541.078	400.88
541.292	384.88
541.506	399.88
541.72	397.88
541.934	382.88
542.147	408.88
542.361	394.88
542.575	389.88
542.789	393.88
543.002	396.88
543.216	392.88
543.43	416.88
543.644	389.88
543.857	394.88
544.071	386.88
544.285	396.88
544.498	394.88
544.712	391.88
544.925	387.88
545.139	389.88
545.352	370.88
545.566	399.88
545.779	401.88
545.993	387.88
546.206	404.88
546.42	411.88
546.633	390.88
546.847	366.88
547.06	390.88
547.274	393.88
547.487	393.88
547.7	394.88
547.914	385.88
548.127	381.88
548.34	399.88
548.554	378.88
548.767	388.88
548.98	390.88
549.193	389.88
549.407	385.88
549.62	378.88
549.833	386.88
550.046	374.88
550.259	403.88
550.473	376.88
550.686	400.88
550.899	371.88
551.112	386.88
551.325	366.88
551.538	385.88
551.751	373.88
551.964	390.88
552.177	401.88
552.39	391.88
552.603	406.88
552.816	397.88
553.029	420.88
553.242	399.88
553.455	413.88
553.667	397.88
553.88	380.88
554.093	377.88
554.306	414.88
554.519	385.88
554.732	375.88
554.944	378.88
555.157	380.88
555.37	378.88
555.583	377.88
555.795	361.88
556.008	371.88
556.221	369.88
556.433	353.88
556.646	366.88
556.859	345.88
557.071	339.88
557.284	362.88
557.496	340.88
557.709	345.88
557.921	334.88
558.134	342.88
558.346	354.88
558.559	344.88
558.771	343.88
558.984	342.88
559.196	340.88
559.409	335.88
559.621	347.88
559.833	338.88
560.046	329.88
560.258	338.88
560.47	333.88
560.683	336.88
560.895	343.88
561.107	344.88
561.32	344.88
561.532	325.88
561.744	354.88
561.956	337.88
562.168	347.88
562.381	342.88
562.593	341.88
562.805	353.88
563.017	344.88
563.229	353.88
563.441	345.88
563.653	368.88
563.865	363.88
564.077	350.88
564.289	355.88
564.501	353.88
564.713	358.88
564.925	355.88
565.137	387.88
565.349	369.88
565.561	387.88
565.773	398.88
565.985	383.88
566.197	404.88
566.408	413.88
566.62	411.88
566.832	430.88
567.044	445.88
567.255	456.88
567.467	454.88
567.679	442.88
567.891	462.88
568.102	449.88
568.314	468.88
568.526	448.88
568.737	430.88
568.949	425.88
569.161	391.88
569.372	374.88
569.584	370.88
569.795	362.88
570.007	356.88
570.218	378.88
570.43	365.88
570.641	350.88
570.853	332.88
571.064	333.88
571.276	333.88
571.487	326.88
571.698	327.88
571.91	343.88
572.121	326.88
572.333	331.88
572.544	335.88
572.755	331.88
572.966	300.88
573.178	319.88
573.389	299.88
573.6	297.88
573.811	292.88
574.023	316.88
574.234	300.88
574.445	307.88
574.656	305.88
574.867	306.88
575.078	307.88
575.289	310.88
575.501	280.88
575.712	300.88
575.923	282.88
576.134	294.88
576.345	297.88
576.556	287.88
576.767	286.88
576.978	306.88
577.188	274.88
577.399	280.88
577.61	284.88
577.821	283.88
578.032	277.88
578.243	310.88
578.454	427.88
578.665	348.88
578.875	275.88
579.086	266.88
579.297	276.88
579.508	265.88
579.718	269.88
579.929	269.88
580.14	272.88
580.35	278.88
580.561	271.88
580.772	282.88
580.982	265.88
581.193	264.88
581.403	255.88
581.614	257.88
581.825	269.88
582.035	261.88
582.246	270.88
582.456	283.88
582.667	265.88
582.877	268.88
583.087	267.88
583.298	267.88
583.508	264.88
583.719	274.88
583.929	261.88
584.139	256.88
584.35	262.88
584.56	264.88
584.77	277.88
584.981	259.88
585.191	269.88
585.401	260.88
585.611	267.88
585.821	267.88
586.032	254.88
586.242	279.88
586.452	253.88
586.662	264.88
586.872	262.88
587.082	265.88
587.292	250.88
587.502	273.88
587.713	268.88
587.923	256.88
588.133	262.88
588.343	250.88
588.553	250.88
588.762	259.88
588.972	245.88
589.182	259.88
589.392	255.88
589.602	269.88
589.812	249.88
590.022	282.88
590.232	261.88
590.441	275.88
590.651	279.88
590.861	269.88
591.071	257.88
591.281	274.88
591.49	253.88
591.7	270.88
591.91	277.88
592.119	277.88
592.329	260.88
592.539	283.88
592.748	258.88
592.958	275.88
593.167	278.88
593.377	275.88
593.587	282.88
593.796	277.88
594.006	286.88
594.215	284.88
594.424	306.88
594.634	289.88
594.843	279.88
595.053	268.88
595.262	271.88
595.472	274.88
595.681	278.88
595.89	276.88
596.1	259.88
596.309	259.88
596.518	235.88
596.727	254.88
596.937	259.88
597.146	248.88
597.355	246.88
597.564	227.88
597.774	222.88
597.983	223.88
598.192	214.88
598.401	230.88
598.61	239.88
598.819	241.88
599.028	237.88
599.237	248.88
599.446	230.88
599.655	238.88
599.864	243.88
600.073	227.88
600.282	254.88
600.491	217.88
600.7	211.88
600.909	228.88
601.118	251.88
601.327	211.88
601.536	226.88
601.745	233.88
601.953	236.88
602.162	241.88
602.371	226.88
602.58	233.88
602.789	218.88
602.997	218.88
603.206	215.88
603.415	220.88
603.623	235.88
603.832	227.88
604.041	208.88
604.249	208.88
604.458	207.88
604.666	221.88
604.875	214.88
605.084	220.88
605.292	231.88
605.501	211.88
605.709	214.88
605.918	228.88
606.126	207.88
606.334	217.88
606.543	219.88
606.751	227.88
606.96	223.88
607.168	214.88
607.376	212.88
607.585	224.88
607.793	218.88
608.001	224.88
608.21	228.88
608.418	210.88
608.626	232.88
608.834	212.88
609.043	201.88
609.251	222.88
609.459	212.88
609.667	217.88
609.875	205.88
610.083	215.88
610.291	222.88
610.499	218.88
610.707	203.88
610.916	214.88
611.124	217.88
611.332	213.88
611.54	231.88
611.748	233.88
611.955	231.88
612.163	223.88
612.371	223.88
612.579	198.88
612.787	217.88
612.995	219.88
613.203	210.88
613.411	204.88
613.618	216.88
613.826	204.88
614.034	193.88
614.242	201.88
614.449	207.88
614.657	228.88
614.865	206.88
615.072	217.88
615.28	218.88
615.488	205.88
615.695	214.88
615.903	225.88
616.111	214.88
616.318	211.88
616.526	201.88
616.733	217.88
616.941	218.88
617.148	204.88
617.356	205.88
617.563	216.88
617.771	194.88
617.978	208.88
618.185	206.88
618.393	193.88
618.6	228.88
618.807	221.88
619.015	203.88
619.222	212.88
619.429	203.88
619.637	195.88
619.844	205.88
620.051	191.88
620.258	196.88
620.466	193.88
620.673	190.88
620.88	205.88
621.087	213.88
621.294	199.88
621.501	206.88
621.708	194.88
621.915	199.88
622.122	179.88
622.329	193.88
622.536	198.88
622.743	174.88
622.95	201.88
623.157	192.88
623.364	194.88
623.571	181.88
623.778	198.88
623.985	199.88
624.192	206.88
624.399	184.88
624.606	190.88
624.812	187.88
625.019	178.88
625.226	206.88
625.433	197.88
625.639	172.88
625.846	173.88
626.053	178.88
626.259	196.88
626.466	193.88
626.673	183.88
626.879	182.88
627.086	184.88
627.293	190.88
627.499	174.88
627.706	185.88
627.912	172.88
628.119	177.88
628.325	171.88
628.532	184.88
628.738	179.88
628.945	163.88
629.151	178.88
629.357	173.88
629.564	171.88
629.77	162.88
629.976	177.88
630.183	165.88
630.389	193.88
630.595	175.88
630.802	188.88
631.008	169.88
631.214	173.88
631.42	162.88
631.627	183.88
631.833	171.88
632.039	171.88
632.245	168.88
632.451	179.88
632.657	165.88
632.863	166.88
633.069	168.88
633.275	154.88
633.481	162.88
633.688	176.88
633.893	160.88
634.099	179.88
634.305	158.88
634.511	158.88
634.717	167.88
634.923	177.88
635.129	157.88
635.335	190.88
635.541	164.88
635.747	162.88
635.952	167.88
636.158	160.88
636.364	165.88
636.57	161.88
636.775	154.88
636.981	161.88
637.187	172.88
637.392	167.88
637.598	164.88
637.804	149.88
638.009	152.88
638.215	166.88
638.421	165.88
638.626	162.88
638.832	162.88
639.037	177.88
639.243	155.88
639.448	151.88
639.654	165.88
639.859	163.88
640.065	158.88
640.27	163.88
640.475	161.88
640.681	162.88
640.886	148.88
641.091	145.88
641.297	159.88
641.502	145.88
641.707	170.88
641.913	162.88
642.118	143.88
642.323	165.88
642.528	161.88
642.733	133.88
642.939	141.88
643.144	164.88
643.349	152.88
643.554	159.88
643.759	148.88
643.964	133.88
644.169	162.88
644.374	156.88
644.579	161.88
644.784	155.88
644.989	153.88
645.194	160.88
645.399	154.88
645.604	147.88
645.809	146.88
646.014	154.88
646.219	159.88
646.423	157.88
646.628	146.88
646.833	142.88
647.038	142.88
647.243	151.88
647.447	170.88
647.652	147.88
647.857	145.88
648.062	149.88
648.266	154.88
648.471	157.88
648.676	174.88
648.88	146.88
649.085	156.88
649.289	154.88
649.494	134.88
649.698	159.88
649.903	170.88
650.107	150.88
650.312	153.88
650.516	137.88
650.721	157.88
650.925	143.88
651.13	148.88
651.334	149.88
651.539	141.88
651.743	142.88
651.947	135.88
652.152	128.88
652.356	156.88
652.56	125.88
652.764	135.88
652.969	125.88
653.173	129.88
653.377	143.88
653.581	139.88
653.785	133.88
653.99	136.88
654.194	131.88
654.398	129.88
654.602	122.88
654.806	134.88
655.01	128.88
655.214	135.88
655.418	122.88
655.622	124.88
655.826	135.88
656.03	136.88
656.234	116.88
656.438	131.88
656.642	129.88
656.846	124.88
657.049	143.88
657.253	127.88
657.457	133.88
657.661	101.88
657.865	106.88
658.068	114.88
658.272	109.88
658.476	112.88
658.68	108.88
658.883	95.88
659.087	112.88
659.291	100.88
659.494	100.88
659.698	91.88
659.901	100.88
660.105	94.88
660.309	89.88
660.512	87.88
660.716	96.88
660.919	87.88
661.123	101.88
661.326	83.88
661.53	89.88
661.733	101.88
661.936	100.88
662.14	82.88
662.343	83.88
662.546	86.88
662.75	73.88
662.953	77.88
663.156	91.88
663.36	79.88
663.563	81.88
663.766	73.88
663.969	87.88
664.173	79.88
664.376	69.88
664.579	78.88
664.782	79.88
664.985	92.88
665.188	81.88
665.391	72.88
665.594	87.88
665.797	89.88
666	86.88
666.203	81.88
666.406	76.88
666.609	76.88
666.812	91.88
667.015	83.88
667.218	87.88
667.421	74.88
667.624	66.88
667.827	88.88
668.03	84.88
668.232	85.88
668.435	73.88
668.638	78.88
668.841	87.88
669.043	84.88
669.246	78.88
669.449	71.88
669.651	70.88
669.854	92.88
670.057	83.88
670.259	62.88
670.462	89.88
670.665	88.88
670.867	71.88
671.07	72.88
671.272	77.88
671.475	79.88
671.677	93.88
671.88	87.88
672.082	83.88
672.284	85.88
672.487	85.88
672.689	71.88
672.892	82.88
