Data from 1977.PennyLincolnUp.Lamp.En5.5.200Scan.071719.P1_HRD10591_16-05-28-864.txt Node
Date: Thu Jul 18 16:05:28 EDT 2019
User: cochatt
Spectrometer: HR+D1059
Trigger mode: 1
Integration Time (sec): 1.000000E-1
Scans to average: 1
Electric dark correction enabled: true
Nonlinearity correction enabled: false
Boxcar width: 0
XAxis mode: Wavelengths
Number of Pixels in Spectrum: 2048
>>>>>Begin Spectral Data<<<<<
223.165	-22.62
223.4	-22.62
223.635	-22.62
223.869	-8.62
224.104	-7.62
224.338	-20.62
224.573	-9.62
224.808	0.38
225.042	-6.62
225.277	-22.62
225.511	-1.62
225.746	-1.62
225.98	8.38
226.215	2.38
226.449	11.38
226.683	3.38
226.918	39.38
227.152	36.38
227.387	44.38
227.621	27.38
227.856	56.38
228.09	43.38
228.324	46.38
228.559	57.38
228.793	67.38
229.027	86.38
229.262	89.38
229.496	105.38
229.73	128.38
229.964	123.38
230.199	122.38
230.433	94.38
230.667	116.38
230.901	105.38
231.136	104.38
231.37	108.38
231.604	99.38
231.838	102.38
232.072	113.38
232.306	103.38
232.541	103.38
232.775	123.38
233.009	118.38
233.243	109.38
233.477	117.38
233.711	105.38
233.945	106.38
234.179	112.38
234.413	101.38
234.647	113.38
234.881	122.38
235.115	111.38
235.349	120.38
235.583	105.38
235.817	105.38
236.051	115.38
236.285	113.38
236.519	140.38
236.753	119.38
236.987	129.38
237.221	157.38
237.455	202.38
237.689	147.38
237.922	125.38
238.156	138.38
238.39	119.38
238.624	126.38
238.858	102.38
239.091	136.38
239.325	114.38
239.559	115.38
239.793	125.38
240.027	130.38
240.26	130.38
240.494	135.38
240.728	159.38
240.961	141.38
241.195	126.38
241.429	133.38
241.662	143.38
241.896	117.38
242.13	131.38
242.363	132.38
242.597	137.38
242.83	147.38
243.064	140.38
243.298	135.38
243.531	140.38
243.765	131.38
243.998	140.38
244.232	138.38
244.465	127.38
244.699	131.38
244.932	143.38
245.166	149.38
245.399	133.38
245.633	145.38
245.866	135.38
246.099	130.38
246.333	155.38
246.566	139.38
246.8	145.38
247.033	143.38
247.266	160.38
247.5	150.38
247.733	155.38
247.966	146.38
248.2	171.38
248.433	168.38
248.666	152.38
248.899	176.38
249.133	184.38
249.366	201.38
249.599	190.38
249.832	186.38
250.066	173.38
250.299	158.38
250.532	182.38
250.765	200.38
250.998	199.38
251.231	210.38
251.465	206.38
251.698	187.38
251.931	187.38
252.164	189.38
252.397	185.38
252.63	181.38
252.863	195.38
253.096	189.38
253.329	199.38
253.562	206.38
253.795	220.38
254.028	195.38
254.261	195.38
254.494	223.38
254.727	223.38
254.96	238.38
255.193	231.38
255.426	233.38
255.659	209.38
255.892	226.38
256.124	213.38
256.357	227.38
256.59	196.38
256.823	197.38
257.056	211.38
257.289	191.38
257.521	206.38
257.754	200.38
257.987	199.38
258.22	209.38
258.452	211.38
258.685	201.38
258.918	203.38
259.151	225.38
259.383	222.38
259.616	210.38
259.849	212.38
260.081	228.38
260.314	233.38
260.547	233.38
260.779	221.38
261.012	212.38
261.244	216.38
261.477	213.38
261.71	212.38
261.942	218.38
262.175	228.38
262.407	222.38
262.64	202.38
262.872	213.38
263.105	216.38
263.337	208.38
263.57	214.38
263.802	213.38
264.035	203.38
264.267	208.38
264.499	205.38
264.732	221.38
264.964	206.38
265.197	205.38
265.429	217.38
265.661	219.38
265.894	214.38
266.126	228.38
266.358	230.38
266.591	210.38
266.823	231.38
267.055	206.38
267.287	230.38
267.52	218.38
267.752	213.38
267.984	230.38
268.216	226.38
268.448	232.38
268.681	241.38
268.913	236.38
269.145	250.38
269.377	261.38
269.609	261.38
269.841	268.38
270.073	262.38
270.306	277.38
270.538	302.38
270.77	285.38
271.002	302.38
271.234	275.38
271.466	263.38
271.698	288.38
271.93	279.38
272.162	281.38
272.394	286.38
272.626	272.38
272.858	265.38
273.09	249.38
273.322	272.38
273.553	255.38
273.785	267.38
274.017	267.38
274.249	275.38
274.481	260.38
274.713	247.38
274.945	270.38
275.176	262.38
275.408	268.38
275.64	261.38
275.872	277.38
276.104	257.38
276.335	258.38
276.567	260.38
276.799	293.38
277.031	294.38
277.262	310.38
277.494	305.38
277.726	306.38
277.957	296.38
278.189	285.38
278.421	267.38
278.652	241.38
278.884	267.38
279.115	251.38
279.347	269.38
279.579	274.38
279.81	274.38
280.042	284.38
280.273	249.38
280.505	255.38
280.736	278.38
280.968	278.38
281.199	275.38
281.431	294.38
281.662	273.38
281.894	284.38
282.125	277.38
282.356	301.38
282.588	303.38
282.819	306.38
283.051	297.38
283.282	288.38
283.513	287.38
283.745	288.38
283.976	289.38
284.207	296.38
284.439	285.38
284.67	298.38
284.901	288.38
285.132	304.38
285.364	287.38
285.595	305.38
285.826	289.38
286.057	310.38
286.288	284.38
286.52	303.38
286.751	315.38
286.982	297.38
287.213	295.38
287.444	293.38
287.675	301.38
287.906	282.38
288.138	302.38
288.369	309.38
288.6	308.38
288.831	294.38
289.062	306.38
289.293	302.38
289.524	318.38
289.755	295.38
289.986	289.38
290.217	296.38
290.448	298.38
290.679	278.38
290.91	300.38
291.141	309.38
291.371	300.38
291.602	305.38
291.833	294.38
292.064	310.38
292.295	313.38
292.526	325.38
292.757	314.38
292.987	297.38
293.218	306.38
293.449	327.38
293.68	329.38
293.91	300.38
294.141	314.38
294.372	304.38
294.603	307.38
294.833	301.38
295.064	299.38
295.295	315.38
295.525	310.38
295.756	316.38
295.987	324.38
296.217	335.38
296.448	321.38
296.679	311.38
296.909	329.38
297.14	313.38
297.37	315.38
297.601	318.38
297.831	316.38
298.062	327.38
298.292	324.38
298.523	318.38
298.753	315.38
298.984	322.38
299.214	328.38
299.445	318.38
299.675	308.38
299.905	323.38
300.136	341.38
300.366	344.38
300.597	325.38
300.827	340.38
301.057	337.38
301.288	339.38
301.518	336.38
301.748	332.38
301.979	343.38
302.209	353.38
302.439	336.38
302.669	349.38
302.9	330.38
303.13	346.38
303.36	345.38
303.59	361.38
303.82	351.38
304.051	350.38
304.281	349.38
304.511	331.38
304.741	353.38
304.971	330.38
305.201	343.38
305.431	327.38
305.661	346.38
305.891	338.38
306.121	335.38
306.352	352.38
306.582	348.38
306.812	345.38
307.042	358.38
307.272	355.38
307.502	332.38
307.731	338.38
307.961	369.38
308.191	339.38
308.421	330.38
308.651	350.38
308.881	335.38
309.111	348.38
309.341	332.38
309.571	358.38
309.8	351.38
310.03	394.38
310.26	364.38
310.49	373.38
310.72	375.38
310.949	385.38
311.179	374.38
311.409	364.38
311.639	365.38
311.868	371.38
312.098	377.38
312.328	365.38
312.557	407.38
312.787	407.38
313.017	378.38
313.246	396.38
313.476	376.38
313.706	361.38
313.935	372.38
314.165	399.38
314.394	392.38
314.624	399.38
314.853	390.38
315.083	378.38
315.312	360.38
315.542	379.38
315.771	384.38
316.001	358.38
316.23	375.38
316.46	377.38
316.689	396.38
316.919	381.38
317.148	417.38
317.377	381.38
317.607	382.38
317.836	380.38
318.065	381.38
318.295	395.38
318.524	386.38
318.753	361.38
318.983	397.38
319.212	393.38
319.441	400.38
319.67	386.38
319.9	394.38
320.129	376.38
320.358	370.38
320.587	379.38
320.816	383.38
321.046	404.38
321.275	421.38
321.504	375.38
321.733	400.38
321.962	417.38
322.191	397.38
322.42	413.38
322.649	399.38
322.878	408.38
323.108	433.38
323.337	416.38
323.566	447.38
323.795	466.38
324.024	490.38
324.253	562.38
324.482	755.38
324.71	1069.38
324.939	1467.38
325.168	1224.38
325.397	715.38
325.626	544.38
325.855	473.38
326.084	471.38
326.313	443.38
326.542	456.38
326.77	473.38
326.999	545.38
327.228	718.38
327.457	983.38
327.686	1099.38
327.914	767.38
328.143	550.38
328.372	512.38
328.6	482.38
328.829	481.38
329.058	494.38
329.287	474.38
329.515	487.38
329.744	469.38
329.972	462.38
330.201	467.38
330.43	477.38
330.658	501.38
330.887	524.38
331.115	502.38
331.344	457.38
331.572	469.38
331.801	450.38
332.03	459.38
332.258	446.38
332.486	444.38
332.715	452.38
332.943	451.38
333.172	468.38
333.4	460.38
333.629	451.38
333.857	493.38
334.085	480.38
334.314	490.38
334.542	522.38
334.771	503.38
334.999	487.38
335.227	455.38
335.455	466.38
335.684	454.38
335.912	454.38
336.14	440.38
336.369	466.38
336.597	446.38
336.825	479.38
337.053	451.38
337.281	462.38
337.51	441.38
337.738	446.38
337.966	446.38
338.194	462.38
338.422	449.38
338.65	413.38
338.878	414.38
339.106	428.38
339.334	445.38
339.562	437.38
339.79	433.38
340.018	429.38
340.246	428.38
340.474	447.38
340.702	424.38
340.93	395.38
341.158	415.38
341.386	438.38
341.614	439.38
341.842	420.38
342.07	427.38
342.298	422.38
342.526	425.38
342.754	419.38
342.981	418.38
343.209	406.38
343.437	433.38
343.665	437.38
343.893	450.38
344.12	466.38
344.348	443.38
344.576	447.38
344.804	454.38
345.031	433.38
345.259	438.38
345.487	420.38
345.714	439.38
345.942	435.38
346.17	402.38
346.397	411.38
346.625	420.38
346.853	415.38
347.08	397.38
347.308	424.38
347.535	417.38
347.763	408.38
347.99	415.38
348.218	419.38
348.445	393.38
348.673	400.38
348.9	402.38
349.128	388.38
349.355	389.38
349.583	391.38
349.81	401.38
350.037	394.38
350.265	393.38
350.492	395.38
350.72	392.38
350.947	392.38
351.174	421.38
351.402	392.38
351.629	389.38
351.856	398.38
352.083	397.38
352.311	377.38
352.538	402.38
352.765	408.38
352.992	396.38
353.22	418.38
353.447	411.38
353.674	393.38
353.901	394.38
354.128	393.38
354.355	380.38
354.583	363.38
354.81	382.38
355.037	369.38
355.264	389.38
355.491	386.38
355.718	387.38
355.945	363.38
356.172	371.38
356.399	367.38
356.626	383.38
356.853	379.38
357.08	382.38
357.307	379.38
357.534	383.38
357.761	372.38
357.988	389.38
358.215	390.38
358.441	382.38
358.668	371.38
358.895	409.38
359.122	386.38
359.349	371.38
359.576	406.38
359.802	399.38
360.029	423.38
360.256	411.38
360.483	381.38
360.709	396.38
360.936	389.38
361.163	394.38
361.39	393.38
361.616	401.38
361.843	408.38
362.07	394.38
362.296	389.38
362.523	385.38
362.749	386.38
362.976	375.38
363.203	398.38
363.429	397.38
363.656	385.38
363.882	395.38
364.109	394.38
364.335	378.38
364.562	371.38
364.788	374.38
365.015	381.38
365.241	365.38
365.468	385.38
365.694	393.38
365.92	389.38
366.147	366.38
366.373	369.38
366.599	365.38
366.826	366.38
367.052	374.38
367.278	358.38
367.505	385.38
367.731	388.38
367.957	388.38
368.184	401.38
368.41	376.38
368.636	397.38
368.862	407.38
369.089	399.38
369.315	375.38
369.541	370.38
369.767	372.38
369.993	386.38
370.219	369.38
370.445	384.38
370.672	388.38
370.898	389.38
371.124	379.38
371.35	379.38
371.576	378.38
371.802	371.38
372.028	381.38
372.254	377.38
372.48	377.38
372.706	387.38
372.932	421.38
373.158	380.38
373.384	394.38
373.61	389.38
373.835	385.38
374.061	378.38
374.287	406.38
374.513	395.38
374.739	374.38
374.965	389.38
375.191	412.38
375.416	409.38
375.642	383.38
375.868	389.38
376.094	381.38
376.319	401.38
376.545	375.38
376.771	389.38
376.997	369.38
377.222	379.38
377.448	383.38
377.674	393.38
377.899	385.38
378.125	374.38
378.35	367.38
378.576	372.38
378.802	371.38
379.027	380.38
379.253	396.38
379.478	376.38
379.704	394.38
379.929	392.38
380.155	398.38
380.38	406.38
380.606	393.38
380.831	361.38
381.057	366.38
381.282	375.38
381.507	379.38
381.733	389.38
381.958	400.38
382.184	386.38
382.409	394.38
382.634	378.38
382.86	407.38
383.085	398.38
383.31	394.38
383.535	419.38
383.761	404.38
383.986	397.38
384.211	394.38
384.436	413.38
384.662	414.38
384.887	428.38
385.112	399.38
385.337	406.38
385.562	434.38
385.787	436.38
386.013	428.38
386.238	430.38
386.463	435.38
386.688	432.38
386.913	427.38
387.138	407.38
387.363	411.38
387.588	417.38
387.813	404.38
388.038	425.38
388.263	444.38
388.488	424.38
388.713	416.38
388.938	414.38
389.163	429.38
389.387	414.38
389.612	421.38
389.837	415.38
390.062	409.38
390.287	409.38
390.512	422.38
390.736	427.38
390.961	413.38
391.186	407.38
391.411	424.38
391.636	425.38
391.86	438.38
392.085	433.38
392.31	425.38
392.534	420.38
392.759	433.38
392.984	430.38
393.208	435.38
393.433	439.38
393.658	423.38
393.882	426.38
394.107	418.38
394.331	443.38
394.556	420.38
394.78	427.38
395.005	434.38
395.229	441.38
395.454	438.38
395.678	450.38
395.903	447.38
396.127	445.38
396.352	459.38
396.576	453.38
396.801	443.38
397.025	438.38
397.249	435.38
397.474	444.38
397.698	470.38
397.922	459.38
398.147	468.38
398.371	467.38
398.595	483.38
398.82	484.38
399.044	484.38
399.268	513.38
399.492	542.38
399.717	581.38
399.941	586.38
400.165	619.38
400.389	573.38
400.613	552.38
400.837	512.38
401.062	508.38
401.286	495.38
401.51	477.38
401.734	476.38
401.958	484.38
402.182	471.38
402.406	476.38
402.63	486.38
402.854	470.38
403.078	487.38
403.302	511.38
403.526	490.38
403.75	501.38
403.974	506.38
404.198	497.38
404.422	499.38
404.645	496.38
404.869	516.38
405.093	514.38
405.317	544.38
405.541	574.38
405.765	515.38
405.988	505.38
406.212	531.38
406.436	536.38
406.66	537.38
406.883	534.38
407.107	555.38
407.331	563.38
407.555	630.38
407.778	618.38
408.002	575.38
408.226	538.38
408.449	545.38
408.673	548.38
408.896	556.38
409.12	581.38
409.344	547.38
409.567	493.38
409.791	478.38
410.014	492.38
410.238	493.38
410.461	502.38
410.685	482.38
410.908	519.38
411.132	523.38
411.355	536.38
411.578	519.38
411.802	483.38
412.025	486.38
412.249	493.38
412.472	514.38
412.695	524.38
412.919	516.38
413.142	473.38
413.365	469.38
413.589	479.38
413.812	456.38
414.035	451.38
414.258	456.38
414.482	456.38
414.705	458.38
414.928	439.38
415.151	439.38
415.374	460.38
415.597	454.38
415.821	461.38
416.044	466.38
416.267	459.38
416.49	463.38
416.713	455.38
416.936	461.38
417.159	457.38
417.382	467.38
417.605	466.38
417.828	485.38
418.051	465.38
418.274	479.38
418.497	489.38
418.72	463.38
418.943	443.38
419.166	497.38
419.389	513.38
419.611	474.38
419.834	485.38
420.057	481.38
420.28	500.38
420.503	475.38
420.726	431.38
420.948	474.38
421.171	516.38
421.394	539.38
421.617	475.38
421.839	477.38
422.062	483.38
422.285	463.38
422.507	516.38
422.73	574.38
422.953	577.38
423.175	515.38
423.398	499.38
423.621	502.38
423.843	506.38
424.066	499.38
424.288	526.38
424.511	518.38
424.733	541.38
424.956	604.38
425.178	587.38
425.401	604.38
425.623	596.38
425.846	533.38
426.068	478.38
426.291	466.38
426.513	472.38
426.735	476.38
426.958	531.38
427.18	605.38
427.402	683.38
427.625	744.38
427.847	627.38
428.069	555.38
428.292	502.38
428.514	465.38
428.736	460.38
428.958	476.38
429.181	464.38
429.403	443.38
429.625	438.38
429.847	481.38
430.069	542.38
430.292	512.38
430.514	459.38
430.736	460.38
430.958	451.38
431.18	443.38
431.402	434.38
431.624	426.38
431.846	427.38
432.068	439.38
432.29	455.38
432.512	432.38
432.734	458.38
432.956	429.38
433.178	436.38
433.4	439.38
433.622	446.38
433.844	455.38
434.066	441.38
434.287	420.38
434.509	435.38
434.731	468.38
434.953	468.38
435.175	469.38
435.397	471.38
435.618	485.38
435.84	499.38
436.062	580.38
436.284	629.38
436.505	537.38
436.727	466.38
436.949	465.38
437.17	450.38
437.392	444.38
437.614	455.38
437.835	463.38
438.057	536.38
438.278	625.38
438.5	603.38
438.721	677.38
438.943	664.38
439.165	519.38
439.386	474.38
439.608	483.38
439.829	477.38
440.05	506.38
440.272	521.38
440.493	482.38
440.715	475.38
440.936	463.38
441.158	449.38
441.379	456.38
441.6	461.38
441.822	492.38
442.043	521.38
442.264	549.38
442.486	599.38
442.707	521.38
442.928	503.38
443.149	486.38
443.371	507.38
443.592	544.38
443.813	618.38
444.034	645.38
444.255	564.38
444.476	513.38
444.698	487.38
444.919	493.38
445.14	595.38
445.361	557.38
445.582	523.38
445.803	548.38
446.024	623.38
446.245	618.38
446.466	566.38
446.687	515.38
446.908	492.38
447.129	449.38
447.35	435.38
447.571	429.38
447.792	439.38
448.013	445.38
448.234	451.38
448.455	475.38
448.675	581.38
448.896	646.38
449.117	558.38
449.338	537.38
449.559	649.38
449.779	701.38
450	541.38
450.221	470.38
450.442	451.38
450.662	439.38
450.883	430.38
451.104	424.38
451.324	422.38
451.545	418.38
451.766	383.38
451.986	419.38
452.207	397.38
452.428	378.38
452.648	392.38
452.869	396.38
453.089	394.38
453.31	393.38
453.53	402.38
453.751	393.38
453.971	406.38
454.192	380.38
454.412	404.38
454.633	402.38
454.853	395.38
455.073	379.38
455.294	420.38
455.514	467.38
455.734	459.38
455.955	381.38
456.175	372.38
456.395	380.38
456.616	375.38
456.836	371.38
457.056	376.38
457.276	373.38
457.497	375.38
457.717	378.38
457.937	395.38
458.157	393.38
458.377	392.38
458.598	407.38
458.818	445.38
459.038	493.38
459.258	502.38
459.478	460.38
459.698	409.38
459.918	435.38
460.138	422.38
460.358	439.38
460.578	437.38
460.798	445.38
461.018	442.38
461.238	455.38
461.458	450.38
461.678	448.38
461.898	423.38
462.118	442.38
462.338	443.38
462.558	475.38
462.777	487.38
462.997	497.38
463.217	533.38
463.437	516.38
463.657	490.38
463.876	506.38
464.096	476.38
464.316	477.38
464.536	493.38
464.755	489.38
464.975	482.38
465.195	499.38
465.414	488.38
465.634	484.38
465.854	425.38
466.073	450.38
466.293	430.38
466.512	404.38
466.732	399.38
466.951	409.38
467.171	413.38
467.391	398.38
467.61	406.38
467.829	417.38
468.049	421.38
468.268	388.38
468.488	407.38
468.707	420.38
468.927	387.38
469.146	399.38
469.365	401.38
469.585	428.38
469.804	402.38
470.023	411.38
470.243	409.38
470.462	411.38
470.681	432.38
470.901	414.38
471.12	406.38
471.339	426.38
471.558	411.38
471.777	421.38
471.997	406.38
472.216	423.38
472.435	414.38
472.654	418.38
472.873	420.38
473.092	411.38
473.311	394.38
473.53	421.38
473.749	398.38
473.968	457.38
474.187	521.38
474.406	533.38
474.625	443.38
474.844	421.38
475.063	437.38
475.282	412.38
475.501	412.38
475.72	434.38
475.939	420.38
476.158	423.38
476.377	419.38
476.596	433.38
476.814	441.38
477.033	434.38
477.252	430.38
477.471	434.38
477.69	455.38
477.908	457.38
478.127	446.38
478.346	434.38
478.564	461.38
478.783	476.38
479.002	460.38
479.22	490.38
479.439	475.38
479.658	485.38
479.876	473.38
480.095	492.38
480.313	510.38
480.532	509.38
480.751	505.38
480.969	508.38
481.188	532.38
481.406	540.38
481.624	510.38
481.843	483.38
482.061	450.38
482.28	485.38
482.498	466.38
482.717	464.38
482.935	468.38
483.153	464.38
483.372	476.38
483.59	470.38
483.808	451.38
484.027	451.38
484.245	466.38
484.463	479.38
484.681	488.38
484.9	487.38
485.118	484.38
485.336	483.38
485.554	478.38
485.772	491.38
485.99	488.38
486.209	493.38
486.427	506.38
486.645	481.38
486.863	499.38
487.081	499.38
487.299	484.38
487.517	497.38
487.735	499.38
487.953	500.38
488.171	498.38
488.389	494.38
488.607	527.38
488.825	509.38
489.043	505.38
489.261	526.38
489.479	524.38
489.696	491.38
489.914	511.38
490.132	508.38
490.35	507.38
490.568	508.38
490.786	548.38
491.003	534.38
491.221	543.38
491.439	550.38
491.657	549.38
491.874	554.38
492.092	558.38
492.31	566.38
492.527	545.38
492.745	561.38
492.963	553.38
493.18	539.38
493.398	567.38
493.615	574.38
493.833	586.38
494.05	576.38
494.268	611.38
494.485	557.38
494.703	573.38
494.92	576.38
495.138	559.38
495.355	593.38
495.573	571.38
495.79	578.38
496.008	604.38
496.225	585.38
496.442	572.38
496.66	596.38
496.877	582.38
497.094	604.38
497.312	594.38
497.529	617.38
497.746	610.38
497.963	631.38
498.181	645.38
498.398	657.38
498.615	663.38
498.832	693.38
499.049	697.38
499.267	738.38
499.484	779.38
499.701	810.38
499.918	855.38
500.135	870.38
500.352	909.38
500.569	961.38
500.786	970.38
501.003	920.38
501.22	862.38
501.437	825.38
501.654	828.38
501.871	774.38
502.088	740.38
502.305	702.38
502.522	698.38
502.739	686.38
502.956	663.38
503.172	634.38
503.389	628.38
503.606	634.38
503.823	640.38
504.04	623.38
504.256	623.38
504.473	614.38
504.69	597.38
504.907	591.38
505.123	594.38
505.34	582.38
505.557	575.38
505.773	568.38
505.99	561.38
506.207	574.38
506.423	539.38
506.64	556.38
506.856	539.38
507.073	548.38
507.289	555.38
507.506	542.38
507.722	523.38
507.939	519.38
508.155	534.38
508.372	510.38
508.588	514.38
508.805	520.38
509.021	534.38
509.238	525.38
509.454	535.38
509.67	548.38
509.887	499.38
510.103	523.38
510.319	509.38
510.536	566.38
510.752	787.38
510.968	668.38
511.184	539.38
511.401	513.38
511.617	487.38
511.833	485.38
512.049	490.38
512.265	497.38
512.481	477.38
512.698	491.38
512.914	483.38
513.13	477.38
513.346	493.38
513.562	477.38
513.778	491.38
513.994	481.38
514.21	499.38
514.426	509.38
514.642	538.38
514.858	539.38
515.074	533.38
515.29	616.38
515.506	783.38
515.721	639.38
515.937	549.38
516.153	509.38
516.369	501.38
516.585	519.38
516.801	518.38
517.016	518.38
517.232	511.38
517.448	511.38
517.664	551.38
517.879	551.38
518.095	545.38
518.311	520.38
518.527	514.38
518.742	533.38
518.958	539.38
519.173	510.38
519.389	502.38
519.605	486.38
519.82	475.38
520.036	482.38
520.251	500.38
520.467	513.38
520.682	517.38
520.898	496.38
521.113	507.38
521.329	546.38
521.544	548.38
521.76	643.38
521.975	958.38
522.19	895.38
522.406	587.38
522.621	478.38
522.836	490.38
523.052	474.38
523.267	456.38
523.482	451.38
523.698	445.38
523.913	441.38
524.128	452.38
524.343	430.38
524.559	428.38
524.774	427.38
524.989	435.38
525.204	446.38
525.419	443.38
525.634	424.38
525.849	428.38
526.064	436.38
526.28	424.38
526.495	405.38
526.71	423.38
526.925	425.38
527.14	419.38
527.355	418.38
527.57	398.38
527.785	410.38
527.999	399.38
528.214	429.38
528.429	403.38
528.644	418.38
528.859	405.38
529.074	422.38
529.289	439.38
529.503	455.38
529.718	436.38
529.933	409.38
530.148	402.38
530.363	411.38
530.577	413.38
530.792	406.38
531.007	438.38
531.221	398.38
531.436	389.38
531.651	411.38
531.865	414.38
532.08	388.38
532.295	398.38
532.509	422.38
532.724	406.38
532.938	412.38
533.153	423.38
533.367	395.38
533.582	396.38
533.796	413.38
534.011	387.38
534.225	404.38
534.44	387.38
534.654	402.38
534.868	391.38
535.083	407.38
535.297	400.38
535.511	380.38
535.726	396.38
535.94	415.38
536.154	405.38
536.369	385.38
536.583	385.38
536.797	387.38
537.011	395.38
537.225	390.38
537.44	372.38
537.654	411.38
537.868	361.38
538.082	377.38
538.296	397.38
538.51	393.38
538.724	377.38
538.938	382.38
539.153	393.38
539.367	385.38
539.581	372.38
539.795	371.38
540.009	382.38
540.222	387.38
540.436	398.38
540.65	398.38
540.864	379.38
541.078	371.38
541.292	394.38
541.506	379.38
541.72	385.38
541.934	371.38
542.147	390.38
542.361	377.38
542.575	387.38
542.789	377.38
543.002	377.38
543.216	388.38
543.43	387.38
543.644	386.38
543.857	381.38
544.071	392.38
544.285	393.38
544.498	378.38
544.712	378.38
544.925	382.38
545.139	388.38
545.352	394.38
545.566	381.38
545.779	379.38
545.993	366.38
546.206	369.38
546.42	349.38
546.633	376.38
546.847	356.38
547.06	391.38
547.274	389.38
547.487	368.38
547.7	358.38
547.914	362.38
548.127	381.38
548.34	347.38
548.554	372.38
548.767	384.38
548.98	375.38
549.193	374.38
549.407	382.38
549.62	374.38
549.833	383.38
550.046	392.38
550.259	374.38
550.473	369.38
550.686	398.38
550.899	367.38
551.112	375.38
551.325	349.38
551.538	371.38
551.751	357.38
551.964	349.38
552.177	373.38
552.39	378.38
552.603	383.38
552.816	365.38
553.029	369.38
553.242	385.38
553.455	397.38
553.667	412.38
553.88	394.38
554.093	392.38
554.306	393.38
554.519	379.38
554.732	359.38
554.944	349.38
555.157	359.38
555.37	368.38
555.583	369.38
555.795	356.38
556.008	341.38
556.221	346.38
556.433	359.38
556.646	344.38
556.859	343.38
557.071	349.38
557.284	339.38
557.496	344.38
557.709	347.38
557.921	334.38
558.134	334.38
558.346	346.38
558.559	339.38
558.771	338.38
558.984	341.38
559.196	338.38
559.409	328.38
559.621	331.38
559.833	310.38
560.046	329.38
560.258	332.38
560.47	326.38
560.683	316.38
560.895	333.38
561.107	326.38
561.32	332.38
561.532	329.38
561.744	333.38
561.956	332.38
562.168	332.38
562.381	343.38
562.593	347.38
562.805	353.38
563.017	332.38
563.229	336.38
563.441	339.38
563.653	311.38
563.865	330.38
564.077	346.38
564.289	338.38
564.501	337.38
564.713	362.38
564.925	373.38
565.137	361.38
565.349	350.38
565.561	366.38
565.773	371.38
565.985	371.38
566.197	390.38
566.408	420.38
566.62	422.38
566.832	413.38
567.044	413.38
567.255	420.38
567.467	434.38
567.679	452.38
567.891	467.38
568.102	448.38
568.314	440.38
568.526	416.38
568.737	413.38
568.949	376.38
569.161	387.38
569.372	375.38
569.584	360.38
569.795	341.38
570.007	352.38
570.218	377.38
570.43	359.38
570.641	349.38
570.853	348.38
571.064	342.38
571.276	340.38
571.487	326.38
571.698	298.38
571.91	298.38
572.121	324.38
572.333	313.38
572.544	317.38
572.755	293.38
572.966	307.38
573.178	299.38
573.389	286.38
573.6	286.38
573.811	286.38
574.023	298.38
574.234	289.38
574.445	289.38
574.656	290.38
574.867	276.38
575.078	280.38
575.289	294.38
575.501	294.38
575.712	280.38
575.923	292.38
576.134	281.38
576.345	297.38
576.556	268.38
576.767	293.38
576.978	263.38
577.188	274.38
577.399	290.38
577.61	278.38
577.821	282.38
578.032	264.38
578.243	306.38
578.454	373.38
578.665	323.38
578.875	281.38
579.086	275.38
579.297	277.38
579.508	268.38
579.718	268.38
579.929	276.38
580.14	276.38
580.35	257.38
580.561	267.38
580.772	269.38
580.982	277.38
581.193	256.38
581.403	273.38
581.614	264.38
581.825	270.38
582.035	246.38
582.246	248.38
582.456	249.38
582.667	257.38
582.877	278.38
583.087	268.38
583.298	247.38
583.508	263.38
583.719	238.38
583.929	283.38
584.139	263.38
584.35	255.38
584.56	270.38
584.77	268.38
584.981	263.38
585.191	261.38
585.401	269.38
585.611	254.38
585.821	248.38
586.032	249.38
586.242	264.38
586.452	258.38
586.662	243.38
586.872	251.38
587.082	260.38
587.292	250.38
587.502	257.38
587.713	251.38
587.923	252.38
588.133	262.38
588.343	262.38
588.553	248.38
588.762	271.38
588.972	257.38
589.182	252.38
589.392	257.38
589.602	253.38
589.812	258.38
590.022	253.38
590.232	253.38
590.441	247.38
590.651	259.38
590.861	264.38
591.071	255.38
591.281	258.38
591.49	270.38
591.7	282.38
591.91	279.38
592.119	249.38
592.329	263.38
592.539	266.38
592.748	274.38
592.958	280.38
593.167	272.38
593.377	287.38
593.587	287.38
593.796	265.38
594.006	286.38
594.215	269.38
594.424	300.38
594.634	294.38
594.843	271.38
595.053	275.38
595.262	261.38
595.472	260.38
595.681	259.38
595.89	261.38
596.1	257.38
596.309	241.38
596.518	243.38
596.727	236.38
596.937	236.38
597.146	252.38
597.355	245.38
597.564	229.38
597.774	248.38
597.983	233.38
598.192	224.38
598.401	233.38
598.61	238.38
598.819	229.38
599.028	225.38
599.237	221.38
599.446	242.38
599.655	230.38
599.864	227.38
600.073	224.38
600.282	229.38
600.491	215.38
600.7	225.38
600.909	210.38
601.118	220.38
601.327	226.38
601.536	219.38
601.745	227.38
601.953	225.38
602.162	233.38
602.371	216.38
602.58	225.38
602.789	228.38
602.997	216.38
603.206	218.38
603.415	222.38
603.623	227.38
603.832	214.38
604.041	214.38
604.249	204.38
604.458	220.38
604.666	210.38
604.875	207.38
605.084	209.38
605.292	210.38
605.501	210.38
605.709	216.38
605.918	217.38
606.126	217.38
606.334	202.38
606.543	229.38
606.751	216.38
606.96	194.38
607.168	192.38
607.376	211.38
607.585	225.38
607.793	213.38
608.001	207.38
608.21	219.38
608.418	211.38
608.626	221.38
608.834	203.38
609.043	207.38
609.251	206.38
609.459	200.38
609.667	201.38
609.875	200.38
610.083	211.38
610.291	199.38
610.499	206.38
610.707	217.38
610.916	201.38
611.124	230.38
611.332	205.38
611.54	210.38
611.748	215.38
611.955	218.38
612.163	212.38
612.371	213.38
612.579	202.38
612.787	204.38
612.995	211.38
613.203	189.38
613.411	202.38
613.618	221.38
613.826	216.38
614.034	216.38
614.242	183.38
614.449	210.38
614.657	202.38
614.865	204.38
615.072	201.38
615.28	195.38
615.488	201.38
615.695	207.38
615.903	197.38
616.111	195.38
616.318	210.38
616.526	195.38
616.733	218.38
616.941	206.38
617.148	201.38
617.356	209.38
617.563	201.38
617.771	202.38
617.978	191.38
618.185	203.38
618.393	184.38
618.6	219.38
618.807	213.38
619.015	203.38
619.222	197.38
619.429	196.38
619.637	198.38
619.844	172.38
620.051	189.38
620.258	195.38
620.466	197.38
620.673	189.38
620.88	191.38
621.087	199.38
621.294	195.38
621.501	182.38
621.708	195.38
621.915	205.38
622.122	199.38
622.329	201.38
622.536	199.38
622.743	182.38
622.95	179.38
623.157	188.38
623.364	202.38
623.571	178.38
623.778	198.38
623.985	174.38
624.192	174.38
624.399	186.38
624.606	181.38
624.812	183.38
625.019	184.38
625.226	191.38
625.433	183.38
625.639	183.38
625.846	182.38
626.053	195.38
626.259	195.38
626.466	198.38
626.673	178.38
626.879	166.38
627.086	175.38
627.293	185.38
627.499	185.38
627.706	179.38
627.912	189.38
628.119	163.38
628.325	187.38
628.532	164.38
628.738	159.38
628.945	178.38
629.151	175.38
629.357	166.38
629.564	179.38
629.77	177.38
629.976	180.38
630.183	161.38
630.389	171.38
630.595	162.38
630.802	173.38
631.008	181.38
631.214	169.38
631.42	167.38
631.627	173.38
631.833	168.38
632.039	163.38
632.245	185.38
632.451	177.38
632.657	170.38
632.863	154.38
633.069	158.38
633.275	165.38
633.481	164.38
633.688	167.38
633.893	174.38
634.099	180.38
634.305	158.38
634.511	168.38
634.717	169.38
634.923	155.38
635.129	157.38
635.335	155.38
635.541	161.38
635.747	159.38
635.952	159.38
636.158	169.38
636.364	174.38
636.57	164.38
636.775	180.38
636.981	159.38
637.187	162.38
637.392	156.38
637.598	163.38
637.804	165.38
638.009	154.38
638.215	165.38
638.421	153.38
638.626	160.38
638.832	147.38
639.037	170.38
639.243	163.38
639.448	156.38
639.654	149.38
639.859	136.38
640.065	147.38
640.27	179.38
640.475	143.38
640.681	144.38
640.886	165.38
641.091	169.38
641.297	146.38
641.502	171.38
641.707	157.38
641.913	143.38
642.118	143.38
642.323	157.38
642.528	158.38
642.733	152.38
642.939	152.38
643.144	150.38
643.349	152.38
643.554	123.38
643.759	142.38
643.964	125.38
644.169	158.38
644.374	166.38
644.579	138.38
644.784	142.38
644.989	149.38
645.194	144.38
645.399	136.38
645.604	150.38
645.809	158.38
646.014	153.38
646.219	137.38
646.423	140.38
646.628	136.38
646.833	147.38
647.038	153.38
647.243	138.38
647.447	149.38
647.652	144.38
647.857	166.38
648.062	160.38
648.266	147.38
648.471	157.38
648.676	147.38
648.88	149.38
649.085	153.38
649.289	151.38
649.494	144.38
649.698	161.38
649.903	155.38
650.107	153.38
650.312	153.38
650.516	143.38
650.721	149.38
650.925	161.38
651.13	134.38
651.334	147.38
651.539	138.38
651.743	140.38
651.947	129.38
652.152	127.38
652.356	152.38
652.56	125.38
652.764	133.38
652.969	118.38
653.173	132.38
653.377	148.38
653.581	125.38
653.785	123.38
653.99	124.38
654.194	132.38
654.398	127.38
654.602	133.38
654.806	134.38
655.01	137.38
655.214	124.38
655.418	135.38
655.622	125.38
655.826	133.38
656.03	116.38
656.234	132.38
656.438	139.38
656.642	145.38
656.846	123.38
657.049	147.38
657.253	124.38
657.457	118.38
657.661	105.38
657.865	114.38
658.068	97.38
658.272	127.38
658.476	107.38
658.68	101.38
658.883	106.38
659.087	101.38
659.291	99.38
659.494	102.38
659.698	82.38
659.901	100.38
660.105	87.38
660.309	91.38
660.512	99.38
660.716	90.38
660.919	86.38
661.123	103.38
661.326	89.38
661.53	91.38
661.733	87.38
661.936	81.38
662.14	88.38
662.343	78.38
662.546	88.38
662.75	99.38
662.953	88.38
663.156	97.38
663.36	95.38
663.563	84.38
663.766	80.38
663.969	77.38
664.173	86.38
664.376	91.38
664.579	98.38
664.782	89.38
664.985	93.38
665.188	80.38
665.391	75.38
665.594	92.38
665.797	78.38
666	95.38
666.203	84.38
666.406	82.38
666.609	96.38
666.812	88.38
667.015	98.38
667.218	94.38
667.421	83.38
667.624	87.38
667.827	78.38
668.03	78.38
668.232	78.38
668.435	69.38
668.638	84.38
668.841	93.38
669.043	72.38
669.246	74.38
669.449	84.38
669.651	80.38
669.854	76.38
670.057	86.38
670.259	82.38
670.462	73.38
670.665	75.38
670.867	90.38
671.07	76.38
671.272	87.38
671.475	86.38
671.677	85.38
671.88	84.38
672.082	81.38
672.284	80.38
672.487	77.38
672.689	60.38
672.892	85.38
