Data from 1977.PennyLincolnUp.Lamp.En5.5.200Scan.071719.P1_HRD10591_16-07-12-865.txt Node
Date: Thu Jul 18 16:07:12 EDT 2019
User: cochatt
Spectrometer: HR+D1059
Trigger mode: 1
Integration Time (sec): 1.000000E-1
Scans to average: 1
Electric dark correction enabled: true
Nonlinearity correction enabled: false
Boxcar width: 0
XAxis mode: Wavelengths
Number of Pixels in Spectrum: 2048
>>>>>Begin Spectral Data<<<<<
223.165	-14.94
223.4	-14.94
223.635	-14.94
223.869	-19.94
224.104	-17.94
224.338	-9.94
224.573	-16.94
224.808	-25.94
225.042	5.06
225.277	3.06
225.511	6.06
225.746	9.06
225.98	-11.94
226.215	-0.94
226.449	22.06
226.683	14.06
226.918	26.06
227.152	33.06
227.387	33.06
227.621	30.06
227.856	41.06
228.09	37.06
228.324	39.06
228.559	57.06
228.793	66.06
229.027	100.06
229.262	105.06
229.496	99.06
229.73	131.06
229.964	140.06
230.199	115.06
230.433	114.06
230.667	101.06
230.901	110.06
231.136	99.06
231.37	120.06
231.604	103.06
231.838	108.06
232.072	111.06
232.306	122.06
232.541	124.06
232.775	112.06
233.009	125.06
233.243	116.06
233.477	121.06
233.711	105.06
233.945	120.06
234.179	120.06
234.413	118.06
234.647	120.06
234.881	121.06
235.115	124.06
235.349	121.06
235.583	108.06
235.817	124.06
236.051	118.06
236.285	120.06
236.519	132.06
236.753	130.06
236.987	144.06
237.221	173.06
237.455	220.06
237.689	184.06
237.922	132.06
238.156	127.06
238.39	125.06
238.624	122.06
238.858	134.06
239.091	134.06
239.325	126.06
239.559	117.06
239.793	146.06
240.027	131.06
240.26	133.06
240.494	137.06
240.728	144.06
240.961	146.06
241.195	154.06
241.429	131.06
241.662	139.06
241.896	129.06
242.13	138.06
242.363	125.06
242.597	132.06
242.83	151.06
243.064	142.06
243.298	148.06
243.531	157.06
243.765	152.06
243.998	144.06
244.232	139.06
244.465	138.06
244.699	132.06
244.932	147.06
245.166	127.06
245.399	138.06
245.633	135.06
245.866	150.06
246.099	159.06
246.333	132.06
246.566	143.06
246.8	150.06
247.033	155.06
247.266	154.06
247.5	166.06
247.733	149.06
247.966	168.06
248.2	151.06
248.433	158.06
248.666	168.06
248.899	181.06
249.133	199.06
249.366	185.06
249.599	190.06
249.832	186.06
250.066	185.06
250.299	174.06
250.532	174.06
250.765	192.06
250.998	203.06
251.231	211.06
251.465	201.06
251.698	202.06
251.931	181.06
252.164	186.06
252.397	196.06
252.63	194.06
252.863	208.06
253.096	205.06
253.329	213.06
253.562	221.06
253.795	205.06
254.028	210.06
254.261	204.06
254.494	213.06
254.727	237.06
254.96	246.06
255.193	238.06
255.426	226.06
255.659	214.06
255.892	227.06
256.124	227.06
256.357	208.06
256.59	215.06
256.823	199.06
257.056	217.06
257.289	205.06
257.521	201.06
257.754	205.06
257.987	212.06
258.22	216.06
258.452	201.06
258.685	208.06
258.918	200.06
259.151	190.06
259.383	227.06
259.616	209.06
259.849	224.06
260.081	204.06
260.314	271.06
260.547	254.06
260.779	242.06
261.012	222.06
261.244	242.06
261.477	238.06
261.71	231.06
261.942	202.06
262.175	237.06
262.407	232.06
262.64	218.06
262.872	191.06
263.105	200.06
263.337	209.06
263.57	209.06
263.802	218.06
264.035	219.06
264.267	229.06
264.499	212.06
264.732	207.06
264.964	224.06
265.197	216.06
265.429	206.06
265.661	207.06
265.894	230.06
266.126	226.06
266.358	234.06
266.591	229.06
266.823	234.06
267.055	226.06
267.287	244.06
267.52	226.06
267.752	239.06
267.984	229.06
268.216	238.06
268.448	231.06
268.681	221.06
268.913	238.06
269.145	248.06
269.377	287.06
269.609	276.06
269.841	279.06
270.073	254.06
270.306	291.06
270.538	301.06
270.77	304.06
271.002	306.06
271.234	293.06
271.466	294.06
271.698	294.06
271.93	310.06
272.162	288.06
272.394	318.06
272.626	279.06
272.858	291.06
273.09	287.06
273.322	271.06
273.553	267.06
273.785	274.06
274.017	272.06
274.249	258.06
274.481	270.06
274.713	259.06
274.945	282.06
275.176	293.06
275.408	283.06
275.64	284.06
275.872	288.06
276.104	262.06
276.335	266.06
276.567	264.06
276.799	292.06
277.031	303.06
277.262	309.06
277.494	322.06
277.726	303.06
277.957	298.06
278.189	279.06
278.421	280.06
278.652	283.06
278.884	270.06
279.115	288.06
279.347	273.06
279.579	282.06
279.81	287.06
280.042	289.06
280.273	276.06
280.505	276.06
280.736	291.06
280.968	284.06
281.199	277.06
281.431	280.06
281.662	283.06
281.894	269.06
282.125	308.06
282.356	290.06
282.588	302.06
282.819	301.06
283.051	280.06
283.282	297.06
283.513	295.06
283.745	280.06
283.976	307.06
284.207	295.06
284.439	303.06
284.67	291.06
284.901	288.06
285.132	272.06
285.364	269.06
285.595	291.06
285.826	282.06
286.057	295.06
286.288	278.06
286.52	287.06
286.751	281.06
286.982	298.06
287.213	316.06
287.444	295.06
287.675	314.06
287.906	309.06
288.138	314.06
288.369	336.06
288.6	299.06
288.831	306.06
289.062	310.06
289.293	318.06
289.524	298.06
289.755	309.06
289.986	300.06
290.217	298.06
290.448	320.06
290.679	307.06
290.91	298.06
291.141	316.06
291.371	306.06
291.602	301.06
291.833	306.06
292.064	294.06
292.295	317.06
292.526	298.06
292.757	286.06
292.987	324.06
293.218	310.06
293.449	331.06
293.68	310.06
293.91	299.06
294.141	303.06
294.372	323.06
294.603	316.06
294.833	311.06
295.064	309.06
295.295	326.06
295.525	292.06
295.756	329.06
295.987	357.06
296.217	334.06
296.448	337.06
296.679	327.06
296.909	309.06
297.14	306.06
297.37	306.06
297.601	303.06
297.831	314.06
298.062	328.06
298.292	316.06
298.523	316.06
298.753	302.06
298.984	312.06
299.214	311.06
299.445	313.06
299.675	331.06
299.905	328.06
300.136	328.06
300.366	332.06
300.597	323.06
300.827	331.06
301.057	346.06
301.288	349.06
301.518	342.06
301.748	327.06
301.979	344.06
302.209	359.06
302.439	348.06
302.669	357.06
302.9	345.06
303.13	341.06
303.36	344.06
303.59	340.06
303.82	333.06
304.051	342.06
304.281	342.06
304.511	359.06
304.741	346.06
304.971	341.06
305.201	347.06
305.431	334.06
305.661	341.06
305.891	331.06
306.121	344.06
306.352	338.06
306.582	360.06
306.812	345.06
307.042	345.06
307.272	346.06
307.502	341.06
307.731	350.06
307.961	330.06
308.191	352.06
308.421	338.06
308.651	339.06
308.881	371.06
309.111	343.06
309.341	335.06
309.571	354.06
309.8	380.06
310.03	370.06
310.26	375.06
310.49	376.06
310.72	374.06
310.949	401.06
311.179	380.06
311.409	390.06
311.639	378.06
311.868	381.06
312.098	399.06
312.328	386.06
312.557	404.06
312.787	421.06
313.017	404.06
313.246	390.06
313.476	387.06
313.706	391.06
313.935	398.06
314.165	383.06
314.394	402.06
314.624	412.06
314.853	368.06
315.083	414.06
315.312	396.06
315.542	363.06
315.771	388.06
316.001	386.06
316.23	395.06
316.46	383.06
316.689	382.06
316.919	386.06
317.148	384.06
317.377	374.06
317.607	376.06
317.836	388.06
318.065	385.06
318.295	381.06
318.524	376.06
318.753	397.06
318.983	407.06
319.212	381.06
319.441	385.06
319.67	399.06
319.9	400.06
320.129	393.06
320.358	400.06
320.587	391.06
320.816	388.06
321.046	389.06
321.275	384.06
321.504	419.06
321.733	396.06
321.962	413.06
322.191	416.06
322.42	437.06
322.649	440.06
322.878	423.06
323.108	434.06
323.337	469.06
323.566	481.06
323.795	513.06
324.024	532.06
324.253	641.06
324.482	862.06
324.71	1266.06
324.939	1746.06
325.168	1511.06
325.397	798.06
325.626	598.06
325.855	506.06
326.084	481.06
326.313	484.06
326.542	506.06
326.77	498.06
326.999	607.06
327.228	799.06
327.457	1125.06
327.686	1290.06
327.914	899.06
328.143	604.06
328.372	564.06
328.6	553.06
328.829	514.06
329.058	520.06
329.287	547.06
329.515	518.06
329.744	476.06
329.972	482.06
330.201	522.06
330.43	532.06
330.658	545.06
330.887	557.06
331.115	530.06
331.344	510.06
331.572	497.06
331.801	478.06
332.03	471.06
332.258	481.06
332.486	460.06
332.715	464.06
332.943	469.06
333.172	448.06
333.4	468.06
333.629	487.06
333.857	494.06
334.085	501.06
334.314	490.06
334.542	528.06
334.771	522.06
334.999	502.06
335.227	483.06
335.455	467.06
335.684	453.06
335.912	454.06
336.14	458.06
336.369	458.06
336.597	474.06
336.825	450.06
337.053	455.06
337.281	448.06
337.51	443.06
337.738	442.06
337.966	444.06
338.194	435.06
338.422	458.06
338.65	453.06
338.878	440.06
339.106	458.06
339.334	430.06
339.562	405.06
339.79	438.06
340.018	419.06
340.246	424.06
340.474	441.06
340.702	432.06
340.93	413.06
341.158	398.06
341.386	434.06
341.614	421.06
341.842	436.06
342.07	422.06
342.298	432.06
342.526	398.06
342.754	391.06
342.981	408.06
343.209	436.06
343.437	431.06
343.665	433.06
343.893	434.06
344.12	474.06
344.348	469.06
344.576	436.06
344.804	450.06
345.031	448.06
345.259	440.06
345.487	447.06
345.714	416.06
345.942	424.06
346.17	427.06
346.397	405.06
346.625	415.06
346.853	411.06
347.08	419.06
347.308	402.06
347.535	403.06
347.763	425.06
347.99	403.06
348.218	419.06
348.445	418.06
348.673	426.06
348.9	426.06
349.128	404.06
349.355	395.06
349.583	392.06
349.81	388.06
350.037	374.06
350.265	389.06
350.492	388.06
350.72	400.06
350.947	401.06
351.174	401.06
351.402	426.06
351.629	414.06
351.856	410.06
352.083	410.06
352.311	406.06
352.538	409.06
352.765	430.06
352.992	408.06
353.22	408.06
353.447	381.06
353.674	400.06
353.901	398.06
354.128	398.06
354.355	377.06
354.583	376.06
354.81	383.06
355.037	398.06
355.264	401.06
355.491	391.06
355.718	382.06
355.945	368.06
356.172	379.06
356.399	370.06
356.626	371.06
356.853	382.06
357.08	382.06
357.307	373.06
357.534	386.06
357.761	369.06
357.988	379.06
358.215	380.06
358.441	372.06
358.668	401.06
358.895	388.06
359.122	380.06
359.349	396.06
359.576	412.06
359.802	412.06
360.029	423.06
360.256	411.06
360.483	399.06
360.709	398.06
360.936	396.06
361.163	420.06
361.39	385.06
361.616	382.06
361.843	400.06
362.07	416.06
362.296	405.06
362.523	399.06
362.749	395.06
362.976	385.06
363.203	400.06
363.429	370.06
363.656	399.06
363.882	385.06
364.109	391.06
364.335	391.06
364.562	393.06
364.788	376.06
365.015	382.06
365.241	402.06
365.468	389.06
365.694	381.06
365.92	391.06
366.147	394.06
366.373	348.06
366.599	380.06
366.826	381.06
367.052	379.06
367.278	398.06
367.505	386.06
367.731	397.06
367.957	371.06
368.184	380.06
368.41	393.06
368.636	389.06
368.862	385.06
369.089	382.06
369.315	383.06
369.541	378.06
369.767	362.06
369.993	398.06
370.219	376.06
370.445	396.06
370.672	393.06
370.898	380.06
371.124	360.06
371.35	380.06
371.576	380.06
371.802	367.06
372.028	380.06
372.254	361.06
372.48	398.06
372.706	388.06
372.932	393.06
373.158	395.06
373.384	406.06
373.61	377.06
373.835	392.06
374.061	379.06
374.287	390.06
374.513	376.06
374.739	405.06
374.965	374.06
375.191	378.06
375.416	380.06
375.642	388.06
375.868	400.06
376.094	380.06
376.319	379.06
376.545	366.06
376.771	370.06
376.997	372.06
377.222	364.06
377.448	367.06
377.674	387.06
377.899	384.06
378.125	384.06
378.35	366.06
378.576	370.06
378.802	366.06
379.027	386.06
379.253	388.06
379.478	374.06
379.704	375.06
379.929	360.06
380.155	365.06
380.38	399.06
380.606	384.06
380.831	370.06
381.057	371.06
381.282	383.06
381.507	372.06
381.733	358.06
381.958	382.06
382.184	392.06
382.409	381.06
382.634	399.06
382.86	395.06
383.085	378.06
383.31	377.06
383.535	377.06
383.761	380.06
383.986	400.06
384.211	385.06
384.436	392.06
384.662	401.06
384.887	408.06
385.112	418.06
385.337	394.06
385.562	408.06
385.787	415.06
386.013	423.06
386.238	403.06
386.463	416.06
386.688	419.06
386.913	401.06
387.138	418.06
387.363	397.06
387.588	416.06
387.813	413.06
388.038	412.06
388.263	412.06
388.488	432.06
388.713	393.06
388.938	404.06
389.163	413.06
389.387	401.06
389.612	382.06
389.837	398.06
390.062	421.06
390.287	420.06
390.512	410.06
390.736	415.06
390.961	440.06
391.186	421.06
391.411	408.06
391.636	413.06
391.86	453.06
392.085	414.06
392.31	448.06
392.534	428.06
392.759	414.06
392.984	431.06
393.208	438.06
393.433	415.06
393.658	432.06
393.882	401.06
394.107	410.06
394.331	432.06
394.556	426.06
394.78	424.06
395.005	441.06
395.229	424.06
395.454	450.06
395.678	442.06
395.903	447.06
396.127	446.06
396.352	475.06
396.576	414.06
396.801	430.06
397.025	434.06
397.249	420.06
397.474	435.06
397.698	436.06
397.922	456.06
398.147	461.06
398.371	468.06
398.595	463.06
398.82	463.06
399.044	487.06
399.268	511.06
399.492	526.06
399.717	565.06
399.941	617.06
400.165	605.06
400.389	591.06
400.613	529.06
400.837	498.06
401.062	468.06
401.286	483.06
401.51	466.06
401.734	460.06
401.958	456.06
402.182	484.06
402.406	484.06
402.63	481.06
402.854	486.06
403.078	486.06
403.302	482.06
403.526	490.06
403.75	491.06
403.974	493.06
404.198	477.06
404.422	488.06
404.645	489.06
404.869	511.06
405.093	505.06
405.317	560.06
405.541	565.06
405.765	508.06
405.988	508.06
406.212	544.06
406.436	522.06
406.66	516.06
406.883	523.06
407.107	548.06
407.331	559.06
407.555	649.06
407.778	638.06
408.002	589.06
408.226	522.06
408.449	549.06
408.673	533.06
408.896	565.06
409.12	590.06
409.344	572.06
409.567	500.06
409.791	500.06
410.014	484.06
410.238	495.06
410.461	486.06
410.685	494.06
410.908	511.06
411.132	528.06
411.355	550.06
411.578	528.06
411.802	494.06
412.025	476.06
412.249	464.06
412.472	509.06
412.695	556.06
412.919	518.06
413.142	483.06
413.365	472.06
413.589	471.06
413.812	453.06
414.035	474.06
414.258	466.06
414.482	453.06
414.705	466.06
414.928	449.06
415.151	451.06
415.374	470.06
415.597	446.06
415.821	455.06
416.044	459.06
416.267	464.06
416.49	460.06
416.713	456.06
416.936	440.06
417.159	451.06
417.382	436.06
417.605	439.06
417.828	464.06
418.051	458.06
418.274	458.06
418.497	442.06
418.72	455.06
418.943	473.06
419.166	466.06
419.389	495.06
419.611	478.06
419.834	473.06
420.057	476.06
420.28	461.06
420.503	458.06
420.726	485.06
420.948	470.06
421.171	520.06
421.394	533.06
421.617	498.06
421.839	469.06
422.062	472.06
422.285	473.06
422.507	523.06
422.73	584.06
422.953	548.06
423.175	494.06
423.398	485.06
423.621	484.06
423.843	494.06
424.066	533.06
424.288	510.06
424.511	508.06
424.733	542.06
424.956	607.06
425.178	602.06
425.401	597.06
425.623	621.06
425.846	518.06
426.068	485.06
426.291	484.06
426.513	479.06
426.735	511.06
426.958	513.06
427.18	595.06
427.402	717.06
427.625	749.06
427.847	646.06
428.069	600.06
428.292	514.06
428.514	469.06
428.736	475.06
428.958	475.06
429.181	485.06
429.403	448.06
429.625	459.06
429.847	502.06
430.069	541.06
430.292	542.06
430.514	465.06
430.736	468.06
430.958	457.06
431.18	451.06
431.402	439.06
431.624	420.06
431.846	417.06
432.068	434.06
432.29	431.06
432.512	438.06
432.734	436.06
432.956	442.06
433.178	450.06
433.4	450.06
433.622	445.06
433.844	437.06
434.066	423.06
434.287	444.06
434.509	455.06
434.731	450.06
434.953	454.06
435.175	451.06
435.397	491.06
435.618	473.06
435.84	513.06
436.062	596.06
436.284	651.06
436.505	534.06
436.727	492.06
436.949	445.06
437.17	453.06
437.392	430.06
437.614	458.06
437.835	496.06
438.057	581.06
438.278	641.06
438.5	630.06
438.721	708.06
438.943	683.06
439.165	551.06
439.386	492.06
439.608	495.06
439.829	491.06
440.05	514.06
440.272	545.06
440.493	512.06
440.715	474.06
440.936	459.06
441.158	447.06
441.379	476.06
441.6	480.06
441.822	509.06
442.043	513.06
442.264	596.06
442.486	620.06
442.707	535.06
442.928	497.06
443.149	514.06
443.371	533.06
443.592	545.06
443.813	637.06
444.034	680.06
444.255	582.06
444.476	523.06
444.698	492.06
444.919	506.06
445.14	628.06
445.361	562.06
445.582	550.06
445.803	587.06
446.024	636.06
446.245	667.06
446.466	586.06
446.687	518.06
446.908	478.06
447.129	467.06
447.35	451.06
447.571	436.06
447.792	443.06
448.013	454.06
448.234	486.06
448.455	482.06
448.675	581.06
448.896	692.06
449.117	578.06
449.338	564.06
449.559	647.06
449.779	733.06
450	581.06
450.221	484.06
450.442	454.06
450.662	431.06
450.883	430.06
451.104	455.06
451.324	431.06
451.545	415.06
451.766	430.06
451.986	401.06
452.207	404.06
452.428	383.06
452.648	382.06
452.869	401.06
453.089	392.06
453.31	417.06
453.53	421.06
453.751	415.06
453.971	396.06
454.192	398.06
454.412	397.06
454.633	399.06
454.853	389.06
455.073	399.06
455.294	426.06
455.514	452.06
455.734	458.06
455.955	405.06
456.175	386.06
456.395	370.06
456.616	371.06
456.836	372.06
457.056	361.06
457.276	368.06
457.497	381.06
457.717	380.06
457.937	388.06
458.157	394.06
458.377	382.06
458.598	414.06
458.818	435.06
459.038	514.06
459.258	508.06
459.478	465.06
459.698	434.06
459.918	435.06
460.138	431.06
460.358	449.06
460.578	432.06
460.798	460.06
461.018	446.06
461.238	461.06
461.458	453.06
461.678	439.06
461.898	456.06
462.118	437.06
462.338	431.06
462.558	458.06
462.777	458.06
462.997	498.06
463.217	518.06
463.437	494.06
463.657	500.06
463.876	489.06
464.096	481.06
464.316	477.06
464.536	491.06
464.755	478.06
464.975	481.06
465.195	484.06
465.414	516.06
465.634	483.06
465.854	441.06
466.073	435.06
466.293	425.06
466.512	421.06
466.732	415.06
466.951	405.06
467.171	400.06
467.391	422.06
467.61	422.06
467.829	413.06
468.049	402.06
468.268	409.06
468.488	406.06
468.707	398.06
468.927	403.06
469.146	395.06
469.365	387.06
469.585	398.06
469.804	420.06
470.023	440.06
470.243	423.06
470.462	404.06
470.681	436.06
470.901	432.06
471.12	409.06
471.339	396.06
471.558	401.06
471.777	421.06
471.997	404.06
472.216	438.06
472.435	424.06
472.654	423.06
472.873	406.06
473.092	411.06
473.311	408.06
473.53	413.06
473.749	431.06
473.968	458.06
474.187	528.06
474.406	549.06
474.625	454.06
474.844	427.06
475.063	408.06
475.282	423.06
475.501	412.06
475.72	418.06
475.939	416.06
476.158	414.06
476.377	428.06
476.596	436.06
476.814	431.06
477.033	451.06
477.252	438.06
477.471	454.06
477.69	445.06
477.908	431.06
478.127	465.06
478.346	443.06
478.564	462.06
478.783	476.06
479.002	469.06
479.22	495.06
479.439	470.06
479.658	475.06
479.876	478.06
480.095	484.06
480.313	522.06
480.532	499.06
480.751	516.06
480.969	541.06
481.188	547.06
481.406	547.06
481.624	492.06
481.843	514.06
482.061	468.06
482.28	469.06
482.498	475.06
482.717	473.06
482.935	486.06
483.153	482.06
483.372	468.06
483.59	460.06
483.808	464.06
484.027	462.06
484.245	476.06
484.463	487.06
484.681	488.06
484.9	483.06
485.118	483.06
485.336	504.06
485.554	500.06
485.772	509.06
485.99	516.06
486.209	494.06
486.427	494.06
486.645	489.06
486.863	487.06
487.081	514.06
487.299	510.06
487.517	516.06
487.735	502.06
487.953	503.06
488.171	483.06
488.389	512.06
488.607	521.06
488.825	510.06
489.043	504.06
489.261	519.06
489.479	499.06
489.696	527.06
489.914	532.06
490.132	527.06
490.35	509.06
490.568	544.06
490.786	524.06
491.003	523.06
491.221	572.06
491.439	556.06
491.657	571.06
491.874	565.06
492.092	556.06
492.31	556.06
492.527	563.06
492.745	566.06
492.963	565.06
493.18	555.06
493.398	590.06
493.615	584.06
493.833	581.06
494.05	565.06
494.268	585.06
494.485	591.06
494.703	573.06
494.92	573.06
495.138	572.06
495.355	595.06
495.573	592.06
495.79	581.06
496.008	581.06
496.225	584.06
496.442	609.06
496.66	605.06
496.877	580.06
497.094	618.06
497.312	622.06
497.529	615.06
497.746	638.06
497.963	634.06
498.181	652.06
498.398	679.06
498.615	686.06
498.832	713.06
499.049	716.06
499.267	716.06
499.484	769.06
499.701	799.06
499.918	823.06
500.135	874.06
500.352	902.06
500.569	940.06
500.786	924.06
501.003	914.06
501.22	877.06
501.437	832.06
501.654	836.06
501.871	773.06
502.088	735.06
502.305	746.06
502.522	692.06
502.739	674.06
502.956	665.06
503.172	649.06
503.389	643.06
503.606	616.06
503.823	626.06
504.04	592.06
504.256	613.06
504.473	624.06
504.69	598.06
504.907	599.06
505.123	596.06
505.34	589.06
505.557	578.06
505.773	568.06
505.99	560.06
506.207	572.06
506.423	566.06
506.64	559.06
506.856	560.06
507.073	581.06
507.289	551.06
507.506	529.06
507.722	566.06
507.939	551.06
508.155	554.06
508.372	518.06
508.588	510.06
508.805	526.06
509.021	512.06
509.238	552.06
509.454	565.06
509.67	551.06
509.887	524.06
510.103	509.06
510.319	525.06
510.536	593.06
510.752	862.06
510.968	714.06
511.184	534.06
511.401	506.06
511.617	516.06
511.833	505.06
512.049	498.06
512.265	493.06
512.481	498.06
512.698	484.06
512.914	493.06
513.13	499.06
513.346	460.06
513.562	510.06
513.778	483.06
513.994	486.06
514.21	508.06
514.426	498.06
514.642	529.06
514.858	558.06
515.074	577.06
515.29	632.06
515.506	898.06
515.721	764.06
515.937	592.06
516.153	532.06
516.369	522.06
516.585	506.06
516.801	527.06
517.016	545.06
517.232	542.06
517.448	531.06
517.664	518.06
517.879	530.06
518.095	527.06
518.311	546.06
518.527	536.06
518.742	535.06
518.958	526.06
519.173	522.06
519.389	517.06
519.605	506.06
519.82	504.06
520.036	519.06
520.251	546.06
520.467	505.06
520.682	535.06
520.898	538.06
521.113	546.06
521.329	552.06
521.544	585.06
521.76	695.06
521.975	1106.06
522.19	1042.06
522.406	656.06
522.621	559.06
522.836	494.06
523.052	462.06
523.267	461.06
523.482	458.06
523.698	450.06
523.913	471.06
524.128	446.06
524.343	457.06
524.559	448.06
524.774	446.06
524.989	436.06
525.204	434.06
525.419	435.06
525.634	443.06
525.849	411.06
526.064	439.06
526.28	410.06
526.495	422.06
526.71	411.06
526.925	407.06
527.14	413.06
527.355	427.06
527.57	399.06
527.785	409.06
527.999	423.06
528.214	408.06
528.429	419.06
528.644	432.06
528.859	430.06
529.074	444.06
529.289	446.06
529.503	498.06
529.718	471.06
529.933	460.06
530.148	416.06
530.363	418.06
530.577	411.06
530.792	426.06
531.007	430.06
531.221	409.06
531.436	397.06
531.651	409.06
531.865	423.06
532.08	400.06
532.295	395.06
532.509	417.06
532.724	398.06
532.938	393.06
533.153	407.06
533.367	414.06
533.582	389.06
533.796	418.06
534.011	398.06
534.225	402.06
534.44	394.06
534.654	388.06
534.868	403.06
535.083	407.06
535.297	402.06
535.511	400.06
535.726	420.06
535.94	392.06
536.154	393.06
536.369	379.06
536.583	408.06
536.797	402.06
537.011	395.06
537.225	386.06
537.44	403.06
537.654	384.06
537.868	393.06
538.082	379.06
538.296	403.06
538.51	407.06
538.724	380.06
538.938	399.06
539.153	396.06
539.367	380.06
539.581	411.06
539.795	394.06
540.009	379.06
540.222	390.06
540.436	399.06
540.65	372.06
540.864	404.06
541.078	398.06
541.292	395.06
541.506	405.06
541.72	383.06
541.934	399.06
542.147	395.06
542.361	377.06
542.575	390.06
542.789	386.06
543.002	383.06
543.216	383.06
543.43	406.06
543.644	398.06
543.857	382.06
544.071	387.06
544.285	386.06
544.498	385.06
544.712	388.06
544.925	387.06
545.139	363.06
545.352	388.06
545.566	384.06
545.779	374.06
545.993	378.06
546.206	381.06
546.42	387.06
546.633	378.06
546.847	392.06
547.06	399.06
547.274	374.06
547.487	380.06
547.7	382.06
547.914	351.06
548.127	370.06
548.34	366.06
548.554	365.06
548.767	378.06
548.98	355.06
549.193	374.06
549.407	387.06
549.62	382.06
549.833	394.06
550.046	382.06
550.259	376.06
550.473	383.06
550.686	383.06
550.899	345.06
551.112	361.06
551.325	363.06
551.538	366.06
551.751	370.06
551.964	362.06
552.177	372.06
552.39	373.06
552.603	362.06
552.816	399.06
553.029	390.06
553.242	365.06
553.455	401.06
553.667	389.06
553.88	381.06
554.093	375.06
554.306	392.06
554.519	374.06
554.732	358.06
554.944	366.06
555.157	360.06
555.37	349.06
555.583	355.06
555.795	359.06
556.008	341.06
556.221	352.06
556.433	353.06
556.646	344.06
556.859	322.06
557.071	335.06
557.284	336.06
557.496	311.06
557.709	334.06
557.921	319.06
558.134	329.06
558.346	332.06
558.559	319.06
558.771	326.06
558.984	319.06
559.196	335.06
559.409	331.06
559.621	325.06
559.833	324.06
560.046	315.06
560.258	331.06
560.47	331.06
560.683	337.06
560.895	319.06
561.107	338.06
561.32	336.06
561.532	317.06
561.744	339.06
561.956	337.06
562.168	327.06
562.381	323.06
562.593	341.06
562.805	362.06
563.017	331.06
563.229	331.06
563.441	333.06
563.653	325.06
563.865	350.06
564.077	341.06
564.289	356.06
564.501	355.06
564.713	336.06
564.925	347.06
565.137	347.06
565.349	353.06
565.561	358.06
565.773	375.06
565.985	366.06
566.197	394.06
566.408	405.06
566.62	406.06
566.832	419.06
567.044	436.06
567.255	422.06
567.467	431.06
567.679	438.06
567.891	430.06
568.102	447.06
568.314	422.06
568.526	409.06
568.737	429.06
568.949	395.06
569.161	380.06
569.372	367.06
569.584	364.06
569.795	341.06
570.007	352.06
570.218	360.06
570.43	351.06
570.641	339.06
570.853	332.06
571.064	328.06
571.276	320.06
571.487	330.06
571.698	339.06
571.91	306.06
572.121	340.06
572.333	298.06
572.544	308.06
572.755	303.06
572.966	303.06
573.178	302.06
573.389	308.06
573.6	288.06
573.811	308.06
574.023	287.06
574.234	269.06
574.445	290.06
574.656	279.06
574.867	296.06
575.078	285.06
575.289	295.06
575.501	273.06
575.712	298.06
575.923	263.06
576.134	268.06
576.345	278.06
576.556	287.06
576.767	282.06
576.978	288.06
577.188	301.06
577.399	289.06
577.61	281.06
577.821	277.06
578.032	295.06
578.243	295.06
578.454	403.06
578.665	354.06
578.875	273.06
579.086	291.06
579.297	270.06
579.508	263.06
579.718	273.06
579.929	278.06
580.14	267.06
580.35	276.06
580.561	270.06
580.772	258.06
580.982	252.06
581.193	260.06
581.403	267.06
581.614	265.06
581.825	262.06
582.035	256.06
582.246	240.06
582.456	247.06
582.667	266.06
582.877	251.06
583.087	265.06
583.298	284.06
583.508	261.06
583.719	269.06
583.929	267.06
584.139	253.06
584.35	242.06
584.56	282.06
584.77	251.06
584.981	269.06
585.191	253.06
585.401	259.06
585.611	268.06
585.821	254.06
586.032	258.06
586.242	250.06
586.452	258.06
586.662	259.06
586.872	244.06
587.082	250.06
587.292	275.06
587.502	243.06
587.713	247.06
587.923	253.06
588.133	246.06
588.343	264.06
588.553	261.06
588.762	259.06
588.972	265.06
589.182	258.06
589.392	241.06
589.602	231.06
589.812	253.06
590.022	256.06
590.232	259.06
590.441	260.06
590.651	259.06
590.861	268.06
591.071	258.06
591.281	244.06
591.49	259.06
591.7	269.06
591.91	250.06
592.119	257.06
592.329	262.06
592.539	284.06
592.748	276.06
592.958	286.06
593.167	286.06
593.377	280.06
593.587	287.06
593.796	274.06
594.006	274.06
594.215	283.06
594.424	275.06
594.634	247.06
594.843	264.06
595.053	280.06
595.262	271.06
595.472	268.06
595.681	246.06
595.89	247.06
596.1	251.06
596.309	249.06
596.518	252.06
596.727	253.06
596.937	239.06
597.146	241.06
597.355	245.06
597.564	218.06
597.774	242.06
597.983	235.06
598.192	234.06
598.401	218.06
598.61	231.06
598.819	226.06
599.028	237.06
599.237	232.06
599.446	245.06
599.655	223.06
599.864	227.06
600.073	222.06
600.282	220.06
600.491	242.06
600.7	217.06
600.909	223.06
601.118	218.06
601.327	206.06
601.536	219.06
601.745	217.06
601.953	217.06
602.162	251.06
602.371	223.06
602.58	215.06
602.789	211.06
602.997	219.06
603.206	224.06
603.415	217.06
603.623	205.06
603.832	225.06
604.041	215.06
604.249	205.06
604.458	213.06
604.666	213.06
604.875	219.06
605.084	225.06
605.292	228.06
605.501	218.06
605.709	217.06
605.918	220.06
606.126	217.06
606.334	201.06
606.543	224.06
606.751	219.06
606.96	213.06
607.168	203.06
607.376	207.06
607.585	216.06
607.793	203.06
608.001	221.06
608.21	223.06
608.418	214.06
608.626	202.06
608.834	201.06
609.043	220.06
609.251	222.06
609.459	209.06
609.667	222.06
609.875	216.06
610.083	200.06
610.291	216.06
610.499	213.06
610.707	220.06
610.916	216.06
611.124	213.06
611.332	205.06
611.54	217.06
611.748	218.06
611.955	197.06
612.163	209.06
612.371	211.06
612.579	188.06
612.787	201.06
612.995	191.06
613.203	211.06
613.411	210.06
613.618	195.06
613.826	190.06
614.034	190.06
614.242	201.06
614.449	192.06
614.657	217.06
614.865	221.06
615.072	210.06
615.28	199.06
615.488	208.06
615.695	214.06
615.903	211.06
616.111	203.06
616.318	222.06
616.526	206.06
616.733	218.06
616.941	208.06
617.148	206.06
617.356	193.06
617.563	202.06
617.771	194.06
617.978	200.06
618.185	189.06
618.393	206.06
618.6	195.06
618.807	203.06
619.015	178.06
619.222	190.06
619.429	203.06
619.637	192.06
619.844	171.06
620.051	198.06
620.258	197.06
620.466	189.06
620.673	195.06
620.88	208.06
621.087	196.06
621.294	208.06
621.501	182.06
621.708	199.06
621.915	202.06
622.122	199.06
622.329	200.06
622.536	196.06
622.743	198.06
622.95	193.06
623.157	203.06
623.364	197.06
623.571	205.06
623.778	204.06
623.985	201.06
624.192	185.06
624.399	196.06
624.606	194.06
624.812	187.06
625.019	186.06
625.226	194.06
625.433	203.06
625.639	180.06
625.846	179.06
626.053	179.06
626.259	179.06
626.466	183.06
626.673	179.06
626.879	176.06
627.086	191.06
627.293	194.06
627.499	171.06
627.706	180.06
627.912	167.06
628.119	184.06
628.325	180.06
628.532	183.06
628.738	172.06
628.945	176.06
629.151	153.06
629.357	174.06
629.564	175.06
629.77	168.06
629.976	173.06
630.183	188.06
630.389	176.06
630.595	172.06
630.802	171.06
631.008	171.06
631.214	163.06
631.42	193.06
631.627	152.06
631.833	189.06
632.039	168.06
632.245	178.06
632.451	173.06
632.657	174.06
632.863	157.06
633.069	162.06
633.275	172.06
633.481	174.06
633.688	178.06
633.893	163.06
634.099	169.06
634.305	156.06
634.511	180.06
634.717	163.06
634.923	166.06
635.129	176.06
635.335	165.06
635.541	170.06
635.747	155.06
635.952	152.06
636.158	168.06
636.364	164.06
636.57	164.06
636.775	163.06
636.981	160.06
637.187	182.06
637.392	156.06
637.598	159.06
637.804	157.06
638.009	166.06
638.215	163.06
638.421	157.06
638.626	151.06
638.832	164.06
639.037	156.06
639.243	149.06
639.448	162.06
639.654	147.06
639.859	145.06
640.065	142.06
640.27	162.06
640.475	147.06
640.681	153.06
640.886	157.06
641.091	145.06
641.297	163.06
641.502	161.06
641.707	143.06
641.913	152.06
642.118	135.06
642.323	143.06
642.528	152.06
642.733	151.06
642.939	153.06
643.144	156.06
643.349	153.06
643.554	162.06
643.759	162.06
643.964	155.06
644.169	164.06
644.374	145.06
644.579	145.06
644.784	156.06
644.989	162.06
645.194	151.06
645.399	154.06
645.604	156.06
645.809	152.06
646.014	155.06
646.219	162.06
646.423	140.06
646.628	142.06
646.833	144.06
647.038	153.06
647.243	158.06
647.447	164.06
647.652	161.06
647.857	157.06
648.062	144.06
648.266	148.06
648.471	151.06
648.676	164.06
648.88	156.06
649.085	143.06
649.289	158.06
649.494	160.06
649.698	167.06
649.903	163.06
650.107	135.06
650.312	140.06
650.516	155.06
650.721	130.06
650.925	126.06
651.13	150.06
651.334	145.06
651.539	148.06
651.743	130.06
651.947	145.06
652.152	135.06
652.356	136.06
652.56	135.06
652.764	125.06
652.969	146.06
653.173	125.06
653.377	123.06
653.581	124.06
653.785	125.06
653.99	144.06
654.194	139.06
654.398	126.06
654.602	139.06
654.806	119.06
655.01	128.06
655.214	134.06
655.418	136.06
655.622	126.06
655.826	133.06
656.03	126.06
656.234	119.06
656.438	123.06
656.642	118.06
656.846	129.06
657.049	114.06
657.253	131.06
657.457	110.06
657.661	110.06
657.865	112.06
658.068	109.06
658.272	112.06
658.476	106.06
658.68	111.06
658.883	105.06
659.087	96.06
659.291	114.06
659.494	101.06
659.698	102.06
659.901	108.06
660.105	91.06
660.309	79.06
660.512	89.06
660.716	80.06
660.919	82.06
661.123	90.06
661.326	92.06
661.53	99.06
661.733	87.06
661.936	93.06
662.14	95.06
662.343	114.06
662.546	73.06
662.75	90.06
662.953	86.06
663.156	84.06
663.36	85.06
663.563	89.06
663.766	72.06
663.969	84.06
664.173	88.06
664.376	70.06
664.579	69.06
664.782	80.06
664.985	91.06
665.188	82.06
665.391	102.06
665.594	82.06
665.797	86.06
666	106.06
666.203	75.06
666.406	71.06
666.609	66.06
666.812	80.06
667.015	89.06
667.218	93.06
667.421	87.06
667.624	89.06
667.827	93.06
668.03	82.06
668.232	78.06
668.435	80.06
668.638	63.06
668.841	83.06
669.043	92.06
669.246	90.06
669.449	79.06
669.651	83.06
669.854	81.06
670.057	81.06
670.259	80.06
670.462	81.06
670.665	88.06
670.867	78.06
671.07	85.06
671.272	94.06
671.475	87.06
671.677	83.06
671.88	80.06
672.082	82.06
672.284	84.06
672.487	84.06
672.689	86.06
672.892	81.06
