Data from 1977.PennyLincolnUp.Lamp.En5.5.200Scan.071719.P1_HRD10591_16-07-24-864.txt Node
Date: Thu Jul 18 16:07:24 EDT 2019
User: cochatt
Spectrometer: HR+D1059
Trigger mode: 1
Integration Time (sec): 1.000000E-1
Scans to average: 1
Electric dark correction enabled: true
Nonlinearity correction enabled: false
Boxcar width: 0
XAxis mode: Wavelengths
Number of Pixels in Spectrum: 2048
>>>>>Begin Spectral Data<<<<<
223.165	-10.31
223.4	-10.31
223.635	-10.31
223.869	-24.31
224.104	-21.31
224.338	-14.31
224.573	-8.31
224.808	-10.31
225.042	-10.31
225.277	3.69
225.511	4.69
225.746	9.69
225.98	9.69
226.215	-0.31
226.449	-9.31
226.683	10.69
226.918	35.69
227.152	34.69
227.387	36.69
227.621	43.69
227.856	36.69
228.09	34.69
228.324	58.69
228.559	47.69
228.793	72.69
229.027	89.69
229.262	108.69
229.496	108.69
229.73	113.69
229.964	123.69
230.199	121.69
230.433	107.69
230.667	106.69
230.901	98.69
231.136	110.69
231.37	107.69
231.604	106.69
231.838	94.69
232.072	121.69
232.306	115.69
232.541	106.69
232.775	108.69
233.009	117.69
233.243	117.69
233.477	129.69
233.711	110.69
233.945	122.69
234.179	123.69
234.413	113.69
234.647	111.69
234.881	121.69
235.115	113.69
235.349	112.69
235.583	122.69
235.817	117.69
236.051	117.69
236.285	129.69
236.519	122.69
236.753	119.69
236.987	138.69
237.221	162.69
237.455	200.69
237.689	187.69
237.922	139.69
238.156	136.69
238.39	125.69
238.624	128.69
238.858	136.69
239.091	134.69
239.325	122.69
239.559	134.69
239.793	111.69
240.027	129.69
240.26	141.69
240.494	149.69
240.728	148.69
240.961	151.69
241.195	142.69
241.429	134.69
241.662	130.69
241.896	127.69
242.13	137.69
242.363	126.69
242.597	131.69
242.83	144.69
243.064	141.69
243.298	143.69
243.531	150.69
243.765	137.69
243.998	130.69
244.232	149.69
244.465	147.69
244.699	155.69
244.932	141.69
245.166	141.69
245.399	154.69
245.633	141.69
245.866	138.69
246.099	143.69
246.333	147.69
246.566	132.69
246.8	152.69
247.033	164.69
247.266	159.69
247.5	154.69
247.733	173.69
247.966	170.69
248.2	179.69
248.433	156.69
248.666	169.69
248.899	172.69
249.133	174.69
249.366	205.69
249.599	198.69
249.832	182.69
250.066	177.69
250.299	168.69
250.532	187.69
250.765	185.69
250.998	227.69
251.231	204.69
251.465	206.69
251.698	191.69
251.931	195.69
252.164	203.69
252.397	213.69
252.63	200.69
252.863	198.69
253.096	197.69
253.329	233.69
253.562	215.69
253.795	197.69
254.028	205.69
254.261	222.69
254.494	226.69
254.727	238.69
254.96	261.69
255.193	269.69
255.426	234.69
255.659	238.69
255.892	223.69
256.124	225.69
256.357	224.69
256.59	228.69
256.823	231.69
257.056	202.69
257.289	193.69
257.521	215.69
257.754	220.69
257.987	225.69
258.22	226.69
258.452	219.69
258.685	210.69
258.918	214.69
259.151	223.69
259.383	233.69
259.616	238.69
259.849	209.69
260.081	228.69
260.314	234.69
260.547	253.69
260.779	234.69
261.012	225.69
261.244	230.69
261.477	230.69
261.71	232.69
261.942	233.69
262.175	236.69
262.407	239.69
262.64	222.69
262.872	238.69
263.105	218.69
263.337	221.69
263.57	210.69
263.802	215.69
264.035	218.69
264.267	222.69
264.499	204.69
264.732	230.69
264.964	222.69
265.197	219.69
265.429	221.69
265.661	230.69
265.894	217.69
266.126	228.69
266.358	226.69
266.591	215.69
266.823	229.69
267.055	234.69
267.287	233.69
267.52	222.69
267.752	230.69
267.984	237.69
268.216	236.69
268.448	253.69
268.681	255.69
268.913	243.69
269.145	271.69
269.377	260.69
269.609	277.69
269.841	267.69
270.073	281.69
270.306	293.69
270.538	320.69
270.77	315.69
271.002	301.69
271.234	305.69
271.466	295.69
271.698	315.69
271.93	317.69
272.162	301.69
272.394	326.69
272.626	309.69
272.858	303.69
273.09	299.69
273.322	274.69
273.553	247.69
273.785	295.69
274.017	278.69
274.249	277.69
274.481	269.69
274.713	279.69
274.945	266.69
275.176	275.69
275.408	289.69
275.64	287.69
275.872	267.69
276.104	271.69
276.335	271.69
276.567	291.69
276.799	290.69
277.031	307.69
277.262	314.69
277.494	314.69
277.726	312.69
277.957	300.69
278.189	301.69
278.421	307.69
278.652	268.69
278.884	291.69
279.115	274.69
279.347	275.69
279.579	279.69
279.81	283.69
280.042	277.69
280.273	289.69
280.505	284.69
280.736	300.69
280.968	279.69
281.199	292.69
281.431	291.69
281.662	282.69
281.894	307.69
282.125	281.69
282.356	290.69
282.588	309.69
282.819	311.69
283.051	298.69
283.282	305.69
283.513	293.69
283.745	288.69
283.976	308.69
284.207	298.69
284.439	305.69
284.67	318.69
284.901	307.69
285.132	314.69
285.364	309.69
285.595	323.69
285.826	282.69
286.057	309.69
286.288	297.69
286.52	297.69
286.751	309.69
286.982	296.69
287.213	298.69
287.444	308.69
287.675	301.69
287.906	307.69
288.138	323.69
288.369	328.69
288.6	326.69
288.831	320.69
289.062	316.69
289.293	315.69
289.524	325.69
289.755	319.69
289.986	313.69
290.217	309.69
290.448	310.69
290.679	299.69
290.91	313.69
291.141	306.69
291.371	308.69
291.602	316.69
291.833	335.69
292.064	297.69
292.295	308.69
292.526	310.69
292.757	324.69
292.987	323.69
293.218	326.69
293.449	326.69
293.68	321.69
293.91	313.69
294.141	311.69
294.372	314.69
294.603	306.69
294.833	323.69
295.064	328.69
295.295	311.69
295.525	299.69
295.756	340.69
295.987	338.69
296.217	347.69
296.448	342.69
296.679	316.69
296.909	333.69
297.14	314.69
297.37	305.69
297.601	331.69
297.831	341.69
298.062	313.69
298.292	321.69
298.523	319.69
298.753	333.69
298.984	325.69
299.214	328.69
299.445	325.69
299.675	332.69
299.905	336.69
300.136	319.69
300.366	345.69
300.597	321.69
300.827	327.69
301.057	350.69
301.288	340.69
301.518	341.69
301.748	328.69
301.979	351.69
302.209	349.69
302.439	339.69
302.669	364.69
302.9	334.69
303.13	333.69
303.36	348.69
303.59	356.69
303.82	350.69
304.051	360.69
304.281	343.69
304.511	353.69
304.741	364.69
304.971	343.69
305.201	343.69
305.431	361.69
305.661	362.69
305.891	330.69
306.121	354.69
306.352	348.69
306.582	351.69
306.812	355.69
307.042	354.69
307.272	353.69
307.502	339.69
307.731	348.69
307.961	363.69
308.191	354.69
308.421	363.69
308.651	357.69
308.881	364.69
309.111	362.69
309.341	367.69
309.571	370.69
309.8	383.69
310.03	387.69
310.26	375.69
310.49	380.69
310.72	381.69
310.949	389.69
311.179	415.69
311.409	389.69
311.639	401.69
311.868	393.69
312.098	384.69
312.328	385.69
312.557	418.69
312.787	411.69
313.017	415.69
313.246	406.69
313.476	397.69
313.706	377.69
313.935	400.69
314.165	399.69
314.394	410.69
314.624	422.69
314.853	398.69
315.083	407.69
315.312	422.69
315.542	379.69
315.771	387.69
316.001	383.69
316.23	390.69
316.46	381.69
316.689	394.69
316.919	393.69
317.148	412.69
317.377	407.69
317.607	395.69
317.836	428.69
318.065	387.69
318.295	399.69
318.524	386.69
318.753	394.69
318.983	417.69
319.212	394.69
319.441	397.69
319.67	414.69
319.9	411.69
320.129	418.69
320.358	418.69
320.587	419.69
320.816	420.69
321.046	417.69
321.275	425.69
321.504	414.69
321.733	411.69
321.962	406.69
322.191	427.69
322.42	442.69
322.649	462.69
322.878	430.69
323.108	445.69
323.337	465.69
323.566	472.69
323.795	507.69
324.024	539.69
324.253	654.69
324.482	883.69
324.71	1299.69
324.939	1825.69
325.168	1574.69
325.397	861.69
325.626	599.69
325.855	535.69
326.084	490.69
326.313	497.69
326.542	523.69
326.77	553.69
326.999	640.69
327.228	803.69
327.457	1186.69
327.686	1363.69
327.914	939.69
328.143	645.69
328.372	591.69
328.6	548.69
328.829	549.69
329.058	535.69
329.287	548.69
329.515	533.69
329.744	488.69
329.972	494.69
330.201	522.69
330.43	539.69
330.658	570.69
330.887	583.69
331.115	580.69
331.344	531.69
331.572	474.69
331.801	475.69
332.03	488.69
332.258	472.69
332.486	472.69
332.715	466.69
332.943	461.69
333.172	475.69
333.4	486.69
333.629	499.69
333.857	486.69
334.085	518.69
334.314	519.69
334.542	524.69
334.771	541.69
334.999	495.69
335.227	490.69
335.455	468.69
335.684	471.69
335.912	459.69
336.14	453.69
336.369	469.69
336.597	466.69
336.825	485.69
337.053	450.69
337.281	453.69
337.51	454.69
337.738	464.69
337.966	468.69
338.194	442.69
338.422	459.69
338.65	441.69
338.878	456.69
339.106	436.69
339.334	460.69
339.562	452.69
339.79	459.69
340.018	442.69
340.246	446.69
340.474	456.69
340.702	443.69
340.93	412.69
341.158	447.69
341.386	448.69
341.614	447.69
341.842	445.69
342.07	429.69
342.298	436.69
342.526	428.69
342.754	430.69
342.981	444.69
343.209	419.69
343.437	441.69
343.665	444.69
343.893	474.69
344.12	467.69
344.348	457.69
344.576	457.69
344.804	442.69
345.031	449.69
345.259	459.69
345.487	446.69
345.714	442.69
345.942	426.69
346.17	452.69
346.397	417.69
346.625	441.69
346.853	426.69
347.08	438.69
347.308	422.69
347.535	422.69
347.763	427.69
347.99	440.69
348.218	425.69
348.445	417.69
348.673	449.69
348.9	419.69
349.128	423.69
349.355	424.69
349.583	409.69
349.81	413.69
350.037	420.69
350.265	388.69
350.492	426.69
350.72	409.69
350.947	402.69
351.174	424.69
351.402	411.69
351.629	427.69
351.856	408.69
352.083	420.69
352.311	430.69
352.538	405.69
352.765	438.69
352.992	412.69
353.22	431.69
353.447	396.69
353.674	418.69
353.901	413.69
354.128	400.69
354.355	386.69
354.583	394.69
354.81	398.69
355.037	373.69
355.264	396.69
355.491	405.69
355.718	391.69
355.945	399.69
356.172	382.69
356.399	370.69
356.626	385.69
356.853	389.69
357.08	381.69
357.307	389.69
357.534	385.69
357.761	403.69
357.988	410.69
358.215	397.69
358.441	384.69
358.668	389.69
358.895	388.69
359.122	411.69
359.349	411.69
359.576	403.69
359.802	419.69
360.029	439.69
360.256	427.69
360.483	422.69
360.709	405.69
360.936	444.69
361.163	392.69
361.39	404.69
361.616	421.69
361.843	398.69
362.07	397.69
362.296	405.69
362.523	423.69
362.749	392.69
362.976	402.69
363.203	377.69
363.429	389.69
363.656	389.69
363.882	386.69
364.109	402.69
364.335	400.69
364.562	414.69
364.788	394.69
365.015	389.69
365.241	412.69
365.468	402.69
365.694	405.69
365.92	399.69
366.147	390.69
366.373	399.69
366.599	396.69
366.826	404.69
367.052	392.69
367.278	393.69
367.505	390.69
367.731	419.69
367.957	399.69
368.184	380.69
368.41	401.69
368.636	409.69
368.862	400.69
369.089	411.69
369.315	418.69
369.541	397.69
369.767	394.69
369.993	412.69
370.219	401.69
370.445	394.69
370.672	409.69
370.898	394.69
371.124	385.69
371.35	398.69
371.576	387.69
371.802	409.69
372.028	387.69
372.254	405.69
372.48	379.69
372.706	386.69
372.932	388.69
373.158	397.69
373.384	407.69
373.61	405.69
373.835	395.69
374.061	400.69
374.287	389.69
374.513	405.69
374.739	417.69
374.965	422.69
375.191	410.69
375.416	412.69
375.642	398.69
375.868	408.69
376.094	394.69
376.319	396.69
376.545	402.69
376.771	417.69
376.997	387.69
377.222	392.69
377.448	391.69
377.674	398.69
377.899	379.69
378.125	390.69
378.35	390.69
378.576	390.69
378.802	377.69
379.027	386.69
379.253	393.69
379.478	382.69
379.704	380.69
379.929	391.69
380.155	409.69
380.38	404.69
380.606	405.69
380.831	398.69
381.057	383.69
381.282	385.69
381.507	403.69
381.733	395.69
381.958	379.69
382.184	385.69
382.409	400.69
382.634	408.69
382.86	391.69
383.085	418.69
383.31	416.69
383.535	403.69
383.761	410.69
383.986	412.69
384.211	434.69
384.436	389.69
384.662	411.69
384.887	400.69
385.112	428.69
385.337	426.69
385.562	421.69
385.787	440.69
386.013	443.69
386.238	438.69
386.463	431.69
386.688	438.69
386.913	440.69
387.138	425.69
387.363	413.69
387.588	422.69
387.813	422.69
388.038	417.69
388.263	410.69
388.488	417.69
388.713	429.69
388.938	444.69
389.163	424.69
389.387	428.69
389.612	436.69
389.837	410.69
390.062	421.69
390.287	409.69
390.512	449.69
390.736	423.69
390.961	413.69
391.186	429.69
391.411	432.69
391.636	462.69
391.86	451.69
392.085	437.69
392.31	458.69
392.534	441.69
392.759	420.69
392.984	411.69
393.208	445.69
393.433	429.69
393.658	415.69
393.882	433.69
394.107	433.69
394.331	426.69
394.556	435.69
394.78	444.69
395.005	459.69
395.229	463.69
395.454	462.69
395.678	455.69
395.903	486.69
396.127	472.69
396.352	454.69
396.576	447.69
396.801	446.69
397.025	445.69
397.249	458.69
397.474	459.69
397.698	459.69
397.922	482.69
398.147	484.69
398.371	500.69
398.595	483.69
398.82	483.69
399.044	512.69
399.268	532.69
399.492	537.69
399.717	590.69
399.941	595.69
400.165	618.69
400.389	598.69
400.613	576.69
400.837	521.69
401.062	521.69
401.286	496.69
401.51	498.69
401.734	502.69
401.958	497.69
402.182	475.69
402.406	493.69
402.63	502.69
402.854	497.69
403.078	491.69
403.302	497.69
403.526	538.69
403.75	489.69
403.974	516.69
404.198	511.69
404.422	525.69
404.645	530.69
404.869	515.69
405.093	549.69
405.317	554.69
405.541	604.69
405.765	543.69
405.988	530.69
406.212	540.69
406.436	542.69
406.66	550.69
406.883	546.69
407.107	574.69
407.331	606.69
407.555	651.69
407.778	653.69
408.002	610.69
408.226	577.69
408.449	565.69
408.673	541.69
408.896	594.69
409.12	613.69
409.344	583.69
409.567	527.69
409.791	520.69
410.014	503.69
410.238	490.69
410.461	506.69
410.685	503.69
410.908	523.69
411.132	536.69
411.355	584.69
411.578	567.69
411.802	532.69
412.025	496.69
412.249	515.69
412.472	534.69
412.695	547.69
412.919	525.69
413.142	513.69
413.365	478.69
413.589	494.69
413.812	481.69
414.035	494.69
414.258	463.69
414.482	452.69
414.705	498.69
414.928	484.69
415.151	485.69
415.374	469.69
415.597	488.69
415.821	484.69
416.044	464.69
416.267	467.69
416.49	463.69
416.713	480.69
416.936	474.69
417.159	486.69
417.382	485.69
417.605	485.69
417.828	471.69
418.051	495.69
418.274	472.69
418.497	459.69
418.72	488.69
418.943	477.69
419.166	499.69
419.389	521.69
419.611	498.69
419.834	497.69
420.057	491.69
420.28	498.69
420.503	479.69
420.726	490.69
420.948	501.69
421.171	541.69
421.394	565.69
421.617	509.69
421.839	510.69
422.062	501.69
422.285	488.69
422.507	551.69
422.73	602.69
422.953	599.69
423.175	515.69
423.398	512.69
423.621	508.69
423.843	524.69
424.066	515.69
424.288	515.69
424.511	523.69
424.733	575.69
424.956	661.69
425.178	622.69
425.401	613.69
425.623	620.69
425.846	553.69
426.068	515.69
426.291	519.69
426.513	513.69
426.735	502.69
426.958	569.69
427.18	602.69
427.402	739.69
427.625	785.69
427.847	691.69
428.069	609.69
428.292	550.69
428.514	515.69
428.736	481.69
428.958	484.69
429.181	459.69
429.403	461.69
429.625	467.69
429.847	513.69
430.069	570.69
430.292	561.69
430.514	464.69
430.736	464.69
430.958	450.69
431.18	460.69
431.402	446.69
431.624	440.69
431.846	460.69
432.068	446.69
432.29	455.69
432.512	440.69
432.734	463.69
432.956	456.69
433.178	440.69
433.4	460.69
433.622	465.69
433.844	454.69
434.066	442.69
434.287	459.69
434.509	462.69
434.731	472.69
434.953	482.69
435.175	518.69
435.397	489.69
435.618	523.69
435.84	555.69
436.062	609.69
436.284	675.69
436.505	570.69
436.727	501.69
436.949	491.69
437.17	452.69
437.392	481.69
437.614	486.69
437.835	497.69
438.057	602.69
438.278	682.69
438.5	668.69
438.721	701.69
438.943	700.69
439.165	530.69
439.386	525.69
439.608	493.69
439.829	531.69
440.05	525.69
440.272	553.69
440.493	556.69
440.715	502.69
440.936	455.69
441.158	483.69
441.379	480.69
441.6	483.69
441.822	495.69
442.043	531.69
442.264	595.69
442.486	636.69
442.707	563.69
442.928	534.69
443.149	535.69
443.371	537.69
443.592	591.69
443.813	629.69
444.034	722.69
444.255	602.69
444.476	510.69
444.698	523.69
444.919	524.69
445.14	630.69
445.361	581.69
445.582	537.69
445.803	577.69
446.024	677.69
446.245	669.69
446.466	644.69
446.687	527.69
446.908	525.69
447.129	475.69
447.35	471.69
447.571	465.69
447.792	442.69
448.013	440.69
448.234	488.69
448.455	516.69
448.675	624.69
448.896	699.69
449.117	619.69
449.338	559.69
449.559	668.69
449.779	755.69
450	594.69
450.221	487.69
450.442	471.69
450.662	437.69
450.883	473.69
451.104	466.69
451.324	443.69
451.545	435.69
451.766	438.69
451.986	423.69
452.207	415.69
452.428	400.69
452.648	420.69
452.869	429.69
453.089	422.69
453.31	422.69
453.53	418.69
453.751	390.69
453.971	416.69
454.192	436.69
454.412	422.69
454.633	409.69
454.853	406.69
455.073	409.69
455.294	439.69
455.514	481.69
455.734	490.69
455.955	401.69
456.175	399.69
456.395	376.69
456.616	383.69
456.836	398.69
457.056	382.69
457.276	365.69
457.497	383.69
457.717	393.69
457.937	406.69
458.157	393.69
458.377	403.69
458.598	437.69
458.818	458.69
459.038	515.69
459.258	534.69
459.478	487.69
459.698	454.69
459.918	468.69
460.138	463.69
460.358	456.69
460.578	450.69
460.798	466.69
461.018	463.69
461.238	471.69
461.458	452.69
461.678	451.69
461.898	476.69
462.118	467.69
462.338	468.69
462.558	472.69
462.777	488.69
462.997	496.69
463.217	496.69
463.437	525.69
463.657	509.69
463.876	508.69
464.096	491.69
464.316	494.69
464.536	519.69
464.755	502.69
464.975	502.69
465.195	499.69
465.414	526.69
465.634	462.69
465.854	461.69
466.073	432.69
466.293	428.69
466.512	433.69
466.732	442.69
466.951	428.69
467.171	443.69
467.391	435.69
467.61	420.69
467.829	435.69
468.049	423.69
468.268	438.69
468.488	433.69
468.707	405.69
468.927	422.69
469.146	409.69
469.365	414.69
469.585	399.69
469.804	427.69
470.023	441.69
470.243	428.69
470.462	436.69
470.681	452.69
470.901	453.69
471.12	431.69
471.339	429.69
471.558	437.69
471.777	409.69
471.997	393.69
472.216	429.69
472.435	464.69
472.654	447.69
472.873	430.69
473.092	430.69
473.311	417.69
473.53	421.69
473.749	436.69
473.968	451.69
474.187	543.69
474.406	570.69
474.625	467.69
474.844	446.69
475.063	436.69
475.282	424.69
475.501	433.69
475.72	439.69
475.939	450.69
476.158	421.69
476.377	435.69
476.596	445.69
476.814	449.69
477.033	436.69
477.252	464.69
477.471	449.69
477.69	460.69
477.908	470.69
478.127	475.69
478.346	458.69
478.564	489.69
478.783	475.69
479.002	484.69
479.22	493.69
479.439	485.69
479.658	493.69
479.876	505.69
480.095	501.69
480.313	547.69
480.532	548.69
480.751	545.69
480.969	535.69
481.188	561.69
481.406	556.69
481.624	517.69
481.843	518.69
482.061	489.69
482.28	521.69
482.498	499.69
482.717	494.69
482.935	487.69
483.153	495.69
483.372	479.69
483.59	484.69
483.808	477.69
484.027	488.69
484.245	488.69
484.463	495.69
484.681	521.69
484.9	499.69
485.118	501.69
485.336	487.69
485.554	510.69
485.772	502.69
485.99	524.69
486.209	502.69
486.427	511.69
486.645	518.69
486.863	529.69
487.081	523.69
487.299	517.69
487.517	501.69
487.735	525.69
487.953	520.69
488.171	528.69
488.389	509.69
488.607	517.69
488.825	518.69
489.043	545.69
489.261	528.69
489.479	537.69
489.696	547.69
489.914	530.69
490.132	553.69
490.35	547.69
490.568	540.69
490.786	552.69
491.003	542.69
491.221	571.69
491.439	559.69
491.657	572.69
491.874	579.69
492.092	574.69
492.31	569.69
492.527	585.69
492.745	603.69
492.963	603.69
493.18	634.69
493.398	590.69
493.615	609.69
493.833	597.69
494.05	597.69
494.268	597.69
494.485	602.69
494.703	618.69
494.92	618.69
495.138	607.69
495.355	616.69
495.573	605.69
495.79	635.69
496.008	629.69
496.225	617.69
496.442	617.69
496.66	613.69
496.877	613.69
497.094	631.69
497.312	629.69
497.529	632.69
497.746	666.69
497.963	678.69
498.181	685.69
498.398	680.69
498.615	693.69
498.832	699.69
499.049	725.69
499.267	778.69
499.484	793.69
499.701	805.69
499.918	847.69
500.135	924.69
500.352	945.69
500.569	963.69
500.786	988.69
501.003	959.69
501.22	889.69
501.437	880.69
501.654	852.69
501.871	803.69
502.088	757.69
502.305	750.69
502.522	743.69
502.739	691.69
502.956	685.69
503.172	663.69
503.389	664.69
503.606	639.69
503.823	629.69
504.04	622.69
504.256	620.69
504.473	645.69
504.69	639.69
504.907	618.69
505.123	609.69
505.34	615.69
505.557	588.69
505.773	603.69
505.99	574.69
506.207	580.69
506.423	597.69
506.64	596.69
506.856	564.69
507.073	567.69
507.289	578.69
507.506	558.69
507.722	576.69
507.939	582.69
508.155	562.69
508.372	544.69
508.588	551.69
508.805	550.69
509.021	564.69
509.238	572.69
509.454	570.69
509.67	567.69
509.887	544.69
510.103	547.69
510.319	555.69
510.536	609.69
510.752	870.69
510.968	713.69
511.184	573.69
511.401	541.69
511.617	527.69
511.833	514.69
512.049	505.69
512.265	521.69
512.481	510.69
512.698	503.69
512.914	517.69
513.13	536.69
513.346	516.69
513.562	515.69
513.778	504.69
513.994	526.69
514.21	527.69
514.426	529.69
514.642	565.69
514.858	577.69
515.074	592.69
515.29	691.69
515.506	885.69
515.721	779.69
515.937	589.69
516.153	571.69
516.369	542.69
516.585	537.69
516.801	520.69
517.016	531.69
517.232	550.69
517.448	569.69
517.664	563.69
517.879	552.69
518.095	550.69
518.311	538.69
518.527	533.69
518.742	541.69
518.958	524.69
519.173	519.69
519.389	533.69
519.605	529.69
519.82	514.69
520.036	519.69
520.251	532.69
520.467	551.69
520.682	559.69
520.898	564.69
521.113	527.69
521.329	572.69
521.544	639.69
521.76	747.69
521.975	1093.69
522.19	1050.69
522.406	671.69
522.621	540.69
522.836	522.69
523.052	508.69
523.267	478.69
523.482	469.69
523.698	481.69
523.913	476.69
524.128	498.69
524.343	442.69
524.559	451.69
524.774	468.69
524.989	452.69
525.204	464.69
525.419	473.69
525.634	443.69
525.849	449.69
526.064	442.69
526.28	430.69
526.495	430.69
526.71	418.69
526.925	436.69
527.14	423.69
527.355	446.69
527.57	439.69
527.785	429.69
527.999	441.69
528.214	422.69
528.429	434.69
528.644	436.69
528.859	427.69
529.074	429.69
529.289	430.69
529.503	500.69
529.718	471.69
529.933	445.69
530.148	439.69
530.363	435.69
530.577	422.69
530.792	411.69
531.007	405.69
531.221	399.69
531.436	419.69
531.651	428.69
531.865	422.69
532.08	420.69
532.295	420.69
532.509	410.69
532.724	409.69
532.938	401.69
533.153	423.69
533.367	426.69
533.582	412.69
533.796	422.69
534.011	403.69
534.225	395.69
534.44	405.69
534.654	399.69
534.868	419.69
535.083	419.69
535.297	394.69
535.511	417.69
535.726	412.69
535.94	442.69
536.154	422.69
536.369	425.69
536.583	411.69
536.797	401.69
537.011	421.69
537.225	389.69
537.44	377.69
537.654	407.69
537.868	398.69
538.082	392.69
538.296	403.69
538.51	399.69
538.724	407.69
538.938	403.69
539.153	395.69
539.367	399.69
539.581	409.69
539.795	387.69
540.009	407.69
540.222	400.69
540.436	416.69
540.65	399.69
540.864	422.69
541.078	402.69
541.292	414.69
541.506	387.69
541.72	400.69
541.934	391.69
542.147	395.69
542.361	399.69
542.575	385.69
542.789	406.69
543.002	398.69
543.216	389.69
543.43	392.69
543.644	394.69
543.857	403.69
544.071	399.69
544.285	392.69
544.498	384.69
544.712	404.69
544.925	396.69
545.139	409.69
545.352	392.69
545.566	397.69
545.779	370.69
545.993	390.69
546.206	389.69
546.42	376.69
546.633	372.69
546.847	369.69
547.06	377.69
547.274	393.69
547.487	381.69
547.7	381.69
547.914	392.69
548.127	377.69
548.34	371.69
548.554	375.69
548.767	385.69
548.98	390.69
549.193	383.69
549.407	382.69
549.62	381.69
549.833	382.69
550.046	375.69
550.259	372.69
550.473	371.69
550.686	392.69
550.899	383.69
551.112	378.69
551.325	391.69
551.538	375.69
551.751	377.69
551.964	362.69
552.177	365.69
552.39	380.69
552.603	389.69
552.816	414.69
553.029	383.69
553.242	392.69
553.455	409.69
553.667	410.69
553.88	387.69
554.093	395.69
554.306	395.69
554.519	386.69
554.732	382.69
554.944	367.69
555.157	375.69
555.37	379.69
555.583	358.69
555.795	379.69
556.008	339.69
556.221	348.69
556.433	357.69
556.646	351.69
556.859	352.69
557.071	366.69
557.284	345.69
557.496	359.69
557.709	336.69
557.921	344.69
558.134	343.69
558.346	339.69
558.559	330.69
558.771	337.69
558.984	345.69
559.196	321.69
559.409	336.69
559.621	317.69
559.833	315.69
560.046	315.69
560.258	338.69
560.47	337.69
560.683	326.69
560.895	327.69
561.107	339.69
561.32	329.69
561.532	342.69
561.744	332.69
561.956	341.69
562.168	332.69
562.381	345.69
562.593	343.69
562.805	339.69
563.017	321.69
563.229	338.69
563.441	340.69
563.653	333.69
563.865	329.69
564.077	342.69
564.289	356.69
564.501	348.69
564.713	348.69
564.925	351.69
565.137	372.69
565.349	350.69
565.561	369.69
565.773	380.69
565.985	386.69
566.197	399.69
566.408	410.69
566.62	421.69
566.832	422.69
567.044	446.69
567.255	442.69
567.467	436.69
567.679	456.69
567.891	479.69
568.102	447.69
568.314	436.69
568.526	433.69
568.737	425.69
568.949	386.69
569.161	392.69
569.372	378.69
569.584	364.69
569.795	370.69
570.007	362.69
570.218	377.69
570.43	382.69
570.641	343.69
570.853	333.69
571.064	339.69
571.276	334.69
571.487	335.69
571.698	327.69
571.91	312.69
572.121	315.69
572.333	305.69
572.544	295.69
572.755	311.69
572.966	327.69
573.178	327.69
573.389	304.69
573.6	309.69
573.811	299.69
574.023	290.69
574.234	302.69
574.445	293.69
574.656	289.69
574.867	291.69
575.078	294.69
575.289	299.69
575.501	297.69
575.712	290.69
575.923	290.69
576.134	284.69
576.345	308.69
576.556	299.69
576.767	290.69
576.978	291.69
577.188	293.69
577.399	286.69
577.61	268.69
577.821	294.69
578.032	299.69
578.243	316.69
578.454	433.69
578.665	357.69
578.875	298.69
579.086	283.69
579.297	257.69
579.508	287.69
579.718	276.69
579.929	276.69
580.14	280.69
580.35	246.69
580.561	270.69
580.772	282.69
580.982	268.69
581.193	260.69
581.403	264.69
581.614	271.69
581.825	277.69
582.035	257.69
582.246	257.69
582.456	260.69
582.667	271.69
582.877	266.69
583.087	261.69
583.298	288.69
583.508	253.69
583.719	268.69
583.929	261.69
584.139	261.69
584.35	257.69
584.56	266.69
584.77	264.69
584.981	245.69
585.191	263.69
585.401	241.69
585.611	266.69
585.821	263.69
586.032	262.69
586.242	246.69
586.452	253.69
586.662	264.69
586.872	265.69
587.082	253.69
587.292	249.69
587.502	258.69
587.713	269.69
587.923	266.69
588.133	249.69
588.343	260.69
588.553	271.69
588.762	254.69
588.972	246.69
589.182	256.69
589.392	259.69
589.602	244.69
589.812	245.69
590.022	264.69
590.232	263.69
590.441	243.69
590.651	245.69
590.861	256.69
591.071	269.69
591.281	285.69
591.49	267.69
591.7	255.69
591.91	260.69
592.119	267.69
592.329	269.69
592.539	265.69
592.748	281.69
592.958	280.69
593.167	284.69
593.377	289.69
593.587	301.69
593.796	277.69
594.006	274.69
594.215	276.69
594.424	288.69
594.634	266.69
594.843	284.69
595.053	285.69
595.262	268.69
595.472	265.69
595.681	266.69
595.89	260.69
596.1	247.69
596.309	233.69
596.518	248.69
596.727	252.69
596.937	237.69
597.146	239.69
597.355	230.69
597.564	244.69
597.774	238.69
597.983	240.69
598.192	261.69
598.401	253.69
598.61	223.69
598.819	244.69
599.028	236.69
599.237	223.69
599.446	216.69
599.655	246.69
599.864	231.69
600.073	223.69
600.282	222.69
600.491	232.69
600.7	223.69
600.909	211.69
601.118	229.69
601.327	221.69
601.536	219.69
601.745	226.69
601.953	235.69
602.162	223.69
602.371	221.69
602.58	221.69
602.789	222.69
602.997	225.69
603.206	208.69
603.415	223.69
603.623	224.69
603.832	224.69
604.041	211.69
604.249	225.69
604.458	229.69
604.666	219.69
604.875	220.69
605.084	195.69
605.292	233.69
605.501	214.69
605.709	208.69
605.918	211.69
606.126	233.69
606.334	197.69
606.543	218.69
606.751	212.69
606.96	225.69
607.168	209.69
607.376	212.69
607.585	205.69
607.793	205.69
608.001	198.69
608.21	209.69
608.418	209.69
608.626	210.69
608.834	207.69
609.043	221.69
609.251	223.69
609.459	207.69
609.667	214.69
609.875	197.69
610.083	190.69
610.291	212.69
610.499	213.69
610.707	220.69
610.916	230.69
611.124	210.69
611.332	199.69
611.54	220.69
611.748	218.69
611.955	223.69
612.163	206.69
612.371	210.69
612.579	207.69
612.787	199.69
612.995	207.69
613.203	201.69
613.411	204.69
613.618	205.69
613.826	196.69
614.034	213.69
614.242	205.69
614.449	198.69
614.657	197.69
614.865	203.69
615.072	198.69
615.28	207.69
615.488	194.69
615.695	200.69
615.903	203.69
616.111	222.69
616.318	212.69
616.526	218.69
616.733	204.69
616.941	199.69
617.148	201.69
617.356	193.69
617.563	207.69
617.771	211.69
617.978	192.69
618.185	201.69
618.393	232.69
618.6	201.69
618.807	194.69
619.015	195.69
619.222	207.69
619.429	204.69
619.637	201.69
619.844	211.69
620.051	193.69
620.258	191.69
620.466	179.69
620.673	195.69
620.88	194.69
621.087	196.69
621.294	210.69
621.501	191.69
621.708	200.69
621.915	202.69
622.122	196.69
622.329	196.69
622.536	201.69
622.743	193.69
622.95	182.69
623.157	187.69
623.364	195.69
623.571	198.69
623.778	193.69
623.985	198.69
624.192	202.69
624.399	198.69
624.606	211.69
624.812	185.69
625.019	193.69
625.226	181.69
625.433	187.69
625.639	202.69
625.846	192.69
626.053	166.69
626.259	188.69
626.466	181.69
626.673	179.69
626.879	184.69
627.086	183.69
627.293	165.69
627.499	176.69
627.706	197.69
627.912	190.69
628.119	190.69
628.325	182.69
628.532	182.69
628.738	190.69
628.945	177.69
629.151	182.69
629.357	176.69
629.564	202.69
629.77	179.69
629.976	178.69
630.183	175.69
630.389	174.69
630.595	171.69
630.802	172.69
631.008	172.69
631.214	174.69
631.42	173.69
631.627	178.69
631.833	169.69
632.039	161.69
632.245	175.69
632.451	168.69
632.657	168.69
632.863	161.69
633.069	181.69
633.275	177.69
633.481	158.69
633.688	177.69
633.893	169.69
634.099	176.69
634.305	171.69
634.511	174.69
634.717	182.69
634.923	163.69
635.129	171.69
635.335	147.69
635.541	171.69
635.747	165.69
635.952	147.69
636.158	163.69
636.364	180.69
636.57	151.69
636.775	159.69
636.981	171.69
637.187	158.69
637.392	153.69
637.598	168.69
637.804	158.69
638.009	151.69
638.215	151.69
638.421	150.69
638.626	151.69
638.832	150.69
639.037	172.69
639.243	149.69
639.448	159.69
639.654	181.69
639.859	153.69
640.065	161.69
640.27	159.69
640.475	161.69
640.681	159.69
640.886	163.69
641.091	149.69
641.297	174.69
641.502	154.69
641.707	141.69
641.913	161.69
642.118	151.69
642.323	154.69
642.528	152.69
642.733	149.69
642.939	145.69
643.144	145.69
643.349	149.69
643.554	154.69
643.759	155.69
643.964	160.69
644.169	142.69
644.374	153.69
644.579	147.69
644.784	143.69
644.989	153.69
645.194	148.69
645.399	142.69
645.604	161.69
645.809	165.69
646.014	139.69
646.219	163.69
646.423	149.69
646.628	150.69
646.833	158.69
647.038	152.69
647.243	145.69
647.447	162.69
647.652	148.69
647.857	149.69
648.062	144.69
648.266	146.69
648.471	153.69
648.676	151.69
648.88	162.69
649.085	157.69
649.289	157.69
649.494	157.69
649.698	170.69
649.903	163.69
650.107	157.69
650.312	142.69
650.516	146.69
650.721	145.69
650.925	150.69
651.13	150.69
651.334	140.69
651.539	148.69
651.743	131.69
651.947	133.69
652.152	140.69
652.356	147.69
652.56	133.69
652.764	123.69
652.969	133.69
653.173	147.69
653.377	125.69
653.581	129.69
653.785	126.69
653.99	144.69
654.194	122.69
654.398	137.69
654.602	136.69
654.806	130.69
655.01	138.69
655.214	118.69
655.418	128.69
655.622	138.69
655.826	116.69
656.03	119.69
656.234	121.69
656.438	133.69
656.642	133.69
656.846	118.69
657.049	130.69
657.253	120.69
657.457	126.69
657.661	115.69
657.865	121.69
658.068	101.69
658.272	105.69
658.476	90.69
658.68	119.69
658.883	101.69
659.087	103.69
659.291	101.69
659.494	97.69
659.698	93.69
659.901	91.69
660.105	96.69
660.309	98.69
660.512	95.69
660.716	94.69
660.919	99.69
661.123	82.69
661.326	94.69
661.53	84.69
661.733	79.69
661.936	73.69
662.14	79.69
662.343	86.69
662.546	102.69
662.75	78.69
662.953	97.69
663.156	82.69
663.36	74.69
663.563	90.69
663.766	68.69
663.969	90.69
664.173	66.69
664.376	78.69
664.579	78.69
664.782	86.69
664.985	82.69
665.188	90.69
665.391	75.69
665.594	88.69
665.797	79.69
666	83.69
666.203	86.69
666.406	87.69
666.609	77.69
666.812	76.69
667.015	71.69
667.218	89.69
667.421	83.69
667.624	82.69
667.827	90.69
668.03	84.69
668.232	80.69
668.435	99.69
668.638	77.69
668.841	90.69
669.043	82.69
669.246	86.69
669.449	65.69
669.651	79.69
669.854	75.69
670.057	76.69
670.259	82.69
670.462	85.69
670.665	80.69
670.867	79.69
671.07	84.69
671.272	69.69
671.475	79.69
671.677	86.69
671.88	95.69
672.082	91.69
672.284	74.69
672.487	89.69
672.689	82.69
672.892	86.69
