Data from 1977.PennyLincolnUp.Lamp.En5.5.200Scan.071719.P1_HRD10591_16-05-37-864.txt Node
Date: Thu Jul 18 16:05:37 EDT 2019
User: cochatt
Spectrometer: HR+D1059
Trigger mode: 1
Integration Time (sec): 1.000000E-1
Scans to average: 1
Electric dark correction enabled: true
Nonlinearity correction enabled: false
Boxcar width: 0
XAxis mode: Wavelengths
Number of Pixels in Spectrum: 2048
>>>>>Begin Spectral Data<<<<<
223.165	-13.25
223.4	-13.25
223.635	-13.25
223.869	-24.25
224.104	-28.25
224.338	-17.25
224.573	-17.25
224.808	-22.25
225.042	-2.25
225.277	-8.25
225.511	5.75
225.746	7.75
225.98	3.75
226.215	28.75
226.449	12.75
226.683	23.75
226.918	17.75
227.152	32.75
227.387	42.75
227.621	36.75
227.856	44.75
228.09	37.75
228.324	62.75
228.559	46.75
228.793	51.75
229.027	99.75
229.262	90.75
229.496	107.75
229.73	101.75
229.964	126.75
230.199	97.75
230.433	104.75
230.667	96.75
230.901	102.75
231.136	100.75
231.37	95.75
231.604	96.75
231.838	98.75
232.072	102.75
232.306	92.75
232.541	99.75
232.775	109.75
233.009	104.75
233.243	111.75
233.477	105.75
233.711	111.75
233.945	113.75
234.179	107.75
234.413	113.75
234.647	125.75
234.881	117.75
235.115	110.75
235.349	125.75
235.583	125.75
235.817	113.75
236.051	125.75
236.285	114.75
236.519	116.75
236.753	117.75
236.987	131.75
237.221	147.75
237.455	204.75
237.689	154.75
237.922	122.75
238.156	120.75
238.39	124.75
238.624	122.75
238.858	105.75
239.091	113.75
239.325	115.75
239.559	126.75
239.793	130.75
240.027	121.75
240.26	138.75
240.494	132.75
240.728	146.75
240.961	135.75
241.195	145.75
241.429	126.75
241.662	123.75
241.896	132.75
242.13	126.75
242.363	122.75
242.597	133.75
242.83	135.75
243.064	131.75
243.298	134.75
243.531	147.75
243.765	132.75
243.998	139.75
244.232	138.75
244.465	136.75
244.699	139.75
244.932	141.75
245.166	139.75
245.399	144.75
245.633	137.75
245.866	135.75
246.099	141.75
246.333	147.75
246.566	146.75
246.8	141.75
247.033	154.75
247.266	147.75
247.5	158.75
247.733	172.75
247.966	168.75
248.2	156.75
248.433	164.75
248.666	169.75
248.899	181.75
249.133	169.75
249.366	185.75
249.599	154.75
249.832	179.75
250.066	167.75
250.299	170.75
250.532	172.75
250.765	168.75
250.998	210.75
251.231	217.75
251.465	206.75
251.698	171.75
251.931	177.75
252.164	186.75
252.397	181.75
252.63	184.75
252.863	188.75
253.096	190.75
253.329	194.75
253.562	215.75
253.795	197.75
254.028	192.75
254.261	191.75
254.494	200.75
254.727	246.75
254.96	230.75
255.193	214.75
255.426	237.75
255.659	199.75
255.892	206.75
256.124	220.75
256.357	212.75
256.59	203.75
256.823	206.75
257.056	183.75
257.289	204.75
257.521	198.75
257.754	200.75
257.987	191.75
258.22	195.75
258.452	196.75
258.685	197.75
258.918	210.75
259.151	188.75
259.383	213.75
259.616	201.75
259.849	191.75
260.081	218.75
260.314	228.75
260.547	231.75
260.779	219.75
261.012	205.75
261.244	217.75
261.477	204.75
261.71	215.75
261.942	225.75
262.175	205.75
262.407	202.75
262.64	213.75
262.872	227.75
263.105	211.75
263.337	198.75
263.57	200.75
263.802	207.75
264.035	217.75
264.267	222.75
264.499	203.75
264.732	210.75
264.964	207.75
265.197	205.75
265.429	200.75
265.661	207.75
265.894	214.75
266.126	217.75
266.358	212.75
266.591	211.75
266.823	213.75
267.055	205.75
267.287	222.75
267.52	225.75
267.752	216.75
267.984	207.75
268.216	201.75
268.448	240.75
268.681	242.75
268.913	230.75
269.145	240.75
269.377	258.75
269.609	238.75
269.841	276.75
270.073	261.75
270.306	252.75
270.538	284.75
270.77	289.75
271.002	276.75
271.234	262.75
271.466	272.75
271.698	286.75
271.93	285.75
272.162	292.75
272.394	301.75
272.626	269.75
272.858	269.75
273.09	263.75
273.322	264.75
273.553	254.75
273.785	261.75
274.017	252.75
274.249	254.75
274.481	254.75
274.713	235.75
274.945	257.75
275.176	270.75
275.408	248.75
275.64	265.75
275.872	251.75
276.104	280.75
276.335	279.75
276.567	263.75
276.799	264.75
277.031	251.75
277.262	283.75
277.494	281.75
277.726	275.75
277.957	284.75
278.189	271.75
278.421	273.75
278.652	265.75
278.884	273.75
279.115	260.75
279.347	257.75
279.579	259.75
279.81	279.75
280.042	258.75
280.273	266.75
280.505	252.75
280.736	273.75
280.968	272.75
281.199	263.75
281.431	264.75
281.662	274.75
281.894	261.75
282.125	268.75
282.356	285.75
282.588	276.75
282.819	273.75
283.051	270.75
283.282	273.75
283.513	262.75
283.745	283.75
283.976	271.75
284.207	279.75
284.439	294.75
284.67	308.75
284.901	289.75
285.132	266.75
285.364	281.75
285.595	278.75
285.826	295.75
286.057	295.75
286.288	274.75
286.52	277.75
286.751	295.75
286.982	294.75
287.213	284.75
287.444	296.75
287.675	293.75
287.906	317.75
288.138	299.75
288.369	280.75
288.6	313.75
288.831	304.75
289.062	315.75
289.293	290.75
289.524	299.75
289.755	287.75
289.986	299.75
290.217	289.75
290.448	293.75
290.679	282.75
290.91	289.75
291.141	289.75
291.371	292.75
291.602	319.75
291.833	284.75
292.064	293.75
292.295	287.75
292.526	312.75
292.757	318.75
292.987	287.75
293.218	299.75
293.449	286.75
293.68	281.75
293.91	288.75
294.141	312.75
294.372	307.75
294.603	297.75
294.833	289.75
295.064	291.75
295.295	302.75
295.525	298.75
295.756	305.75
295.987	293.75
296.217	327.75
296.448	323.75
296.679	294.75
296.909	292.75
297.14	328.75
297.37	320.75
297.601	311.75
297.831	309.75
298.062	297.75
298.292	297.75
298.523	311.75
298.753	331.75
298.984	324.75
299.214	313.75
299.445	326.75
299.675	321.75
299.905	311.75
300.136	329.75
300.366	325.75
300.597	325.75
300.827	310.75
301.057	311.75
301.288	314.75
301.518	340.75
301.748	329.75
301.979	332.75
302.209	328.75
302.439	333.75
302.669	320.75
302.9	340.75
303.13	311.75
303.36	305.75
303.59	321.75
303.82	347.75
304.051	337.75
304.281	346.75
304.511	337.75
304.741	342.75
304.971	331.75
305.201	327.75
305.431	313.75
305.661	329.75
305.891	329.75
306.121	323.75
306.352	325.75
306.582	331.75
306.812	332.75
307.042	353.75
307.272	341.75
307.502	351.75
307.731	343.75
307.961	334.75
308.191	326.75
308.421	342.75
308.651	316.75
308.881	330.75
309.111	343.75
309.341	332.75
309.571	349.75
309.8	344.75
310.03	340.75
310.26	353.75
310.49	349.75
310.72	377.75
310.949	349.75
311.179	369.75
311.409	369.75
311.639	364.75
311.868	341.75
312.098	356.75
312.328	370.75
312.557	387.75
312.787	377.75
313.017	391.75
313.246	372.75
313.476	362.75
313.706	372.75
313.935	387.75
314.165	381.75
314.394	404.75
314.624	378.75
314.853	375.75
315.083	372.75
315.312	376.75
315.542	373.75
315.771	363.75
316.001	360.75
316.23	377.75
316.46	362.75
316.689	381.75
316.919	395.75
317.148	396.75
317.377	379.75
317.607	385.75
317.836	355.75
318.065	350.75
318.295	384.75
318.524	371.75
318.753	381.75
318.983	395.75
319.212	372.75
319.441	388.75
319.67	377.75
319.9	356.75
320.129	369.75
320.358	393.75
320.587	373.75
320.816	383.75
321.046	383.75
321.275	390.75
321.504	382.75
321.733	394.75
321.962	378.75
322.191	399.75
322.42	380.75
322.649	405.75
322.878	426.75
323.108	419.75
323.337	429.75
323.566	428.75
323.795	464.75
324.024	483.75
324.253	562.75
324.482	770.75
324.71	1105.75
324.939	1476.75
325.168	1225.75
325.397	678.75
325.626	517.75
325.855	451.75
326.084	439.75
326.313	445.75
326.542	434.75
326.77	461.75
326.999	539.75
327.228	683.75
327.457	969.75
327.686	1101.75
327.914	765.75
328.143	544.75
328.372	498.75
328.6	463.75
328.829	488.75
329.058	473.75
329.287	481.75
329.515	469.75
329.744	432.75
329.972	455.75
330.201	483.75
330.43	466.75
330.658	509.75
330.887	506.75
331.115	457.75
331.344	438.75
331.572	459.75
331.801	435.75
332.03	428.75
332.258	412.75
332.486	422.75
332.715	441.75
332.943	434.75
333.172	435.75
333.4	439.75
333.629	446.75
333.857	453.75
334.085	463.75
334.314	464.75
334.542	481.75
334.771	482.75
334.999	435.75
335.227	459.75
335.455	436.75
335.684	431.75
335.912	440.75
336.14	429.75
336.369	426.75
336.597	451.75
336.825	444.75
337.053	451.75
337.281	411.75
337.51	425.75
337.738	417.75
337.966	430.75
338.194	426.75
338.422	420.75
338.65	426.75
338.878	409.75
339.106	416.75
339.334	435.75
339.562	399.75
339.79	407.75
340.018	403.75
340.246	417.75
340.474	421.75
340.702	416.75
340.93	420.75
341.158	413.75
341.386	403.75
341.614	407.75
341.842	422.75
342.07	399.75
342.298	395.75
342.526	388.75
342.754	398.75
342.981	388.75
343.209	400.75
343.437	416.75
343.665	427.75
343.893	421.75
344.12	424.75
344.348	436.75
344.576	432.75
344.804	409.75
345.031	415.75
345.259	433.75
345.487	402.75
345.714	404.75
345.942	400.75
346.17	407.75
346.397	389.75
346.625	399.75
346.853	387.75
347.08	402.75
347.308	405.75
347.535	399.75
347.763	411.75
347.99	390.75
348.218	410.75
348.445	403.75
348.673	398.75
348.9	395.75
349.128	381.75
349.355	384.75
349.583	394.75
349.81	404.75
350.037	385.75
350.265	399.75
350.492	378.75
350.72	385.75
350.947	374.75
351.174	391.75
351.402	409.75
351.629	374.75
351.856	383.75
352.083	403.75
352.311	389.75
352.538	394.75
352.765	386.75
352.992	382.75
353.22	370.75
353.447	377.75
353.674	377.75
353.901	383.75
354.128	375.75
354.355	373.75
354.583	395.75
354.81	375.75
355.037	386.75
355.264	372.75
355.491	380.75
355.718	361.75
355.945	344.75
356.172	358.75
356.399	369.75
356.626	363.75
356.853	361.75
357.08	372.75
357.307	361.75
357.534	373.75
357.761	393.75
357.988	378.75
358.215	374.75
358.441	365.75
358.668	373.75
358.895	385.75
359.122	379.75
359.349	363.75
359.576	409.75
359.802	377.75
360.029	394.75
360.256	398.75
360.483	389.75
360.709	380.75
360.936	385.75
361.163	382.75
361.39	375.75
361.616	386.75
361.843	376.75
362.07	389.75
362.296	392.75
362.523	389.75
362.749	394.75
362.976	369.75
363.203	374.75
363.429	369.75
363.656	358.75
363.882	370.75
364.109	358.75
364.335	367.75
364.562	363.75
364.788	356.75
365.015	357.75
365.241	369.75
365.468	377.75
365.694	381.75
365.92	371.75
366.147	360.75
366.373	355.75
366.599	357.75
366.826	359.75
367.052	361.75
367.278	369.75
367.505	377.75
367.731	381.75
367.957	381.75
368.184	388.75
368.41	373.75
368.636	388.75
368.862	383.75
369.089	380.75
369.315	377.75
369.541	375.75
369.767	379.75
369.993	371.75
370.219	356.75
370.445	365.75
370.672	370.75
370.898	366.75
371.124	364.75
371.35	374.75
371.576	363.75
371.802	387.75
372.028	381.75
372.254	357.75
372.48	379.75
372.706	379.75
372.932	388.75
373.158	373.75
373.384	391.75
373.61	380.75
373.835	402.75
374.061	367.75
374.287	379.75
374.513	376.75
374.739	388.75
374.965	380.75
375.191	395.75
375.416	371.75
375.642	380.75
375.868	367.75
376.094	357.75
376.319	376.75
376.545	366.75
376.771	357.75
376.997	358.75
377.222	367.75
377.448	387.75
377.674	375.75
377.899	348.75
378.125	389.75
378.35	352.75
378.576	353.75
378.802	349.75
379.027	372.75
379.253	356.75
379.478	371.75
379.704	369.75
379.929	366.75
380.155	370.75
380.38	338.75
380.606	350.75
380.831	359.75
381.057	363.75
381.282	362.75
381.507	380.75
381.733	377.75
381.958	371.75
382.184	386.75
382.409	373.75
382.634	389.75
382.86	375.75
383.085	381.75
383.31	366.75
383.535	383.75
383.761	378.75
383.986	397.75
384.211	393.75
384.436	410.75
384.662	394.75
384.887	390.75
385.112	412.75
385.337	391.75
385.562	414.75
385.787	407.75
386.013	405.75
386.238	411.75
386.463	409.75
386.688	405.75
386.913	397.75
387.138	409.75
387.363	403.75
387.588	401.75
387.813	418.75
388.038	391.75
388.263	397.75
388.488	411.75
388.713	404.75
388.938	409.75
389.163	399.75
389.387	382.75
389.612	410.75
389.837	409.75
390.062	402.75
390.287	400.75
390.512	397.75
390.736	405.75
390.961	403.75
391.186	413.75
391.411	427.75
391.636	425.75
391.86	417.75
392.085	411.75
392.31	425.75
392.534	427.75
392.759	409.75
392.984	406.75
393.208	411.75
393.433	397.75
393.658	405.75
393.882	419.75
394.107	429.75
394.331	402.75
394.556	397.75
394.78	407.75
395.005	417.75
395.229	419.75
395.454	444.75
395.678	413.75
395.903	423.75
396.127	425.75
396.352	435.75
396.576	406.75
396.801	408.75
397.025	448.75
397.249	430.75
397.474	449.75
397.698	435.75
397.922	435.75
398.147	452.75
398.371	459.75
398.595	460.75
398.82	475.75
399.044	498.75
399.268	476.75
399.492	516.75
399.717	541.75
399.941	556.75
400.165	569.75
400.389	609.75
400.613	502.75
400.837	497.75
401.062	469.75
401.286	470.75
401.51	460.75
401.734	459.75
401.958	456.75
402.182	472.75
402.406	487.75
402.63	461.75
402.854	469.75
403.078	466.75
403.302	485.75
403.526	482.75
403.75	455.75
403.974	482.75
404.198	495.75
404.422	479.75
404.645	469.75
404.869	470.75
405.093	511.75
405.317	533.75
405.541	548.75
405.765	509.75
405.988	498.75
406.212	499.75
406.436	508.75
406.66	516.75
406.883	513.75
407.107	540.75
407.331	572.75
407.555	601.75
407.778	609.75
408.002	553.75
408.226	526.75
408.449	529.75
408.673	501.75
408.896	521.75
409.12	528.75
409.344	526.75
409.567	486.75
409.791	495.75
410.014	490.75
410.238	482.75
410.461	465.75
410.685	463.75
410.908	492.75
411.132	507.75
411.355	521.75
411.578	515.75
411.802	488.75
412.025	456.75
412.249	480.75
412.472	489.75
412.695	493.75
412.919	505.75
413.142	467.75
413.365	480.75
413.589	458.75
413.812	436.75
414.035	444.75
414.258	457.75
414.482	450.75
414.705	435.75
414.928	433.75
415.151	451.75
415.374	444.75
415.597	443.75
415.821	432.75
416.044	428.75
416.267	438.75
416.49	437.75
416.713	455.75
416.936	446.75
417.159	413.75
417.382	445.75
417.605	443.75
417.828	453.75
418.051	454.75
418.274	459.75
418.497	445.75
418.72	450.75
418.943	443.75
419.166	447.75
419.389	463.75
419.611	465.75
419.834	462.75
420.057	477.75
420.28	472.75
420.503	462.75
420.726	458.75
420.948	460.75
421.171	496.75
421.394	513.75
421.617	460.75
421.839	449.75
422.062	447.75
422.285	454.75
422.507	498.75
422.73	548.75
422.953	520.75
423.175	473.75
423.398	473.75
423.621	491.75
423.843	481.75
424.066	479.75
424.288	483.75
424.511	490.75
424.733	513.75
424.956	613.75
425.178	573.75
425.401	567.75
425.623	562.75
425.846	527.75
426.068	485.75
426.291	455.75
426.513	461.75
426.735	474.75
426.958	499.75
427.18	562.75
427.402	649.75
427.625	700.75
427.847	619.75
428.069	536.75
428.292	500.75
428.514	447.75
428.736	450.75
428.958	463.75
429.181	423.75
429.403	441.75
429.625	459.75
429.847	469.75
430.069	494.75
430.292	496.75
430.514	427.75
430.736	420.75
430.958	430.75
431.18	430.75
431.402	423.75
431.624	410.75
431.846	403.75
432.068	400.75
432.29	418.75
432.512	414.75
432.734	433.75
432.956	430.75
433.178	407.75
433.4	420.75
433.622	419.75
433.844	427.75
434.066	426.75
434.287	426.75
434.509	427.75
434.731	433.75
434.953	423.75
435.175	455.75
435.397	467.75
435.618	471.75
435.84	515.75
436.062	564.75
436.284	611.75
436.505	502.75
436.727	467.75
436.949	454.75
437.17	439.75
437.392	418.75
437.614	429.75
437.835	456.75
438.057	497.75
438.278	589.75
438.5	588.75
438.721	649.75
438.943	647.75
439.165	493.75
439.386	461.75
439.608	461.75
439.829	470.75
440.05	471.75
440.272	488.75
440.493	484.75
440.715	436.75
440.936	452.75
441.158	438.75
441.379	456.75
441.6	446.75
441.822	461.75
442.043	495.75
442.264	543.75
442.486	567.75
442.707	519.75
442.928	475.75
443.149	464.75
443.371	502.75
443.592	503.75
443.813	572.75
444.034	614.75
444.255	544.75
444.476	484.75
444.698	475.75
444.919	468.75
445.14	582.75
445.361	541.75
445.582	502.75
445.803	537.75
446.024	601.75
446.245	593.75
446.466	558.75
446.687	483.75
446.908	470.75
447.129	445.75
447.35	438.75
447.571	424.75
447.792	437.75
448.013	428.75
448.234	423.75
448.455	473.75
448.675	561.75
448.896	646.75
449.117	563.75
449.338	524.75
449.559	595.75
449.779	669.75
450	531.75
450.221	453.75
450.442	449.75
450.662	423.75
450.883	415.75
451.104	428.75
451.324	405.75
451.545	413.75
451.766	375.75
451.986	400.75
452.207	392.75
452.428	388.75
452.648	397.75
452.869	379.75
453.089	378.75
453.31	382.75
453.53	386.75
453.751	380.75
453.971	412.75
454.192	404.75
454.412	390.75
454.633	375.75
454.853	369.75
455.073	383.75
455.294	393.75
455.514	453.75
455.734	422.75
455.955	369.75
456.175	391.75
456.395	358.75
456.616	334.75
456.836	371.75
457.056	382.75
457.276	351.75
457.497	371.75
457.717	366.75
457.937	377.75
458.157	371.75
458.377	395.75
458.598	389.75
458.818	430.75
459.038	481.75
459.258	502.75
459.478	446.75
459.698	429.75
459.918	421.75
460.138	419.75
460.358	425.75
460.578	431.75
460.798	427.75
461.018	422.75
461.238	445.75
461.458	429.75
461.678	440.75
461.898	461.75
462.118	439.75
462.338	445.75
462.558	438.75
462.777	469.75
462.997	476.75
463.217	504.75
463.437	499.75
463.657	465.75
463.876	480.75
464.096	462.75
464.316	463.75
464.536	468.75
464.755	455.75
464.975	465.75
465.195	487.75
465.414	477.75
465.634	453.75
465.854	426.75
466.073	423.75
466.293	407.75
466.512	428.75
466.732	409.75
466.951	406.75
467.171	409.75
467.391	391.75
467.61	396.75
467.829	412.75
468.049	403.75
468.268	398.75
468.488	405.75
468.707	383.75
468.927	401.75
469.146	395.75
469.365	389.75
469.585	381.75
469.804	387.75
470.023	395.75
470.243	396.75
470.462	386.75
470.681	403.75
470.901	419.75
471.12	405.75
471.339	396.75
471.558	395.75
471.777	412.75
471.997	399.75
472.216	403.75
472.435	406.75
472.654	399.75
472.873	392.75
473.092	409.75
473.311	389.75
473.53	374.75
473.749	392.75
473.968	436.75
474.187	489.75
474.406	527.75
474.625	445.75
474.844	412.75
475.063	396.75
475.282	423.75
475.501	405.75
475.72	426.75
475.939	405.75
476.158	380.75
476.377	418.75
476.596	406.75
476.814	418.75
477.033	415.75
477.252	409.75
477.471	415.75
477.69	446.75
477.908	452.75
478.127	443.75
478.346	423.75
478.564	441.75
478.783	446.75
479.002	449.75
479.22	471.75
479.439	485.75
479.658	505.75
479.876	478.75
480.095	474.75
480.313	499.75
480.532	517.75
480.751	500.75
480.969	500.75
481.188	524.75
481.406	535.75
481.624	481.75
481.843	472.75
482.061	468.75
482.28	460.75
482.498	455.75
482.717	452.75
482.935	443.75
483.153	472.75
483.372	460.75
483.59	462.75
483.808	463.75
484.027	459.75
484.245	480.75
484.463	461.75
484.681	475.75
484.9	477.75
485.118	473.75
485.336	455.75
485.554	494.75
485.772	474.75
485.99	475.75
486.209	466.75
486.427	465.75
486.645	489.75
486.863	477.75
487.081	468.75
487.299	492.75
487.517	481.75
487.735	475.75
487.953	485.75
488.171	492.75
488.389	497.75
488.607	502.75
488.825	500.75
489.043	492.75
489.261	476.75
489.479	485.75
489.696	473.75
489.914	496.75
490.132	503.75
490.35	525.75
490.568	521.75
490.786	516.75
491.003	522.75
491.221	528.75
491.439	538.75
491.657	538.75
491.874	549.75
492.092	561.75
492.31	507.75
492.527	509.75
492.745	525.75
492.963	548.75
493.18	536.75
493.398	561.75
493.615	548.75
493.833	531.75
494.05	565.75
494.268	547.75
494.485	525.75
494.703	541.75
494.92	552.75
495.138	552.75
495.355	566.75
495.573	553.75
495.79	556.75
496.008	580.75
496.225	559.75
496.442	573.75
496.66	566.75
496.877	560.75
497.094	585.75
497.312	572.75
497.529	600.75
497.746	611.75
497.963	595.75
498.181	638.75
498.398	646.75
498.615	645.75
498.832	657.75
499.049	693.75
499.267	685.75
499.484	727.75
499.701	781.75
499.918	786.75
500.135	867.75
500.352	896.75
500.569	921.75
500.786	894.75
501.003	901.75
501.22	870.75
501.437	821.75
501.654	770.75
501.871	737.75
502.088	718.75
502.305	700.75
502.522	668.75
502.739	625.75
502.956	631.75
503.172	629.75
503.389	610.75
503.606	607.75
503.823	613.75
504.04	595.75
504.256	607.75
504.473	585.75
504.69	589.75
504.907	591.75
505.123	565.75
505.34	561.75
505.557	566.75
505.773	533.75
505.99	531.75
506.207	528.75
506.423	545.75
506.64	555.75
506.856	525.75
507.073	531.75
507.289	490.75
507.506	523.75
507.722	528.75
507.939	536.75
508.155	500.75
508.372	498.75
508.588	482.75
508.805	497.75
509.021	486.75
509.238	524.75
509.454	529.75
509.67	495.75
509.887	498.75
510.103	507.75
510.319	495.75
510.536	558.75
510.752	789.75
510.968	633.75
511.184	511.75
511.401	487.75
511.617	475.75
511.833	463.75
512.049	483.75
512.265	477.75
512.481	461.75
512.698	478.75
512.914	470.75
513.13	456.75
513.346	467.75
513.562	477.75
513.778	497.75
513.994	509.75
514.21	477.75
514.426	483.75
514.642	519.75
514.858	501.75
515.074	523.75
515.29	625.75
515.506	739.75
515.721	685.75
515.937	525.75
516.153	505.75
516.369	511.75
516.585	506.75
516.801	519.75
517.016	511.75
517.232	523.75
517.448	531.75
517.664	507.75
517.879	517.75
518.095	518.75
518.311	525.75
518.527	507.75
518.742	503.75
518.958	516.75
519.173	477.75
519.389	502.75
519.605	478.75
519.82	466.75
520.036	479.75
520.251	473.75
520.467	513.75
520.682	503.75
520.898	484.75
521.113	503.75
521.329	516.75
521.544	545.75
521.76	637.75
521.975	947.75
522.19	925.75
522.406	595.75
522.621	507.75
522.836	476.75
523.052	452.75
523.267	435.75
523.482	441.75
523.698	406.75
523.913	427.75
524.128	427.75
524.343	430.75
524.559	430.75
524.774	413.75
524.989	421.75
525.204	402.75
525.419	418.75
525.634	430.75
525.849	402.75
526.064	411.75
526.28	405.75
526.495	399.75
526.71	422.75
526.925	422.75
527.14	377.75
527.355	404.75
527.57	405.75
527.785	408.75
527.999	411.75
528.214	409.75
528.429	390.75
528.644	414.75
528.859	404.75
529.074	380.75
529.289	418.75
529.503	451.75
529.718	435.75
529.933	414.75
530.148	396.75
530.363	407.75
530.577	404.75
530.792	374.75
531.007	404.75
531.221	382.75
531.436	400.75
531.651	383.75
531.865	399.75
532.08	384.75
532.295	396.75
532.509	391.75
532.724	390.75
532.938	386.75
533.153	391.75
533.367	395.75
533.582	384.75
533.796	377.75
534.011	410.75
534.225	391.75
534.44	403.75
534.654	391.75
534.868	390.75
535.083	401.75
535.297	397.75
535.511	397.75
535.726	397.75
535.94	393.75
536.154	404.75
536.369	377.75
536.583	353.75
536.797	364.75
537.011	365.75
537.225	350.75
537.44	374.75
537.654	359.75
537.868	385.75
538.082	381.75
538.296	370.75
538.51	371.75
538.724	377.75
538.938	368.75
539.153	387.75
539.367	374.75
539.581	375.75
539.795	371.75
540.009	358.75
540.222	382.75
540.436	387.75
540.65	361.75
540.864	377.75
541.078	379.75
541.292	386.75
541.506	363.75
541.72	369.75
541.934	332.75
542.147	362.75
542.361	370.75
542.575	355.75
542.789	366.75
543.002	377.75
543.216	380.75
543.43	369.75
543.644	350.75
543.857	348.75
544.071	381.75
544.285	382.75
544.498	366.75
544.712	377.75
544.925	369.75
545.139	393.75
545.352	363.75
545.566	375.75
545.779	351.75
545.993	381.75
546.206	354.75
546.42	377.75
546.633	348.75
546.847	359.75
547.06	360.75
547.274	357.75
547.487	362.75
547.7	364.75
547.914	350.75
548.127	360.75
548.34	364.75
548.554	376.75
548.767	364.75
548.98	364.75
549.193	359.75
549.407	366.75
549.62	374.75
549.833	369.75
550.046	349.75
550.259	333.75
550.473	359.75
550.686	361.75
550.899	358.75
551.112	356.75
551.325	371.75
551.538	367.75
551.751	371.75
551.964	361.75
552.177	345.75
552.39	375.75
552.603	367.75
552.816	361.75
553.029	360.75
553.242	379.75
553.455	377.75
553.667	362.75
553.88	357.75
554.093	356.75
554.306	354.75
554.519	379.75
554.732	371.75
554.944	345.75
555.157	355.75
555.37	337.75
555.583	343.75
555.795	323.75
556.008	319.75
556.221	333.75
556.433	346.75
556.646	342.75
556.859	317.75
557.071	328.75
557.284	333.75
557.496	322.75
557.709	313.75
557.921	345.75
558.134	320.75
558.346	328.75
558.559	326.75
558.771	333.75
558.984	329.75
559.196	314.75
559.409	315.75
559.621	326.75
559.833	321.75
560.046	315.75
560.258	321.75
560.47	322.75
560.683	330.75
560.895	312.75
561.107	309.75
561.32	304.75
561.532	308.75
561.744	340.75
561.956	333.75
562.168	328.75
562.381	334.75
562.593	339.75
562.805	337.75
563.017	325.75
563.229	322.75
563.441	318.75
563.653	329.75
563.865	330.75
564.077	312.75
564.289	347.75
564.501	340.75
564.713	323.75
564.925	335.75
565.137	346.75
565.349	354.75
565.561	344.75
565.773	379.75
565.985	381.75
566.197	371.75
566.408	359.75
566.62	403.75
566.832	406.75
567.044	424.75
567.255	415.75
567.467	422.75
567.679	439.75
567.891	453.75
568.102	428.75
568.314	422.75
568.526	408.75
568.737	395.75
568.949	375.75
569.161	346.75
569.372	357.75
569.584	351.75
569.795	348.75
570.007	330.75
570.218	371.75
570.43	354.75
570.641	337.75
570.853	324.75
571.064	344.75
571.276	326.75
571.487	314.75
571.698	307.75
571.91	305.75
572.121	300.75
572.333	301.75
572.544	285.75
572.755	290.75
572.966	287.75
573.178	287.75
573.389	306.75
573.6	287.75
573.811	278.75
574.023	266.75
574.234	294.75
574.445	282.75
574.656	279.75
574.867	294.75
575.078	279.75
575.289	288.75
575.501	271.75
575.712	287.75
575.923	270.75
576.134	269.75
576.345	274.75
576.556	263.75
576.767	287.75
576.978	276.75
577.188	254.75
577.399	270.75
577.61	273.75
577.821	284.75
578.032	271.75
578.243	295.75
578.454	384.75
578.665	311.75
578.875	281.75
579.086	263.75
579.297	271.75
579.508	260.75
579.718	249.75
579.929	257.75
580.14	267.75
580.35	258.75
580.561	276.75
580.772	273.75
580.982	258.75
581.193	269.75
581.403	235.75
581.614	265.75
581.825	260.75
582.035	241.75
582.246	278.75
582.456	271.75
582.667	257.75
582.877	251.75
583.087	255.75
583.298	248.75
583.508	253.75
583.719	241.75
583.929	251.75
584.139	243.75
584.35	253.75
584.56	235.75
584.77	257.75
584.981	257.75
585.191	266.75
585.401	258.75
585.611	256.75
585.821	243.75
586.032	254.75
586.242	239.75
586.452	241.75
586.662	255.75
586.872	236.75
587.082	236.75
587.292	245.75
587.502	261.75
587.713	257.75
587.923	261.75
588.133	244.75
588.343	234.75
588.553	222.75
588.762	226.75
588.972	227.75
589.182	251.75
589.392	249.75
589.602	267.75
589.812	243.75
590.022	248.75
590.232	254.75
590.441	255.75
590.651	265.75
590.861	263.75
591.071	245.75
591.281	248.75
591.49	247.75
591.7	256.75
591.91	243.75
592.119	253.75
592.329	278.75
592.539	269.75
592.748	263.75
592.958	259.75
593.167	262.75
593.377	253.75
593.587	285.75
593.796	282.75
594.006	284.75
594.215	259.75
594.424	269.75
594.634	290.75
594.843	255.75
595.053	257.75
595.262	267.75
595.472	261.75
595.681	244.75
595.89	264.75
596.1	252.75
596.309	251.75
596.518	234.75
596.727	235.75
596.937	236.75
597.146	224.75
597.355	227.75
597.564	241.75
597.774	240.75
597.983	223.75
598.192	237.75
598.401	234.75
598.61	226.75
598.819	226.75
599.028	204.75
599.237	224.75
599.446	207.75
599.655	209.75
599.864	227.75
600.073	220.75
600.282	220.75
600.491	225.75
600.7	223.75
600.909	220.75
601.118	213.75
601.327	199.75
601.536	221.75
601.745	218.75
601.953	226.75
602.162	226.75
602.371	217.75
602.58	211.75
602.789	232.75
602.997	210.75
603.206	216.75
603.415	206.75
603.623	205.75
603.832	206.75
604.041	214.75
604.249	220.75
604.458	212.75
604.666	205.75
604.875	200.75
605.084	214.75
605.292	210.75
605.501	211.75
605.709	199.75
605.918	214.75
606.126	212.75
606.334	204.75
606.543	206.75
606.751	216.75
606.96	197.75
607.168	205.75
607.376	198.75
607.585	221.75
607.793	213.75
608.001	195.75
608.21	204.75
608.418	203.75
608.626	196.75
608.834	221.75
609.043	198.75
609.251	208.75
609.459	202.75
609.667	202.75
609.875	199.75
610.083	212.75
610.291	200.75
610.499	209.75
610.707	206.75
610.916	201.75
611.124	217.75
611.332	215.75
611.54	204.75
611.748	203.75
611.955	205.75
612.163	193.75
612.371	196.75
612.579	206.75
612.787	207.75
612.995	185.75
613.203	195.75
613.411	193.75
613.618	198.75
613.826	210.75
614.034	202.75
614.242	204.75
614.449	186.75
614.657	195.75
614.865	200.75
615.072	206.75
615.28	206.75
615.488	205.75
615.695	201.75
615.903	210.75
616.111	204.75
616.318	218.75
616.526	213.75
616.733	190.75
616.941	191.75
617.148	183.75
617.356	199.75
617.563	178.75
617.771	201.75
617.978	196.75
618.185	196.75
618.393	180.75
618.6	190.75
618.807	193.75
619.015	206.75
619.222	202.75
619.429	187.75
619.637	193.75
619.844	197.75
620.051	192.75
620.258	189.75
620.466	195.75
620.673	192.75
620.88	186.75
621.087	201.75
621.294	188.75
621.501	188.75
621.708	192.75
621.915	200.75
622.122	187.75
622.329	178.75
622.536	194.75
622.743	176.75
622.95	166.75
623.157	180.75
623.364	181.75
623.571	186.75
623.778	168.75
623.985	167.75
624.192	183.75
624.399	184.75
624.606	173.75
624.812	192.75
625.019	177.75
625.226	173.75
625.433	189.75
625.639	178.75
625.846	181.75
626.053	182.75
626.259	182.75
626.466	179.75
626.673	178.75
626.879	183.75
627.086	173.75
627.293	162.75
627.499	159.75
627.706	162.75
627.912	178.75
628.119	187.75
628.325	179.75
628.532	168.75
628.738	181.75
628.945	167.75
629.151	161.75
629.357	174.75
629.564	166.75
629.77	157.75
629.976	154.75
630.183	169.75
630.389	159.75
630.595	169.75
630.802	166.75
631.008	156.75
631.214	162.75
631.42	161.75
631.627	167.75
631.833	162.75
632.039	170.75
632.245	170.75
632.451	166.75
632.657	165.75
632.863	174.75
633.069	175.75
633.275	171.75
633.481	155.75
633.688	159.75
633.893	150.75
634.099	158.75
634.305	172.75
634.511	173.75
634.717	166.75
634.923	158.75
635.129	164.75
635.335	153.75
635.541	154.75
635.747	155.75
635.952	165.75
636.158	146.75
636.364	153.75
636.57	164.75
636.775	173.75
636.981	141.75
637.187	161.75
637.392	162.75
637.598	162.75
637.804	147.75
638.009	150.75
638.215	138.75
638.421	135.75
638.626	148.75
638.832	165.75
639.037	149.75
639.243	151.75
639.448	154.75
639.654	159.75
639.859	161.75
640.065	145.75
640.27	153.75
640.475	149.75
640.681	151.75
640.886	140.75
641.091	155.75
641.297	164.75
641.502	165.75
641.707	144.75
641.913	157.75
642.118	168.75
642.323	136.75
642.528	152.75
642.733	147.75
642.939	150.75
643.144	135.75
643.349	151.75
643.554	139.75
643.759	142.75
643.964	154.75
644.169	144.75
644.374	134.75
644.579	145.75
644.784	151.75
644.989	139.75
645.194	141.75
645.399	152.75
645.604	142.75
645.809	149.75
646.014	144.75
646.219	139.75
646.423	136.75
646.628	147.75
646.833	133.75
647.038	147.75
647.243	147.75
647.447	133.75
647.652	164.75
647.857	145.75
648.062	147.75
648.266	146.75
648.471	141.75
648.676	159.75
648.88	145.75
649.085	158.75
649.289	159.75
649.494	179.75
649.698	169.75
649.903	156.75
650.107	135.75
650.312	145.75
650.516	137.75
650.721	150.75
650.925	121.75
651.13	131.75
651.334	129.75
651.539	126.75
651.743	123.75
651.947	139.75
652.152	150.75
652.356	125.75
652.56	130.75
652.764	140.75
652.969	140.75
653.173	124.75
653.377	125.75
653.581	122.75
653.785	118.75
653.99	118.75
654.194	132.75
654.398	122.75
654.602	131.75
654.806	121.75
655.01	136.75
655.214	120.75
655.418	127.75
655.622	127.75
655.826	126.75
656.03	126.75
656.234	130.75
656.438	123.75
656.642	127.75
656.846	130.75
657.049	125.75
657.253	123.75
657.457	119.75
657.661	120.75
657.865	107.75
658.068	94.75
658.272	103.75
658.476	117.75
658.68	106.75
658.883	87.75
659.087	95.75
659.291	95.75
659.494	95.75
659.698	95.75
659.901	93.75
660.105	77.75
660.309	80.75
660.512	67.75
660.716	94.75
660.919	98.75
661.123	85.75
661.326	102.75
661.53	98.75
661.733	91.75
661.936	83.75
662.14	68.75
662.343	87.75
662.546	71.75
662.75	74.75
662.953	75.75
663.156	85.75
663.36	93.75
663.563	82.75
663.766	85.75
663.969	98.75
664.173	89.75
664.376	94.75
664.579	80.75
664.782	89.75
664.985	93.75
665.188	83.75
665.391	89.75
665.594	83.75
665.797	83.75
666	77.75
666.203	86.75
666.406	80.75
666.609	83.75
666.812	77.75
667.015	67.75
667.218	94.75
667.421	93.75
667.624	102.75
667.827	96.75
668.03	71.75
668.232	82.75
668.435	90.75
668.638	69.75
668.841	92.75
669.043	90.75
669.246	91.75
669.449	77.75
669.651	77.75
669.854	90.75
670.057	94.75
670.259	68.75
670.462	84.75
670.665	74.75
670.867	77.75
671.07	78.75
671.272	88.75
671.475	79.75
671.677	87.75
671.88	84.75
672.082	85.75
672.284	83.75
672.487	98.75
672.689	77.75
672.892	75.75
