Data from 1977.PennyLincolnUp.Lamp.En5.5.200Scan.071719.P1_HRD10591_16-05-58-864.txt Node
Date: Thu Jul 18 16:05:58 EDT 2019
User: cochatt
Spectrometer: HR+D1059
Trigger mode: 1
Integration Time (sec): 1.000000E-1
Scans to average: 1
Electric dark correction enabled: true
Nonlinearity correction enabled: false
Boxcar width: 0
XAxis mode: Wavelengths
Number of Pixels in Spectrum: 2048
>>>>>Begin Spectral Data<<<<<
223.165	-14.31
223.4	-14.31
223.635	-14.31
223.869	-9.31
224.104	-1.31
224.338	-3.31
224.573	-20.31
224.808	-9.31
225.042	-18.31
225.277	-8.31
225.511	-14.31
225.746	6.69
225.98	0.69
226.215	5.69
226.449	18.69
226.683	13.69
226.918	17.69
227.152	35.69
227.387	29.69
227.621	26.69
227.856	36.69
228.09	58.69
228.324	45.69
228.559	60.69
228.793	60.69
229.027	79.69
229.262	102.69
229.496	110.69
229.73	119.69
229.964	128.69
230.199	109.69
230.433	113.69
230.667	107.69
230.901	109.69
231.136	99.69
231.37	112.69
231.604	101.69
231.838	105.69
232.072	109.69
232.306	112.69
232.541	112.69
232.775	106.69
233.009	111.69
233.243	118.69
233.477	109.69
233.711	108.69
233.945	101.69
234.179	126.69
234.413	120.69
234.647	114.69
234.881	120.69
235.115	112.69
235.349	119.69
235.583	129.69
235.817	121.69
236.051	116.69
236.285	138.69
236.519	104.69
236.753	132.69
236.987	146.69
237.221	166.69
237.455	193.69
237.689	178.69
237.922	153.69
238.156	134.69
238.39	130.69
238.624	132.69
238.858	137.69
239.091	121.69
239.325	114.69
239.559	119.69
239.793	128.69
240.027	141.69
240.26	134.69
240.494	130.69
240.728	138.69
240.961	150.69
241.195	128.69
241.429	125.69
241.662	143.69
241.896	120.69
242.13	130.69
242.363	137.69
242.597	134.69
242.83	131.69
243.064	132.69
243.298	137.69
243.531	129.69
243.765	138.69
243.998	134.69
244.232	147.69
244.465	145.69
244.699	136.69
244.932	140.69
245.166	148.69
245.399	135.69
245.633	160.69
245.866	141.69
246.099	141.69
246.333	144.69
246.566	147.69
246.8	155.69
247.033	145.69
247.266	131.69
247.5	162.69
247.733	158.69
247.966	161.69
248.2	172.69
248.433	162.69
248.666	161.69
248.899	155.69
249.133	187.69
249.366	177.69
249.599	178.69
249.832	176.69
250.066	192.69
250.299	174.69
250.532	182.69
250.765	196.69
250.998	212.69
251.231	212.69
251.465	204.69
251.698	201.69
251.931	188.69
252.164	194.69
252.397	189.69
252.63	193.69
252.863	203.69
253.096	187.69
253.329	212.69
253.562	213.69
253.795	203.69
254.028	206.69
254.261	202.69
254.494	208.69
254.727	238.69
254.96	232.69
255.193	264.69
255.426	230.69
255.659	216.69
255.892	227.69
256.124	228.69
256.357	214.69
256.59	217.69
256.823	205.69
257.056	212.69
257.289	218.69
257.521	218.69
257.754	216.69
257.987	218.69
258.22	193.69
258.452	219.69
258.685	212.69
258.918	193.69
259.151	187.69
259.383	202.69
259.616	211.69
259.849	208.69
260.081	231.69
260.314	245.69
260.547	253.69
260.779	250.69
261.012	229.69
261.244	228.69
261.477	227.69
261.71	228.69
261.942	213.69
262.175	221.69
262.407	225.69
262.64	231.69
262.872	229.69
263.105	209.69
263.337	223.69
263.57	216.69
263.802	214.69
264.035	223.69
264.267	226.69
264.499	206.69
264.732	214.69
264.964	212.69
265.197	208.69
265.429	203.69
265.661	229.69
265.894	211.69
266.126	227.69
266.358	224.69
266.591	222.69
266.823	221.69
267.055	216.69
267.287	241.69
267.52	235.69
267.752	220.69
267.984	236.69
268.216	256.69
268.448	256.69
268.681	237.69
268.913	243.69
269.145	286.69
269.377	257.69
269.609	261.69
269.841	269.69
270.073	259.69
270.306	275.69
270.538	308.69
270.77	308.69
271.002	286.69
271.234	271.69
271.466	285.69
271.698	313.69
271.93	309.69
272.162	317.69
272.394	312.69
272.626	293.69
272.858	292.69
273.09	299.69
273.322	297.69
273.553	271.69
273.785	280.69
274.017	269.69
274.249	266.69
274.481	267.69
274.713	265.69
274.945	278.69
275.176	270.69
275.408	272.69
275.64	265.69
275.872	269.69
276.104	292.69
276.335	278.69
276.567	267.69
276.799	296.69
277.031	303.69
277.262	296.69
277.494	318.69
277.726	298.69
277.957	301.69
278.189	279.69
278.421	277.69
278.652	274.69
278.884	286.69
279.115	284.69
279.347	298.69
279.579	272.69
279.81	262.69
280.042	280.69
280.273	292.69
280.505	289.69
280.736	281.69
280.968	300.69
281.199	280.69
281.431	307.69
281.662	301.69
281.894	278.69
282.125	306.69
282.356	288.69
282.588	308.69
282.819	296.69
283.051	304.69
283.282	285.69
283.513	276.69
283.745	304.69
283.976	293.69
284.207	306.69
284.439	294.69
284.67	298.69
284.901	296.69
285.132	300.69
285.364	296.69
285.595	286.69
285.826	304.69
286.057	297.69
286.288	282.69
286.52	307.69
286.751	290.69
286.982	288.69
287.213	320.69
287.444	299.69
287.675	315.69
287.906	299.69
288.138	324.69
288.369	320.69
288.6	322.69
288.831	310.69
289.062	320.69
289.293	323.69
289.524	314.69
289.755	291.69
289.986	312.69
290.217	294.69
290.448	304.69
290.679	301.69
290.91	304.69
291.141	294.69
291.371	328.69
291.602	319.69
291.833	304.69
292.064	324.69
292.295	312.69
292.526	317.69
292.757	306.69
292.987	314.69
293.218	321.69
293.449	321.69
293.68	302.69
293.91	318.69
294.141	328.69
294.372	312.69
294.603	309.69
294.833	316.69
295.064	323.69
295.295	300.69
295.525	301.69
295.756	328.69
295.987	306.69
296.217	352.69
296.448	332.69
296.679	345.69
296.909	328.69
297.14	323.69
297.37	329.69
297.601	325.69
297.831	321.69
298.062	334.69
298.292	324.69
298.523	322.69
298.753	313.69
298.984	320.69
299.214	333.69
299.445	329.69
299.675	331.69
299.905	315.69
300.136	328.69
300.366	339.69
300.597	352.69
300.827	342.69
301.057	350.69
301.288	341.69
301.518	354.69
301.748	349.69
301.979	348.69
302.209	355.69
302.439	349.69
302.669	348.69
302.9	347.69
303.13	340.69
303.36	344.69
303.59	333.69
303.82	365.69
304.051	346.69
304.281	343.69
304.511	351.69
304.741	333.69
304.971	364.69
305.201	375.69
305.431	368.69
305.661	338.69
305.891	349.69
306.121	345.69
306.352	349.69
306.582	375.69
306.812	338.69
307.042	362.69
307.272	348.69
307.502	352.69
307.731	363.69
307.961	334.69
308.191	356.69
308.421	360.69
308.651	345.69
308.881	355.69
309.111	374.69
309.341	357.69
309.571	370.69
309.8	363.69
310.03	364.69
310.26	363.69
310.49	370.69
310.72	390.69
310.949	382.69
311.179	410.69
311.409	365.69
311.639	380.69
311.868	384.69
312.098	380.69
312.328	377.69
312.557	385.69
312.787	402.69
313.017	402.69
313.246	389.69
313.476	370.69
313.706	390.69
313.935	398.69
314.165	404.69
314.394	396.69
314.624	401.69
314.853	380.69
315.083	384.69
315.312	395.69
315.542	394.69
315.771	380.69
316.001	388.69
316.23	392.69
316.46	408.69
316.689	395.69
316.919	381.69
317.148	392.69
317.377	388.69
317.607	401.69
317.836	401.69
318.065	393.69
318.295	396.69
318.524	410.69
318.753	400.69
318.983	416.69
319.212	394.69
319.441	396.69
319.67	386.69
319.9	380.69
320.129	386.69
320.358	387.69
320.587	399.69
320.816	419.69
321.046	425.69
321.275	411.69
321.504	394.69
321.733	390.69
321.962	405.69
322.191	428.69
322.42	432.69
322.649	431.69
322.878	423.69
323.108	449.69
323.337	460.69
323.566	462.69
323.795	481.69
324.024	521.69
324.253	596.69
324.482	801.69
324.71	1184.69
324.939	1613.69
325.168	1389.69
325.397	745.69
325.626	570.69
325.855	499.69
326.084	479.69
326.313	461.69
326.542	476.69
326.77	529.69
326.999	570.69
327.228	771.69
327.457	1049.69
327.686	1188.69
327.914	836.69
328.143	580.69
328.372	529.69
328.6	525.69
328.829	507.69
329.058	545.69
329.287	520.69
329.515	506.69
329.744	504.69
329.972	495.69
330.201	515.69
330.43	514.69
330.658	530.69
330.887	540.69
331.115	536.69
331.344	489.69
331.572	464.69
331.801	473.69
332.03	485.69
332.258	467.69
332.486	454.69
332.715	455.69
332.943	478.69
333.172	467.69
333.4	469.69
333.629	468.69
333.857	514.69
334.085	496.69
334.314	503.69
334.542	505.69
334.771	493.69
334.999	507.69
335.227	483.69
335.455	488.69
335.684	467.69
335.912	460.69
336.14	464.69
336.369	450.69
336.597	478.69
336.825	466.69
337.053	454.69
337.281	441.69
337.51	469.69
337.738	433.69
337.966	442.69
338.194	459.69
338.422	448.69
338.65	441.69
338.878	452.69
339.106	453.69
339.334	456.69
339.562	453.69
339.79	427.69
340.018	439.69
340.246	414.69
340.474	426.69
340.702	433.69
340.93	438.69
341.158	433.69
341.386	448.69
341.614	461.69
341.842	417.69
342.07	426.69
342.298	412.69
342.526	424.69
342.754	425.69
342.981	429.69
343.209	448.69
343.437	436.69
343.665	445.69
343.893	451.69
344.12	455.69
344.348	443.69
344.576	454.69
344.804	453.69
345.031	437.69
345.259	456.69
345.487	446.69
345.714	438.69
345.942	413.69
346.17	406.69
346.397	444.69
346.625	420.69
346.853	437.69
347.08	409.69
347.308	432.69
347.535	416.69
347.763	394.69
347.99	423.69
348.218	432.69
348.445	405.69
348.673	434.69
348.9	411.69
349.128	389.69
349.355	405.69
349.583	438.69
349.81	420.69
350.037	411.69
350.265	392.69
350.492	384.69
350.72	404.69
350.947	404.69
351.174	426.69
351.402	413.69
351.629	419.69
351.856	400.69
352.083	417.69
352.311	424.69
352.538	410.69
352.765	421.69
352.992	393.69
353.22	408.69
353.447	406.69
353.674	404.69
353.901	395.69
354.128	405.69
354.355	384.69
354.583	378.69
354.81	388.69
355.037	383.69
355.264	399.69
355.491	379.69
355.718	402.69
355.945	388.69
356.172	379.69
356.399	391.69
356.626	407.69
356.853	399.69
357.08	389.69
357.307	392.69
357.534	380.69
357.761	388.69
357.988	382.69
358.215	382.69
358.441	401.69
358.668	372.69
358.895	408.69
359.122	401.69
359.349	394.69
359.576	411.69
359.802	404.69
360.029	428.69
360.256	451.69
360.483	420.69
360.709	386.69
360.936	403.69
361.163	408.69
361.39	399.69
361.616	402.69
361.843	383.69
362.07	408.69
362.296	401.69
362.523	381.69
362.749	404.69
362.976	384.69
363.203	393.69
363.429	395.69
363.656	404.69
363.882	394.69
364.109	386.69
364.335	389.69
364.562	386.69
364.788	388.69
365.015	399.69
365.241	405.69
365.468	414.69
365.694	405.69
365.92	393.69
366.147	392.69
366.373	371.69
366.599	388.69
366.826	374.69
367.052	385.69
367.278	392.69
367.505	400.69
367.731	399.69
367.957	389.69
368.184	408.69
368.41	390.69
368.636	413.69
368.862	398.69
369.089	374.69
369.315	383.69
369.541	386.69
369.767	387.69
369.993	377.69
370.219	392.69
370.445	390.69
370.672	407.69
370.898	400.69
371.124	403.69
371.35	373.69
371.576	381.69
371.802	395.69
372.028	404.69
372.254	394.69
372.48	389.69
372.706	393.69
372.932	405.69
373.158	393.69
373.384	410.69
373.61	390.69
373.835	392.69
374.061	402.69
374.287	419.69
374.513	408.69
374.739	394.69
374.965	404.69
375.191	419.69
375.416	393.69
375.642	401.69
375.868	376.69
376.094	404.69
376.319	412.69
376.545	380.69
376.771	401.69
376.997	395.69
377.222	382.69
377.448	371.69
377.674	393.69
377.899	375.69
378.125	382.69
378.35	387.69
378.576	389.69
378.802	382.69
379.027	382.69
379.253	369.69
379.478	402.69
379.704	390.69
379.929	379.69
380.155	394.69
380.38	384.69
380.606	390.69
380.831	389.69
381.057	403.69
381.282	386.69
381.507	381.69
381.733	406.69
381.958	402.69
382.184	420.69
382.409	382.69
382.634	392.69
382.86	380.69
383.085	396.69
383.31	406.69
383.535	416.69
383.761	400.69
383.986	407.69
384.211	401.69
384.436	405.69
384.662	432.69
384.887	409.69
385.112	410.69
385.337	428.69
385.562	393.69
385.787	442.69
386.013	436.69
386.238	421.69
386.463	434.69
386.688	432.69
386.913	403.69
387.138	441.69
387.363	422.69
387.588	434.69
387.813	436.69
388.038	420.69
388.263	418.69
388.488	416.69
388.713	446.69
388.938	437.69
389.163	416.69
389.387	440.69
389.612	422.69
389.837	433.69
390.062	440.69
390.287	419.69
390.512	408.69
390.736	434.69
390.961	414.69
391.186	417.69
391.411	420.69
391.636	429.69
391.86	434.69
392.085	452.69
392.31	461.69
392.534	446.69
392.759	449.69
392.984	425.69
393.208	424.69
393.433	444.69
393.658	432.69
393.882	437.69
394.107	432.69
394.331	426.69
394.556	428.69
394.78	443.69
395.005	437.69
395.229	444.69
395.454	447.69
395.678	446.69
395.903	456.69
396.127	475.69
396.352	477.69
396.576	453.69
396.801	432.69
397.025	452.69
397.249	445.69
397.474	462.69
397.698	460.69
397.922	469.69
398.147	466.69
398.371	484.69
398.595	472.69
398.82	482.69
399.044	496.69
399.268	509.69
399.492	539.69
399.717	580.69
399.941	599.69
400.165	602.69
400.389	609.69
400.613	553.69
400.837	526.69
401.062	490.69
401.286	508.69
401.51	501.69
401.734	476.69
401.958	499.69
402.182	518.69
402.406	477.69
402.63	472.69
402.854	488.69
403.078	521.69
403.302	500.69
403.526	490.69
403.75	519.69
403.974	482.69
404.198	513.69
404.422	484.69
404.645	488.69
404.869	500.69
405.093	514.69
405.317	549.69
405.541	577.69
405.765	545.69
405.988	531.69
406.212	513.69
406.436	556.69
406.66	549.69
406.883	542.69
407.107	569.69
407.331	602.69
407.555	638.69
407.778	634.69
408.002	588.69
408.226	541.69
408.449	544.69
408.673	534.69
408.896	572.69
409.12	598.69
409.344	579.69
409.567	528.69
409.791	506.69
410.014	502.69
410.238	499.69
410.461	523.69
410.685	515.69
410.908	523.69
411.132	534.69
411.355	562.69
411.578	531.69
411.802	482.69
412.025	519.69
412.249	511.69
412.472	505.69
412.695	532.69
412.919	534.69
413.142	501.69
413.365	485.69
413.589	478.69
413.812	477.69
414.035	470.69
414.258	468.69
414.482	473.69
414.705	485.69
414.928	460.69
415.151	440.69
415.374	460.69
415.597	469.69
415.821	445.69
416.044	464.69
416.267	466.69
416.49	457.69
416.713	472.69
416.936	450.69
417.159	462.69
417.382	455.69
417.605	461.69
417.828	452.69
418.051	475.69
418.274	487.69
418.497	473.69
418.72	480.69
418.943	459.69
419.166	469.69
419.389	510.69
419.611	502.69
419.834	493.69
420.057	498.69
420.28	476.69
420.503	469.69
420.726	482.69
420.948	486.69
421.171	536.69
421.394	546.69
421.617	507.69
421.839	488.69
422.062	480.69
422.285	489.69
422.507	545.69
422.73	618.69
422.953	568.69
423.175	519.69
423.398	523.69
423.621	488.69
423.843	497.69
424.066	528.69
424.288	517.69
424.511	540.69
424.733	563.69
424.956	618.69
425.178	592.69
425.401	589.69
425.623	616.69
425.846	542.69
426.068	505.69
426.291	501.69
426.513	491.69
426.735	518.69
426.958	549.69
427.18	612.69
427.402	715.69
427.625	782.69
427.847	656.69
428.069	594.69
428.292	493.69
428.514	485.69
428.736	485.69
428.958	476.69
429.181	485.69
429.403	466.69
429.625	474.69
429.847	481.69
430.069	536.69
430.292	552.69
430.514	464.69
430.736	483.69
430.958	471.69
431.18	459.69
431.402	434.69
431.624	436.69
431.846	459.69
432.068	451.69
432.29	465.69
432.512	454.69
432.734	467.69
432.956	429.69
433.178	438.69
433.4	433.69
433.622	420.69
433.844	455.69
434.066	439.69
434.287	446.69
434.509	444.69
434.731	458.69
434.953	490.69
435.175	481.69
435.397	499.69
435.618	526.69
435.84	524.69
436.062	586.69
436.284	675.69
436.505	537.69
436.727	506.69
436.949	489.69
437.17	466.69
437.392	462.69
437.614	444.69
437.835	485.69
438.057	563.69
438.278	638.69
438.5	656.69
438.721	708.69
438.943	660.69
439.165	550.69
439.386	501.69
439.608	493.69
439.829	503.69
440.05	489.69
440.272	543.69
440.493	520.69
440.715	466.69
440.936	468.69
441.158	464.69
441.379	461.69
441.6	469.69
441.822	494.69
442.043	526.69
442.264	581.69
442.486	595.69
442.707	542.69
442.928	493.69
443.149	497.69
443.371	521.69
443.592	568.69
443.813	657.69
444.034	667.69
444.255	569.69
444.476	552.69
444.698	537.69
444.919	516.69
445.14	589.69
445.361	547.69
445.582	551.69
445.803	557.69
446.024	657.69
446.245	651.69
446.466	582.69
446.687	531.69
446.908	487.69
447.129	466.69
447.35	456.69
447.571	464.69
447.792	425.69
448.013	463.69
448.234	454.69
448.455	517.69
448.675	610.69
448.896	674.69
449.117	581.69
449.338	552.69
449.559	652.69
449.779	742.69
450	583.69
450.221	466.69
450.442	444.69
450.662	434.69
450.883	453.69
451.104	446.69
451.324	432.69
451.545	429.69
451.766	427.69
451.986	396.69
452.207	428.69
452.428	415.69
452.648	405.69
452.869	413.69
453.089	413.69
453.31	428.69
453.53	422.69
453.751	413.69
453.971	406.69
454.192	402.69
454.412	392.69
454.633	408.69
454.853	390.69
455.073	384.69
455.294	428.69
455.514	474.69
455.734	474.69
455.955	402.69
456.175	402.69
456.395	397.69
456.616	388.69
456.836	395.69
457.056	387.69
457.276	380.69
457.497	382.69
457.717	387.69
457.937	410.69
458.157	402.69
458.377	402.69
458.598	427.69
458.818	458.69
459.038	501.69
459.258	551.69
459.478	476.69
459.698	429.69
459.918	433.69
460.138	447.69
460.358	458.69
460.578	445.69
460.798	466.69
461.018	457.69
461.238	452.69
461.458	462.69
461.678	438.69
461.898	449.69
462.118	450.69
462.338	468.69
462.558	473.69
462.777	502.69
462.997	510.69
463.217	524.69
463.437	512.69
463.657	493.69
463.876	485.69
464.096	524.69
464.316	489.69
464.536	488.69
464.755	492.69
464.975	484.69
465.195	513.69
465.414	545.69
465.634	475.69
465.854	468.69
466.073	441.69
466.293	452.69
466.512	427.69
466.732	432.69
466.951	436.69
467.171	423.69
467.391	426.69
467.61	429.69
467.829	410.69
468.049	435.69
468.268	422.69
468.488	406.69
468.707	397.69
468.927	421.69
469.146	404.69
469.365	406.69
469.585	409.69
469.804	425.69
470.023	409.69
470.243	432.69
470.462	430.69
470.681	428.69
470.901	435.69
471.12	440.69
471.339	411.69
471.558	425.69
471.777	421.69
471.997	420.69
472.216	408.69
472.435	439.69
472.654	450.69
472.873	415.69
473.092	420.69
473.311	408.69
473.53	415.69
473.749	433.69
473.968	461.69
474.187	524.69
474.406	546.69
474.625	446.69
474.844	432.69
475.063	399.69
475.282	419.69
475.501	454.69
475.72	428.69
475.939	432.69
476.158	434.69
476.377	443.69
476.596	446.69
476.814	429.69
477.033	421.69
477.252	449.69
477.471	467.69
477.69	460.69
477.908	458.69
478.127	482.69
478.346	470.69
478.564	481.69
478.783	492.69
479.002	481.69
479.22	489.69
479.439	507.69
479.658	506.69
479.876	525.69
480.095	516.69
480.313	519.69
480.532	551.69
480.751	516.69
480.969	519.69
481.188	538.69
481.406	569.69
481.624	518.69
481.843	508.69
482.061	465.69
482.28	496.69
482.498	513.69
482.717	498.69
482.935	490.69
483.153	478.69
483.372	472.69
483.59	463.69
483.808	477.69
484.027	475.69
484.245	488.69
484.463	472.69
484.681	507.69
484.9	488.69
485.118	496.69
485.336	489.69
485.554	508.69
485.772	504.69
485.99	492.69
486.209	486.69
486.427	488.69
486.645	489.69
486.863	489.69
487.081	509.69
487.299	526.69
487.517	503.69
487.735	519.69
487.953	519.69
488.171	506.69
488.389	524.69
488.607	505.69
488.825	520.69
489.043	514.69
489.261	516.69
489.479	517.69
489.696	531.69
489.914	512.69
490.132	547.69
490.35	561.69
490.568	521.69
490.786	517.69
491.003	551.69
491.221	561.69
491.439	571.69
491.657	595.69
491.874	565.69
492.092	555.69
492.31	568.69
492.527	574.69
492.745	584.69
492.963	562.69
493.18	562.69
493.398	602.69
493.615	576.69
493.833	600.69
494.05	575.69
494.268	598.69
494.485	590.69
494.703	589.69
494.92	602.69
495.138	606.69
495.355	601.69
495.573	587.69
495.79	600.69
496.008	583.69
496.225	621.69
496.442	593.69
496.66	614.69
496.877	614.69
497.094	609.69
497.312	633.69
497.529	650.69
497.746	639.69
497.963	657.69
498.181	655.69
498.398	655.69
498.615	683.69
498.832	715.69
499.049	725.69
499.267	755.69
499.484	777.69
499.701	823.69
499.918	852.69
500.135	915.69
500.352	926.69
500.569	959.69
500.786	959.69
501.003	983.69
501.22	898.69
501.437	869.69
501.654	832.69
501.871	798.69
502.088	752.69
502.305	759.69
502.522	690.69
502.739	680.69
502.956	674.69
503.172	652.69
503.389	608.69
503.606	621.69
503.823	634.69
504.04	636.69
504.256	632.69
504.473	634.69
504.69	602.69
504.907	610.69
505.123	633.69
505.34	624.69
505.557	577.69
505.773	582.69
505.99	575.69
506.207	573.69
506.423	579.69
506.64	560.69
506.856	587.69
507.073	541.69
507.289	572.69
507.506	555.69
507.722	564.69
507.939	535.69
508.155	536.69
508.372	552.69
508.588	528.69
508.805	529.69
509.021	536.69
509.238	552.69
509.454	551.69
509.67	553.69
509.887	523.69
510.103	548.69
510.319	535.69
510.536	596.69
510.752	871.69
510.968	718.69
511.184	525.69
511.401	534.69
511.617	519.69
511.833	513.69
512.049	502.69
512.265	509.69
512.481	522.69
512.698	506.69
512.914	508.69
513.13	512.69
513.346	487.69
513.562	507.69
513.778	509.69
513.994	493.69
514.21	509.69
514.426	532.69
514.642	536.69
514.858	572.69
515.074	565.69
515.29	644.69
515.506	840.69
515.721	703.69
515.937	574.69
516.153	518.69
516.369	552.69
516.585	555.69
516.801	520.69
517.016	554.69
517.232	545.69
517.448	583.69
517.664	549.69
517.879	562.69
518.095	539.69
518.311	553.69
518.527	552.69
518.742	543.69
518.958	532.69
519.173	504.69
519.389	509.69
519.605	508.69
519.82	516.69
520.036	490.69
520.251	525.69
520.467	540.69
520.682	536.69
520.898	545.69
521.113	549.69
521.329	545.69
521.544	613.69
521.76	692.69
521.975	992.69
522.19	949.69
522.406	626.69
522.621	560.69
522.836	500.69
523.052	481.69
523.267	478.69
523.482	454.69
523.698	473.69
523.913	466.69
524.128	476.69
524.343	434.69
524.559	438.69
524.774	425.69
524.989	436.69
525.204	440.69
525.419	435.69
525.634	436.69
525.849	423.69
526.064	438.69
526.28	458.69
526.495	411.69
526.71	426.69
526.925	410.69
527.14	432.69
527.355	428.69
527.57	424.69
527.785	412.69
527.999	424.69
528.214	434.69
528.429	411.69
528.644	418.69
528.859	422.69
529.074	417.69
529.289	438.69
529.503	469.69
529.718	449.69
529.933	437.69
530.148	450.69
530.363	422.69
530.577	414.69
530.792	419.69
531.007	405.69
531.221	406.69
531.436	420.69
531.651	393.69
531.865	406.69
532.08	440.69
532.295	403.69
532.509	404.69
532.724	410.69
532.938	393.69
533.153	410.69
533.367	418.69
533.582	402.69
533.796	412.69
534.011	388.69
534.225	415.69
534.44	414.69
534.654	395.69
534.868	389.69
535.083	402.69
535.297	401.69
535.511	433.69
535.726	396.69
535.94	416.69
536.154	399.69
536.369	414.69
536.583	394.69
536.797	372.69
537.011	396.69
537.225	389.69
537.44	394.69
537.654	401.69
537.868	399.69
538.082	389.69
538.296	398.69
538.51	398.69
538.724	402.69
538.938	392.69
539.153	399.69
539.367	398.69
539.581	384.69
539.795	384.69
540.009	395.69
540.222	401.69
540.436	397.69
540.65	402.69
540.864	396.69
541.078	385.69
541.292	411.69
541.506	377.69
541.72	406.69
541.934	394.69
542.147	418.69
542.361	405.69
542.575	380.69
542.789	410.69
543.002	380.69
543.216	392.69
543.43	385.69
543.644	386.69
543.857	385.69
544.071	380.69
544.285	374.69
544.498	382.69
544.712	404.69
544.925	382.69
545.139	394.69
545.352	394.69
545.566	384.69
545.779	392.69
545.993	381.69
546.206	384.69
546.42	380.69
546.633	397.69
546.847	378.69
547.06	378.69
547.274	375.69
547.487	378.69
547.7	371.69
547.914	379.69
548.127	369.69
548.34	381.69
548.554	386.69
548.767	368.69
548.98	395.69
549.193	390.69
549.407	379.69
549.62	377.69
549.833	379.69
550.046	380.69
550.259	389.69
550.473	360.69
550.686	373.69
550.899	392.69
551.112	384.69
551.325	373.69
551.538	379.69
551.751	366.69
551.964	395.69
552.177	378.69
552.39	395.69
552.603	389.69
552.816	396.69
553.029	403.69
553.242	394.69
553.455	396.69
553.667	395.69
553.88	411.69
554.093	385.69
554.306	396.69
554.519	370.69
554.732	376.69
554.944	363.69
555.157	375.69
555.37	352.69
555.583	362.69
555.795	371.69
556.008	345.69
556.221	362.69
556.433	339.69
556.646	364.69
556.859	352.69
557.071	343.69
557.284	341.69
557.496	334.69
557.709	348.69
557.921	338.69
558.134	345.69
558.346	342.69
558.559	350.69
558.771	329.69
558.984	324.69
559.196	347.69
559.409	348.69
559.621	358.69
559.833	344.69
560.046	323.69
560.258	348.69
560.47	340.69
560.683	341.69
560.895	325.69
561.107	338.69
561.32	336.69
561.532	348.69
561.744	347.69
561.956	345.69
562.168	332.69
562.381	339.69
562.593	339.69
562.805	334.69
563.017	334.69
563.229	322.69
563.441	340.69
563.653	349.69
563.865	348.69
564.077	333.69
564.289	345.69
564.501	340.69
564.713	361.69
564.925	340.69
565.137	362.69
565.349	368.69
565.561	368.69
565.773	384.69
565.985	379.69
566.197	397.69
566.408	420.69
566.62	410.69
566.832	445.69
567.044	438.69
567.255	449.69
567.467	437.69
567.679	445.69
567.891	461.69
568.102	457.69
568.314	448.69
568.526	434.69
568.737	412.69
568.949	395.69
569.161	389.69
569.372	373.69
569.584	360.69
569.795	361.69
570.007	362.69
570.218	366.69
570.43	376.69
570.641	336.69
570.853	341.69
571.064	332.69
571.276	343.69
571.487	317.69
571.698	336.69
571.91	317.69
572.121	328.69
572.333	297.69
572.544	319.69
572.755	310.69
572.966	308.69
573.178	320.69
573.389	299.69
573.6	292.69
573.811	304.69
574.023	296.69
574.234	282.69
574.445	284.69
574.656	296.69
574.867	293.69
575.078	299.69
575.289	311.69
575.501	286.69
575.712	289.69
575.923	282.69
576.134	283.69
576.345	290.69
576.556	282.69
576.767	276.69
576.978	296.69
577.188	298.69
577.399	283.69
577.61	291.69
577.821	284.69
578.032	300.69
578.243	313.69
578.454	399.69
578.665	339.69
578.875	294.69
579.086	269.69
579.297	288.69
579.508	283.69
579.718	268.69
579.929	262.69
580.14	272.69
580.35	252.69
580.561	265.69
580.772	266.69
580.982	265.69
581.193	267.69
581.403	272.69
581.614	256.69
581.825	260.69
582.035	262.69
582.246	265.69
582.456	260.69
582.667	260.69
582.877	262.69
583.087	279.69
583.298	275.69
583.508	256.69
583.719	271.69
583.929	268.69
584.139	266.69
584.35	288.69
584.56	267.69
584.77	259.69
584.981	259.69
585.191	275.69
585.401	256.69
585.611	233.69
585.821	253.69
586.032	265.69
586.242	260.69
586.452	272.69
586.662	243.69
586.872	260.69
587.082	271.69
587.292	264.69
587.502	262.69
587.713	242.69
587.923	263.69
588.133	262.69
588.343	264.69
588.553	257.69
588.762	245.69
588.972	269.69
589.182	259.69
589.392	251.69
589.602	267.69
589.812	253.69
590.022	259.69
590.232	241.69
590.441	269.69
590.651	263.69
590.861	257.69
591.071	271.69
591.281	254.69
591.49	258.69
591.7	257.69
591.91	267.69
592.119	273.69
592.329	260.69
592.539	261.69
592.748	288.69
592.958	282.69
593.167	286.69
593.377	285.69
593.587	306.69
593.796	288.69
594.006	289.69
594.215	279.69
594.424	295.69
594.634	297.69
594.843	285.69
595.053	274.69
595.262	260.69
595.472	272.69
595.681	264.69
595.89	267.69
596.1	241.69
596.309	268.69
596.518	256.69
596.727	249.69
596.937	241.69
597.146	235.69
597.355	246.69
597.564	242.69
597.774	235.69
597.983	254.69
598.192	256.69
598.401	246.69
598.61	235.69
598.819	240.69
599.028	241.69
599.237	211.69
599.446	224.69
599.655	231.69
599.864	246.69
600.073	224.69
600.282	236.69
600.491	231.69
600.7	229.69
600.909	232.69
601.118	220.69
601.327	221.69
601.536	214.69
601.745	231.69
601.953	226.69
602.162	240.69
602.371	223.69
602.58	214.69
602.789	221.69
602.997	214.69
603.206	227.69
603.415	235.69
603.623	224.69
603.832	219.69
604.041	217.69
604.249	223.69
604.458	219.69
604.666	220.69
604.875	212.69
605.084	216.69
605.292	206.69
605.501	207.69
605.709	211.69
605.918	213.69
606.126	209.69
606.334	210.69
606.543	225.69
606.751	193.69
606.96	205.69
607.168	197.69
607.376	221.69
607.585	223.69
607.793	212.69
608.001	202.69
608.21	201.69
608.418	208.69
608.626	206.69
608.834	193.69
609.043	232.69
609.251	216.69
609.459	216.69
609.667	196.69
609.875	204.69
610.083	213.69
610.291	217.69
610.499	193.69
610.707	210.69
610.916	198.69
611.124	206.69
611.332	209.69
611.54	223.69
611.748	204.69
611.955	213.69
612.163	212.69
612.371	213.69
612.579	223.69
612.787	207.69
612.995	217.69
613.203	206.69
613.411	224.69
613.618	198.69
613.826	208.69
614.034	210.69
614.242	197.69
614.449	181.69
614.657	201.69
614.865	206.69
615.072	226.69
615.28	227.69
615.488	208.69
615.695	202.69
615.903	190.69
616.111	203.69
616.318	209.69
616.526	196.69
616.733	194.69
616.941	208.69
617.148	201.69
617.356	202.69
617.563	212.69
617.771	197.69
617.978	210.69
618.185	200.69
618.393	205.69
618.6	203.69
618.807	197.69
619.015	202.69
619.222	197.69
619.429	204.69
619.637	193.69
619.844	201.69
620.051	192.69
620.258	189.69
620.466	192.69
620.673	196.69
620.88	184.69
621.087	193.69
621.294	194.69
621.501	194.69
621.708	200.69
621.915	192.69
622.122	187.69
622.329	200.69
622.536	197.69
622.743	190.69
622.95	198.69
623.157	182.69
623.364	179.69
623.571	182.69
623.778	200.69
623.985	201.69
624.192	179.69
624.399	194.69
624.606	192.69
624.812	184.69
625.019	175.69
625.226	186.69
625.433	177.69
625.639	188.69
625.846	182.69
626.053	167.69
626.259	179.69
626.466	180.69
626.673	170.69
626.879	193.69
627.086	185.69
627.293	194.69
627.499	192.69
627.706	192.69
627.912	181.69
628.119	165.69
628.325	169.69
628.532	180.69
628.738	194.69
628.945	168.69
629.151	177.69
629.357	191.69
629.564	170.69
629.77	169.69
629.976	166.69
630.183	160.69
630.389	158.69
630.595	157.69
630.802	163.69
631.008	169.69
631.214	177.69
631.42	165.69
631.627	184.69
631.833	184.69
632.039	172.69
632.245	171.69
632.451	176.69
632.657	176.69
632.863	162.69
633.069	174.69
633.275	169.69
633.481	162.69
633.688	169.69
633.893	179.69
634.099	166.69
634.305	174.69
634.511	154.69
634.717	156.69
634.923	163.69
635.129	156.69
635.335	174.69
635.541	164.69
635.747	170.69
635.952	170.69
636.158	149.69
636.364	171.69
636.57	163.69
636.775	159.69
636.981	169.69
637.187	158.69
637.392	158.69
637.598	163.69
637.804	165.69
638.009	164.69
638.215	173.69
638.421	153.69
638.626	150.69
638.832	160.69
639.037	152.69
639.243	169.69
639.448	153.69
639.654	157.69
639.859	157.69
640.065	149.69
640.27	167.69
640.475	164.69
640.681	162.69
640.886	161.69
641.091	165.69
641.297	163.69
641.502	142.69
641.707	142.69
641.913	160.69
642.118	160.69
642.323	165.69
642.528	148.69
642.733	161.69
642.939	165.69
643.144	148.69
643.349	157.69
643.554	156.69
643.759	153.69
643.964	144.69
644.169	146.69
644.374	157.69
644.579	170.69
644.784	145.69
644.989	156.69
645.194	151.69
645.399	163.69
645.604	149.69
645.809	160.69
646.014	146.69
646.219	151.69
646.423	147.69
646.628	147.69
646.833	146.69
647.038	149.69
647.243	171.69
647.447	135.69
647.652	139.69
647.857	156.69
648.062	163.69
648.266	169.69
648.471	141.69
648.676	160.69
648.88	165.69
649.085	148.69
649.289	153.69
649.494	161.69
649.698	159.69
649.903	153.69
650.107	146.69
650.312	174.69
650.516	152.69
650.721	137.69
650.925	141.69
651.13	140.69
651.334	143.69
651.539	146.69
651.743	149.69
651.947	141.69
652.152	143.69
652.356	155.69
652.56	133.69
652.764	137.69
652.969	131.69
653.173	117.69
653.377	139.69
653.581	133.69
653.785	131.69
653.99	122.69
654.194	128.69
654.398	118.69
654.602	116.69
654.806	124.69
655.01	134.69
655.214	123.69
655.418	128.69
655.622	123.69
655.826	130.69
656.03	123.69
656.234	130.69
656.438	148.69
656.642	128.69
656.846	144.69
657.049	122.69
657.253	114.69
657.457	100.69
657.661	112.69
657.865	112.69
658.068	125.69
658.272	103.69
658.476	117.69
658.68	105.69
658.883	93.69
659.087	99.69
659.291	101.69
659.494	93.69
659.698	98.69
659.901	101.69
660.105	105.69
660.309	84.69
660.512	91.69
660.716	76.69
660.919	96.69
661.123	83.69
661.326	84.69
661.53	89.69
661.733	93.69
661.936	90.69
662.14	92.69
662.343	86.69
662.546	91.69
662.75	86.69
662.953	82.69
663.156	83.69
663.36	71.69
663.563	69.69
663.766	74.69
663.969	86.69
664.173	71.69
664.376	89.69
664.579	81.69
664.782	81.69
664.985	80.69
665.188	69.69
665.391	96.69
665.594	84.69
665.797	78.69
666	80.69
666.203	74.69
666.406	94.69
666.609	86.69
666.812	88.69
667.015	79.69
667.218	73.69
667.421	85.69
667.624	82.69
667.827	86.69
668.03	93.69
668.232	84.69
668.435	75.69
668.638	77.69
668.841	91.69
669.043	72.69
669.246	79.69
669.449	82.69
669.651	74.69
669.854	89.69
670.057	86.69
670.259	80.69
670.462	92.69
670.665	79.69
670.867	78.69
671.07	86.69
671.272	82.69
671.475	100.69
671.677	97.69
671.88	77.69
672.082	83.69
672.284	67.69
672.487	82.69
672.689	86.69
672.892	92.69
