Data from 1977.PennyLincolnUp.Lamp.En5.5.200Scan.071719.P1_HRD10591_16-05-42-863.txt Node
Date: Thu Jul 18 16:05:42 EDT 2019
User: cochatt
Spectrometer: HR+D1059
Trigger mode: 1
Integration Time (sec): 1.000000E-1
Scans to average: 1
Electric dark correction enabled: true
Nonlinearity correction enabled: false
Boxcar width: 0
XAxis mode: Wavelengths
Number of Pixels in Spectrum: 2048
>>>>>Begin Spectral Data<<<<<
223.165	-13.31
223.4	-13.31
223.635	-13.31
223.869	-23.31
224.104	-21.31
224.338	-14.31
224.573	-23.31
224.808	-7.31
225.042	-12.31
225.277	-14.31
225.511	-6.31
225.746	3.69
225.98	9.69
226.215	19.69
226.449	35.69
226.683	18.69
226.918	28.69
227.152	19.69
227.387	16.69
227.621	19.69
227.856	38.69
228.09	48.69
228.324	43.69
228.559	55.69
228.793	65.69
229.027	99.69
229.262	99.69
229.496	104.69
229.73	114.69
229.964	123.69
230.199	116.69
230.433	101.69
230.667	103.69
230.901	111.69
231.136	102.69
231.37	111.69
231.604	97.69
231.838	114.69
232.072	107.69
232.306	102.69
232.541	107.69
232.775	96.69
233.009	113.69
233.243	109.69
233.477	107.69
233.711	114.69
233.945	106.69
234.179	123.69
234.413	117.69
234.647	99.69
234.881	127.69
235.115	121.69
235.349	116.69
235.583	142.69
235.817	103.69
236.051	122.69
236.285	109.69
236.519	131.69
236.753	112.69
236.987	123.69
237.221	170.69
237.455	203.69
237.689	156.69
237.922	135.69
238.156	123.69
238.39	114.69
238.624	116.69
238.858	125.69
239.091	125.69
239.325	102.69
239.559	127.69
239.793	122.69
240.027	128.69
240.26	138.69
240.494	145.69
240.728	139.69
240.961	128.69
241.195	149.69
241.429	127.69
241.662	134.69
241.896	131.69
242.13	132.69
242.363	138.69
242.597	122.69
242.83	133.69
243.064	135.69
243.298	118.69
243.531	134.69
243.765	142.69
243.998	135.69
244.232	136.69
244.465	128.69
244.699	142.69
244.932	142.69
245.166	134.69
245.399	147.69
245.633	125.69
245.866	140.69
246.099	138.69
246.333	132.69
246.566	139.69
246.8	136.69
247.033	165.69
247.266	153.69
247.5	150.69
247.733	143.69
247.966	164.69
248.2	155.69
248.433	168.69
248.666	161.69
248.899	153.69
249.133	159.69
249.366	193.69
249.599	176.69
249.832	167.69
250.066	173.69
250.299	177.69
250.532	187.69
250.765	182.69
250.998	206.69
251.231	202.69
251.465	194.69
251.698	193.69
251.931	189.69
252.164	185.69
252.397	184.69
252.63	172.69
252.863	191.69
253.096	204.69
253.329	215.69
253.562	192.69
253.795	204.69
254.028	193.69
254.261	207.69
254.494	219.69
254.727	231.69
254.96	255.69
255.193	239.69
255.426	240.69
255.659	212.69
255.892	207.69
256.124	216.69
256.357	199.69
256.59	190.69
256.823	199.69
257.056	202.69
257.289	198.69
257.521	187.69
257.754	201.69
257.987	194.69
258.22	203.69
258.452	187.69
258.685	195.69
258.918	196.69
259.151	200.69
259.383	221.69
259.616	197.69
259.849	200.69
260.081	219.69
260.314	244.69
260.547	247.69
260.779	219.69
261.012	223.69
261.244	225.69
261.477	222.69
261.71	215.69
261.942	218.69
262.175	212.69
262.407	213.69
262.64	202.69
262.872	219.69
263.105	208.69
263.337	199.69
263.57	194.69
263.802	211.69
264.035	225.69
264.267	217.69
264.499	220.69
264.732	208.69
264.964	204.69
265.197	201.69
265.429	220.69
265.661	212.69
265.894	231.69
266.126	217.69
266.358	212.69
266.591	234.69
266.823	225.69
267.055	234.69
267.287	236.69
267.52	220.69
267.752	216.69
267.984	234.69
268.216	242.69
268.448	230.69
268.681	224.69
268.913	227.69
269.145	244.69
269.377	272.69
269.609	249.69
269.841	260.69
270.073	252.69
270.306	251.69
270.538	292.69
270.77	292.69
271.002	279.69
271.234	271.69
271.466	259.69
271.698	269.69
271.93	294.69
272.162	304.69
272.394	306.69
272.626	277.69
272.858	281.69
273.09	268.69
273.322	258.69
273.553	258.69
273.785	250.69
274.017	246.69
274.249	256.69
274.481	260.69
274.713	264.69
274.945	276.69
275.176	274.69
275.408	264.69
275.64	258.69
275.872	264.69
276.104	265.69
276.335	268.69
276.567	275.69
276.799	263.69
277.031	289.69
277.262	312.69
277.494	319.69
277.726	295.69
277.957	275.69
278.189	255.69
278.421	266.69
278.652	269.69
278.884	280.69
279.115	256.69
279.347	271.69
279.579	273.69
279.81	276.69
280.042	264.69
280.273	277.69
280.505	274.69
280.736	260.69
280.968	296.69
281.199	290.69
281.431	297.69
281.662	286.69
281.894	284.69
282.125	269.69
282.356	293.69
282.588	296.69
282.819	303.69
283.051	290.69
283.282	269.69
283.513	278.69
283.745	271.69
283.976	261.69
284.207	284.69
284.439	298.69
284.67	296.69
284.901	277.69
285.132	285.69
285.364	269.69
285.595	294.69
285.826	288.69
286.057	279.69
286.288	299.69
286.52	290.69
286.751	300.69
286.982	297.69
287.213	300.69
287.444	281.69
287.675	285.69
287.906	300.69
288.138	305.69
288.369	305.69
288.6	310.69
288.831	300.69
289.062	302.69
289.293	289.69
289.524	300.69
289.755	323.69
289.986	303.69
290.217	305.69
290.448	310.69
290.679	316.69
290.91	299.69
291.141	301.69
291.371	304.69
291.602	296.69
291.833	303.69
292.064	308.69
292.295	292.69
292.526	297.69
292.757	299.69
292.987	303.69
293.218	307.69
293.449	313.69
293.68	289.69
293.91	293.69
294.141	289.69
294.372	307.69
294.603	295.69
294.833	308.69
295.064	308.69
295.295	312.69
295.525	295.69
295.756	314.69
295.987	312.69
296.217	334.69
296.448	319.69
296.679	304.69
296.909	307.69
297.14	319.69
297.37	319.69
297.601	309.69
297.831	308.69
298.062	289.69
298.292	320.69
298.523	327.69
298.753	316.69
298.984	317.69
299.214	329.69
299.445	316.69
299.675	333.69
299.905	333.69
300.136	324.69
300.366	325.69
300.597	311.69
300.827	328.69
301.057	341.69
301.288	346.69
301.518	325.69
301.748	332.69
301.979	337.69
302.209	343.69
302.439	337.69
302.669	343.69
302.9	329.69
303.13	343.69
303.36	338.69
303.59	323.69
303.82	338.69
304.051	339.69
304.281	365.69
304.511	329.69
304.741	345.69
304.971	352.69
305.201	343.69
305.431	350.69
305.661	325.69
305.891	332.69
306.121	333.69
306.352	328.69
306.582	322.69
306.812	344.69
307.042	322.69
307.272	345.69
307.502	339.69
307.731	347.69
307.961	352.69
308.191	337.69
308.421	351.69
308.651	347.69
308.881	343.69
309.111	361.69
309.341	368.69
309.571	364.69
309.8	375.69
310.03	365.69
310.26	367.69
310.49	356.69
310.72	359.69
310.949	367.69
311.179	391.69
311.409	367.69
311.639	375.69
311.868	381.69
312.098	360.69
312.328	369.69
312.557	390.69
312.787	373.69
313.017	365.69
313.246	381.69
313.476	378.69
313.706	372.69
313.935	376.69
314.165	381.69
314.394	387.69
314.624	386.69
314.853	390.69
315.083	367.69
315.312	370.69
315.542	367.69
315.771	368.69
316.001	372.69
316.23	377.69
316.46	388.69
316.689	380.69
316.919	371.69
317.148	392.69
317.377	372.69
317.607	367.69
317.836	385.69
318.065	371.69
318.295	375.69
318.524	361.69
318.753	409.69
318.983	376.69
319.212	397.69
319.441	398.69
319.67	369.69
319.9	379.69
320.129	375.69
320.358	357.69
320.587	385.69
320.816	397.69
321.046	388.69
321.275	385.69
321.504	390.69
321.733	379.69
321.962	385.69
322.191	406.69
322.42	416.69
322.649	396.69
322.878	441.69
323.108	413.69
323.337	452.69
323.566	442.69
323.795	469.69
324.024	519.69
324.253	571.69
324.482	772.69
324.71	1091.69
324.939	1503.69
325.168	1287.69
325.397	706.69
325.626	523.69
325.855	481.69
326.084	460.69
326.313	444.69
326.542	455.69
326.77	487.69
326.999	539.69
327.228	721.69
327.457	1008.69
327.686	1179.69
327.914	789.69
328.143	568.69
328.372	513.69
328.6	499.69
328.829	477.69
329.058	503.69
329.287	497.69
329.515	469.69
329.744	481.69
329.972	468.69
330.201	486.69
330.43	482.69
330.658	517.69
330.887	507.69
331.115	501.69
331.344	476.69
331.572	479.69
331.801	478.69
332.03	476.69
332.258	452.69
332.486	436.69
332.715	444.69
332.943	444.69
333.172	472.69
333.4	469.69
333.629	461.69
333.857	465.69
334.085	483.69
334.314	489.69
334.542	508.69
334.771	523.69
334.999	467.69
335.227	464.69
335.455	460.69
335.684	471.69
335.912	429.69
336.14	454.69
336.369	475.69
336.597	412.69
336.825	439.69
337.053	455.69
337.281	453.69
337.51	442.69
337.738	461.69
337.966	426.69
338.194	431.69
338.422	435.69
338.65	434.69
338.878	435.69
339.106	426.69
339.334	435.69
339.562	421.69
339.79	432.69
340.018	421.69
340.246	416.69
340.474	402.69
340.702	420.69
340.93	444.69
341.158	417.69
341.386	403.69
341.614	411.69
341.842	415.69
342.07	413.69
342.298	404.69
342.526	407.69
342.754	401.69
342.981	419.69
343.209	406.69
343.437	423.69
343.665	418.69
343.893	441.69
344.12	445.69
344.348	441.69
344.576	422.69
344.804	425.69
345.031	426.69
345.259	427.69
345.487	424.69
345.714	410.69
345.942	424.69
346.17	391.69
346.397	412.69
346.625	407.69
346.853	395.69
347.08	386.69
347.308	404.69
347.535	380.69
347.763	410.69
347.99	410.69
348.218	413.69
348.445	379.69
348.673	384.69
348.9	393.69
349.128	407.69
349.355	375.69
349.583	408.69
349.81	392.69
350.037	385.69
350.265	397.69
350.492	401.69
350.72	405.69
350.947	395.69
351.174	403.69
351.402	407.69
351.629	411.69
351.856	385.69
352.083	397.69
352.311	414.69
352.538	395.69
352.765	395.69
352.992	404.69
353.22	389.69
353.447	393.69
353.674	370.69
353.901	377.69
354.128	387.69
354.355	373.69
354.583	390.69
354.81	378.69
355.037	372.69
355.264	383.69
355.491	377.69
355.718	369.69
355.945	384.69
356.172	380.69
356.399	376.69
356.626	355.69
356.853	385.69
357.08	375.69
357.307	377.69
357.534	352.69
357.761	383.69
357.988	388.69
358.215	380.69
358.441	371.69
358.668	377.69
358.895	380.69
359.122	379.69
359.349	381.69
359.576	376.69
359.802	396.69
360.029	420.69
360.256	425.69
360.483	392.69
360.709	386.69
360.936	398.69
361.163	389.69
361.39	398.69
361.616	403.69
361.843	403.69
362.07	383.69
362.296	391.69
362.523	384.69
362.749	403.69
362.976	362.69
363.203	382.69
363.429	381.69
363.656	377.69
363.882	378.69
364.109	374.69
364.335	379.69
364.562	381.69
364.788	355.69
365.015	377.69
365.241	373.69
365.468	377.69
365.694	382.69
365.92	373.69
366.147	396.69
366.373	368.69
366.599	377.69
366.826	390.69
367.052	379.69
367.278	386.69
367.505	357.69
367.731	393.69
367.957	391.69
368.184	389.69
368.41	391.69
368.636	374.69
368.862	392.69
369.089	380.69
369.315	388.69
369.541	386.69
369.767	375.69
369.993	362.69
370.219	371.69
370.445	379.69
370.672	388.69
370.898	390.69
371.124	365.69
371.35	388.69
371.576	379.69
371.802	374.69
372.028	383.69
372.254	395.69
372.48	399.69
372.706	360.69
372.932	384.69
373.158	372.69
373.384	389.69
373.61	388.69
373.835	384.69
374.061	384.69
374.287	405.69
374.513	389.69
374.739	398.69
374.965	402.69
375.191	392.69
375.416	394.69
375.642	409.69
375.868	387.69
376.094	398.69
376.319	380.69
376.545	373.69
376.771	384.69
376.997	375.69
377.222	370.69
377.448	385.69
377.674	360.69
377.899	378.69
378.125	360.69
378.35	376.69
378.576	375.69
378.802	359.69
379.027	361.69
379.253	359.69
379.478	371.69
379.704	381.69
379.929	389.69
380.155	377.69
380.38	379.69
380.606	376.69
380.831	364.69
381.057	381.69
381.282	398.69
381.507	376.69
381.733	373.69
381.958	380.69
382.184	392.69
382.409	382.69
382.634	403.69
382.86	378.69
383.085	386.69
383.31	383.69
383.535	400.69
383.761	396.69
383.986	416.69
384.211	394.69
384.436	403.69
384.662	405.69
384.887	400.69
385.112	423.69
385.337	435.69
385.562	394.69
385.787	425.69
386.013	407.69
386.238	419.69
386.463	425.69
386.688	403.69
386.913	393.69
387.138	397.69
387.363	409.69
387.588	408.69
387.813	419.69
388.038	398.69
388.263	421.69
388.488	403.69
388.713	410.69
388.938	402.69
389.163	427.69
389.387	394.69
389.612	398.69
389.837	398.69
390.062	410.69
390.287	414.69
390.512	403.69
390.736	413.69
390.961	440.69
391.186	427.69
391.411	426.69
391.636	433.69
391.86	427.69
392.085	445.69
392.31	445.69
392.534	425.69
392.759	445.69
392.984	427.69
393.208	406.69
393.433	395.69
393.658	409.69
393.882	440.69
394.107	415.69
394.331	429.69
394.556	412.69
394.78	410.69
395.005	416.69
395.229	405.69
395.454	427.69
395.678	423.69
395.903	427.69
396.127	439.69
396.352	438.69
396.576	444.69
396.801	428.69
397.025	440.69
397.249	438.69
397.474	434.69
397.698	451.69
397.922	433.69
398.147	459.69
398.371	455.69
398.595	469.69
398.82	473.69
399.044	494.69
399.268	494.69
399.492	540.69
399.717	564.69
399.941	600.69
400.165	580.69
400.389	584.69
400.613	540.69
400.837	503.69
401.062	491.69
401.286	479.69
401.51	473.69
401.734	464.69
401.958	465.69
402.182	473.69
402.406	471.69
402.63	485.69
402.854	474.69
403.078	481.69
403.302	477.69
403.526	484.69
403.75	479.69
403.974	497.69
404.198	476.69
404.422	494.69
404.645	495.69
404.869	504.69
405.093	514.69
405.317	523.69
405.541	585.69
405.765	517.69
405.988	521.69
406.212	508.69
406.436	511.69
406.66	525.69
406.883	514.69
407.107	524.69
407.331	572.69
407.555	628.69
407.778	630.69
408.002	573.69
408.226	535.69
408.449	540.69
408.673	531.69
408.896	559.69
409.12	585.69
409.344	570.69
409.567	505.69
409.791	511.69
410.014	481.69
410.238	488.69
410.461	485.69
410.685	461.69
410.908	500.69
411.132	533.69
411.355	522.69
411.578	533.69
411.802	515.69
412.025	486.69
412.249	511.69
412.472	481.69
412.695	502.69
412.919	519.69
413.142	490.69
413.365	476.69
413.589	476.69
413.812	456.69
414.035	464.69
414.258	469.69
414.482	448.69
414.705	450.69
414.928	460.69
415.151	450.69
415.374	471.69
415.597	428.69
415.821	439.69
416.044	443.69
416.267	440.69
416.49	443.69
416.713	442.69
416.936	450.69
417.159	439.69
417.382	447.69
417.605	449.69
417.828	475.69
418.051	453.69
418.274	465.69
418.497	453.69
418.72	446.69
418.943	433.69
419.166	463.69
419.389	486.69
419.611	487.69
419.834	465.69
420.057	461.69
420.28	482.69
420.503	458.69
420.726	448.69
420.948	486.69
421.171	532.69
421.394	531.69
421.617	479.69
421.839	450.69
422.062	449.69
422.285	465.69
422.507	513.69
422.73	578.69
422.953	540.69
423.175	516.69
423.398	473.69
423.621	469.69
423.843	471.69
424.066	492.69
424.288	470.69
424.511	509.69
424.733	539.69
424.956	620.69
425.178	581.69
425.401	589.69
425.623	586.69
425.846	520.69
426.068	457.69
426.291	482.69
426.513	480.69
426.735	513.69
426.958	533.69
427.18	576.69
427.402	682.69
427.625	717.69
427.847	618.69
428.069	554.69
428.292	509.69
428.514	487.69
428.736	475.69
428.958	453.69
429.181	454.69
429.403	451.69
429.625	445.69
429.847	462.69
430.069	526.69
430.292	541.69
430.514	447.69
430.736	444.69
430.958	424.69
431.18	417.69
431.402	417.69
431.624	403.69
431.846	415.69
432.068	424.69
432.29	425.69
432.512	411.69
432.734	421.69
432.956	427.69
433.178	447.69
433.4	439.69
433.622	434.69
433.844	456.69
434.066	444.69
434.287	439.69
434.509	441.69
434.731	456.69
434.953	450.69
435.175	454.69
435.397	476.69
435.618	495.69
435.84	512.69
436.062	575.69
436.284	617.69
436.505	531.69
436.727	471.69
436.949	469.69
437.17	450.69
437.392	443.69
437.614	449.69
437.835	490.69
438.057	542.69
438.278	620.69
438.5	591.69
438.721	693.69
438.943	646.69
439.165	523.69
439.386	469.69
439.608	463.69
439.829	482.69
440.05	508.69
440.272	500.69
440.493	481.69
440.715	458.69
440.936	463.69
441.158	454.69
441.379	433.69
441.6	453.69
441.822	482.69
442.043	501.69
442.264	566.69
442.486	588.69
442.707	515.69
442.928	479.69
443.149	496.69
443.371	521.69
443.592	521.69
443.813	604.69
444.034	656.69
444.255	559.69
444.476	488.69
444.698	514.69
444.919	521.69
445.14	602.69
445.361	532.69
445.582	526.69
445.803	532.69
446.024	597.69
446.245	612.69
446.466	564.69
446.687	510.69
446.908	471.69
447.129	440.69
447.35	438.69
447.571	450.69
447.792	437.69
448.013	427.69
448.234	431.69
448.455	490.69
448.675	579.69
448.896	656.69
449.117	553.69
449.338	533.69
449.559	611.69
449.779	674.69
450	550.69
450.221	472.69
450.442	451.69
450.662	433.69
450.883	408.69
451.104	450.69
451.324	417.69
451.545	424.69
451.766	404.69
451.986	390.69
452.207	383.69
452.428	393.69
452.648	395.69
452.869	393.69
453.089	400.69
453.31	396.69
453.53	391.69
453.751	397.69
453.971	388.69
454.192	400.69
454.412	403.69
454.633	397.69
454.853	385.69
455.073	403.69
455.294	398.69
455.514	459.69
455.734	420.69
455.955	406.69
456.175	384.69
456.395	403.69
456.616	385.69
456.836	383.69
457.056	367.69
457.276	367.69
457.497	380.69
457.717	356.69
457.937	377.69
458.157	363.69
458.377	398.69
458.598	387.69
458.818	435.69
459.038	493.69
459.258	494.69
459.478	448.69
459.698	443.69
459.918	438.69
460.138	437.69
460.358	443.69
460.578	437.69
460.798	444.69
461.018	434.69
461.238	447.69
461.458	448.69
461.678	427.69
461.898	433.69
462.118	425.69
462.338	451.69
462.558	467.69
462.777	461.69
462.997	479.69
463.217	508.69
463.437	503.69
463.657	475.69
463.876	479.69
464.096	476.69
464.316	471.69
464.536	496.69
464.755	477.69
464.975	477.69
465.195	488.69
465.414	513.69
465.634	465.69
465.854	429.69
466.073	417.69
466.293	428.69
466.512	438.69
466.732	404.69
466.951	408.69
467.171	403.69
467.391	396.69
467.61	412.69
467.829	440.69
468.049	403.69
468.268	412.69
468.488	391.69
468.707	409.69
468.927	407.69
469.146	387.69
469.365	412.69
469.585	431.69
469.804	411.69
470.023	417.69
470.243	401.69
470.462	412.69
470.681	412.69
470.901	423.69
471.12	420.69
471.339	421.69
471.558	417.69
471.777	415.69
471.997	410.69
472.216	409.69
472.435	412.69
472.654	403.69
472.873	386.69
473.092	395.69
473.311	405.69
473.53	407.69
473.749	426.69
473.968	439.69
474.187	511.69
474.406	527.69
474.625	437.69
474.844	427.69
475.063	419.69
475.282	409.69
475.501	409.69
475.72	419.69
475.939	418.69
476.158	419.69
476.377	412.69
476.596	427.69
476.814	425.69
477.033	431.69
477.252	400.69
477.471	456.69
477.69	435.69
477.908	443.69
478.127	458.69
478.346	425.69
478.564	454.69
478.783	456.69
479.002	469.69
479.22	474.69
479.439	474.69
479.658	488.69
479.876	493.69
480.095	487.69
480.313	507.69
480.532	505.69
480.751	501.69
480.969	497.69
481.188	525.69
481.406	549.69
481.624	502.69
481.843	473.69
482.061	465.69
482.28	480.69
482.498	468.69
482.717	469.69
482.935	492.69
483.153	483.69
483.372	464.69
483.59	466.69
483.808	484.69
484.027	466.69
484.245	460.69
484.463	480.69
484.681	497.69
484.9	473.69
485.118	481.69
485.336	486.69
485.554	472.69
485.772	488.69
485.99	477.69
486.209	484.69
486.427	488.69
486.645	513.69
486.863	502.69
487.081	480.69
487.299	497.69
487.517	518.69
487.735	492.69
487.953	501.69
488.171	495.69
488.389	488.69
488.607	508.69
488.825	503.69
489.043	492.69
489.261	515.69
489.479	511.69
489.696	523.69
489.914	521.69
490.132	536.69
490.35	513.69
490.568	516.69
490.786	531.69
491.003	514.69
491.221	523.69
491.439	511.69
491.657	546.69
491.874	550.69
492.092	552.69
492.31	529.69
492.527	530.69
492.745	538.69
492.963	557.69
493.18	554.69
493.398	567.69
493.615	580.69
493.833	553.69
494.05	572.69
494.268	577.69
494.485	557.69
494.703	560.69
494.92	559.69
495.138	555.69
495.355	594.69
495.573	585.69
495.79	573.69
496.008	584.69
496.225	575.69
496.442	579.69
496.66	588.69
496.877	578.69
497.094	584.69
497.312	630.69
497.529	600.69
497.746	604.69
497.963	631.69
498.181	644.69
498.398	664.69
498.615	649.69
498.832	700.69
499.049	696.69
499.267	711.69
499.484	739.69
499.701	778.69
499.918	818.69
500.135	868.69
500.352	902.69
500.569	939.69
500.786	915.69
501.003	925.69
501.22	885.69
501.437	843.69
501.654	808.69
501.871	778.69
502.088	739.69
502.305	714.69
502.522	692.69
502.739	660.69
502.956	632.69
503.172	635.69
503.389	629.69
503.606	595.69
503.823	611.69
504.04	629.69
504.256	588.69
504.473	599.69
504.69	613.69
504.907	597.69
505.123	611.69
505.34	567.69
505.557	572.69
505.773	561.69
505.99	548.69
506.207	536.69
506.423	547.69
506.64	529.69
506.856	524.69
507.073	542.69
507.289	529.69
507.506	535.69
507.722	544.69
507.939	556.69
508.155	516.69
508.372	525.69
508.588	498.69
508.805	503.69
509.021	499.69
509.238	539.69
509.454	514.69
509.67	516.69
509.887	536.69
510.103	502.69
510.319	492.69
510.536	561.69
510.752	805.69
510.968	665.69
511.184	512.69
511.401	501.69
511.617	491.69
511.833	488.69
512.049	503.69
512.265	442.69
512.481	472.69
512.698	486.69
512.914	496.69
513.13	466.69
513.346	483.69
513.562	484.69
513.778	482.69
513.994	476.69
514.21	499.69
514.426	491.69
514.642	498.69
514.858	533.69
515.074	585.69
515.29	624.69
515.506	822.69
515.721	676.69
515.937	540.69
516.153	525.69
516.369	500.69
516.585	503.69
516.801	508.69
517.016	504.69
517.232	522.69
517.448	523.69
517.664	534.69
517.879	524.69
518.095	529.69
518.311	524.69
518.527	518.69
518.742	493.69
518.958	517.69
519.173	491.69
519.389	482.69
519.605	493.69
519.82	482.69
520.036	499.69
520.251	517.69
520.467	523.69
520.682	522.69
520.898	493.69
521.113	532.69
521.329	529.69
521.544	569.69
521.76	637.69
521.975	967.69
522.19	917.69
522.406	604.69
522.621	514.69
522.836	463.69
523.052	464.69
523.267	453.69
523.482	441.69
523.698	449.69
523.913	468.69
524.128	438.69
524.343	424.69
524.559	435.69
524.774	430.69
524.989	432.69
525.204	459.69
525.419	433.69
525.634	411.69
525.849	431.69
526.064	422.69
526.28	419.69
526.495	419.69
526.71	412.69
526.925	415.69
527.14	413.69
527.355	422.69
527.57	427.69
527.785	420.69
527.999	407.69
528.214	410.69
528.429	423.69
528.644	404.69
528.859	390.69
529.074	418.69
529.289	440.69
529.503	456.69
529.718	419.69
529.933	439.69
530.148	421.69
530.363	416.69
530.577	400.69
530.792	395.69
531.007	387.69
531.221	406.69
531.436	393.69
531.651	406.69
531.865	400.69
532.08	417.69
532.295	389.69
532.509	409.69
532.724	429.69
532.938	376.69
533.153	405.69
533.367	381.69
533.582	396.69
533.796	421.69
534.011	395.69
534.225	392.69
534.44	393.69
534.654	397.69
534.868	399.69
535.083	404.69
535.297	383.69
535.511	393.69
535.726	406.69
535.94	399.69
536.154	378.69
536.369	375.69
536.583	386.69
536.797	369.69
537.011	374.69
537.225	365.69
537.44	377.69
537.654	381.69
537.868	393.69
538.082	381.69
538.296	379.69
538.51	391.69
538.724	378.69
538.938	391.69
539.153	371.69
539.367	383.69
539.581	377.69
539.795	371.69
540.009	377.69
540.222	371.69
540.436	370.69
540.65	379.69
540.864	380.69
541.078	378.69
541.292	394.69
541.506	388.69
541.72	379.69
541.934	370.69
542.147	374.69
542.361	384.69
542.575	346.69
542.789	377.69
543.002	375.69
543.216	371.69
543.43	383.69
543.644	394.69
543.857	361.69
544.071	375.69
544.285	383.69
544.498	373.69
544.712	373.69
544.925	386.69
545.139	382.69
545.352	373.69
545.566	373.69
545.779	386.69
545.993	364.69
546.206	375.69
546.42	405.69
546.633	388.69
546.847	362.69
547.06	380.69
547.274	383.69
547.487	362.69
547.7	358.69
547.914	360.69
548.127	348.69
548.34	377.69
548.554	369.69
548.767	344.69
548.98	351.69
549.193	379.69
549.407	368.69
549.62	385.69
549.833	373.69
550.046	366.69
550.259	353.69
550.473	369.69
550.686	358.69
550.899	379.69
551.112	373.69
551.325	363.69
551.538	353.69
551.751	367.69
551.964	369.69
552.177	353.69
552.39	365.69
552.603	370.69
552.816	376.69
553.029	361.69
553.242	351.69
553.455	384.69
553.667	407.69
553.88	373.69
554.093	336.69
554.306	369.69
554.519	360.69
554.732	336.69
554.944	371.69
555.157	351.69
555.37	353.69
555.583	340.69
555.795	337.69
556.008	332.69
556.221	360.69
556.433	325.69
556.646	348.69
556.859	332.69
557.071	345.69
557.284	333.69
557.496	341.69
557.709	345.69
557.921	324.69
558.134	324.69
558.346	312.69
558.559	331.69
558.771	326.69
558.984	326.69
559.196	336.69
559.409	312.69
559.621	320.69
559.833	339.69
560.046	326.69
560.258	329.69
560.47	334.69
560.683	326.69
560.895	317.69
561.107	326.69
561.32	346.69
561.532	326.69
561.744	317.69
561.956	331.69
562.168	329.69
562.381	323.69
562.593	315.69
562.805	322.69
563.017	316.69
563.229	318.69
563.441	323.69
563.653	362.69
563.865	326.69
564.077	334.69
564.289	333.69
564.501	326.69
564.713	340.69
564.925	350.69
565.137	351.69
565.349	359.69
565.561	367.69
565.773	389.69
565.985	359.69
566.197	381.69
566.408	379.69
566.62	403.69
566.832	417.69
567.044	419.69
567.255	429.69
567.467	435.69
567.679	478.69
567.891	450.69
568.102	452.69
568.314	426.69
568.526	410.69
568.737	408.69
568.949	389.69
569.161	375.69
569.372	371.69
569.584	355.69
569.795	343.69
570.007	339.69
570.218	360.69
570.43	349.69
570.641	326.69
570.853	338.69
571.064	323.69
571.276	326.69
571.487	322.69
571.698	319.69
571.91	313.69
572.121	319.69
572.333	296.69
572.544	291.69
572.755	275.69
572.966	282.69
573.178	275.69
573.389	290.69
573.6	284.69
573.811	269.69
574.023	294.69
574.234	288.69
574.445	302.69
574.656	293.69
574.867	295.69
575.078	281.69
575.289	290.69
575.501	274.69
575.712	280.69
575.923	280.69
576.134	286.69
576.345	267.69
576.556	281.69
576.767	281.69
576.978	276.69
577.188	260.69
577.399	260.69
577.61	270.69
577.821	283.69
578.032	256.69
578.243	281.69
578.454	387.69
578.665	325.69
578.875	279.69
579.086	258.69
579.297	246.69
579.508	285.69
579.718	267.69
579.929	277.69
580.14	277.69
580.35	259.69
580.561	269.69
580.772	264.69
580.982	260.69
581.193	243.69
581.403	249.69
581.614	260.69
581.825	269.69
582.035	259.69
582.246	255.69
582.456	257.69
582.667	269.69
582.877	255.69
583.087	255.69
583.298	243.69
583.508	253.69
583.719	256.69
583.929	251.69
584.139	252.69
584.35	242.69
584.56	249.69
584.77	260.69
584.981	241.69
585.191	234.69
585.401	269.69
585.611	264.69
585.821	253.69
586.032	243.69
586.242	255.69
586.452	240.69
586.662	256.69
586.872	250.69
587.082	241.69
587.292	260.69
587.502	248.69
587.713	251.69
587.923	248.69
588.133	247.69
588.343	266.69
588.553	253.69
588.762	254.69
588.972	257.69
589.182	257.69
589.392	248.69
589.602	238.69
589.812	244.69
590.022	255.69
590.232	251.69
590.441	236.69
590.651	265.69
590.861	237.69
591.071	252.69
591.281	244.69
591.49	254.69
591.7	253.69
591.91	253.69
592.119	260.69
592.329	278.69
592.539	278.69
592.748	266.69
592.958	260.69
593.167	280.69
593.377	269.69
593.587	272.69
593.796	274.69
594.006	279.69
594.215	270.69
594.424	279.69
594.634	276.69
594.843	275.69
595.053	272.69
595.262	260.69
595.472	267.69
595.681	255.69
595.89	239.69
596.1	248.69
596.309	236.69
596.518	259.69
596.727	256.69
596.937	239.69
597.146	223.69
597.355	237.69
597.564	221.69
597.774	231.69
597.983	229.69
598.192	221.69
598.401	231.69
598.61	224.69
598.819	218.69
599.028	204.69
599.237	227.69
599.446	219.69
599.655	222.69
599.864	239.69
600.073	223.69
600.282	211.69
600.491	227.69
600.7	225.69
600.909	216.69
601.118	208.69
601.327	224.69
601.536	214.69
601.745	205.69
601.953	229.69
602.162	214.69
602.371	219.69
602.58	223.69
602.789	211.69
602.997	206.69
603.206	218.69
603.415	210.69
603.623	222.69
603.832	215.69
604.041	208.69
604.249	225.69
604.458	212.69
604.666	201.69
604.875	212.69
605.084	207.69
605.292	204.69
605.501	208.69
605.709	211.69
605.918	200.69
606.126	209.69
606.334	188.69
606.543	206.69
606.751	198.69
606.96	199.69
607.168	205.69
607.376	220.69
607.585	216.69
607.793	207.69
608.001	213.69
608.21	207.69
608.418	185.69
608.626	204.69
608.834	202.69
609.043	192.69
609.251	202.69
609.459	211.69
609.667	199.69
609.875	195.69
610.083	195.69
610.291	210.69
610.499	206.69
610.707	204.69
610.916	209.69
611.124	218.69
611.332	181.69
611.54	212.69
611.748	208.69
611.955	195.69
612.163	216.69
612.371	208.69
612.579	208.69
612.787	196.69
612.995	204.69
613.203	217.69
613.411	203.69
613.618	189.69
613.826	208.69
614.034	214.69
614.242	189.69
614.449	194.69
614.657	189.69
614.865	199.69
615.072	202.69
615.28	202.69
615.488	210.69
615.695	190.69
615.903	196.69
616.111	212.69
616.318	200.69
616.526	188.69
616.733	218.69
616.941	203.69
617.148	195.69
617.356	186.69
617.563	186.69
617.771	197.69
617.978	194.69
618.185	200.69
618.393	179.69
618.6	188.69
618.807	197.69
619.015	192.69
619.222	193.69
619.429	192.69
619.637	209.69
619.844	196.69
620.051	218.69
620.258	187.69
620.466	186.69
620.673	205.69
620.88	193.69
621.087	192.69
621.294	185.69
621.501	189.69
621.708	184.69
621.915	191.69
622.122	203.69
622.329	203.69
622.536	190.69
622.743	183.69
622.95	192.69
623.157	177.69
623.364	175.69
623.571	193.69
623.778	187.69
623.985	190.69
624.192	184.69
624.399	175.69
624.606	188.69
624.812	189.69
625.019	171.69
625.226	177.69
625.433	191.69
625.639	188.69
625.846	168.69
626.053	177.69
626.259	180.69
626.466	189.69
626.673	170.69
626.879	167.69
627.086	163.69
627.293	168.69
627.499	176.69
627.706	172.69
627.912	170.69
628.119	169.69
628.325	179.69
628.532	173.69
628.738	172.69
628.945	192.69
629.151	155.69
629.357	167.69
629.564	170.69
629.77	175.69
629.976	187.69
630.183	193.69
630.389	181.69
630.595	197.69
630.802	177.69
631.008	167.69
631.214	172.69
631.42	163.69
631.627	161.69
631.833	159.69
632.039	159.69
632.245	160.69
632.451	149.69
632.657	180.69
632.863	181.69
633.069	180.69
633.275	171.69
633.481	168.69
633.688	159.69
633.893	165.69
634.099	163.69
634.305	165.69
634.511	176.69
634.717	159.69
634.923	159.69
635.129	166.69
635.335	159.69
635.541	180.69
635.747	162.69
635.952	159.69
636.158	169.69
636.364	165.69
636.57	151.69
636.775	152.69
636.981	158.69
637.187	159.69
637.392	153.69
637.598	157.69
637.804	155.69
638.009	149.69
638.215	160.69
638.421	161.69
638.626	170.69
638.832	147.69
639.037	144.69
639.243	171.69
639.448	164.69
639.654	167.69
639.859	157.69
640.065	151.69
640.27	161.69
640.475	153.69
640.681	152.69
640.886	151.69
641.091	151.69
641.297	146.69
641.502	141.69
641.707	153.69
641.913	156.69
642.118	149.69
642.323	140.69
642.528	151.69
642.733	140.69
642.939	160.69
643.144	144.69
643.349	141.69
643.554	152.69
643.759	133.69
643.964	139.69
644.169	141.69
644.374	162.69
644.579	149.69
644.784	151.69
644.989	149.69
645.194	131.69
645.399	138.69
645.604	157.69
645.809	150.69
646.014	153.69
646.219	136.69
646.423	133.69
646.628	159.69
646.833	144.69
647.038	139.69
647.243	136.69
647.447	139.69
647.652	160.69
647.857	158.69
648.062	155.69
648.266	145.69
648.471	165.69
648.676	135.69
648.88	147.69
649.085	144.69
649.289	144.69
649.494	141.69
649.698	153.69
649.903	152.69
650.107	156.69
650.312	155.69
650.516	147.69
650.721	155.69
650.925	141.69
651.13	144.69
651.334	115.69
651.539	138.69
651.743	129.69
651.947	143.69
652.152	142.69
652.356	116.69
652.56	125.69
652.764	131.69
652.969	129.69
653.173	134.69
653.377	139.69
653.581	131.69
653.785	126.69
653.99	119.69
654.194	117.69
654.398	137.69
654.602	123.69
654.806	127.69
655.01	131.69
655.214	129.69
655.418	114.69
655.622	111.69
655.826	120.69
656.03	125.69
656.234	143.69
656.438	133.69
656.642	125.69
656.846	148.69
657.049	134.69
657.253	116.69
657.457	106.69
657.661	123.69
657.865	115.69
658.068	117.69
658.272	108.69
658.476	112.69
658.68	92.69
658.883	91.69
659.087	100.69
659.291	101.69
659.494	83.69
659.698	95.69
659.901	98.69
660.105	82.69
660.309	84.69
660.512	99.69
660.716	91.69
660.919	89.69
661.123	96.69
661.326	98.69
661.53	93.69
661.733	81.69
661.936	82.69
662.14	81.69
662.343	76.69
662.546	80.69
662.75	85.69
662.953	79.69
663.156	82.69
663.36	86.69
663.563	98.69
663.766	83.69
663.969	79.69
664.173	80.69
664.376	87.69
664.579	84.69
664.782	84.69
664.985	78.69
665.188	77.69
665.391	69.69
665.594	81.69
665.797	83.69
666	86.69
666.203	82.69
666.406	74.69
666.609	88.69
666.812	82.69
667.015	75.69
667.218	85.69
667.421	72.69
667.624	92.69
667.827	81.69
668.03	89.69
668.232	76.69
668.435	71.69
668.638	79.69
668.841	78.69
669.043	77.69
669.246	88.69
669.449	95.69
669.651	90.69
669.854	79.69
670.057	78.69
670.259	85.69
670.462	83.69
670.665	89.69
670.867	90.69
671.07	77.69
671.272	78.69
671.475	65.69
671.677	84.69
671.88	81.69
672.082	86.69
672.284	77.69
672.487	84.69
672.689	84.69
672.892	87.69
