Data from 1977.PennyLincolnUp.Lamp.En5.5.200Scan.071719.P1_HRD10591_16-06-06-863.txt Node
Date: Thu Jul 18 16:06:06 EDT 2019
User: cochatt
Spectrometer: HR+D1059
Trigger mode: 1
Integration Time (sec): 1.000000E-1
Scans to average: 1
Electric dark correction enabled: true
Nonlinearity correction enabled: false
Boxcar width: 0
XAxis mode: Wavelengths
Number of Pixels in Spectrum: 2048
>>>>>Begin Spectral Data<<<<<
223.165	-4.94
223.4	-4.94
223.635	-4.94
223.869	-20.94
224.104	-13.94
224.338	-16.94
224.573	-23.94
224.808	-22.94
225.042	-15.94
225.277	12.06
225.511	6.06
225.746	-4.94
225.98	9.06
226.215	4.06
226.449	18.06
226.683	24.06
226.918	23.06
227.152	28.06
227.387	29.06
227.621	47.06
227.856	51.06
228.09	44.06
228.324	43.06
228.559	53.06
228.793	75.06
229.027	93.06
229.262	105.06
229.496	105.06
229.73	114.06
229.964	140.06
230.199	119.06
230.433	112.06
230.667	93.06
230.901	112.06
231.136	127.06
231.37	109.06
231.604	92.06
231.838	122.06
232.072	118.06
232.306	112.06
232.541	116.06
232.775	120.06
233.009	119.06
233.243	123.06
233.477	120.06
233.711	125.06
233.945	126.06
234.179	111.06
234.413	118.06
234.647	108.06
234.881	121.06
235.115	116.06
235.349	117.06
235.583	119.06
235.817	118.06
236.051	126.06
236.285	125.06
236.519	115.06
236.753	122.06
236.987	136.06
237.221	160.06
237.455	203.06
237.689	170.06
237.922	147.06
238.156	141.06
238.39	138.06
238.624	140.06
238.858	132.06
239.091	123.06
239.325	120.06
239.559	125.06
239.793	131.06
240.027	127.06
240.26	138.06
240.494	142.06
240.728	147.06
240.961	138.06
241.195	130.06
241.429	138.06
241.662	118.06
241.896	116.06
242.13	137.06
242.363	133.06
242.597	123.06
242.83	132.06
243.064	134.06
243.298	151.06
243.531	134.06
243.765	133.06
243.998	141.06
244.232	149.06
244.465	147.06
244.699	158.06
244.932	139.06
245.166	148.06
245.399	160.06
245.633	157.06
245.866	144.06
246.099	141.06
246.333	155.06
246.566	144.06
246.8	156.06
247.033	155.06
247.266	144.06
247.5	166.06
247.733	168.06
247.966	162.06
248.2	165.06
248.433	158.06
248.666	166.06
248.899	188.06
249.133	188.06
249.366	203.06
249.599	184.06
249.832	170.06
250.066	188.06
250.299	180.06
250.532	188.06
250.765	187.06
250.998	189.06
251.231	213.06
251.465	206.06
251.698	205.06
251.931	205.06
252.164	205.06
252.397	172.06
252.63	178.06
252.863	199.06
253.096	210.06
253.329	221.06
253.562	213.06
253.795	224.06
254.028	210.06
254.261	216.06
254.494	232.06
254.727	231.06
254.96	245.06
255.193	253.06
255.426	231.06
255.659	214.06
255.892	205.06
256.124	228.06
256.357	232.06
256.59	202.06
256.823	208.06
257.056	228.06
257.289	212.06
257.521	203.06
257.754	227.06
257.987	225.06
258.22	222.06
258.452	228.06
258.685	207.06
258.918	190.06
259.151	196.06
259.383	213.06
259.616	227.06
259.849	222.06
260.081	225.06
260.314	258.06
260.547	232.06
260.779	242.06
261.012	242.06
261.244	215.06
261.477	229.06
261.71	224.06
261.942	227.06
262.175	227.06
262.407	226.06
262.64	210.06
262.872	222.06
263.105	213.06
263.337	225.06
263.57	225.06
263.802	227.06
264.035	224.06
264.267	206.06
264.499	210.06
264.732	224.06
264.964	213.06
265.197	221.06
265.429	220.06
265.661	211.06
265.894	206.06
266.126	221.06
266.358	224.06
266.591	215.06
266.823	238.06
267.055	231.06
267.287	233.06
267.52	235.06
267.752	231.06
267.984	233.06
268.216	229.06
268.448	241.06
268.681	254.06
268.913	243.06
269.145	253.06
269.377	271.06
269.609	268.06
269.841	279.06
270.073	273.06
270.306	280.06
270.538	306.06
270.77	288.06
271.002	309.06
271.234	290.06
271.466	283.06
271.698	310.06
271.93	294.06
272.162	284.06
272.394	325.06
272.626	310.06
272.858	299.06
273.09	284.06
273.322	277.06
273.553	264.06
273.785	268.06
274.017	250.06
274.249	258.06
274.481	272.06
274.713	282.06
274.945	275.06
275.176	278.06
275.408	263.06
275.64	268.06
275.872	270.06
276.104	281.06
276.335	282.06
276.567	268.06
276.799	300.06
277.031	296.06
277.262	308.06
277.494	309.06
277.726	306.06
277.957	300.06
278.189	276.06
278.421	290.06
278.652	294.06
278.884	275.06
279.115	275.06
279.347	288.06
279.579	283.06
279.81	308.06
280.042	295.06
280.273	293.06
280.505	302.06
280.736	285.06
280.968	281.06
281.199	293.06
281.431	282.06
281.662	290.06
281.894	286.06
282.125	290.06
282.356	297.06
282.588	313.06
282.819	301.06
283.051	281.06
283.282	312.06
283.513	295.06
283.745	301.06
283.976	302.06
284.207	295.06
284.439	281.06
284.67	299.06
284.901	309.06
285.132	286.06
285.364	295.06
285.595	302.06
285.826	303.06
286.057	316.06
286.288	291.06
286.52	298.06
286.751	303.06
286.982	299.06
287.213	298.06
287.444	299.06
287.675	325.06
287.906	305.06
288.138	321.06
288.369	333.06
288.6	307.06
288.831	324.06
289.062	305.06
289.293	304.06
289.524	308.06
289.755	307.06
289.986	312.06
290.217	326.06
290.448	304.06
290.679	312.06
290.91	308.06
291.141	310.06
291.371	306.06
291.602	298.06
291.833	325.06
292.064	308.06
292.295	311.06
292.526	327.06
292.757	324.06
292.987	325.06
293.218	303.06
293.449	329.06
293.68	318.06
293.91	303.06
294.141	327.06
294.372	319.06
294.603	325.06
294.833	320.06
295.064	322.06
295.295	328.06
295.525	318.06
295.756	331.06
295.987	316.06
296.217	342.06
296.448	334.06
296.679	327.06
296.909	322.06
297.14	306.06
297.37	314.06
297.601	310.06
297.831	322.06
298.062	336.06
298.292	328.06
298.523	327.06
298.753	330.06
298.984	300.06
299.214	335.06
299.445	332.06
299.675	342.06
299.905	332.06
300.136	331.06
300.366	352.06
300.597	346.06
300.827	339.06
301.057	324.06
301.288	373.06
301.518	329.06
301.748	359.06
301.979	344.06
302.209	348.06
302.439	347.06
302.669	356.06
302.9	336.06
303.13	361.06
303.36	360.06
303.59	344.06
303.82	374.06
304.051	350.06
304.281	349.06
304.511	349.06
304.741	347.06
304.971	343.06
305.201	355.06
305.431	351.06
305.661	335.06
305.891	363.06
306.121	343.06
306.352	355.06
306.582	372.06
306.812	351.06
307.042	366.06
307.272	336.06
307.502	358.06
307.731	370.06
307.961	347.06
308.191	359.06
308.421	349.06
308.651	360.06
308.881	354.06
309.111	373.06
309.341	362.06
309.571	359.06
309.8	364.06
310.03	391.06
310.26	382.06
310.49	395.06
310.72	394.06
310.949	397.06
311.179	403.06
311.409	388.06
311.639	403.06
311.868	381.06
312.098	395.06
312.328	384.06
312.557	410.06
312.787	387.06
313.017	411.06
313.246	395.06
313.476	396.06
313.706	389.06
313.935	394.06
314.165	396.06
314.394	425.06
314.624	399.06
314.853	380.06
315.083	382.06
315.312	396.06
315.542	386.06
315.771	384.06
316.001	393.06
316.23	388.06
316.46	387.06
316.689	382.06
316.919	395.06
317.148	404.06
317.377	395.06
317.607	388.06
317.836	413.06
318.065	404.06
318.295	397.06
318.524	399.06
318.753	391.06
318.983	404.06
319.212	392.06
319.441	396.06
319.67	407.06
319.9	407.06
320.129	392.06
320.358	411.06
320.587	418.06
320.816	419.06
321.046	420.06
321.275	395.06
321.504	422.06
321.733	419.06
321.962	415.06
322.191	418.06
322.42	422.06
322.649	434.06
322.878	428.06
323.108	458.06
323.337	454.06
323.566	485.06
323.795	493.06
324.024	545.06
324.253	587.06
324.482	824.06
324.71	1205.06
324.939	1643.06
325.168	1424.06
325.397	769.06
325.626	574.06
325.855	532.06
326.084	501.06
326.313	478.06
326.542	473.06
326.77	526.06
326.999	584.06
327.228	774.06
327.457	1095.06
327.686	1248.06
327.914	867.06
328.143	635.06
328.372	554.06
328.6	553.06
328.829	506.06
329.058	513.06
329.287	532.06
329.515	512.06
329.744	475.06
329.972	476.06
330.201	487.06
330.43	520.06
330.658	541.06
330.887	564.06
331.115	506.06
331.344	486.06
331.572	483.06
331.801	472.06
332.03	480.06
332.258	480.06
332.486	448.06
332.715	466.06
332.943	468.06
333.172	455.06
333.4	490.06
333.629	512.06
333.857	510.06
334.085	504.06
334.314	530.06
334.542	516.06
334.771	507.06
334.999	515.06
335.227	481.06
335.455	489.06
335.684	470.06
335.912	462.06
336.14	481.06
336.369	455.06
336.597	471.06
336.825	486.06
337.053	465.06
337.281	458.06
337.51	447.06
337.738	461.06
337.966	460.06
338.194	469.06
338.422	446.06
338.65	464.06
338.878	459.06
339.106	471.06
339.334	467.06
339.562	433.06
339.79	418.06
340.018	453.06
340.246	444.06
340.474	428.06
340.702	424.06
340.93	447.06
341.158	440.06
341.386	455.06
341.614	429.06
341.842	424.06
342.07	426.06
342.298	440.06
342.526	412.06
342.754	406.06
342.981	430.06
343.209	447.06
343.437	434.06
343.665	455.06
343.893	465.06
344.12	462.06
344.348	473.06
344.576	472.06
344.804	450.06
345.031	436.06
345.259	446.06
345.487	448.06
345.714	435.06
345.942	431.06
346.17	423.06
346.397	414.06
346.625	431.06
346.853	423.06
347.08	403.06
347.308	426.06
347.535	436.06
347.763	427.06
347.99	430.06
348.218	417.06
348.445	434.06
348.673	419.06
348.9	407.06
349.128	414.06
349.355	413.06
349.583	416.06
349.81	406.06
350.037	398.06
350.265	406.06
350.492	416.06
350.72	398.06
350.947	400.06
351.174	410.06
351.402	417.06
351.629	422.06
351.856	393.06
352.083	404.06
352.311	420.06
352.538	431.06
352.765	421.06
352.992	421.06
353.22	407.06
353.447	408.06
353.674	419.06
353.901	420.06
354.128	384.06
354.355	408.06
354.583	401.06
354.81	390.06
355.037	389.06
355.264	386.06
355.491	379.06
355.718	379.06
355.945	378.06
356.172	397.06
356.399	394.06
356.626	393.06
356.853	381.06
357.08	407.06
357.307	379.06
357.534	400.06
357.761	399.06
357.988	385.06
358.215	387.06
358.441	392.06
358.668	394.06
358.895	382.06
359.122	388.06
359.349	408.06
359.576	419.06
359.802	406.06
360.029	431.06
360.256	431.06
360.483	414.06
360.709	401.06
360.936	411.06
361.163	407.06
361.39	403.06
361.616	422.06
361.843	407.06
362.07	421.06
362.296	415.06
362.523	397.06
362.749	411.06
362.976	406.06
363.203	390.06
363.429	404.06
363.656	387.06
363.882	386.06
364.109	405.06
364.335	395.06
364.562	398.06
364.788	365.06
365.015	402.06
365.241	396.06
365.468	391.06
365.694	388.06
365.92	384.06
366.147	399.06
366.373	380.06
366.599	386.06
366.826	400.06
367.052	380.06
367.278	367.06
367.505	396.06
367.731	383.06
367.957	403.06
368.184	392.06
368.41	422.06
368.636	404.06
368.862	408.06
369.089	384.06
369.315	387.06
369.541	396.06
369.767	387.06
369.993	386.06
370.219	398.06
370.445	402.06
370.672	386.06
370.898	382.06
371.124	413.06
371.35	398.06
371.576	397.06
371.802	390.06
372.028	387.06
372.254	404.06
372.48	415.06
372.706	400.06
372.932	394.06
373.158	395.06
373.384	399.06
373.61	387.06
373.835	406.06
374.061	373.06
374.287	391.06
374.513	409.06
374.739	388.06
374.965	410.06
375.191	404.06
375.416	407.06
375.642	400.06
375.868	398.06
376.094	389.06
376.319	391.06
376.545	406.06
376.771	388.06
376.997	385.06
377.222	375.06
377.448	399.06
377.674	379.06
377.899	389.06
378.125	376.06
378.35	394.06
378.576	396.06
378.802	407.06
379.027	392.06
379.253	377.06
379.478	386.06
379.704	368.06
379.929	370.06
380.155	400.06
380.38	393.06
380.606	398.06
380.831	408.06
381.057	384.06
381.282	377.06
381.507	384.06
381.733	394.06
381.958	381.06
382.184	402.06
382.409	378.06
382.634	410.06
382.86	388.06
383.085	395.06
383.31	414.06
383.535	397.06
383.761	402.06
383.986	406.06
384.211	399.06
384.436	412.06
384.662	407.06
384.887	419.06
385.112	429.06
385.337	444.06
385.562	422.06
385.787	427.06
386.013	441.06
386.238	439.06
386.463	412.06
386.688	436.06
386.913	421.06
387.138	427.06
387.363	415.06
387.588	431.06
387.813	423.06
388.038	429.06
388.263	407.06
388.488	412.06
388.713	445.06
388.938	435.06
389.163	415.06
389.387	428.06
389.612	446.06
389.837	412.06
390.062	429.06
390.287	431.06
390.512	417.06
390.736	442.06
390.961	431.06
391.186	428.06
391.411	427.06
391.636	418.06
391.86	439.06
392.085	444.06
392.31	453.06
392.534	415.06
392.759	436.06
392.984	438.06
393.208	437.06
393.433	430.06
393.658	439.06
393.882	430.06
394.107	433.06
394.331	422.06
394.556	438.06
394.78	468.06
395.005	457.06
395.229	440.06
395.454	442.06
395.678	443.06
395.903	461.06
396.127	482.06
396.352	453.06
396.576	438.06
396.801	444.06
397.025	476.06
397.249	451.06
397.474	449.06
397.698	480.06
397.922	483.06
398.147	475.06
398.371	466.06
398.595	476.06
398.82	478.06
399.044	505.06
399.268	508.06
399.492	562.06
399.717	596.06
399.941	597.06
400.165	604.06
400.389	606.06
400.613	542.06
400.837	504.06
401.062	512.06
401.286	499.06
401.51	485.06
401.734	489.06
401.958	490.06
402.182	502.06
402.406	489.06
402.63	507.06
402.854	485.06
403.078	491.06
403.302	495.06
403.526	519.06
403.75	499.06
403.974	509.06
404.198	504.06
404.422	511.06
404.645	523.06
404.869	501.06
405.093	531.06
405.317	568.06
405.541	572.06
405.765	556.06
405.988	538.06
406.212	523.06
406.436	532.06
406.66	542.06
406.883	555.06
407.107	558.06
407.331	598.06
407.555	648.06
407.778	664.06
408.002	578.06
408.226	574.06
408.449	557.06
408.673	532.06
408.896	565.06
409.12	599.06
409.344	575.06
409.567	523.06
409.791	518.06
410.014	502.06
410.238	492.06
410.461	510.06
410.685	524.06
410.908	535.06
411.132	544.06
411.355	546.06
411.578	542.06
411.802	511.06
412.025	503.06
412.249	493.06
412.472	548.06
412.695	532.06
412.919	536.06
413.142	504.06
413.365	482.06
413.589	503.06
413.812	485.06
414.035	470.06
414.258	476.06
414.482	482.06
414.705	469.06
414.928	475.06
415.151	488.06
415.374	476.06
415.597	449.06
415.821	472.06
416.044	464.06
416.267	476.06
416.49	482.06
416.713	436.06
416.936	476.06
417.159	447.06
417.382	471.06
417.605	470.06
417.828	479.06
418.051	504.06
418.274	500.06
418.497	471.06
418.72	470.06
418.943	481.06
419.166	495.06
419.389	515.06
419.611	514.06
419.834	508.06
420.057	490.06
420.28	495.06
420.503	489.06
420.726	503.06
420.948	507.06
421.171	521.06
421.394	575.06
421.617	488.06
421.839	492.06
422.062	487.06
422.285	490.06
422.507	548.06
422.73	604.06
422.953	581.06
423.175	536.06
423.398	533.06
423.621	512.06
423.843	531.06
424.066	520.06
424.288	523.06
424.511	512.06
424.733	588.06
424.956	614.06
425.178	612.06
425.401	589.06
425.623	637.06
425.846	530.06
426.068	493.06
426.291	504.06
426.513	497.06
426.735	516.06
426.958	542.06
427.18	633.06
427.402	702.06
427.625	762.06
427.847	665.06
428.069	581.06
428.292	527.06
428.514	475.06
428.736	491.06
428.958	494.06
429.181	474.06
429.403	475.06
429.625	474.06
429.847	512.06
430.069	559.06
430.292	534.06
430.514	472.06
430.736	477.06
430.958	472.06
431.18	461.06
431.402	449.06
431.624	426.06
431.846	451.06
432.068	448.06
432.29	439.06
432.512	444.06
432.734	438.06
432.956	434.06
433.178	468.06
433.4	458.06
433.622	457.06
433.844	435.06
434.066	437.06
434.287	460.06
434.509	446.06
434.731	484.06
434.953	471.06
435.175	468.06
435.397	491.06
435.618	501.06
435.84	524.06
436.062	602.06
436.284	679.06
436.505	553.06
436.727	515.06
436.949	474.06
437.17	475.06
437.392	465.06
437.614	478.06
437.835	491.06
438.057	564.06
438.278	655.06
438.5	666.06
438.721	713.06
438.943	695.06
439.165	551.06
439.386	523.06
439.608	516.06
439.829	505.06
440.05	511.06
440.272	551.06
440.493	522.06
440.715	496.06
440.936	483.06
441.158	477.06
441.379	470.06
441.6	493.06
441.822	483.06
442.043	526.06
442.264	603.06
442.486	660.06
442.707	540.06
442.928	511.06
443.149	503.06
443.371	536.06
443.592	540.06
443.813	658.06
444.034	700.06
444.255	594.06
444.476	524.06
444.698	526.06
444.919	495.06
445.14	644.06
445.361	584.06
445.582	546.06
445.803	580.06
446.024	657.06
446.245	650.06
446.466	592.06
446.687	518.06
446.908	483.06
447.129	474.06
447.35	465.06
447.571	458.06
447.792	452.06
448.013	458.06
448.234	453.06
448.455	510.06
448.675	592.06
448.896	695.06
449.117	564.06
449.338	570.06
449.559	658.06
449.779	732.06
450	605.06
450.221	492.06
450.442	455.06
450.662	458.06
450.883	448.06
451.104	452.06
451.324	461.06
451.545	437.06
451.766	416.06
451.986	412.06
452.207	423.06
452.428	391.06
452.648	397.06
452.869	406.06
453.089	433.06
453.31	428.06
453.53	392.06
453.751	396.06
453.971	412.06
454.192	414.06
454.412	405.06
454.633	402.06
454.853	412.06
455.073	407.06
455.294	434.06
455.514	458.06
455.734	460.06
455.955	411.06
456.175	394.06
456.395	379.06
456.616	371.06
456.836	379.06
457.056	397.06
457.276	375.06
457.497	392.06
457.717	398.06
457.937	394.06
458.157	406.06
458.377	397.06
458.598	431.06
458.818	489.06
459.038	511.06
459.258	525.06
459.478	472.06
459.698	458.06
459.918	451.06
460.138	433.06
460.358	455.06
460.578	455.06
460.798	458.06
461.018	474.06
461.238	463.06
461.458	452.06
461.678	457.06
461.898	464.06
462.118	459.06
462.338	476.06
462.558	460.06
462.777	465.06
462.997	493.06
463.217	533.06
463.437	539.06
463.657	503.06
463.876	490.06
464.096	516.06
464.316	504.06
464.536	499.06
464.755	487.06
464.975	475.06
465.195	509.06
465.414	548.06
465.634	488.06
465.854	477.06
466.073	452.06
466.293	446.06
466.512	442.06
466.732	433.06
466.951	425.06
467.171	429.06
467.391	439.06
467.61	427.06
467.829	423.06
468.049	422.06
468.268	416.06
468.488	416.06
468.707	400.06
468.927	425.06
469.146	410.06
469.365	435.06
469.585	420.06
469.804	431.06
470.023	428.06
470.243	434.06
470.462	422.06
470.681	436.06
470.901	434.06
471.12	427.06
471.339	424.06
471.558	440.06
471.777	421.06
471.997	433.06
472.216	440.06
472.435	436.06
472.654	432.06
472.873	445.06
473.092	409.06
473.311	417.06
473.53	434.06
473.749	426.06
473.968	476.06
474.187	516.06
474.406	536.06
474.625	458.06
474.844	434.06
475.063	404.06
475.282	419.06
475.501	419.06
475.72	427.06
475.939	439.06
476.158	434.06
476.377	439.06
476.596	438.06
476.814	435.06
477.033	422.06
477.252	434.06
477.471	436.06
477.69	459.06
477.908	446.06
478.127	468.06
478.346	471.06
478.564	472.06
478.783	477.06
479.002	483.06
479.22	501.06
479.439	503.06
479.658	521.06
479.876	494.06
480.095	513.06
480.313	543.06
480.532	543.06
480.751	514.06
480.969	522.06
481.188	549.06
481.406	559.06
481.624	536.06
481.843	490.06
482.061	496.06
482.28	494.06
482.498	480.06
482.717	498.06
482.935	471.06
483.153	496.06
483.372	478.06
483.59	492.06
483.808	482.06
484.027	478.06
484.245	499.06
484.463	516.06
484.681	512.06
484.9	468.06
485.118	502.06
485.336	502.06
485.554	506.06
485.772	507.06
485.99	504.06
486.209	490.06
486.427	520.06
486.645	530.06
486.863	517.06
487.081	506.06
487.299	502.06
487.517	507.06
487.735	514.06
487.953	517.06
488.171	512.06
488.389	533.06
488.607	500.06
488.825	489.06
489.043	530.06
489.261	501.06
489.479	529.06
489.696	516.06
489.914	535.06
490.132	531.06
490.35	535.06
490.568	545.06
490.786	519.06
491.003	556.06
491.221	546.06
491.439	578.06
491.657	563.06
491.874	593.06
492.092	586.06
492.31	569.06
492.527	582.06
492.745	583.06
492.963	587.06
493.18	595.06
493.398	576.06
493.615	614.06
493.833	607.06
494.05	584.06
494.268	598.06
494.485	586.06
494.703	626.06
494.92	586.06
495.138	594.06
495.355	607.06
495.573	605.06
495.79	601.06
496.008	597.06
496.225	613.06
496.442	602.06
496.66	616.06
496.877	592.06
497.094	629.06
497.312	616.06
497.529	644.06
497.746	647.06
497.963	662.06
498.181	690.06
498.398	678.06
498.615	695.06
498.832	712.06
499.049	727.06
499.267	723.06
499.484	769.06
499.701	806.06
499.918	838.06
500.135	898.06
500.352	954.06
500.569	967.06
500.786	974.06
501.003	924.06
501.22	893.06
501.437	851.06
501.654	819.06
501.871	827.06
502.088	765.06
502.305	749.06
502.522	717.06
502.739	723.06
502.956	686.06
503.172	660.06
503.389	622.06
503.606	630.06
503.823	659.06
504.04	636.06
504.256	613.06
504.473	624.06
504.69	635.06
504.907	620.06
505.123	627.06
505.34	600.06
505.557	585.06
505.773	590.06
505.99	569.06
506.207	590.06
506.423	578.06
506.64	598.06
506.856	568.06
507.073	565.06
507.289	569.06
507.506	558.06
507.722	550.06
507.939	563.06
508.155	567.06
508.372	550.06
508.588	528.06
508.805	526.06
509.021	531.06
509.238	529.06
509.454	567.06
509.67	551.06
509.887	533.06
510.103	535.06
510.319	518.06
510.536	588.06
510.752	877.06
510.968	723.06
511.184	536.06
511.401	520.06
511.617	493.06
511.833	509.06
512.049	489.06
512.265	504.06
512.481	498.06
512.698	505.06
512.914	500.06
513.13	503.06
513.346	498.06
513.562	518.06
513.778	498.06
513.994	499.06
514.21	498.06
514.426	512.06
514.642	554.06
514.858	553.06
515.074	589.06
515.29	672.06
515.506	855.06
515.721	749.06
515.937	576.06
516.153	550.06
516.369	523.06
516.585	533.06
516.801	557.06
517.016	534.06
517.232	550.06
517.448	533.06
517.664	550.06
517.879	548.06
518.095	544.06
518.311	538.06
518.527	555.06
518.742	527.06
518.958	520.06
519.173	520.06
519.389	530.06
519.605	520.06
519.82	500.06
520.036	525.06
520.251	512.06
520.467	538.06
520.682	531.06
520.898	514.06
521.113	570.06
521.329	567.06
521.544	610.06
521.76	719.06
521.975	1067.06
522.19	1007.06
522.406	647.06
522.621	548.06
522.836	491.06
523.052	492.06
523.267	503.06
523.482	486.06
523.698	457.06
523.913	463.06
524.128	458.06
524.343	440.06
524.559	462.06
524.774	432.06
524.989	452.06
525.204	443.06
525.419	438.06
525.634	432.06
525.849	438.06
526.064	458.06
526.28	434.06
526.495	418.06
526.71	421.06
526.925	442.06
527.14	438.06
527.355	426.06
527.57	416.06
527.785	429.06
527.999	418.06
528.214	425.06
528.429	427.06
528.644	432.06
528.859	426.06
529.074	428.06
529.289	435.06
529.503	482.06
529.718	469.06
529.933	451.06
530.148	446.06
530.363	440.06
530.577	434.06
530.792	420.06
531.007	408.06
531.221	416.06
531.436	426.06
531.651	438.06
531.865	451.06
532.08	424.06
532.295	406.06
532.509	395.06
532.724	408.06
532.938	420.06
533.153	411.06
533.367	407.06
533.582	407.06
533.796	386.06
534.011	396.06
534.225	414.06
534.44	409.06
534.654	400.06
534.868	407.06
535.083	406.06
535.297	412.06
535.511	406.06
535.726	399.06
535.94	415.06
536.154	403.06
536.369	402.06
536.583	389.06
536.797	358.06
537.011	397.06
537.225	412.06
537.44	400.06
537.654	402.06
537.868	388.06
538.082	383.06
538.296	396.06
538.51	395.06
538.724	379.06
538.938	394.06
539.153	404.06
539.367	390.06
539.581	386.06
539.795	398.06
540.009	385.06
540.222	393.06
540.436	392.06
540.65	401.06
540.864	409.06
541.078	405.06
541.292	399.06
541.506	379.06
541.72	400.06
541.934	369.06
542.147	397.06
542.361	389.06
542.575	379.06
542.789	365.06
543.002	374.06
543.216	406.06
543.43	382.06
543.644	380.06
543.857	372.06
544.071	368.06
544.285	383.06
544.498	396.06
544.712	388.06
544.925	373.06
545.139	386.06
545.352	377.06
545.566	394.06
545.779	383.06
545.993	393.06
546.206	381.06
546.42	374.06
546.633	390.06
546.847	378.06
547.06	370.06
547.274	384.06
547.487	372.06
547.7	365.06
547.914	380.06
548.127	378.06
548.34	380.06
548.554	381.06
548.767	378.06
548.98	383.06
549.193	378.06
549.407	383.06
549.62	398.06
549.833	376.06
550.046	390.06
550.259	401.06
550.473	364.06
550.686	384.06
550.899	364.06
551.112	376.06
551.325	379.06
551.538	383.06
551.751	382.06
551.964	388.06
552.177	376.06
552.39	353.06
552.603	378.06
552.816	392.06
553.029	386.06
553.242	388.06
553.455	412.06
553.667	400.06
553.88	394.06
554.093	403.06
554.306	399.06
554.519	393.06
554.732	391.06
554.944	367.06
555.157	367.06
555.37	379.06
555.583	366.06
555.795	378.06
556.008	361.06
556.221	358.06
556.433	344.06
556.646	346.06
556.859	349.06
557.071	330.06
557.284	345.06
557.496	338.06
557.709	346.06
557.921	350.06
558.134	341.06
558.346	340.06
558.559	337.06
558.771	336.06
558.984	350.06
559.196	344.06
559.409	328.06
559.621	311.06
559.833	314.06
560.046	314.06
560.258	328.06
560.47	332.06
560.683	331.06
560.895	333.06
561.107	323.06
561.32	324.06
561.532	328.06
561.744	346.06
561.956	348.06
562.168	332.06
562.381	347.06
562.593	330.06
562.805	347.06
563.017	347.06
563.229	346.06
563.441	346.06
563.653	359.06
563.865	367.06
564.077	335.06
564.289	343.06
564.501	344.06
564.713	352.06
564.925	357.06
565.137	365.06
565.349	367.06
565.561	387.06
565.773	380.06
565.985	389.06
566.197	370.06
566.408	388.06
566.62	424.06
566.832	416.06
567.044	437.06
567.255	437.06
567.467	451.06
567.679	468.06
567.891	478.06
568.102	478.06
568.314	460.06
568.526	427.06
568.737	416.06
568.949	390.06
569.161	388.06
569.372	393.06
569.584	374.06
569.795	364.06
570.007	364.06
570.218	381.06
570.43	374.06
570.641	365.06
570.853	350.06
571.064	362.06
571.276	336.06
571.487	332.06
571.698	335.06
571.91	335.06
572.121	327.06
572.333	296.06
572.544	318.06
572.755	327.06
572.966	320.06
573.178	298.06
573.389	318.06
573.6	287.06
573.811	284.06
574.023	294.06
574.234	299.06
574.445	290.06
574.656	308.06
574.867	310.06
575.078	295.06
575.289	274.06
575.501	287.06
575.712	294.06
575.923	279.06
576.134	296.06
576.345	279.06
576.556	284.06
576.767	279.06
576.978	297.06
577.188	277.06
577.399	274.06
577.61	293.06
577.821	280.06
578.032	279.06
578.243	306.06
578.454	413.06
578.665	346.06
578.875	290.06
579.086	268.06
579.297	280.06
579.508	277.06
579.718	275.06
579.929	267.06
580.14	272.06
580.35	268.06
580.561	271.06
580.772	267.06
580.982	274.06
581.193	263.06
581.403	276.06
581.614	270.06
581.825	276.06
582.035	291.06
582.246	272.06
582.456	262.06
582.667	264.06
582.877	263.06
583.087	245.06
583.298	245.06
583.508	266.06
583.719	250.06
583.929	279.06
584.139	264.06
584.35	270.06
584.56	280.06
584.77	269.06
584.981	259.06
585.191	267.06
585.401	270.06
585.611	262.06
585.821	271.06
586.032	269.06
586.242	252.06
586.452	255.06
586.662	267.06
586.872	246.06
587.082	246.06
587.292	266.06
587.502	267.06
587.713	245.06
587.923	251.06
588.133	272.06
588.343	258.06
588.553	259.06
588.762	258.06
588.972	258.06
589.182	249.06
589.392	255.06
589.602	246.06
589.812	258.06
590.022	268.06
590.232	264.06
590.441	251.06
590.651	262.06
590.861	262.06
591.071	266.06
591.281	272.06
591.49	270.06
591.7	254.06
591.91	273.06
592.119	257.06
592.329	266.06
592.539	296.06
592.748	275.06
592.958	270.06
593.167	276.06
593.377	288.06
593.587	298.06
593.796	283.06
594.006	275.06
594.215	289.06
594.424	298.06
594.634	285.06
594.843	280.06
595.053	268.06
595.262	269.06
595.472	243.06
595.681	244.06
595.89	246.06
596.1	252.06
596.309	251.06
596.518	253.06
596.727	259.06
596.937	251.06
597.146	235.06
597.355	247.06
597.564	244.06
597.774	248.06
597.983	239.06
598.192	235.06
598.401	229.06
598.61	239.06
598.819	238.06
599.028	224.06
599.237	217.06
599.446	223.06
599.655	221.06
599.864	239.06
600.073	236.06
600.282	244.06
600.491	231.06
600.7	218.06
600.909	243.06
601.118	233.06
601.327	235.06
601.536	219.06
601.745	221.06
601.953	235.06
602.162	215.06
602.371	219.06
602.58	215.06
602.789	213.06
602.997	234.06
603.206	218.06
603.415	217.06
603.623	221.06
603.832	218.06
604.041	227.06
604.249	213.06
604.458	216.06
604.666	217.06
604.875	215.06
605.084	210.06
605.292	217.06
605.501	206.06
605.709	210.06
605.918	211.06
606.126	204.06
606.334	227.06
606.543	208.06
606.751	216.06
606.96	198.06
607.168	222.06
607.376	218.06
607.585	212.06
607.793	216.06
608.001	204.06
608.21	204.06
608.418	235.06
608.626	219.06
608.834	205.06
609.043	200.06
609.251	213.06
609.459	209.06
609.667	208.06
609.875	216.06
610.083	196.06
610.291	194.06
610.499	217.06
610.707	204.06
610.916	224.06
611.124	209.06
611.332	205.06
611.54	199.06
611.748	204.06
611.955	218.06
612.163	220.06
612.371	204.06
612.579	196.06
612.787	199.06
612.995	216.06
613.203	217.06
613.411	208.06
613.618	204.06
613.826	214.06
614.034	206.06
614.242	212.06
614.449	204.06
614.657	231.06
614.865	202.06
615.072	209.06
615.28	212.06
615.488	210.06
615.695	208.06
615.903	200.06
616.111	195.06
616.318	206.06
616.526	208.06
616.733	220.06
616.941	206.06
617.148	214.06
617.356	211.06
617.563	213.06
617.771	202.06
617.978	188.06
618.185	228.06
618.393	223.06
618.6	203.06
618.807	195.06
619.015	201.06
619.222	201.06
619.429	207.06
619.637	188.06
619.844	203.06
620.051	194.06
620.258	198.06
620.466	197.06
620.673	196.06
620.88	208.06
621.087	191.06
621.294	194.06
621.501	198.06
621.708	191.06
621.915	182.06
622.122	204.06
622.329	202.06
622.536	197.06
622.743	191.06
622.95	183.06
623.157	198.06
623.364	198.06
623.571	202.06
623.778	198.06
623.985	175.06
624.192	196.06
624.399	197.06
624.606	201.06
624.812	181.06
625.019	184.06
625.226	188.06
625.433	206.06
625.639	187.06
625.846	199.06
626.053	173.06
626.259	188.06
626.466	166.06
626.673	183.06
626.879	195.06
627.086	172.06
627.293	188.06
627.499	176.06
627.706	180.06
627.912	191.06
628.119	184.06
628.325	173.06
628.532	173.06
628.738	180.06
628.945	180.06
629.151	184.06
629.357	173.06
629.564	165.06
629.77	185.06
629.976	178.06
630.183	195.06
630.389	186.06
630.595	174.06
630.802	174.06
631.008	179.06
631.214	174.06
631.42	174.06
631.627	164.06
631.833	184.06
632.039	173.06
632.245	164.06
632.451	174.06
632.657	164.06
632.863	148.06
633.069	156.06
633.275	175.06
633.481	158.06
633.688	156.06
633.893	172.06
634.099	168.06
634.305	153.06
634.511	150.06
634.717	169.06
634.923	169.06
635.129	162.06
635.335	137.06
635.541	149.06
635.747	173.06
635.952	159.06
636.158	155.06
636.364	158.06
636.57	164.06
636.775	175.06
636.981	172.06
637.187	170.06
637.392	172.06
637.598	166.06
637.804	176.06
638.009	165.06
638.215	169.06
638.421	160.06
638.626	156.06
638.832	152.06
639.037	156.06
639.243	175.06
639.448	162.06
639.654	148.06
639.859	163.06
640.065	166.06
640.27	150.06
640.475	170.06
640.681	163.06
640.886	163.06
641.091	164.06
641.297	160.06
641.502	162.06
641.707	171.06
641.913	158.06
642.118	170.06
642.323	160.06
642.528	168.06
642.733	148.06
642.939	148.06
643.144	142.06
643.349	140.06
643.554	148.06
643.759	158.06
643.964	143.06
644.169	161.06
644.374	152.06
644.579	154.06
644.784	157.06
644.989	152.06
645.194	154.06
645.399	155.06
645.604	159.06
645.809	145.06
646.014	156.06
646.219	166.06
646.423	161.06
646.628	159.06
646.833	151.06
647.038	148.06
647.243	156.06
647.447	155.06
647.652	152.06
647.857	158.06
648.062	156.06
648.266	162.06
648.471	163.06
648.676	160.06
648.88	158.06
649.085	165.06
649.289	150.06
649.494	146.06
649.698	176.06
649.903	169.06
650.107	152.06
650.312	155.06
650.516	140.06
650.721	149.06
650.925	148.06
651.13	144.06
651.334	146.06
651.539	138.06
651.743	122.06
651.947	148.06
652.152	132.06
652.356	144.06
652.56	148.06
652.764	141.06
652.969	120.06
653.173	134.06
653.377	126.06
653.581	132.06
653.785	136.06
653.99	114.06
654.194	137.06
654.398	147.06
654.602	142.06
654.806	130.06
655.01	142.06
655.214	133.06
655.418	127.06
655.622	130.06
655.826	140.06
656.03	126.06
656.234	131.06
656.438	128.06
656.642	133.06
656.846	131.06
657.049	129.06
657.253	126.06
657.457	122.06
657.661	111.06
657.865	134.06
658.068	105.06
658.272	112.06
658.476	101.06
658.68	106.06
658.883	98.06
659.087	106.06
659.291	101.06
659.494	102.06
659.698	100.06
659.901	97.06
660.105	96.06
660.309	94.06
660.512	106.06
660.716	97.06
660.919	113.06
661.123	82.06
661.326	92.06
661.53	100.06
661.733	85.06
661.936	96.06
662.14	103.06
662.343	101.06
662.546	98.06
662.75	84.06
662.953	94.06
663.156	87.06
663.36	94.06
663.563	95.06
663.766	94.06
663.969	96.06
664.173	78.06
664.376	85.06
664.579	86.06
664.782	101.06
664.985	98.06
665.188	91.06
665.391	87.06
665.594	76.06
665.797	79.06
666	104.06
666.203	92.06
666.406	83.06
666.609	82.06
666.812	73.06
667.015	77.06
667.218	90.06
667.421	92.06
667.624	84.06
667.827	94.06
668.03	78.06
668.232	86.06
668.435	87.06
668.638	84.06
668.841	86.06
669.043	74.06
669.246	79.06
669.449	81.06
669.651	88.06
669.854	92.06
670.057	72.06
670.259	75.06
670.462	72.06
670.665	88.06
670.867	88.06
671.07	82.06
671.272	87.06
671.475	79.06
671.677	75.06
671.88	83.06
672.082	83.06
672.284	88.06
672.487	87.06
672.689	90.06
672.892	87.06
