Data from 1977.PennyLincolnUp.Lamp.En5.5.200Scan.071719.P1_HRD10591_16-08-04-865.txt Node
Date: Thu Jul 18 16:08:04 EDT 2019
User: cochatt
Spectrometer: HR+D1059
Trigger mode: 1
Integration Time (sec): 1.000000E-1
Scans to average: 1
Electric dark correction enabled: true
Nonlinearity correction enabled: false
Boxcar width: 0
XAxis mode: Wavelengths
Number of Pixels in Spectrum: 2048
>>>>>Begin Spectral Data<<<<<
223.165	-9.19
223.4	-9.19
223.635	-9.19
223.869	-20.19
224.104	-17.19
224.338	-32.19
224.573	-6.19
224.808	-25.19
225.042	-6.19
225.277	-8.19
225.511	-11.19
225.746	16.81
225.98	10.81
226.215	2.81
226.449	10.81
226.683	20.81
226.918	22.81
227.152	50.81
227.387	34.81
227.621	34.81
227.856	34.81
228.09	40.81
228.324	56.81
228.559	56.81
228.793	72.81
229.027	104.81
229.262	99.81
229.496	100.81
229.73	130.81
229.964	136.81
230.199	124.81
230.433	126.81
230.667	114.81
230.901	114.81
231.136	126.81
231.37	116.81
231.604	119.81
231.838	102.81
232.072	118.81
232.306	124.81
232.541	125.81
232.775	108.81
233.009	132.81
233.243	101.81
233.477	106.81
233.711	125.81
233.945	116.81
234.179	125.81
234.413	116.81
234.647	109.81
234.881	116.81
235.115	112.81
235.349	114.81
235.583	116.81
235.817	124.81
236.051	123.81
236.285	118.81
236.519	108.81
236.753	119.81
236.987	135.81
237.221	167.81
237.455	218.81
237.689	159.81
237.922	135.81
238.156	156.81
238.39	133.81
238.624	130.81
238.858	124.81
239.091	121.81
239.325	122.81
239.559	128.81
239.793	124.81
240.027	123.81
240.26	160.81
240.494	159.81
240.728	136.81
240.961	142.81
241.195	166.81
241.429	140.81
241.662	134.81
241.896	120.81
242.13	126.81
242.363	142.81
242.597	120.81
242.83	140.81
243.064	132.81
243.298	144.81
243.531	137.81
243.765	144.81
243.998	138.81
244.232	142.81
244.465	138.81
244.699	141.81
244.932	146.81
245.166	141.81
245.399	141.81
245.633	159.81
245.866	158.81
246.099	164.81
246.333	140.81
246.566	144.81
246.8	159.81
247.033	139.81
247.266	153.81
247.5	173.81
247.733	173.81
247.966	191.81
248.2	185.81
248.433	160.81
248.666	174.81
248.899	182.81
249.133	197.81
249.366	206.81
249.599	192.81
249.832	183.81
250.066	174.81
250.299	195.81
250.532	182.81
250.765	196.81
250.998	219.81
251.231	224.81
251.465	214.81
251.698	197.81
251.931	194.81
252.164	194.81
252.397	200.81
252.63	205.81
252.863	216.81
253.096	220.81
253.329	231.81
253.562	221.81
253.795	212.81
254.028	217.81
254.261	206.81
254.494	228.81
254.727	254.81
254.96	280.81
255.193	268.81
255.426	253.81
255.659	240.81
255.892	226.81
256.124	219.81
256.357	219.81
256.59	228.81
256.823	215.81
257.056	215.81
257.289	218.81
257.521	214.81
257.754	202.81
257.987	193.81
258.22	218.81
258.452	203.81
258.685	214.81
258.918	212.81
259.151	234.81
259.383	228.81
259.616	232.81
259.849	228.81
260.081	246.81
260.314	244.81
260.547	253.81
260.779	255.81
261.012	244.81
261.244	247.81
261.477	231.81
261.71	229.81
261.942	231.81
262.175	230.81
262.407	258.81
262.64	222.81
262.872	224.81
263.105	227.81
263.337	238.81
263.57	218.81
263.802	202.81
264.035	231.81
264.267	219.81
264.499	212.81
264.732	214.81
264.964	233.81
265.197	228.81
265.429	234.81
265.661	228.81
265.894	224.81
266.126	216.81
266.358	228.81
266.591	225.81
266.823	222.81
267.055	244.81
267.287	249.81
267.52	220.81
267.752	245.81
267.984	237.81
268.216	247.81
268.448	245.81
268.681	264.81
268.913	257.81
269.145	283.81
269.377	282.81
269.609	278.81
269.841	270.81
270.073	274.81
270.306	311.81
270.538	316.81
270.77	326.81
271.002	304.81
271.234	308.81
271.466	308.81
271.698	320.81
271.93	338.81
272.162	335.81
272.394	320.81
272.626	314.81
272.858	313.81
273.09	296.81
273.322	285.81
273.553	273.81
273.785	283.81
274.017	294.81
274.249	276.81
274.481	261.81
274.713	277.81
274.945	271.81
275.176	292.81
275.408	282.81
275.64	269.81
275.872	286.81
276.104	270.81
276.335	272.81
276.567	287.81
276.799	314.81
277.031	306.81
277.262	335.81
277.494	330.81
277.726	323.81
277.957	316.81
278.189	302.81
278.421	282.81
278.652	291.81
278.884	274.81
279.115	280.81
279.347	288.81
279.579	311.81
279.81	293.81
280.042	274.81
280.273	285.81
280.505	284.81
280.736	293.81
280.968	307.81
281.199	299.81
281.431	303.81
281.662	271.81
281.894	295.81
282.125	286.81
282.356	303.81
282.588	319.81
282.819	319.81
283.051	302.81
283.282	290.81
283.513	298.81
283.745	293.81
283.976	290.81
284.207	288.81
284.439	306.81
284.67	301.81
284.901	298.81
285.132	306.81
285.364	306.81
285.595	304.81
285.826	309.81
286.057	299.81
286.288	302.81
286.52	295.81
286.751	295.81
286.982	318.81
287.213	296.81
287.444	310.81
287.675	308.81
287.906	316.81
288.138	317.81
288.369	347.81
288.6	336.81
288.831	332.81
289.062	318.81
289.293	311.81
289.524	329.81
289.755	323.81
289.986	321.81
290.217	316.81
290.448	329.81
290.679	300.81
290.91	330.81
291.141	315.81
291.371	301.81
291.602	294.81
291.833	303.81
292.064	324.81
292.295	325.81
292.526	346.81
292.757	307.81
292.987	333.81
293.218	316.81
293.449	326.81
293.68	312.81
293.91	312.81
294.141	320.81
294.372	302.81
294.603	334.81
294.833	333.81
295.064	303.81
295.295	327.81
295.525	332.81
295.756	322.81
295.987	328.81
296.217	347.81
296.448	347.81
296.679	339.81
296.909	328.81
297.14	326.81
297.37	327.81
297.601	312.81
297.831	332.81
298.062	315.81
298.292	329.81
298.523	346.81
298.753	325.81
298.984	340.81
299.214	334.81
299.445	333.81
299.675	321.81
299.905	339.81
300.136	326.81
300.366	333.81
300.597	328.81
300.827	362.81
301.057	344.81
301.288	336.81
301.518	337.81
301.748	360.81
301.979	350.81
302.209	366.81
302.439	350.81
302.669	352.81
302.9	364.81
303.13	335.81
303.36	350.81
303.59	358.81
303.82	371.81
304.051	360.81
304.281	346.81
304.511	342.81
304.741	357.81
304.971	336.81
305.201	361.81
305.431	348.81
305.661	361.81
305.891	353.81
306.121	336.81
306.352	364.81
306.582	358.81
306.812	345.81
307.042	352.81
307.272	379.81
307.502	370.81
307.731	362.81
307.961	359.81
308.191	370.81
308.421	351.81
308.651	362.81
308.881	344.81
309.111	384.81
309.341	352.81
309.571	364.81
309.8	388.81
310.03	396.81
310.26	383.81
310.49	372.81
310.72	410.81
310.949	401.81
311.179	407.81
311.409	412.81
311.639	392.81
311.868	384.81
312.098	403.81
312.328	418.81
312.557	410.81
312.787	429.81
313.017	411.81
313.246	409.81
313.476	408.81
313.706	404.81
313.935	406.81
314.165	418.81
314.394	405.81
314.624	438.81
314.853	422.81
315.083	407.81
315.312	408.81
315.542	388.81
315.771	385.81
316.001	415.81
316.23	422.81
316.46	388.81
316.689	391.81
316.919	382.81
317.148	408.81
317.377	418.81
317.607	397.81
317.836	403.81
318.065	395.81
318.295	405.81
318.524	388.81
318.753	382.81
318.983	391.81
319.212	389.81
319.441	397.81
319.67	400.81
319.9	397.81
320.129	400.81
320.358	426.81
320.587	384.81
320.816	412.81
321.046	420.81
321.275	426.81
321.504	411.81
321.733	407.81
321.962	422.81
322.191	441.81
322.42	422.81
322.649	442.81
322.878	453.81
323.108	464.81
323.337	479.81
323.566	498.81
323.795	498.81
324.024	569.81
324.253	650.81
324.482	935.81
324.71	1389.81
324.939	1899.81
325.168	1653.81
325.397	855.81
325.626	612.81
325.855	547.81
326.084	502.81
326.313	504.81
326.542	512.81
326.77	535.81
326.999	628.81
327.228	852.81
327.457	1215.81
327.686	1435.81
327.914	966.81
328.143	668.81
328.372	580.81
328.6	558.81
328.829	545.81
329.058	556.81
329.287	562.81
329.515	530.81
329.744	503.81
329.972	514.81
330.201	526.81
330.43	543.81
330.658	560.81
330.887	584.81
331.115	584.81
331.344	510.81
331.572	500.81
331.801	477.81
332.03	478.81
332.258	506.81
332.486	482.81
332.715	463.81
332.943	502.81
333.172	491.81
333.4	490.81
333.629	504.81
333.857	514.81
334.085	495.81
334.314	514.81
334.542	532.81
334.771	543.81
334.999	517.81
335.227	507.81
335.455	481.81
335.684	471.81
335.912	491.81
336.14	450.81
336.369	476.81
336.597	469.81
336.825	475.81
337.053	459.81
337.281	476.81
337.51	458.81
337.738	467.81
337.966	456.81
338.194	478.81
338.422	464.81
338.65	467.81
338.878	470.81
339.106	462.81
339.334	455.81
339.562	451.81
339.79	448.81
340.018	452.81
340.246	447.81
340.474	459.81
340.702	443.81
340.93	456.81
341.158	421.81
341.386	460.81
341.614	458.81
341.842	454.81
342.07	448.81
342.298	425.81
342.526	423.81
342.754	434.81
342.981	437.81
343.209	425.81
343.437	431.81
343.665	456.81
343.893	451.81
344.12	477.81
344.348	474.81
344.576	454.81
344.804	462.81
345.031	462.81
345.259	454.81
345.487	435.81
345.714	451.81
345.942	427.81
346.17	415.81
346.397	429.81
346.625	451.81
346.853	419.81
347.08	397.81
347.308	423.81
347.535	418.81
347.763	436.81
347.99	423.81
348.218	426.81
348.445	431.81
348.673	445.81
348.9	418.81
349.128	415.81
349.355	421.81
349.583	424.81
349.81	424.81
350.037	429.81
350.265	419.81
350.492	412.81
350.72	406.81
350.947	427.81
351.174	434.81
351.402	422.81
351.629	421.81
351.856	413.81
352.083	431.81
352.311	435.81
352.538	440.81
352.765	441.81
352.992	422.81
353.22	422.81
353.447	421.81
353.674	409.81
353.901	406.81
354.128	404.81
354.355	399.81
354.583	386.81
354.81	406.81
355.037	397.81
355.264	399.81
355.491	416.81
355.718	392.81
355.945	389.81
356.172	388.81
356.399	404.81
356.626	388.81
356.853	399.81
357.08	386.81
357.307	397.81
357.534	390.81
357.761	385.81
357.988	384.81
358.215	386.81
358.441	398.81
358.668	395.81
358.895	393.81
359.122	377.81
359.349	411.81
359.576	418.81
359.802	451.81
360.029	442.81
360.256	444.81
360.483	442.81
360.709	420.81
360.936	409.81
361.163	413.81
361.39	403.81
361.616	403.81
361.843	422.81
362.07	412.81
362.296	423.81
362.523	411.81
362.749	428.81
362.976	422.81
363.203	410.81
363.429	403.81
363.656	420.81
363.882	405.81
364.109	386.81
364.335	392.81
364.562	386.81
364.788	394.81
365.015	404.81
365.241	396.81
365.468	427.81
365.694	388.81
365.92	399.81
366.147	397.81
366.373	400.81
366.599	409.81
366.826	390.81
367.052	376.81
367.278	392.81
367.505	398.81
367.731	398.81
367.957	408.81
368.184	387.81
368.41	406.81
368.636	394.81
368.862	425.81
369.089	398.81
369.315	397.81
369.541	380.81
369.767	397.81
369.993	386.81
370.219	373.81
370.445	390.81
370.672	391.81
370.898	391.81
371.124	393.81
371.35	410.81
371.576	395.81
371.802	380.81
372.028	389.81
372.254	418.81
372.48	393.81
372.706	424.81
372.932	384.81
373.158	397.81
373.384	409.81
373.61	413.81
373.835	392.81
374.061	407.81
374.287	428.81
374.513	393.81
374.739	401.81
374.965	411.81
375.191	408.81
375.416	435.81
375.642	383.81
375.868	383.81
376.094	398.81
376.319	397.81
376.545	393.81
376.771	378.81
376.997	382.81
377.222	375.81
377.448	384.81
377.674	396.81
377.899	399.81
378.125	388.81
378.35	380.81
378.576	381.81
378.802	366.81
379.027	394.81
379.253	393.81
379.478	381.81
379.704	396.81
379.929	397.81
380.155	357.81
380.38	395.81
380.606	403.81
380.831	395.81
381.057	376.81
381.282	399.81
381.507	389.81
381.733	400.81
381.958	405.81
382.184	394.81
382.409	381.81
382.634	409.81
382.86	398.81
383.085	412.81
383.31	395.81
383.535	402.81
383.761	414.81
383.986	401.81
384.211	403.81
384.436	408.81
384.662	414.81
384.887	399.81
385.112	439.81
385.337	426.81
385.562	414.81
385.787	411.81
386.013	432.81
386.238	429.81
386.463	428.81
386.688	419.81
386.913	416.81
387.138	424.81
387.363	434.81
387.588	431.81
387.813	422.81
388.038	426.81
388.263	432.81
388.488	451.81
388.713	424.81
388.938	430.81
389.163	411.81
389.387	450.81
389.612	429.81
389.837	444.81
390.062	410.81
390.287	414.81
390.512	435.81
390.736	428.81
390.961	424.81
391.186	436.81
391.411	426.81
391.636	451.81
391.86	432.81
392.085	444.81
392.31	441.81
392.534	417.81
392.759	440.81
392.984	413.81
393.208	416.81
393.433	428.81
393.658	418.81
393.882	401.81
394.107	427.81
394.331	435.81
394.556	454.81
394.78	449.81
395.005	454.81
395.229	446.81
395.454	453.81
395.678	455.81
395.903	452.81
396.127	482.81
396.352	471.81
396.576	447.81
396.801	442.81
397.025	424.81
397.249	461.81
397.474	462.81
397.698	427.81
397.922	468.81
398.147	482.81
398.371	495.81
398.595	489.81
398.82	482.81
399.044	498.81
399.268	518.81
399.492	554.81
399.717	562.81
399.941	607.81
400.165	604.81
400.389	617.81
400.613	559.81
400.837	511.81
401.062	492.81
401.286	501.81
401.51	484.81
401.734	491.81
401.958	492.81
402.182	494.81
402.406	496.81
402.63	500.81
402.854	518.81
403.078	489.81
403.302	486.81
403.526	491.81
403.75	523.81
403.974	520.81
404.198	490.81
404.422	536.81
404.645	553.81
404.869	519.81
405.093	538.81
405.317	551.81
405.541	611.81
405.765	573.81
405.988	541.81
406.212	541.81
406.436	566.81
406.66	549.81
406.883	530.81
407.107	566.81
407.331	597.81
407.555	663.81
407.778	660.81
408.002	621.81
408.226	574.81
408.449	548.81
408.673	547.81
408.896	577.81
409.12	608.81
409.344	553.81
409.567	541.81
409.791	522.81
410.014	504.81
410.238	522.81
410.461	510.81
410.685	494.81
410.908	539.81
411.132	558.81
411.355	574.81
411.578	548.81
411.802	528.81
412.025	484.81
412.249	521.81
412.472	527.81
412.695	568.81
412.919	534.81
413.142	483.81
413.365	486.81
413.589	481.81
413.812	478.81
414.035	462.81
414.258	477.81
414.482	438.81
414.705	482.81
414.928	500.81
415.151	477.81
415.374	483.81
415.597	451.81
415.821	450.81
416.044	463.81
416.267	468.81
416.49	458.81
416.713	445.81
416.936	462.81
417.159	468.81
417.382	470.81
417.605	471.81
417.828	476.81
418.051	487.81
418.274	474.81
418.497	473.81
418.72	477.81
418.943	455.81
419.166	502.81
419.389	531.81
419.611	512.81
419.834	494.81
420.057	494.81
420.28	517.81
420.503	482.81
420.726	493.81
420.948	510.81
421.171	524.81
421.394	570.81
421.617	512.81
421.839	498.81
422.062	494.81
422.285	511.81
422.507	553.81
422.73	609.81
422.953	585.81
423.175	521.81
423.398	495.81
423.621	519.81
423.843	512.81
424.066	510.81
424.288	533.81
424.511	544.81
424.733	574.81
424.956	655.81
425.178	626.81
425.401	640.81
425.623	658.81
425.846	558.81
426.068	516.81
426.291	507.81
426.513	482.81
426.735	515.81
426.958	566.81
427.18	623.81
427.402	762.81
427.625	797.81
427.847	703.81
428.069	612.81
428.292	562.81
428.514	505.81
428.736	490.81
428.958	460.81
429.181	473.81
429.403	471.81
429.625	473.81
429.847	527.81
430.069	580.81
430.292	568.81
430.514	495.81
430.736	456.81
430.958	475.81
431.18	451.81
431.402	458.81
431.624	465.81
431.846	441.81
432.068	446.81
432.29	453.81
432.512	432.81
432.734	459.81
432.956	464.81
433.178	475.81
433.4	459.81
433.622	450.81
433.844	432.81
434.066	434.81
434.287	444.81
434.509	472.81
434.731	446.81
434.953	465.81
435.175	482.81
435.397	508.81
435.618	506.81
435.84	567.81
436.062	626.81
436.284	684.81
436.505	568.81
436.727	520.81
436.949	492.81
437.17	465.81
437.392	469.81
437.614	468.81
437.835	518.81
438.057	597.81
438.278	693.81
438.5	668.81
438.721	743.81
438.943	717.81
439.165	576.81
439.386	515.81
439.608	509.81
439.829	514.81
440.05	536.81
440.272	568.81
440.493	525.81
440.715	491.81
440.936	465.81
441.158	485.81
441.379	486.81
441.6	501.81
441.822	507.81
442.043	565.81
442.264	622.81
442.486	638.81
442.707	574.81
442.928	541.81
443.149	530.81
443.371	524.81
443.592	586.81
443.813	642.81
444.034	710.81
444.255	599.81
444.476	529.81
444.698	528.81
444.919	506.81
445.14	616.81
445.361	581.81
445.582	536.81
445.803	619.81
446.024	690.81
446.245	714.81
446.466	630.81
446.687	542.81
446.908	499.81
447.129	483.81
447.35	469.81
447.571	462.81
447.792	456.81
448.013	461.81
448.234	467.81
448.455	526.81
448.675	614.81
448.896	717.81
449.117	612.81
449.338	574.81
449.559	681.81
449.779	790.81
450	616.81
450.221	516.81
450.442	468.81
450.662	474.81
450.883	458.81
451.104	457.81
451.324	434.81
451.545	448.81
451.766	459.81
451.986	424.81
452.207	424.81
452.428	410.81
452.648	450.81
452.869	415.81
453.089	409.81
453.31	417.81
453.53	416.81
453.751	426.81
453.971	441.81
454.192	453.81
454.412	431.81
454.633	400.81
454.853	411.81
455.073	413.81
455.294	450.81
455.514	487.81
455.734	456.81
455.955	436.81
456.175	401.81
456.395	402.81
456.616	393.81
456.836	392.81
457.056	393.81
457.276	374.81
457.497	398.81
457.717	389.81
457.937	410.81
458.157	430.81
458.377	418.81
458.598	427.81
458.818	459.81
459.038	540.81
459.258	567.81
459.478	506.81
459.698	459.81
459.918	449.81
460.138	453.81
460.358	461.81
460.578	467.81
460.798	465.81
461.018	474.81
461.238	462.81
461.458	476.81
461.678	434.81
461.898	460.81
462.118	477.81
462.338	473.81
462.558	483.81
462.777	495.81
462.997	510.81
463.217	522.81
463.437	521.81
463.657	508.81
463.876	489.81
464.096	495.81
464.316	505.81
464.536	490.81
464.755	504.81
464.975	508.81
465.195	504.81
465.414	552.81
465.634	481.81
465.854	463.81
466.073	445.81
466.293	451.81
466.512	419.81
466.732	422.81
466.951	417.81
467.171	421.81
467.391	411.81
467.61	428.81
467.829	442.81
468.049	421.81
468.268	426.81
468.488	418.81
468.707	417.81
468.927	416.81
469.146	397.81
469.365	413.81
469.585	409.81
469.804	406.81
470.023	431.81
470.243	435.81
470.462	444.81
470.681	439.81
470.901	424.81
471.12	447.81
471.339	438.81
471.558	434.81
471.777	430.81
471.997	441.81
472.216	430.81
472.435	459.81
472.654	437.81
472.873	414.81
473.092	414.81
473.311	424.81
473.53	432.81
473.749	444.81
473.968	483.81
474.187	540.81
474.406	551.81
474.625	485.81
474.844	458.81
475.063	412.81
475.282	417.81
475.501	420.81
475.72	445.81
475.939	452.81
476.158	439.81
476.377	447.81
476.596	455.81
476.814	460.81
477.033	436.81
477.252	447.81
477.471	466.81
477.69	454.81
477.908	487.81
478.127	514.81
478.346	473.81
478.564	466.81
478.783	472.81
479.002	506.81
479.22	459.81
479.439	483.81
479.658	517.81
479.876	515.81
480.095	501.81
480.313	534.81
480.532	534.81
480.751	542.81
480.969	520.81
481.188	562.81
481.406	561.81
481.624	515.81
481.843	501.81
482.061	515.81
482.28	494.81
482.498	498.81
482.717	500.81
482.935	485.81
483.153	489.81
483.372	503.81
483.59	518.81
483.808	494.81
484.027	491.81
484.245	498.81
484.463	472.81
484.681	493.81
484.9	501.81
485.118	518.81
485.336	501.81
485.554	511.81
485.772	488.81
485.99	493.81
486.209	522.81
486.427	500.81
486.645	508.81
486.863	536.81
487.081	520.81
487.299	538.81
487.517	515.81
487.735	520.81
487.953	525.81
488.171	544.81
488.389	530.81
488.607	544.81
488.825	546.81
489.043	532.81
489.261	514.81
489.479	549.81
489.696	528.81
489.914	548.81
490.132	548.81
490.35	538.81
490.568	538.81
490.786	568.81
491.003	575.81
491.221	554.81
491.439	583.81
491.657	585.81
491.874	605.81
492.092	573.81
492.31	576.81
492.527	576.81
492.745	598.81
492.963	626.81
493.18	608.81
493.398	597.81
493.615	599.81
493.833	603.81
494.05	607.81
494.268	614.81
494.485	607.81
494.703	604.81
494.92	585.81
495.138	615.81
495.355	618.81
495.573	599.81
495.79	613.81
496.008	639.81
496.225	626.81
496.442	635.81
496.66	647.81
496.877	621.81
497.094	631.81
497.312	643.81
497.529	640.81
497.746	664.81
497.963	676.81
498.181	660.81
498.398	686.81
498.615	711.81
498.832	719.81
499.049	720.81
499.267	759.81
499.484	804.81
499.701	831.81
499.918	824.81
500.135	896.81
500.352	932.81
500.569	947.81
500.786	924.81
501.003	952.81
501.22	923.81
501.437	891.81
501.654	847.81
501.871	821.81
502.088	780.81
502.305	729.81
502.522	731.81
502.739	702.81
502.956	679.81
503.172	653.81
503.389	640.81
503.606	665.81
503.823	658.81
504.04	671.81
504.256	646.81
504.473	634.81
504.69	643.81
504.907	642.81
505.123	612.81
505.34	604.81
505.557	602.81
505.773	619.81
505.99	588.81
506.207	610.81
506.423	583.81
506.64	559.81
506.856	574.81
507.073	582.81
507.289	562.81
507.506	576.81
507.722	576.81
507.939	579.81
508.155	560.81
508.372	530.81
508.588	549.81
508.805	555.81
509.021	548.81
509.238	550.81
509.454	592.81
509.67	574.81
509.887	561.81
510.103	542.81
510.319	562.81
510.536	609.81
510.752	891.81
510.968	735.81
511.184	538.81
511.401	528.81
511.617	522.81
511.833	523.81
512.049	517.81
512.265	527.81
512.481	517.81
512.698	516.81
512.914	532.81
513.13	543.81
513.346	509.81
513.562	504.81
513.778	511.81
513.994	531.81
514.21	519.81
514.426	546.81
514.642	572.81
514.858	570.81
515.074	606.81
515.29	664.81
515.506	901.81
515.721	784.81
515.937	627.81
516.153	548.81
516.369	570.81
516.585	551.81
516.801	534.81
517.016	557.81
517.232	570.81
517.448	557.81
517.664	541.81
517.879	573.81
518.095	562.81
518.311	564.81
518.527	535.81
518.742	550.81
518.958	537.81
519.173	524.81
519.389	520.81
519.605	540.81
519.82	528.81
520.036	527.81
520.251	539.81
520.467	574.81
520.682	555.81
520.898	544.81
521.113	568.81
521.329	567.81
521.544	614.81
521.76	768.81
521.975	1134.81
522.19	1099.81
522.406	672.81
522.621	529.81
522.836	540.81
523.052	502.81
523.267	489.81
523.482	483.81
523.698	472.81
523.913	479.81
524.128	479.81
524.343	468.81
524.559	444.81
524.774	452.81
524.989	460.81
525.204	438.81
525.419	454.81
525.634	451.81
525.849	440.81
526.064	454.81
526.28	427.81
526.495	440.81
526.71	435.81
526.925	429.81
527.14	429.81
527.355	415.81
527.57	424.81
527.785	438.81
527.999	426.81
528.214	434.81
528.429	442.81
528.644	438.81
528.859	430.81
529.074	424.81
529.289	446.81
529.503	493.81
529.718	491.81
529.933	442.81
530.148	440.81
530.363	436.81
530.577	420.81
530.792	434.81
531.007	415.81
531.221	418.81
531.436	424.81
531.651	409.81
531.865	422.81
532.08	402.81
532.295	401.81
532.509	418.81
532.724	421.81
532.938	424.81
533.153	421.81
533.367	424.81
533.582	416.81
533.796	427.81
534.011	420.81
534.225	422.81
534.44	418.81
534.654	415.81
534.868	423.81
535.083	380.81
535.297	424.81
535.511	420.81
535.726	422.81
535.94	405.81
536.154	422.81
536.369	404.81
536.583	411.81
536.797	399.81
537.011	391.81
537.225	383.81
537.44	398.81
537.654	403.81
537.868	406.81
538.082	404.81
538.296	413.81
538.51	418.81
538.724	393.81
538.938	397.81
539.153	396.81
539.367	404.81
539.581	404.81
539.795	415.81
540.009	390.81
540.222	381.81
540.436	419.81
540.65	401.81
540.864	398.81
541.078	403.81
541.292	404.81
541.506	399.81
541.72	402.81
541.934	410.81
542.147	388.81
542.361	414.81
542.575	400.81
542.789	387.81
543.002	417.81
543.216	404.81
543.43	400.81
543.644	398.81
543.857	394.81
544.071	394.81
544.285	413.81
544.498	418.81
544.712	392.81
544.925	392.81
545.139	386.81
545.352	390.81
545.566	401.81
545.779	378.81
545.993	378.81
546.206	393.81
546.42	393.81
546.633	394.81
546.847	379.81
547.06	389.81
547.274	375.81
547.487	357.81
547.7	390.81
547.914	369.81
548.127	381.81
548.34	397.81
548.554	382.81
548.767	400.81
548.98	378.81
549.193	372.81
549.407	396.81
549.62	382.81
549.833	395.81
550.046	370.81
550.259	386.81
550.473	375.81
550.686	391.81
550.899	351.81
551.112	379.81
551.325	372.81
551.538	367.81
551.751	370.81
551.964	386.81
552.177	373.81
552.39	367.81
552.603	374.81
552.816	378.81
553.029	358.81
553.242	386.81
553.455	370.81
553.667	397.81
553.88	399.81
554.093	383.81
554.306	399.81
554.519	372.81
554.732	374.81
554.944	374.81
555.157	370.81
555.37	371.81
555.583	363.81
555.795	365.81
556.008	350.81
556.221	372.81
556.433	346.81
556.646	354.81
556.859	366.81
557.071	357.81
557.284	357.81
557.496	333.81
557.709	340.81
557.921	341.81
558.134	329.81
558.346	327.81
558.559	340.81
558.771	341.81
558.984	330.81
559.196	344.81
559.409	334.81
559.621	326.81
559.833	336.81
560.046	323.81
560.258	322.81
560.47	337.81
560.683	336.81
560.895	314.81
561.107	349.81
561.32	334.81
561.532	329.81
561.744	328.81
561.956	336.81
562.168	348.81
562.381	349.81
562.593	322.81
562.805	327.81
563.017	328.81
563.229	355.81
563.441	345.81
563.653	341.81
563.865	343.81
564.077	339.81
564.289	344.81
564.501	341.81
564.713	381.81
564.925	366.81
565.137	355.81
565.349	374.81
565.561	376.81
565.773	409.81
565.985	398.81
566.197	378.81
566.408	421.81
566.62	411.81
566.832	442.81
567.044	417.81
567.255	426.81
567.467	450.81
567.679	440.81
567.891	443.81
568.102	462.81
568.314	450.81
568.526	430.81
568.737	394.81
568.949	412.81
569.161	388.81
569.372	388.81
569.584	366.81
569.795	360.81
570.007	358.81
570.218	366.81
570.43	376.81
570.641	353.81
570.853	349.81
571.064	322.81
571.276	341.81
571.487	320.81
571.698	346.81
571.91	326.81
572.121	344.81
572.333	326.81
572.544	322.81
572.755	314.81
572.966	300.81
573.178	298.81
573.389	300.81
573.6	308.81
573.811	318.81
574.023	294.81
574.234	301.81
574.445	290.81
574.656	286.81
574.867	298.81
575.078	306.81
575.289	305.81
575.501	292.81
575.712	291.81
575.923	297.81
576.134	300.81
576.345	280.81
576.556	282.81
576.767	299.81
576.978	293.81
577.188	300.81
577.399	279.81
577.61	274.81
577.821	295.81
578.032	274.81
578.243	290.81
578.454	425.81
578.665	332.81
578.875	297.81
579.086	276.81
579.297	277.81
579.508	266.81
579.718	278.81
579.929	271.81
580.14	265.81
580.35	267.81
580.561	278.81
580.772	270.81
580.982	283.81
581.193	268.81
581.403	272.81
581.614	267.81
581.825	264.81
582.035	282.81
582.246	259.81
582.456	269.81
582.667	262.81
582.877	263.81
583.087	275.81
583.298	278.81
583.508	262.81
583.719	260.81
583.929	261.81
584.139	269.81
584.35	268.81
584.56	262.81
584.77	250.81
584.981	270.81
585.191	267.81
585.401	260.81
585.611	256.81
585.821	272.81
586.032	277.81
586.242	255.81
586.452	269.81
586.662	285.81
586.872	255.81
587.082	246.81
587.292	266.81
587.502	246.81
587.713	239.81
587.923	268.81
588.133	251.81
588.343	271.81
588.553	258.81
588.762	268.81
588.972	272.81
589.182	254.81
589.392	276.81
589.602	253.81
589.812	257.81
590.022	240.81
590.232	251.81
590.441	268.81
590.651	249.81
590.861	270.81
591.071	255.81
591.281	250.81
591.49	253.81
591.7	258.81
591.91	264.81
592.119	269.81
592.329	271.81
592.539	266.81
592.748	262.81
592.958	283.81
593.167	252.81
593.377	290.81
593.587	284.81
593.796	276.81
594.006	282.81
594.215	295.81
594.424	269.81
594.634	274.81
594.843	262.81
595.053	254.81
595.262	268.81
595.472	254.81
595.681	254.81
595.89	264.81
596.1	252.81
596.309	249.81
596.518	250.81
596.727	264.81
596.937	243.81
597.146	245.81
597.355	246.81
597.564	263.81
597.774	239.81
597.983	232.81
598.192	227.81
598.401	237.81
598.61	228.81
598.819	239.81
599.028	253.81
599.237	232.81
599.446	228.81
599.655	229.81
599.864	240.81
600.073	217.81
600.282	223.81
600.491	213.81
600.7	244.81
600.909	206.81
601.118	222.81
601.327	237.81
601.536	219.81
601.745	219.81
601.953	216.81
602.162	207.81
602.371	228.81
602.58	223.81
602.789	227.81
602.997	223.81
603.206	229.81
603.415	240.81
603.623	219.81
603.832	221.81
604.041	232.81
604.249	218.81
604.458	208.81
604.666	213.81
604.875	215.81
605.084	201.81
605.292	219.81
605.501	208.81
605.709	210.81
605.918	214.81
606.126	212.81
606.334	217.81
606.543	208.81
606.751	221.81
606.96	216.81
607.168	214.81
607.376	207.81
607.585	214.81
607.793	205.81
608.001	225.81
608.21	221.81
608.418	202.81
608.626	216.81
608.834	210.81
609.043	220.81
609.251	206.81
609.459	222.81
609.667	212.81
609.875	206.81
610.083	193.81
610.291	212.81
610.499	209.81
610.707	198.81
610.916	232.81
611.124	212.81
611.332	216.81
611.54	213.81
611.748	221.81
611.955	214.81
612.163	209.81
612.371	203.81
612.579	199.81
612.787	205.81
612.995	210.81
613.203	213.81
613.411	220.81
613.618	220.81
613.826	215.81
614.034	209.81
614.242	211.81
614.449	204.81
614.657	204.81
614.865	211.81
615.072	189.81
615.28	202.81
615.488	217.81
615.695	207.81
615.903	219.81
616.111	199.81
616.318	205.81
616.526	213.81
616.733	207.81
616.941	210.81
617.148	206.81
617.356	218.81
617.563	194.81
617.771	212.81
617.978	195.81
618.185	211.81
618.393	184.81
618.6	201.81
618.807	204.81
619.015	212.81
619.222	215.81
619.429	200.81
619.637	190.81
619.844	227.81
620.051	204.81
620.258	204.81
620.466	192.81
620.673	187.81
620.88	187.81
621.087	195.81
621.294	195.81
621.501	191.81
621.708	192.81
621.915	191.81
622.122	202.81
622.329	205.81
622.536	195.81
622.743	175.81
622.95	189.81
623.157	207.81
623.364	194.81
623.571	208.81
623.778	194.81
623.985	189.81
624.192	182.81
624.399	185.81
624.606	175.81
624.812	175.81
625.019	183.81
625.226	209.81
625.433	197.81
625.639	186.81
625.846	208.81
626.053	205.81
626.259	173.81
626.466	196.81
626.673	195.81
626.879	187.81
627.086	180.81
627.293	191.81
627.499	180.81
627.706	189.81
627.912	178.81
628.119	187.81
628.325	175.81
628.532	175.81
628.738	189.81
628.945	170.81
629.151	180.81
629.357	176.81
629.564	171.81
629.77	173.81
629.976	178.81
630.183	173.81
630.389	171.81
630.595	180.81
630.802	159.81
631.008	175.81
631.214	175.81
631.42	177.81
631.627	184.81
631.833	184.81
632.039	181.81
632.245	178.81
632.451	159.81
632.657	157.81
632.863	178.81
633.069	173.81
633.275	172.81
633.481	154.81
633.688	173.81
633.893	170.81
634.099	174.81
634.305	173.81
634.511	164.81
634.717	178.81
634.923	158.81
635.129	157.81
635.335	158.81
635.541	155.81
635.747	166.81
635.952	169.81
636.158	182.81
636.364	172.81
636.57	162.81
636.775	159.81
636.981	173.81
637.187	155.81
637.392	170.81
637.598	161.81
637.804	156.81
638.009	170.81
638.215	165.81
638.421	162.81
638.626	167.81
638.832	175.81
639.037	178.81
639.243	154.81
639.448	163.81
639.654	152.81
639.859	162.81
640.065	170.81
640.27	163.81
640.475	152.81
640.681	155.81
640.886	163.81
641.091	148.81
641.297	158.81
641.502	150.81
641.707	167.81
641.913	157.81
642.118	150.81
642.323	151.81
642.528	167.81
642.733	147.81
642.939	150.81
643.144	139.81
643.349	148.81
643.554	144.81
643.759	144.81
643.964	159.81
644.169	160.81
644.374	148.81
644.579	159.81
644.784	162.81
644.989	138.81
645.194	155.81
645.399	148.81
645.604	144.81
645.809	168.81
646.014	155.81
646.219	150.81
646.423	150.81
646.628	161.81
646.833	149.81
647.038	155.81
647.243	152.81
647.447	156.81
647.652	157.81
647.857	148.81
648.062	141.81
648.266	158.81
648.471	162.81
648.676	171.81
648.88	146.81
649.085	148.81
649.289	156.81
649.494	137.81
649.698	190.81
649.903	183.81
650.107	166.81
650.312	166.81
650.516	147.81
650.721	142.81
650.925	143.81
651.13	141.81
651.334	152.81
651.539	148.81
651.743	137.81
651.947	135.81
652.152	140.81
652.356	139.81
652.56	129.81
652.764	127.81
652.969	142.81
653.173	126.81
653.377	132.81
653.581	129.81
653.785	128.81
653.99	142.81
654.194	144.81
654.398	136.81
654.602	133.81
654.806	135.81
655.01	138.81
655.214	134.81
655.418	131.81
655.622	134.81
655.826	125.81
656.03	129.81
656.234	132.81
656.438	127.81
656.642	140.81
656.846	126.81
657.049	127.81
657.253	107.81
657.457	110.81
657.661	106.81
657.865	125.81
658.068	117.81
658.272	107.81
658.476	104.81
658.68	111.81
658.883	111.81
659.087	96.81
659.291	100.81
659.494	102.81
659.698	98.81
659.901	95.81
660.105	95.81
660.309	100.81
660.512	99.81
660.716	102.81
660.919	92.81
661.123	106.81
661.326	92.81
661.53	87.81
661.733	95.81
661.936	87.81
662.14	86.81
662.343	80.81
662.546	75.81
662.75	92.81
662.953	86.81
663.156	97.81
663.36	91.81
663.563	79.81
663.766	79.81
663.969	78.81
664.173	73.81
664.376	88.81
664.579	89.81
664.782	102.81
664.985	100.81
665.188	99.81
665.391	84.81
665.594	102.81
665.797	90.81
666	80.81
666.203	79.81
666.406	83.81
666.609	99.81
666.812	69.81
667.015	79.81
667.218	88.81
667.421	76.81
667.624	90.81
667.827	84.81
668.03	65.81
668.232	95.81
668.435	88.81
668.638	72.81
668.841	81.81
669.043	83.81
669.246	79.81
669.449	89.81
669.651	87.81
669.854	74.81
670.057	74.81
670.259	80.81
670.462	89.81
670.665	71.81
670.867	94.81
671.07	91.81
671.272	73.81
671.475	84.81
671.677	86.81
671.88	89.81
672.082	75.81
672.284	80.81
672.487	76.81
672.689	93.81
672.892	92.81
