Data from 1977.PennyLincolnUp.Lamp.En5.5.200Scan.071719.P1_HRD10591_16-07-07-864.txt Node
Date: Thu Jul 18 16:07:07 EDT 2019
User: cochatt
Spectrometer: HR+D1059
Trigger mode: 1
Integration Time (sec): 1.000000E-1
Scans to average: 1
Electric dark correction enabled: true
Nonlinearity correction enabled: false
Boxcar width: 0
XAxis mode: Wavelengths
Number of Pixels in Spectrum: 2048
>>>>>Begin Spectral Data<<<<<
223.165	-7.12
223.4	-7.12
223.635	-7.12
223.869	-14.12
224.104	-11.12
224.338	-17.12
224.573	-8.12
224.808	-15.12
225.042	-5.12
225.277	-19.12
225.511	-2.12
225.746	-5.12
225.98	8.88
226.215	19.88
226.449	14.88
226.683	31.88
226.918	19.88
227.152	8.88
227.387	50.88
227.621	38.88
227.856	27.88
228.09	57.88
228.324	63.88
228.559	72.88
228.793	62.88
229.027	107.88
229.262	107.88
229.496	113.88
229.73	117.88
229.964	154.88
230.199	118.88
230.433	111.88
230.667	114.88
230.901	107.88
231.136	115.88
231.37	98.88
231.604	122.88
231.838	122.88
232.072	126.88
232.306	111.88
232.541	111.88
232.775	108.88
233.009	122.88
233.243	123.88
233.477	114.88
233.711	119.88
233.945	111.88
234.179	119.88
234.413	107.88
234.647	122.88
234.881	112.88
235.115	129.88
235.349	104.88
235.583	118.88
235.817	122.88
236.051	130.88
236.285	128.88
236.519	129.88
236.753	131.88
236.987	149.88
237.221	191.88
237.455	220.88
237.689	171.88
237.922	136.88
238.156	136.88
238.39	127.88
238.624	126.88
238.858	123.88
239.091	110.88
239.325	136.88
239.559	127.88
239.793	130.88
240.027	141.88
240.26	160.88
240.494	164.88
240.728	139.88
240.961	154.88
241.195	132.88
241.429	130.88
241.662	144.88
241.896	125.88
242.13	134.88
242.363	152.88
242.597	131.88
242.83	144.88
243.064	138.88
243.298	120.88
243.531	121.88
243.765	128.88
243.998	145.88
244.232	146.88
244.465	147.88
244.699	124.88
244.932	142.88
245.166	149.88
245.399	127.88
245.633	155.88
245.866	141.88
246.099	159.88
246.333	139.88
246.566	169.88
246.8	145.88
247.033	159.88
247.266	152.88
247.5	165.88
247.733	159.88
247.966	188.88
248.2	168.88
248.433	178.88
248.666	166.88
248.899	182.88
249.133	201.88
249.366	211.88
249.599	196.88
249.832	163.88
250.066	173.88
250.299	182.88
250.532	195.88
250.765	211.88
250.998	225.88
251.231	212.88
251.465	200.88
251.698	196.88
251.931	192.88
252.164	193.88
252.397	204.88
252.63	209.88
252.863	222.88
253.096	206.88
253.329	211.88
253.562	206.88
253.795	218.88
254.028	200.88
254.261	205.88
254.494	220.88
254.727	231.88
254.96	256.88
255.193	240.88
255.426	221.88
255.659	224.88
255.892	223.88
256.124	225.88
256.357	241.88
256.59	209.88
256.823	219.88
257.056	209.88
257.289	201.88
257.521	223.88
257.754	223.88
257.987	203.88
258.22	215.88
258.452	229.88
258.685	191.88
258.918	206.88
259.151	213.88
259.383	218.88
259.616	219.88
259.849	229.88
260.081	225.88
260.314	250.88
260.547	244.88
260.779	241.88
261.012	227.88
261.244	236.88
261.477	231.88
261.71	217.88
261.942	235.88
262.175	228.88
262.407	231.88
262.64	208.88
262.872	213.88
263.105	219.88
263.337	209.88
263.57	230.88
263.802	215.88
264.035	224.88
264.267	218.88
264.499	215.88
264.732	231.88
264.964	225.88
265.197	221.88
265.429	227.88
265.661	222.88
265.894	219.88
266.126	211.88
266.358	203.88
266.591	222.88
266.823	224.88
267.055	219.88
267.287	232.88
267.52	228.88
267.752	249.88
267.984	248.88
268.216	237.88
268.448	239.88
268.681	230.88
268.913	266.88
269.145	262.88
269.377	277.88
269.609	273.88
269.841	281.88
270.073	281.88
270.306	282.88
270.538	289.88
270.77	311.88
271.002	301.88
271.234	266.88
271.466	291.88
271.698	320.88
271.93	327.88
272.162	312.88
272.394	319.88
272.626	296.88
272.858	295.88
273.09	274.88
273.322	295.88
273.553	273.88
273.785	276.88
274.017	284.88
274.249	257.88
274.481	259.88
274.713	273.88
274.945	275.88
275.176	272.88
275.408	262.88
275.64	269.88
275.872	269.88
276.104	282.88
276.335	272.88
276.567	290.88
276.799	302.88
277.031	307.88
277.262	310.88
277.494	312.88
277.726	321.88
277.957	282.88
278.189	314.88
278.421	276.88
278.652	258.88
278.884	281.88
279.115	293.88
279.347	279.88
279.579	269.88
279.81	281.88
280.042	280.88
280.273	288.88
280.505	288.88
280.736	282.88
280.968	282.88
281.199	272.88
281.431	298.88
281.662	296.88
281.894	283.88
282.125	263.88
282.356	287.88
282.588	302.88
282.819	299.88
283.051	294.88
283.282	294.88
283.513	299.88
283.745	297.88
283.976	307.88
284.207	299.88
284.439	321.88
284.67	296.88
284.901	297.88
285.132	306.88
285.364	279.88
285.595	303.88
285.826	306.88
286.057	306.88
286.288	316.88
286.52	300.88
286.751	293.88
286.982	321.88
287.213	298.88
287.444	292.88
287.675	284.88
287.906	310.88
288.138	314.88
288.369	321.88
288.6	321.88
288.831	335.88
289.062	307.88
289.293	311.88
289.524	310.88
289.755	299.88
289.986	291.88
290.217	316.88
290.448	327.88
290.679	301.88
290.91	302.88
291.141	314.88
291.371	305.88
291.602	305.88
291.833	301.88
292.064	318.88
292.295	330.88
292.526	295.88
292.757	309.88
292.987	320.88
293.218	308.88
293.449	308.88
293.68	294.88
293.91	282.88
294.141	306.88
294.372	298.88
294.603	311.88
294.833	320.88
295.064	317.88
295.295	308.88
295.525	308.88
295.756	298.88
295.987	323.88
296.217	327.88
296.448	336.88
296.679	315.88
296.909	333.88
297.14	322.88
297.37	327.88
297.601	339.88
297.831	331.88
298.062	315.88
298.292	332.88
298.523	326.88
298.753	331.88
298.984	326.88
299.214	340.88
299.445	340.88
299.675	336.88
299.905	334.88
300.136	345.88
300.366	344.88
300.597	339.88
300.827	332.88
301.057	347.88
301.288	353.88
301.518	348.88
301.748	349.88
301.979	347.88
302.209	350.88
302.439	346.88
302.669	368.88
302.9	344.88
303.13	344.88
303.36	355.88
303.59	363.88
303.82	345.88
304.051	358.88
304.281	338.88
304.511	347.88
304.741	357.88
304.971	357.88
305.201	348.88
305.431	357.88
305.661	351.88
305.891	352.88
306.121	359.88
306.352	359.88
306.582	351.88
306.812	342.88
307.042	335.88
307.272	343.88
307.502	350.88
307.731	344.88
307.961	348.88
308.191	359.88
308.421	358.88
308.651	335.88
308.881	363.88
309.111	362.88
309.341	365.88
309.571	371.88
309.8	372.88
310.03	386.88
310.26	393.88
310.49	371.88
310.72	382.88
310.949	382.88
311.179	404.88
311.409	387.88
311.639	383.88
311.868	389.88
312.098	377.88
312.328	385.88
312.557	396.88
312.787	405.88
313.017	385.88
313.246	375.88
313.476	373.88
313.706	390.88
313.935	392.88
314.165	392.88
314.394	396.88
314.624	433.88
314.853	403.88
315.083	386.88
315.312	420.88
315.542	404.88
315.771	397.88
316.001	410.88
316.23	377.88
316.46	410.88
316.689	383.88
316.919	392.88
317.148	408.88
317.377	406.88
317.607	411.88
317.836	402.88
318.065	386.88
318.295	393.88
318.524	393.88
318.753	388.88
318.983	403.88
319.212	394.88
319.441	404.88
319.67	408.88
319.9	401.88
320.129	379.88
320.358	385.88
320.587	406.88
320.816	392.88
321.046	406.88
321.275	410.88
321.504	407.88
321.733	403.88
321.962	388.88
322.191	426.88
322.42	448.88
322.649	460.88
322.878	441.88
323.108	445.88
323.337	465.88
323.566	486.88
323.795	521.88
324.024	535.88
324.253	643.88
324.482	873.88
324.71	1274.88
324.939	1763.88
325.168	1482.88
325.397	797.88
325.626	600.88
325.855	507.88
326.084	472.88
326.313	465.88
326.542	502.88
326.77	542.88
326.999	596.88
327.228	820.88
327.457	1142.88
327.686	1312.88
327.914	910.88
328.143	632.88
328.372	565.88
328.6	525.88
328.829	536.88
329.058	534.88
329.287	544.88
329.515	522.88
329.744	506.88
329.972	486.88
330.201	513.88
330.43	548.88
330.658	549.88
330.887	562.88
331.115	557.88
331.344	499.88
331.572	476.88
331.801	498.88
332.03	492.88
332.258	480.88
332.486	466.88
332.715	480.88
332.943	476.88
333.172	473.88
333.4	484.88
333.629	494.88
333.857	502.88
334.085	504.88
334.314	525.88
334.542	522.88
334.771	529.88
334.999	507.88
335.227	474.88
335.455	471.88
335.684	468.88
335.912	442.88
336.14	471.88
336.369	449.88
336.597	449.88
336.825	456.88
337.053	443.88
337.281	463.88
337.51	443.88
337.738	450.88
337.966	456.88
338.194	464.88
338.422	454.88
338.65	425.88
338.878	433.88
339.106	438.88
339.334	444.88
339.562	466.88
339.79	453.88
340.018	431.88
340.246	422.88
340.474	411.88
340.702	442.88
340.93	420.88
341.158	438.88
341.386	434.88
341.614	454.88
341.842	427.88
342.07	424.88
342.298	444.88
342.526	424.88
342.754	415.88
342.981	418.88
343.209	444.88
343.437	438.88
343.665	454.88
343.893	444.88
344.12	450.88
344.348	450.88
344.576	454.88
344.804	441.88
345.031	441.88
345.259	460.88
345.487	441.88
345.714	431.88
345.942	442.88
346.17	438.88
346.397	428.88
346.625	422.88
346.853	412.88
347.08	414.88
347.308	425.88
347.535	438.88
347.763	438.88
347.99	439.88
348.218	415.88
348.445	431.88
348.673	418.88
348.9	420.88
349.128	410.88
349.355	426.88
349.583	400.88
349.81	412.88
350.037	420.88
350.265	407.88
350.492	419.88
350.72	398.88
350.947	418.88
351.174	427.88
351.402	422.88
351.629	394.88
351.856	416.88
352.083	409.88
352.311	420.88
352.538	434.88
352.765	430.88
352.992	415.88
353.22	390.88
353.447	398.88
353.674	384.88
353.901	393.88
354.128	385.88
354.355	399.88
354.583	411.88
354.81	397.88
355.037	401.88
355.264	379.88
355.491	369.88
355.718	363.88
355.945	383.88
356.172	381.88
356.399	399.88
356.626	401.88
356.853	404.88
357.08	377.88
357.307	399.88
357.534	399.88
357.761	385.88
357.988	397.88
358.215	370.88
358.441	389.88
358.668	394.88
358.895	379.88
359.122	376.88
359.349	385.88
359.576	400.88
359.802	438.88
360.029	438.88
360.256	453.88
360.483	428.88
360.709	403.88
360.936	403.88
361.163	400.88
361.39	394.88
361.616	394.88
361.843	408.88
362.07	397.88
362.296	410.88
362.523	404.88
362.749	411.88
362.976	396.88
363.203	378.88
363.429	386.88
363.656	410.88
363.882	415.88
364.109	390.88
364.335	382.88
364.562	376.88
364.788	386.88
365.015	386.88
365.241	378.88
365.468	384.88
365.694	405.88
365.92	398.88
366.147	388.88
366.373	396.88
366.599	394.88
366.826	383.88
367.052	395.88
367.278	388.88
367.505	396.88
367.731	383.88
367.957	386.88
368.184	378.88
368.41	380.88
368.636	401.88
368.862	400.88
369.089	400.88
369.315	410.88
369.541	400.88
369.767	380.88
369.993	372.88
370.219	379.88
370.445	383.88
370.672	385.88
370.898	393.88
371.124	374.88
371.35	386.88
371.576	382.88
371.802	377.88
372.028	382.88
372.254	387.88
372.48	395.88
372.706	409.88
372.932	388.88
373.158	391.88
373.384	392.88
373.61	397.88
373.835	404.88
374.061	391.88
374.287	399.88
374.513	400.88
374.739	389.88
374.965	412.88
375.191	408.88
375.416	402.88
375.642	374.88
375.868	412.88
376.094	392.88
376.319	390.88
376.545	392.88
376.771	375.88
376.997	402.88
377.222	378.88
377.448	383.88
377.674	386.88
377.899	391.88
378.125	397.88
378.35	382.88
378.576	387.88
378.802	391.88
379.027	393.88
379.253	376.88
379.478	387.88
379.704	384.88
379.929	398.88
380.155	386.88
380.38	398.88
380.606	387.88
380.831	398.88
381.057	398.88
381.282	396.88
381.507	383.88
381.733	382.88
381.958	399.88
382.184	378.88
382.409	382.88
382.634	401.88
382.86	403.88
383.085	399.88
383.31	388.88
383.535	399.88
383.761	403.88
383.986	393.88
384.211	400.88
384.436	407.88
384.662	395.88
384.887	409.88
385.112	425.88
385.337	404.88
385.562	426.88
385.787	420.88
386.013	432.88
386.238	412.88
386.463	438.88
386.688	403.88
386.913	411.88
387.138	410.88
387.363	420.88
387.588	410.88
387.813	427.88
388.038	400.88
388.263	427.88
388.488	427.88
388.713	422.88
388.938	434.88
389.163	428.88
389.387	427.88
389.612	416.88
389.837	418.88
390.062	408.88
390.287	428.88
390.512	415.88
390.736	414.88
390.961	427.88
391.186	425.88
391.411	433.88
391.636	438.88
391.86	430.88
392.085	432.88
392.31	438.88
392.534	429.88
392.759	449.88
392.984	426.88
393.208	424.88
393.433	434.88
393.658	414.88
393.882	423.88
394.107	433.88
394.331	416.88
394.556	416.88
394.78	437.88
395.005	434.88
395.229	440.88
395.454	423.88
395.678	419.88
395.903	452.88
396.127	468.88
396.352	441.88
396.576	440.88
396.801	449.88
397.025	436.88
397.249	438.88
397.474	467.88
397.698	462.88
397.922	481.88
398.147	466.88
398.371	477.88
398.595	447.88
398.82	486.88
399.044	487.88
399.268	503.88
399.492	529.88
399.717	537.88
399.941	599.88
400.165	606.88
400.389	588.88
400.613	549.88
400.837	510.88
401.062	499.88
401.286	493.88
401.51	495.88
401.734	491.88
401.958	485.88
402.182	475.88
402.406	490.88
402.63	481.88
402.854	495.88
403.078	485.88
403.302	491.88
403.526	501.88
403.75	493.88
403.974	511.88
404.198	503.88
404.422	513.88
404.645	496.88
404.869	505.88
405.093	530.88
405.317	582.88
405.541	605.88
405.765	556.88
405.988	516.88
406.212	519.88
406.436	522.88
406.66	545.88
406.883	534.88
407.107	536.88
407.331	604.88
407.555	654.88
407.778	656.88
408.002	578.88
408.226	580.88
408.449	561.88
408.673	546.88
408.896	571.88
409.12	600.88
409.344	568.88
409.567	543.88
409.791	508.88
410.014	519.88
410.238	492.88
410.461	488.88
410.685	498.88
410.908	497.88
411.132	520.88
411.355	562.88
411.578	532.88
411.802	497.88
412.025	505.88
412.249	508.88
412.472	511.88
412.695	527.88
412.919	542.88
413.142	493.88
413.365	488.88
413.589	482.88
413.812	493.88
414.035	464.88
414.258	489.88
414.482	489.88
414.705	474.88
414.928	460.88
415.151	472.88
415.374	454.88
415.597	460.88
415.821	462.88
416.044	451.88
416.267	458.88
416.49	465.88
416.713	476.88
416.936	466.88
417.159	466.88
417.382	466.88
417.605	464.88
417.828	476.88
418.051	484.88
418.274	482.88
418.497	470.88
418.72	472.88
418.943	449.88
419.166	480.88
419.389	479.88
419.611	502.88
419.834	474.88
420.057	495.88
420.28	482.88
420.503	474.88
420.726	471.88
420.948	512.88
421.171	504.88
421.394	558.88
421.617	498.88
421.839	469.88
422.062	470.88
422.285	487.88
422.507	529.88
422.73	595.88
422.953	580.88
423.175	520.88
423.398	490.88
423.621	465.88
423.843	504.88
424.066	527.88
424.288	513.88
424.511	506.88
424.733	571.88
424.956	627.88
425.178	607.88
425.401	595.88
425.623	624.88
425.846	544.88
426.068	492.88
426.291	494.88
426.513	479.88
426.735	514.88
426.958	544.88
427.18	614.88
427.402	695.88
427.625	784.88
427.847	639.88
428.069	575.88
428.292	525.88
428.514	496.88
428.736	463.88
428.958	472.88
429.181	469.88
429.403	467.88
429.625	454.88
429.847	495.88
430.069	528.88
430.292	544.88
430.514	468.88
430.736	475.88
430.958	442.88
431.18	434.88
431.402	451.88
431.624	441.88
431.846	457.88
432.068	436.88
432.29	438.88
432.512	448.88
432.734	457.88
432.956	434.88
433.178	453.88
433.4	455.88
433.622	463.88
433.844	443.88
434.066	413.88
434.287	443.88
434.509	450.88
434.731	447.88
434.953	477.88
435.175	482.88
435.397	502.88
435.618	490.88
435.84	550.88
436.062	620.88
436.284	658.88
436.505	544.88
436.727	502.88
436.949	468.88
437.17	441.88
437.392	464.88
437.614	489.88
437.835	509.88
438.057	551.88
438.278	659.88
438.5	659.88
438.721	725.88
438.943	661.88
439.165	531.88
439.386	495.88
439.608	506.88
439.829	508.88
440.05	525.88
440.272	553.88
440.493	527.88
440.715	504.88
440.936	466.88
441.158	471.88
441.379	461.88
441.6	491.88
441.822	503.88
442.043	540.88
442.264	576.88
442.486	615.88
442.707	524.88
442.928	499.88
443.149	512.88
443.371	511.88
443.592	578.88
443.813	649.88
444.034	699.88
444.255	578.88
444.476	536.88
444.698	535.88
444.919	508.88
445.14	593.88
445.361	534.88
445.582	539.88
445.803	577.88
446.024	650.88
446.245	652.88
446.466	602.88
446.687	536.88
446.908	509.88
447.129	477.88
447.35	462.88
447.571	465.88
447.792	467.88
448.013	460.88
448.234	484.88
448.455	505.88
448.675	604.88
448.896	701.88
449.117	580.88
449.338	568.88
449.559	652.88
449.779	730.88
450	598.88
450.221	488.88
450.442	464.88
450.662	456.88
450.883	435.88
451.104	457.88
451.324	455.88
451.545	410.88
451.766	420.88
451.986	409.88
452.207	398.88
452.428	404.88
452.648	399.88
452.869	411.88
453.089	396.88
453.31	443.88
453.53	414.88
453.751	390.88
453.971	391.88
454.192	402.88
454.412	410.88
454.633	400.88
454.853	377.88
455.073	402.88
455.294	433.88
455.514	467.88
455.734	476.88
455.955	412.88
456.175	386.88
456.395	384.88
456.616	393.88
456.836	398.88
457.056	383.88
457.276	375.88
457.497	405.88
457.717	384.88
457.937	398.88
458.157	369.88
458.377	388.88
458.598	413.88
458.818	446.88
459.038	478.88
459.258	537.88
459.478	459.88
459.698	427.88
459.918	442.88
460.138	456.88
460.358	440.88
460.578	449.88
460.798	449.88
461.018	450.88
461.238	461.88
461.458	448.88
461.678	449.88
461.898	444.88
462.118	459.88
462.338	454.88
462.558	469.88
462.777	476.88
462.997	498.88
463.217	478.88
463.437	513.88
463.657	508.88
463.876	498.88
464.096	490.88
464.316	480.88
464.536	481.88
464.755	531.88
464.975	497.88
465.195	520.88
465.414	538.88
465.634	492.88
465.854	447.88
466.073	442.88
466.293	432.88
466.512	435.88
466.732	430.88
466.951	436.88
467.171	439.88
467.391	420.88
467.61	430.88
467.829	431.88
468.049	426.88
468.268	416.88
468.488	418.88
468.707	412.88
468.927	414.88
469.146	403.88
469.365	408.88
469.585	407.88
469.804	415.88
470.023	434.88
470.243	431.88
470.462	442.88
470.681	440.88
470.901	437.88
471.12	420.88
471.339	410.88
471.558	427.88
471.777	425.88
471.997	422.88
472.216	419.88
472.435	444.88
472.654	427.88
472.873	432.88
473.092	401.88
473.311	406.88
473.53	402.88
473.749	425.88
473.968	487.88
474.187	551.88
474.406	571.88
474.625	466.88
474.844	442.88
475.063	439.88
475.282	409.88
475.501	429.88
475.72	423.88
475.939	447.88
476.158	432.88
476.377	413.88
476.596	417.88
476.814	438.88
477.033	435.88
477.252	439.88
477.471	454.88
477.69	436.88
477.908	445.88
478.127	456.88
478.346	463.88
478.564	451.88
478.783	464.88
479.002	490.88
479.22	480.88
479.439	490.88
479.658	502.88
479.876	522.88
480.095	517.88
480.313	542.88
480.532	528.88
480.751	540.88
480.969	508.88
481.188	535.88
481.406	565.88
481.624	535.88
481.843	511.88
482.061	489.88
482.28	499.88
482.498	494.88
482.717	485.88
482.935	486.88
483.153	467.88
483.372	478.88
483.59	462.88
483.808	496.88
484.027	487.88
484.245	491.88
484.463	468.88
484.681	488.88
484.9	491.88
485.118	499.88
485.336	495.88
485.554	505.88
485.772	502.88
485.99	489.88
486.209	492.88
486.427	493.88
486.645	516.88
486.863	527.88
487.081	502.88
487.299	531.88
487.517	507.88
487.735	519.88
487.953	515.88
488.171	523.88
488.389	514.88
488.607	532.88
488.825	503.88
489.043	520.88
489.261	508.88
489.479	523.88
489.696	519.88
489.914	512.88
490.132	522.88
490.35	533.88
490.568	523.88
490.786	527.88
491.003	556.88
491.221	563.88
491.439	539.88
491.657	586.88
491.874	560.88
492.092	583.88
492.31	602.88
492.527	579.88
492.745	593.88
492.963	606.88
493.18	590.88
493.398	586.88
493.615	598.88
493.833	605.88
494.05	593.88
494.268	602.88
494.485	587.88
494.703	602.88
494.92	585.88
495.138	608.88
495.355	619.88
495.573	572.88
495.79	611.88
496.008	593.88
496.225	611.88
496.442	587.88
496.66	590.88
496.877	615.88
497.094	627.88
497.312	608.88
497.529	634.88
497.746	625.88
497.963	654.88
498.181	686.88
498.398	659.88
498.615	668.88
498.832	703.88
499.049	710.88
499.267	734.88
499.484	795.88
499.701	809.88
499.918	809.88
500.135	861.88
500.352	917.88
500.569	926.88
500.786	940.88
501.003	929.88
501.22	902.88
501.437	848.88
501.654	822.88
501.871	794.88
502.088	763.88
502.305	753.88
502.522	716.88
502.739	692.88
502.956	670.88
503.172	644.88
503.389	632.88
503.606	615.88
503.823	636.88
504.04	636.88
504.256	633.88
504.473	614.88
504.69	626.88
504.907	624.88
505.123	604.88
505.34	596.88
505.557	630.88
505.773	592.88
505.99	548.88
506.207	558.88
506.423	574.88
506.64	570.88
506.856	558.88
507.073	550.88
507.289	544.88
507.506	547.88
507.722	573.88
507.939	538.88
508.155	576.88
508.372	539.88
508.588	532.88
508.805	537.88
509.021	550.88
509.238	552.88
509.454	534.88
509.67	558.88
509.887	552.88
510.103	551.88
510.319	554.88
510.536	622.88
510.752	919.88
510.968	732.88
511.184	532.88
511.401	505.88
511.617	532.88
511.833	511.88
512.049	503.88
512.265	502.88
512.481	519.88
512.698	508.88
512.914	524.88
513.13	500.88
513.346	492.88
513.562	503.88
513.778	499.88
513.994	508.88
514.21	522.88
514.426	508.88
514.642	546.88
514.858	573.88
515.074	590.88
515.29	653.88
515.506	879.88
515.721	739.88
515.937	583.88
516.153	544.88
516.369	504.88
516.585	542.88
516.801	533.88
517.016	539.88
517.232	541.88
517.448	537.88
517.664	566.88
517.879	546.88
518.095	542.88
518.311	519.88
518.527	527.88
518.742	544.88
518.958	530.88
519.173	555.88
519.389	518.88
519.605	516.88
519.82	494.88
520.036	510.88
520.251	544.88
520.467	550.88
520.682	536.88
520.898	555.88
521.113	544.88
521.329	571.88
521.544	613.88
521.76	737.88
521.975	1116.88
522.19	1080.88
522.406	668.88
522.621	547.88
522.836	517.88
523.052	520.88
523.267	488.88
523.482	458.88
523.698	467.88
523.913	449.88
524.128	450.88
524.343	459.88
524.559	438.88
524.774	441.88
524.989	450.88
525.204	451.88
525.419	443.88
525.634	449.88
525.849	442.88
526.064	432.88
526.28	442.88
526.495	440.88
526.71	446.88
526.925	443.88
527.14	417.88
527.355	429.88
527.57	416.88
527.785	417.88
527.999	416.88
528.214	436.88
528.429	413.88
528.644	427.88
528.859	433.88
529.074	433.88
529.289	442.88
529.503	466.88
529.718	478.88
529.933	459.88
530.148	432.88
530.363	424.88
530.577	420.88
530.792	439.88
531.007	411.88
531.221	419.88
531.436	403.88
531.651	415.88
531.865	399.88
532.08	421.88
532.295	424.88
532.509	408.88
532.724	410.88
532.938	423.88
533.153	408.88
533.367	416.88
533.582	433.88
533.796	394.88
534.011	430.88
534.225	386.88
534.44	427.88
534.654	400.88
534.868	399.88
535.083	394.88
535.297	399.88
535.511	420.88
535.726	423.88
535.94	415.88
536.154	390.88
536.369	390.88
536.583	405.88
536.797	371.88
537.011	402.88
537.225	387.88
537.44	398.88
537.654	399.88
537.868	380.88
538.082	408.88
538.296	420.88
538.51	399.88
538.724	387.88
538.938	407.88
539.153	390.88
539.367	390.88
539.581	380.88
539.795	380.88
540.009	393.88
540.222	392.88
540.436	391.88
540.65	402.88
540.864	375.88
541.078	426.88
541.292	403.88
541.506	377.88
541.72	388.88
541.934	378.88
542.147	398.88
542.361	402.88
542.575	377.88
542.789	398.88
543.002	409.88
543.216	402.88
543.43	398.88
543.644	367.88
543.857	397.88
544.071	387.88
544.285	407.88
544.498	394.88
544.712	379.88
544.925	386.88
545.139	388.88
545.352	396.88
545.566	388.88
545.779	386.88
545.993	392.88
546.206	388.88
546.42	377.88
546.633	406.88
546.847	362.88
547.06	381.88
547.274	396.88
547.487	385.88
547.7	367.88
547.914	395.88
548.127	386.88
548.34	384.88
548.554	370.88
548.767	382.88
548.98	392.88
549.193	388.88
549.407	385.88
549.62	374.88
549.833	386.88
550.046	376.88
550.259	373.88
550.473	376.88
550.686	375.88
550.899	371.88
551.112	371.88
551.325	358.88
551.538	378.88
551.751	388.88
551.964	379.88
552.177	380.88
552.39	387.88
552.603	371.88
552.816	385.88
553.029	390.88
553.242	388.88
553.455	382.88
553.667	411.88
553.88	407.88
554.093	387.88
554.306	396.88
554.519	380.88
554.732	376.88
554.944	373.88
555.157	368.88
555.37	376.88
555.583	388.88
555.795	353.88
556.008	356.88
556.221	347.88
556.433	346.88
556.646	355.88
556.859	348.88
557.071	364.88
557.284	335.88
557.496	321.88
557.709	322.88
557.921	346.88
558.134	332.88
558.346	348.88
558.559	347.88
558.771	337.88
558.984	323.88
559.196	339.88
559.409	347.88
559.621	328.88
559.833	331.88
560.046	347.88
560.258	338.88
560.47	310.88
560.683	344.88
560.895	329.88
561.107	349.88
561.32	346.88
561.532	332.88
561.744	350.88
561.956	339.88
562.168	339.88
562.381	327.88
562.593	348.88
562.805	352.88
563.017	339.88
563.229	330.88
563.441	343.88
563.653	340.88
563.865	356.88
564.077	354.88
564.289	361.88
564.501	366.88
564.713	368.88
564.925	361.88
565.137	360.88
565.349	351.88
565.561	349.88
565.773	378.88
565.985	390.88
566.197	409.88
566.408	404.88
566.62	418.88
566.832	410.88
567.044	417.88
567.255	424.88
567.467	436.88
567.679	458.88
567.891	466.88
568.102	457.88
568.314	450.88
568.526	438.88
568.737	426.88
568.949	392.88
569.161	380.88
569.372	363.88
569.584	359.88
569.795	369.88
570.007	347.88
570.218	379.88
570.43	369.88
570.641	350.88
570.853	342.88
571.064	354.88
571.276	326.88
571.487	333.88
571.698	329.88
571.91	336.88
572.121	313.88
572.333	298.88
572.544	310.88
572.755	295.88
572.966	305.88
573.178	306.88
573.389	315.88
573.6	282.88
573.811	301.88
574.023	307.88
574.234	302.88
574.445	306.88
574.656	310.88
574.867	308.88
575.078	289.88
575.289	300.88
575.501	300.88
575.712	298.88
575.923	283.88
576.134	284.88
576.345	286.88
576.556	276.88
576.767	296.88
576.978	291.88
577.188	283.88
577.399	292.88
577.61	278.88
577.821	282.88
578.032	297.88
578.243	311.88
578.454	433.88
578.665	352.88
578.875	277.88
579.086	279.88
579.297	266.88
579.508	279.88
579.718	288.88
579.929	274.88
580.14	273.88
580.35	274.88
580.561	287.88
580.772	268.88
580.982	268.88
581.193	265.88
581.403	265.88
581.614	262.88
581.825	262.88
582.035	264.88
582.246	272.88
582.456	265.88
582.667	251.88
582.877	270.88
583.087	262.88
583.298	263.88
583.508	283.88
583.719	280.88
583.929	268.88
584.139	259.88
584.35	265.88
584.56	260.88
584.77	269.88
584.981	249.88
585.191	267.88
585.401	255.88
585.611	273.88
585.821	281.88
586.032	269.88
586.242	270.88
586.452	263.88
586.662	264.88
586.872	262.88
587.082	252.88
587.292	265.88
587.502	267.88
587.713	264.88
587.923	270.88
588.133	258.88
588.343	249.88
588.553	267.88
588.762	275.88
588.972	256.88
589.182	257.88
589.392	260.88
589.602	248.88
589.812	249.88
590.022	260.88
590.232	275.88
590.441	268.88
590.651	270.88
590.861	265.88
591.071	250.88
591.281	267.88
591.49	262.88
591.7	270.88
591.91	265.88
592.119	267.88
592.329	276.88
592.539	263.88
592.748	270.88
592.958	285.88
593.167	290.88
593.377	289.88
593.587	286.88
593.796	268.88
594.006	316.88
594.215	285.88
594.424	290.88
594.634	287.88
594.843	273.88
595.053	269.88
595.262	280.88
595.472	250.88
595.681	265.88
595.89	263.88
596.1	262.88
596.309	263.88
596.518	243.88
596.727	244.88
596.937	253.88
597.146	236.88
597.355	248.88
597.564	238.88
597.774	243.88
597.983	248.88
598.192	246.88
598.401	228.88
598.61	236.88
598.819	234.88
599.028	246.88
599.237	216.88
599.446	229.88
599.655	233.88
599.864	226.88
600.073	224.88
600.282	231.88
600.491	246.88
600.7	250.88
600.909	235.88
601.118	220.88
601.327	231.88
601.536	230.88
601.745	225.88
601.953	227.88
602.162	216.88
602.371	221.88
602.58	212.88
602.789	227.88
602.997	226.88
603.206	221.88
603.415	219.88
603.623	223.88
603.832	221.88
604.041	216.88
604.249	218.88
604.458	212.88
604.666	217.88
604.875	190.88
605.084	222.88
605.292	218.88
605.501	203.88
605.709	211.88
605.918	194.88
606.126	212.88
606.334	207.88
606.543	219.88
606.751	231.88
606.96	217.88
607.168	219.88
607.376	220.88
607.585	212.88
607.793	205.88
608.001	205.88
608.21	217.88
608.418	218.88
608.626	225.88
608.834	233.88
609.043	210.88
609.251	220.88
609.459	216.88
609.667	217.88
609.875	215.88
610.083	212.88
610.291	218.88
610.499	206.88
610.707	204.88
610.916	204.88
611.124	208.88
611.332	220.88
611.54	212.88
611.748	217.88
611.955	228.88
612.163	214.88
612.371	191.88
612.579	204.88
612.787	211.88
612.995	200.88
613.203	206.88
613.411	209.88
613.618	202.88
613.826	215.88
614.034	213.88
614.242	214.88
614.449	202.88
614.657	205.88
614.865	216.88
615.072	218.88
615.28	216.88
615.488	227.88
615.695	225.88
615.903	209.88
616.111	222.88
616.318	215.88
616.526	227.88
616.733	211.88
616.941	214.88
617.148	232.88
617.356	215.88
617.563	204.88
617.771	199.88
617.978	209.88
618.185	192.88
618.393	216.88
618.6	217.88
618.807	200.88
619.015	200.88
619.222	203.88
619.429	203.88
619.637	197.88
619.844	200.88
620.051	200.88
620.258	203.88
620.466	194.88
620.673	186.88
620.88	200.88
621.087	218.88
621.294	194.88
621.501	198.88
621.708	207.88
621.915	199.88
622.122	208.88
622.329	203.88
622.536	193.88
622.743	202.88
622.95	193.88
623.157	207.88
623.364	177.88
623.571	198.88
623.778	183.88
623.985	184.88
624.192	192.88
624.399	174.88
624.606	198.88
624.812	176.88
625.019	193.88
625.226	182.88
625.433	193.88
625.639	177.88
625.846	187.88
626.053	183.88
626.259	191.88
626.466	192.88
626.673	185.88
626.879	172.88
627.086	176.88
627.293	178.88
627.499	187.88
627.706	183.88
627.912	185.88
628.119	180.88
628.325	171.88
628.532	196.88
628.738	186.88
628.945	168.88
629.151	156.88
629.357	171.88
629.564	175.88
629.77	188.88
629.976	186.88
630.183	166.88
630.389	165.88
630.595	174.88
630.802	179.88
631.008	185.88
631.214	178.88
631.42	169.88
631.627	184.88
631.833	177.88
632.039	178.88
632.245	182.88
632.451	161.88
632.657	166.88
632.863	172.88
633.069	166.88
633.275	176.88
633.481	163.88
633.688	168.88
633.893	165.88
634.099	170.88
634.305	167.88
634.511	163.88
634.717	179.88
634.923	184.88
635.129	157.88
635.335	155.88
635.541	160.88
635.747	167.88
635.952	155.88
636.158	174.88
636.364	176.88
636.57	161.88
636.775	175.88
636.981	159.88
637.187	144.88
637.392	156.88
637.598	156.88
637.804	171.88
638.009	157.88
638.215	165.88
638.421	164.88
638.626	172.88
638.832	160.88
639.037	165.88
639.243	155.88
639.448	143.88
639.654	174.88
639.859	160.88
640.065	165.88
640.27	153.88
640.475	161.88
640.681	155.88
640.886	165.88
641.091	164.88
641.297	149.88
641.502	151.88
641.707	161.88
641.913	158.88
642.118	140.88
642.323	170.88
642.528	159.88
642.733	152.88
642.939	149.88
643.144	149.88
643.349	155.88
643.554	136.88
643.759	145.88
643.964	180.88
644.169	159.88
644.374	152.88
644.579	151.88
644.784	160.88
644.989	149.88
645.194	154.88
645.399	162.88
645.604	167.88
645.809	153.88
646.014	167.88
646.219	143.88
646.423	171.88
646.628	148.88
646.833	145.88
647.038	162.88
647.243	142.88
647.447	157.88
647.652	161.88
647.857	153.88
648.062	169.88
648.266	160.88
648.471	160.88
648.676	163.88
648.88	147.88
649.085	155.88
649.289	152.88
649.494	165.88
649.698	148.88
649.903	168.88
650.107	158.88
650.312	151.88
650.516	150.88
650.721	149.88
650.925	162.88
651.13	151.88
651.334	146.88
651.539	147.88
651.743	144.88
651.947	147.88
652.152	154.88
652.356	152.88
652.56	146.88
652.764	154.88
652.969	144.88
653.173	136.88
653.377	123.88
653.581	124.88
653.785	134.88
653.99	145.88
654.194	126.88
654.398	131.88
654.602	142.88
654.806	140.88
655.01	130.88
655.214	138.88
655.418	143.88
655.622	131.88
655.826	132.88
656.03	134.88
656.234	142.88
656.438	131.88
656.642	125.88
656.846	142.88
657.049	140.88
657.253	137.88
657.457	113.88
657.661	118.88
657.865	136.88
658.068	119.88
658.272	122.88
658.476	111.88
658.68	110.88
658.883	110.88
659.087	91.88
659.291	101.88
659.494	99.88
659.698	100.88
659.901	99.88
660.105	98.88
660.309	76.88
660.512	91.88
660.716	88.88
660.919	91.88
661.123	94.88
661.326	91.88
661.53	99.88
661.733	82.88
661.936	96.88
662.14	97.88
662.343	84.88
662.546	89.88
662.75	78.88
662.953	79.88
663.156	82.88
663.36	86.88
663.563	92.88
663.766	84.88
663.969	88.88
664.173	90.88
664.376	97.88
664.579	95.88
664.782	74.88
664.985	99.88
665.188	79.88
665.391	86.88
665.594	89.88
665.797	87.88
666	75.88
666.203	91.88
666.406	93.88
666.609	90.88
666.812	91.88
667.015	74.88
667.218	83.88
667.421	95.88
667.624	85.88
667.827	90.88
668.03	82.88
668.232	83.88
668.435	63.88
668.638	89.88
668.841	83.88
669.043	72.88
669.246	88.88
669.449	90.88
669.651	92.88
669.854	86.88
670.057	78.88
670.259	84.88
670.462	88.88
670.665	96.88
670.867	85.88
671.07	89.88
671.272	77.88
671.475	81.88
671.677	91.88
671.88	82.88
672.082	71.88
672.284	83.88
672.487	85.88
672.689	83.88
672.892	79.88
