Data from 1977.PennyLincolnUp.Lamp.En5.5.200Scan.071719.P1_HRD10591_16-07-16-864.txt Node
Date: Thu Jul 18 16:07:16 EDT 2019
User: cochatt
Spectrometer: HR+D1059
Trigger mode: 1
Integration Time (sec): 1.000000E-1
Scans to average: 1
Electric dark correction enabled: true
Nonlinearity correction enabled: false
Boxcar width: 0
XAxis mode: Wavelengths
Number of Pixels in Spectrum: 2048
>>>>>Begin Spectral Data<<<<<
223.165	-14.25
223.4	-14.25
223.635	-14.25
223.869	-17.25
224.104	-16.25
224.338	-18.25
224.573	-20.25
224.808	-27.25
225.042	-12.25
225.277	-16.25
225.511	8.75
225.746	14.75
225.98	9.75
226.215	21.75
226.449	5.75
226.683	22.75
226.918	24.75
227.152	33.75
227.387	26.75
227.621	41.75
227.856	40.75
228.09	55.75
228.324	69.75
228.559	77.75
228.793	64.75
229.027	93.75
229.262	109.75
229.496	102.75
229.73	118.75
229.964	139.75
230.199	126.75
230.433	116.75
230.667	127.75
230.901	109.75
231.136	110.75
231.37	114.75
231.604	117.75
231.838	107.75
232.072	105.75
232.306	103.75
232.541	116.75
232.775	101.75
233.009	117.75
233.243	120.75
233.477	122.75
233.711	119.75
233.945	104.75
234.179	109.75
234.413	116.75
234.647	116.75
234.881	125.75
235.115	112.75
235.349	126.75
235.583	124.75
235.817	130.75
236.051	113.75
236.285	124.75
236.519	132.75
236.753	133.75
236.987	126.75
237.221	180.75
237.455	204.75
237.689	174.75
237.922	158.75
238.156	141.75
238.39	133.75
238.624	120.75
238.858	127.75
239.091	118.75
239.325	111.75
239.559	128.75
239.793	133.75
240.027	124.75
240.26	149.75
240.494	154.75
240.728	143.75
240.961	160.75
241.195	161.75
241.429	143.75
241.662	138.75
241.896	138.75
242.13	132.75
242.363	141.75
242.597	123.75
242.83	132.75
243.064	136.75
243.298	140.75
243.531	138.75
243.765	156.75
243.998	129.75
244.232	141.75
244.465	144.75
244.699	137.75
244.932	149.75
245.166	152.75
245.399	132.75
245.633	138.75
245.866	150.75
246.099	140.75
246.333	147.75
246.566	161.75
246.8	157.75
247.033	166.75
247.266	165.75
247.5	163.75
247.733	173.75
247.966	168.75
248.2	185.75
248.433	172.75
248.666	176.75
248.899	171.75
249.133	189.75
249.366	215.75
249.599	203.75
249.832	177.75
250.066	173.75
250.299	173.75
250.532	173.75
250.765	197.75
250.998	214.75
251.231	203.75
251.465	226.75
251.698	199.75
251.931	198.75
252.164	192.75
252.397	196.75
252.63	196.75
252.863	208.75
253.096	209.75
253.329	232.75
253.562	226.75
253.795	210.75
254.028	218.75
254.261	205.75
254.494	234.75
254.727	241.75
254.96	262.75
255.193	260.75
255.426	245.75
255.659	225.75
255.892	222.75
256.124	234.75
256.357	208.75
256.59	221.75
256.823	220.75
257.056	212.75
257.289	197.75
257.521	203.75
257.754	217.75
257.987	220.75
258.22	212.75
258.452	218.75
258.685	211.75
258.918	218.75
259.151	218.75
259.383	233.75
259.616	223.75
259.849	230.75
260.081	226.75
260.314	236.75
260.547	268.75
260.779	248.75
261.012	245.75
261.244	253.75
261.477	239.75
261.71	206.75
261.942	228.75
262.175	239.75
262.407	224.75
262.64	225.75
262.872	234.75
263.105	221.75
263.337	220.75
263.57	225.75
263.802	211.75
264.035	217.75
264.267	231.75
264.499	217.75
264.732	222.75
264.964	216.75
265.197	218.75
265.429	213.75
265.661	232.75
265.894	214.75
266.126	230.75
266.358	216.75
266.591	237.75
266.823	238.75
267.055	238.75
267.287	237.75
267.52	225.75
267.752	231.75
267.984	236.75
268.216	235.75
268.448	237.75
268.681	247.75
268.913	244.75
269.145	267.75
269.377	281.75
269.609	281.75
269.841	278.75
270.073	276.75
270.306	286.75
270.538	321.75
270.77	324.75
271.002	298.75
271.234	285.75
271.466	299.75
271.698	310.75
271.93	311.75
272.162	318.75
272.394	324.75
272.626	310.75
272.858	297.75
273.09	281.75
273.322	273.75
273.553	284.75
273.785	279.75
274.017	281.75
274.249	288.75
274.481	295.75
274.713	276.75
274.945	268.75
275.176	273.75
275.408	271.75
275.64	256.75
275.872	273.75
276.104	292.75
276.335	282.75
276.567	290.75
276.799	303.75
277.031	321.75
277.262	321.75
277.494	313.75
277.726	332.75
277.957	305.75
278.189	297.75
278.421	309.75
278.652	277.75
278.884	279.75
279.115	301.75
279.347	304.75
279.579	281.75
279.81	277.75
280.042	268.75
280.273	283.75
280.505	289.75
280.736	277.75
280.968	284.75
281.199	292.75
281.431	276.75
281.662	292.75
281.894	284.75
282.125	282.75
282.356	297.75
282.588	292.75
282.819	311.75
283.051	293.75
283.282	282.75
283.513	289.75
283.745	292.75
283.976	290.75
284.207	310.75
284.439	289.75
284.67	289.75
284.901	292.75
285.132	311.75
285.364	286.75
285.595	306.75
285.826	289.75
286.057	277.75
286.288	314.75
286.52	306.75
286.751	302.75
286.982	297.75
287.213	292.75
287.444	311.75
287.675	306.75
287.906	335.75
288.138	335.75
288.369	319.75
288.6	327.75
288.831	313.75
289.062	315.75
289.293	313.75
289.524	310.75
289.755	329.75
289.986	309.75
290.217	310.75
290.448	292.75
290.679	304.75
290.91	326.75
291.141	322.75
291.371	315.75
291.602	305.75
291.833	334.75
292.064	322.75
292.295	323.75
292.526	318.75
292.757	319.75
292.987	303.75
293.218	325.75
293.449	316.75
293.68	316.75
293.91	315.75
294.141	322.75
294.372	318.75
294.603	325.75
294.833	318.75
295.064	315.75
295.295	337.75
295.525	318.75
295.756	322.75
295.987	311.75
296.217	333.75
296.448	349.75
296.679	325.75
296.909	304.75
297.14	334.75
297.37	332.75
297.601	340.75
297.831	320.75
298.062	332.75
298.292	340.75
298.523	325.75
298.753	328.75
298.984	343.75
299.214	336.75
299.445	343.75
299.675	344.75
299.905	345.75
300.136	347.75
300.366	337.75
300.597	345.75
300.827	331.75
301.057	334.75
301.288	355.75
301.518	359.75
301.748	340.75
301.979	363.75
302.209	377.75
302.439	349.75
302.669	358.75
302.9	366.75
303.13	342.75
303.36	353.75
303.59	345.75
303.82	364.75
304.051	351.75
304.281	354.75
304.511	358.75
304.741	347.75
304.971	341.75
305.201	365.75
305.431	347.75
305.661	356.75
305.891	346.75
306.121	351.75
306.352	354.75
306.582	352.75
306.812	364.75
307.042	366.75
307.272	364.75
307.502	368.75
307.731	376.75
307.961	366.75
308.191	344.75
308.421	360.75
308.651	360.75
308.881	359.75
309.111	358.75
309.341	380.75
309.571	376.75
309.8	369.75
310.03	382.75
310.26	384.75
310.49	370.75
310.72	394.75
310.949	389.75
311.179	397.75
311.409	380.75
311.639	392.75
311.868	394.75
312.098	388.75
312.328	404.75
312.557	408.75
312.787	398.75
313.017	398.75
313.246	396.75
313.476	384.75
313.706	400.75
313.935	393.75
314.165	394.75
314.394	426.75
314.624	401.75
314.853	398.75
315.083	403.75
315.312	383.75
315.542	379.75
315.771	407.75
316.001	392.75
316.23	412.75
316.46	391.75
316.689	403.75
316.919	404.75
317.148	401.75
317.377	419.75
317.607	406.75
317.836	404.75
318.065	392.75
318.295	375.75
318.524	386.75
318.753	399.75
318.983	413.75
319.212	392.75
319.441	395.75
319.67	393.75
319.9	400.75
320.129	415.75
320.358	392.75
320.587	394.75
320.816	409.75
321.046	410.75
321.275	409.75
321.504	415.75
321.733	417.75
321.962	418.75
322.191	437.75
322.42	447.75
322.649	439.75
322.878	457.75
323.108	429.75
323.337	459.75
323.566	475.75
323.795	513.75
324.024	552.75
324.253	632.75
324.482	882.75
324.71	1297.75
324.939	1813.75
325.168	1546.75
325.397	828.75
325.626	560.75
325.855	524.75
326.084	493.75
326.313	481.75
326.542	502.75
326.77	541.75
326.999	626.75
327.228	800.75
327.457	1170.75
327.686	1336.75
327.914	914.75
328.143	643.75
328.372	552.75
328.6	552.75
328.829	526.75
329.058	519.75
329.287	542.75
329.515	522.75
329.744	498.75
329.972	488.75
330.201	508.75
330.43	535.75
330.658	536.75
330.887	548.75
331.115	561.75
331.344	495.75
331.572	486.75
331.801	486.75
332.03	500.75
332.258	489.75
332.486	458.75
332.715	479.75
332.943	469.75
333.172	466.75
333.4	484.75
333.629	492.75
333.857	501.75
334.085	491.75
334.314	532.75
334.542	520.75
334.771	530.75
334.999	509.75
335.227	488.75
335.455	482.75
335.684	486.75
335.912	481.75
336.14	478.75
336.369	457.75
336.597	446.75
336.825	482.75
337.053	461.75
337.281	448.75
337.51	466.75
337.738	463.75
337.966	467.75
338.194	447.75
338.422	446.75
338.65	450.75
338.878	447.75
339.106	451.75
339.334	464.75
339.562	428.75
339.79	449.75
340.018	441.75
340.246	436.75
340.474	412.75
340.702	419.75
340.93	430.75
341.158	438.75
341.386	433.75
341.614	424.75
341.842	428.75
342.07	438.75
342.298	450.75
342.526	446.75
342.754	440.75
342.981	428.75
343.209	439.75
343.437	440.75
343.665	461.75
343.893	445.75
344.12	454.75
344.348	458.75
344.576	462.75
344.804	455.75
345.031	457.75
345.259	457.75
345.487	440.75
345.714	444.75
345.942	428.75
346.17	450.75
346.397	420.75
346.625	419.75
346.853	434.75
347.08	439.75
347.308	440.75
347.535	471.75
347.763	429.75
347.99	417.75
348.218	437.75
348.445	420.75
348.673	420.75
348.9	432.75
349.128	422.75
349.355	402.75
349.583	410.75
349.81	413.75
350.037	394.75
350.265	411.75
350.492	416.75
350.72	407.75
350.947	414.75
351.174	415.75
351.402	408.75
351.629	430.75
351.856	418.75
352.083	422.75
352.311	426.75
352.538	424.75
352.765	426.75
352.992	426.75
353.22	395.75
353.447	410.75
353.674	409.75
353.901	388.75
354.128	397.75
354.355	403.75
354.583	385.75
354.81	402.75
355.037	415.75
355.264	402.75
355.491	390.75
355.718	390.75
355.945	399.75
356.172	417.75
356.399	403.75
356.626	398.75
356.853	370.75
357.08	396.75
357.307	406.75
357.534	392.75
357.761	376.75
357.988	386.75
358.215	402.75
358.441	387.75
358.668	401.75
358.895	409.75
359.122	389.75
359.349	384.75
359.576	419.75
359.802	412.75
360.029	421.75
360.256	436.75
360.483	406.75
360.709	416.75
360.936	405.75
361.163	408.75
361.39	428.75
361.616	409.75
361.843	412.75
362.07	402.75
362.296	404.75
362.523	409.75
362.749	409.75
362.976	408.75
363.203	397.75
363.429	410.75
363.656	397.75
363.882	402.75
364.109	396.75
364.335	394.75
364.562	398.75
364.788	381.75
365.015	407.75
365.241	389.75
365.468	409.75
365.694	411.75
365.92	412.75
366.147	376.75
366.373	392.75
366.599	397.75
366.826	384.75
367.052	397.75
367.278	412.75
367.505	397.75
367.731	403.75
367.957	414.75
368.184	423.75
368.41	403.75
368.636	392.75
368.862	401.75
369.089	394.75
369.315	382.75
369.541	399.75
369.767	400.75
369.993	409.75
370.219	385.75
370.445	410.75
370.672	408.75
370.898	378.75
371.124	397.75
371.35	409.75
371.576	396.75
371.802	404.75
372.028	385.75
372.254	429.75
372.48	402.75
372.706	397.75
372.932	398.75
373.158	389.75
373.384	392.75
373.61	406.75
373.835	404.75
374.061	382.75
374.287	409.75
374.513	398.75
374.739	424.75
374.965	426.75
375.191	400.75
375.416	401.75
375.642	383.75
375.868	408.75
376.094	402.75
376.319	399.75
376.545	400.75
376.771	413.75
376.997	378.75
377.222	386.75
377.448	391.75
377.674	386.75
377.899	384.75
378.125	383.75
378.35	395.75
378.576	380.75
378.802	392.75
379.027	378.75
379.253	382.75
379.478	381.75
379.704	391.75
379.929	394.75
380.155	407.75
380.38	412.75
380.606	388.75
380.831	385.75
381.057	407.75
381.282	395.75
381.507	414.75
381.733	415.75
381.958	398.75
382.184	397.75
382.409	385.75
382.634	392.75
382.86	399.75
383.085	373.75
383.31	400.75
383.535	412.75
383.761	401.75
383.986	404.75
384.211	394.75
384.436	422.75
384.662	419.75
384.887	403.75
385.112	419.75
385.337	422.75
385.562	442.75
385.787	418.75
386.013	452.75
386.238	421.75
386.463	425.75
386.688	437.75
386.913	416.75
387.138	413.75
387.363	420.75
387.588	427.75
387.813	451.75
388.038	426.75
388.263	425.75
388.488	410.75
388.713	433.75
388.938	437.75
389.163	436.75
389.387	434.75
389.612	413.75
389.837	409.75
390.062	432.75
390.287	421.75
390.512	432.75
390.736	434.75
390.961	449.75
391.186	432.75
391.411	460.75
391.636	454.75
391.86	452.75
392.085	436.75
392.31	472.75
392.534	451.75
392.759	426.75
392.984	423.75
393.208	448.75
393.433	455.75
393.658	437.75
393.882	430.75
394.107	446.75
394.331	444.75
394.556	447.75
394.78	439.75
395.005	430.75
395.229	432.75
395.454	438.75
395.678	467.75
395.903	481.75
396.127	476.75
396.352	481.75
396.576	453.75
396.801	457.75
397.025	454.75
397.249	441.75
397.474	453.75
397.698	458.75
397.922	474.75
398.147	469.75
398.371	493.75
398.595	478.75
398.82	478.75
399.044	500.75
399.268	505.75
399.492	562.75
399.717	615.75
399.941	609.75
400.165	594.75
400.389	585.75
400.613	568.75
400.837	524.75
401.062	505.75
401.286	507.75
401.51	493.75
401.734	496.75
401.958	502.75
402.182	495.75
402.406	480.75
402.63	516.75
402.854	502.75
403.078	502.75
403.302	507.75
403.526	523.75
403.75	504.75
403.974	475.75
404.198	526.75
404.422	513.75
404.645	513.75
404.869	529.75
405.093	533.75
405.317	569.75
405.541	587.75
405.765	555.75
405.988	551.75
406.212	529.75
406.436	536.75
406.66	554.75
406.883	540.75
407.107	576.75
407.331	594.75
407.555	643.75
407.778	664.75
408.002	608.75
408.226	554.75
408.449	565.75
408.673	550.75
408.896	585.75
409.12	605.75
409.344	580.75
409.567	511.75
409.791	516.75
410.014	504.75
410.238	500.75
410.461	501.75
410.685	491.75
410.908	526.75
411.132	542.75
411.355	576.75
411.578	556.75
411.802	524.75
412.025	502.75
412.249	530.75
412.472	508.75
412.695	562.75
412.919	544.75
413.142	529.75
413.365	492.75
413.589	496.75
413.812	488.75
414.035	485.75
414.258	465.75
414.482	462.75
414.705	483.75
414.928	459.75
415.151	491.75
415.374	478.75
415.597	477.75
415.821	460.75
416.044	465.75
416.267	486.75
416.49	473.75
416.713	464.75
416.936	479.75
417.159	460.75
417.382	459.75
417.605	471.75
417.828	466.75
418.051	478.75
418.274	491.75
418.497	486.75
418.72	477.75
418.943	476.75
419.166	474.75
419.389	501.75
419.611	531.75
419.834	505.75
420.057	505.75
420.28	505.75
420.503	487.75
420.726	484.75
420.948	491.75
421.171	526.75
421.394	568.75
421.617	494.75
421.839	490.75
422.062	485.75
422.285	508.75
422.507	566.75
422.73	610.75
422.953	575.75
423.175	519.75
423.398	500.75
423.621	516.75
423.843	538.75
424.066	519.75
424.288	530.75
424.511	532.75
424.733	576.75
424.956	664.75
425.178	618.75
425.401	620.75
425.623	630.75
425.846	558.75
426.068	516.75
426.291	510.75
426.513	491.75
426.735	534.75
426.958	539.75
427.18	622.75
427.402	738.75
427.625	773.75
427.847	680.75
428.069	593.75
428.292	547.75
428.514	482.75
428.736	473.75
428.958	484.75
429.181	470.75
429.403	472.75
429.625	482.75
429.847	495.75
430.069	571.75
430.292	567.75
430.514	471.75
430.736	454.75
430.958	480.75
431.18	461.75
431.402	456.75
431.624	458.75
431.846	447.75
432.068	448.75
432.29	468.75
432.512	442.75
432.734	457.75
432.956	453.75
433.178	437.75
433.4	455.75
433.622	478.75
433.844	465.75
434.066	458.75
434.287	445.75
434.509	465.75
434.731	461.75
434.953	477.75
435.175	502.75
435.397	529.75
435.618	521.75
435.84	545.75
436.062	633.75
436.284	668.75
436.505	564.75
436.727	506.75
436.949	480.75
437.17	464.75
437.392	452.75
437.614	473.75
437.835	512.75
438.057	575.75
438.278	670.75
438.5	651.75
438.721	734.75
438.943	713.75
439.165	559.75
439.386	530.75
439.608	505.75
439.829	510.75
440.05	508.75
440.272	546.75
440.493	531.75
440.715	515.75
440.936	469.75
441.158	478.75
441.379	485.75
441.6	480.75
441.822	510.75
442.043	524.75
442.264	616.75
442.486	624.75
442.707	535.75
442.928	542.75
443.149	530.75
443.371	540.75
443.592	570.75
443.813	640.75
444.034	711.75
444.255	609.75
444.476	549.75
444.698	540.75
444.919	531.75
445.14	648.75
445.361	575.75
445.582	548.75
445.803	593.75
446.024	667.75
446.245	653.75
446.466	627.75
446.687	552.75
446.908	500.75
447.129	476.75
447.35	470.75
447.571	460.75
447.792	462.75
448.013	469.75
448.234	464.75
448.455	504.75
448.675	607.75
448.896	689.75
449.117	595.75
449.338	584.75
449.559	677.75
449.779	752.75
450	589.75
450.221	511.75
450.442	474.75
450.662	454.75
450.883	452.75
451.104	462.75
451.324	440.75
451.545	420.75
451.766	425.75
451.986	420.75
452.207	426.75
452.428	408.75
452.648	429.75
452.869	431.75
453.089	398.75
453.31	438.75
453.53	407.75
453.751	421.75
453.971	422.75
454.192	410.75
454.412	400.75
454.633	414.75
454.853	390.75
455.073	406.75
455.294	422.75
455.514	488.75
455.734	471.75
455.955	414.75
456.175	397.75
456.395	412.75
456.616	402.75
456.836	398.75
457.056	369.75
457.276	384.75
457.497	392.75
457.717	407.75
457.937	403.75
458.157	385.75
458.377	395.75
458.598	421.75
458.818	478.75
459.038	521.75
459.258	558.75
459.478	476.75
459.698	445.75
459.918	428.75
460.138	455.75
460.358	460.75
460.578	443.75
460.798	467.75
461.018	457.75
461.238	455.75
461.458	442.75
461.678	437.75
461.898	463.75
462.118	451.75
462.338	477.75
462.558	483.75
462.777	484.75
462.997	505.75
463.217	516.75
463.437	529.75
463.657	485.75
463.876	488.75
464.096	487.75
464.316	501.75
464.536	512.75
464.755	495.75
464.975	490.75
465.195	505.75
465.414	544.75
465.634	463.75
465.854	492.75
466.073	452.75
466.293	443.75
466.512	436.75
466.732	416.75
466.951	436.75
467.171	434.75
467.391	432.75
467.61	441.75
467.829	441.75
468.049	430.75
468.268	420.75
468.488	413.75
468.707	415.75
468.927	409.75
469.146	426.75
469.365	423.75
469.585	397.75
469.804	405.75
470.023	432.75
470.243	420.75
470.462	432.75
470.681	432.75
470.901	446.75
471.12	428.75
471.339	428.75
471.558	438.75
471.777	454.75
471.997	429.75
472.216	446.75
472.435	456.75
472.654	415.75
472.873	410.75
473.092	412.75
473.311	422.75
473.53	426.75
473.749	420.75
473.968	450.75
474.187	526.75
474.406	564.75
474.625	480.75
474.844	428.75
475.063	410.75
475.282	434.75
475.501	415.75
475.72	428.75
475.939	436.75
476.158	431.75
476.377	437.75
476.596	449.75
476.814	420.75
477.033	465.75
477.252	460.75
477.471	466.75
477.69	464.75
477.908	472.75
478.127	462.75
478.346	476.75
478.564	470.75
478.783	455.75
479.002	496.75
479.22	482.75
479.439	480.75
479.658	507.75
479.876	497.75
480.095	516.75
480.313	544.75
480.532	529.75
480.751	534.75
480.969	531.75
481.188	561.75
481.406	573.75
481.624	528.75
481.843	515.75
482.061	492.75
482.28	519.75
482.498	514.75
482.717	489.75
482.935	473.75
483.153	469.75
483.372	478.75
483.59	495.75
483.808	490.75
484.027	501.75
484.245	487.75
484.463	502.75
484.681	514.75
484.9	474.75
485.118	511.75
485.336	516.75
485.554	528.75
485.772	512.75
485.99	503.75
486.209	485.75
486.427	501.75
486.645	528.75
486.863	518.75
487.081	546.75
487.299	535.75
487.517	518.75
487.735	526.75
487.953	535.75
488.171	506.75
488.389	504.75
488.607	510.75
488.825	545.75
489.043	544.75
489.261	529.75
489.479	529.75
489.696	537.75
489.914	547.75
490.132	556.75
490.35	554.75
490.568	553.75
490.786	542.75
491.003	580.75
491.221	556.75
491.439	564.75
491.657	563.75
491.874	589.75
492.092	583.75
492.31	594.75
492.527	608.75
492.745	582.75
492.963	584.75
493.18	598.75
493.398	589.75
493.615	598.75
493.833	584.75
494.05	618.75
494.268	591.75
494.485	590.75
494.703	620.75
494.92	612.75
495.138	605.75
495.355	604.75
495.573	590.75
495.79	603.75
496.008	608.75
496.225	608.75
496.442	610.75
496.66	610.75
496.877	634.75
497.094	620.75
497.312	618.75
497.529	621.75
497.746	660.75
497.963	670.75
498.181	659.75
498.398	694.75
498.615	710.75
498.832	705.75
499.049	727.75
499.267	762.75
499.484	778.75
499.701	801.75
499.918	828.75
500.135	894.75
500.352	933.75
500.569	968.75
500.786	966.75
501.003	932.75
501.22	909.75
501.437	891.75
501.654	812.75
501.871	824.75
502.088	761.75
502.305	752.75
502.522	700.75
502.739	702.75
502.956	676.75
503.172	666.75
503.389	651.75
503.606	640.75
503.823	632.75
504.04	659.75
504.256	650.75
504.473	634.75
504.69	632.75
504.907	632.75
505.123	607.75
505.34	599.75
505.557	596.75
505.773	601.75
505.99	608.75
506.207	561.75
506.423	578.75
506.64	577.75
506.856	564.75
507.073	576.75
507.289	582.75
507.506	558.75
507.722	552.75
507.939	584.75
508.155	553.75
508.372	557.75
508.588	541.75
508.805	551.75
509.021	545.75
509.238	567.75
509.454	559.75
509.67	566.75
509.887	540.75
510.103	532.75
510.319	558.75
510.536	618.75
510.752	884.75
510.968	727.75
511.184	540.75
511.401	541.75
511.617	509.75
511.833	530.75
512.049	520.75
512.265	527.75
512.481	512.75
512.698	530.75
512.914	517.75
513.13	509.75
513.346	497.75
513.562	522.75
513.778	491.75
513.994	525.75
514.21	507.75
514.426	533.75
514.642	549.75
514.858	560.75
515.074	575.75
515.29	641.75
515.506	846.75
515.721	730.75
515.937	572.75
516.153	556.75
516.369	578.75
516.585	556.75
516.801	540.75
517.016	572.75
517.232	561.75
517.448	566.75
517.664	569.75
517.879	560.75
518.095	568.75
518.311	587.75
518.527	538.75
518.742	555.75
518.958	527.75
519.173	533.75
519.389	543.75
519.605	548.75
519.82	537.75
520.036	534.75
520.251	536.75
520.467	540.75
520.682	545.75
520.898	542.75
521.113	536.75
521.329	553.75
521.544	631.75
521.76	743.75
521.975	1086.75
522.19	1030.75
522.406	651.75
522.621	538.75
522.836	504.75
523.052	490.75
523.267	503.75
523.482	484.75
523.698	478.75
523.913	464.75
524.128	448.75
524.343	458.75
524.559	454.75
524.774	430.75
524.989	468.75
525.204	459.75
525.419	436.75
525.634	454.75
525.849	444.75
526.064	423.75
526.28	436.75
526.495	429.75
526.71	435.75
526.925	436.75
527.14	431.75
527.355	433.75
527.57	424.75
527.785	438.75
527.999	420.75
528.214	432.75
528.429	411.75
528.644	416.75
528.859	427.75
529.074	416.75
529.289	456.75
529.503	492.75
529.718	454.75
529.933	429.75
530.148	439.75
530.363	448.75
530.577	441.75
530.792	432.75
531.007	423.75
531.221	449.75
531.436	420.75
531.651	422.75
531.865	424.75
532.08	407.75
532.295	410.75
532.509	401.75
532.724	416.75
532.938	411.75
533.153	418.75
533.367	414.75
533.582	427.75
533.796	431.75
534.011	399.75
534.225	413.75
534.44	404.75
534.654	392.75
534.868	388.75
535.083	400.75
535.297	416.75
535.511	409.75
535.726	409.75
535.94	401.75
536.154	431.75
536.369	413.75
536.583	407.75
536.797	414.75
537.011	394.75
537.225	409.75
537.44	390.75
537.654	412.75
537.868	394.75
538.082	404.75
538.296	394.75
538.51	413.75
538.724	392.75
538.938	394.75
539.153	378.75
539.367	415.75
539.581	390.75
539.795	392.75
540.009	392.75
540.222	394.75
540.436	398.75
540.65	408.75
540.864	399.75
541.078	396.75
541.292	379.75
541.506	400.75
541.72	400.75
541.934	387.75
542.147	412.75
542.361	400.75
542.575	384.75
542.789	383.75
543.002	398.75
543.216	379.75
543.43	416.75
543.644	393.75
543.857	400.75
544.071	406.75
544.285	379.75
544.498	416.75
544.712	399.75
544.925	388.75
545.139	396.75
545.352	389.75
545.566	400.75
545.779	380.75
545.993	392.75
546.206	394.75
546.42	387.75
546.633	386.75
546.847	369.75
547.06	380.75
547.274	392.75
547.487	377.75
547.7	376.75
547.914	388.75
548.127	375.75
548.34	389.75
548.554	385.75
548.767	390.75
548.98	372.75
549.193	385.75
549.407	385.75
549.62	382.75
549.833	379.75
550.046	365.75
550.259	380.75
550.473	378.75
550.686	372.75
550.899	381.75
551.112	358.75
551.325	374.75
551.538	364.75
551.751	372.75
551.964	375.75
552.177	372.75
552.39	377.75
552.603	388.75
552.816	398.75
553.029	400.75
553.242	385.75
553.455	396.75
553.667	417.75
553.88	403.75
554.093	398.75
554.306	382.75
554.519	386.75
554.732	383.75
554.944	372.75
555.157	382.75
555.37	379.75
555.583	365.75
555.795	377.75
556.008	332.75
556.221	359.75
556.433	372.75
556.646	346.75
556.859	345.75
557.071	358.75
557.284	356.75
557.496	333.75
557.709	352.75
557.921	340.75
558.134	353.75
558.346	328.75
558.559	354.75
558.771	334.75
558.984	342.75
559.196	324.75
559.409	339.75
559.621	329.75
559.833	331.75
560.046	348.75
560.258	328.75
560.47	346.75
560.683	333.75
560.895	336.75
561.107	333.75
561.32	345.75
561.532	335.75
561.744	356.75
561.956	350.75
562.168	344.75
562.381	358.75
562.593	349.75
562.805	360.75
563.017	341.75
563.229	329.75
563.441	344.75
563.653	332.75
563.865	348.75
564.077	336.75
564.289	354.75
564.501	359.75
564.713	338.75
564.925	346.75
565.137	362.75
565.349	375.75
565.561	376.75
565.773	365.75
565.985	410.75
566.197	392.75
566.408	399.75
566.62	425.75
566.832	444.75
567.044	436.75
567.255	414.75
567.467	479.75
567.679	445.75
567.891	480.75
568.102	463.75
568.314	459.75
568.526	444.75
568.737	413.75
568.949	413.75
569.161	372.75
569.372	376.75
569.584	383.75
569.795	369.75
570.007	349.75
570.218	374.75
570.43	352.75
570.641	332.75
570.853	355.75
571.064	330.75
571.276	342.75
571.487	320.75
571.698	330.75
571.91	336.75
572.121	327.75
572.333	316.75
572.544	306.75
572.755	319.75
572.966	310.75
573.178	301.75
573.389	315.75
573.6	303.75
573.811	288.75
574.023	314.75
574.234	295.75
574.445	299.75
574.656	332.75
574.867	304.75
575.078	287.75
575.289	300.75
575.501	288.75
575.712	296.75
575.923	296.75
576.134	290.75
576.345	294.75
576.556	295.75
576.767	292.75
576.978	282.75
577.188	290.75
577.399	285.75
577.61	292.75
577.821	294.75
578.032	286.75
578.243	301.75
578.454	420.75
578.665	347.75
578.875	302.75
579.086	280.75
579.297	288.75
579.508	275.75
579.718	282.75
579.929	270.75
580.14	274.75
580.35	255.75
580.561	277.75
580.772	272.75
580.982	290.75
581.193	268.75
581.403	296.75
581.614	267.75
581.825	269.75
582.035	269.75
582.246	269.75
582.456	265.75
582.667	267.75
582.877	274.75
583.087	269.75
583.298	257.75
583.508	270.75
583.719	254.75
583.929	283.75
584.139	269.75
584.35	266.75
584.56	281.75
584.77	279.75
584.981	276.75
585.191	262.75
585.401	265.75
585.611	252.75
585.821	279.75
586.032	253.75
586.242	267.75
586.452	269.75
586.662	265.75
586.872	254.75
587.082	247.75
587.292	249.75
587.502	241.75
587.713	263.75
587.923	268.75
588.133	259.75
588.343	255.75
588.553	257.75
588.762	267.75
588.972	252.75
589.182	254.75
589.392	268.75
589.602	264.75
589.812	261.75
590.022	253.75
590.232	253.75
590.441	268.75
590.651	244.75
590.861	273.75
591.071	271.75
591.281	244.75
591.49	265.75
591.7	264.75
591.91	258.75
592.119	280.75
592.329	268.75
592.539	277.75
592.748	283.75
592.958	272.75
593.167	285.75
593.377	264.75
593.587	268.75
593.796	292.75
594.006	288.75
594.215	293.75
594.424	298.75
594.634	276.75
594.843	275.75
595.053	280.75
595.262	274.75
595.472	273.75
595.681	262.75
595.89	249.75
596.1	241.75
596.309	260.75
596.518	253.75
596.727	247.75
596.937	240.75
597.146	232.75
597.355	246.75
597.564	241.75
597.774	249.75
597.983	239.75
598.192	233.75
598.401	246.75
598.61	235.75
598.819	240.75
599.028	232.75
599.237	239.75
599.446	232.75
599.655	247.75
599.864	230.75
600.073	214.75
600.282	210.75
600.491	220.75
600.7	233.75
600.909	225.75
601.118	236.75
601.327	241.75
601.536	227.75
601.745	231.75
601.953	226.75
602.162	234.75
602.371	238.75
602.58	208.75
602.789	230.75
602.997	228.75
603.206	222.75
603.415	213.75
603.623	227.75
603.832	225.75
604.041	224.75
604.249	228.75
604.458	237.75
604.666	233.75
604.875	220.75
605.084	217.75
605.292	229.75
605.501	232.75
605.709	196.75
605.918	212.75
606.126	216.75
606.334	214.75
606.543	205.75
606.751	217.75
606.96	212.75
607.168	212.75
607.376	226.75
607.585	226.75
607.793	215.75
608.001	215.75
608.21	220.75
608.418	217.75
608.626	203.75
608.834	201.75
609.043	229.75
609.251	207.75
609.459	220.75
609.667	220.75
609.875	207.75
610.083	206.75
610.291	205.75
610.499	213.75
610.707	210.75
610.916	200.75
611.124	210.75
611.332	224.75
611.54	224.75
611.748	234.75
611.955	218.75
612.163	205.75
612.371	223.75
612.579	204.75
612.787	207.75
612.995	219.75
613.203	216.75
613.411	214.75
613.618	201.75
613.826	210.75
614.034	212.75
614.242	212.75
614.449	208.75
614.657	207.75
614.865	201.75
615.072	213.75
615.28	204.75
615.488	200.75
615.695	207.75
615.903	213.75
616.111	203.75
616.318	190.75
616.526	201.75
616.733	213.75
616.941	197.75
617.148	223.75
617.356	215.75
617.563	213.75
617.771	213.75
617.978	213.75
618.185	209.75
618.393	211.75
618.6	218.75
618.807	207.75
619.015	205.75
619.222	190.75
619.429	194.75
619.637	204.75
619.844	216.75
620.051	199.75
620.258	205.75
620.466	193.75
620.673	194.75
620.88	185.75
621.087	188.75
621.294	208.75
621.501	196.75
621.708	200.75
621.915	197.75
622.122	185.75
622.329	205.75
622.536	197.75
622.743	204.75
622.95	203.75
623.157	196.75
623.364	204.75
623.571	191.75
623.778	191.75
623.985	181.75
624.192	182.75
624.399	197.75
624.606	176.75
624.812	174.75
625.019	176.75
625.226	194.75
625.433	206.75
625.639	185.75
625.846	199.75
626.053	191.75
626.259	193.75
626.466	185.75
626.673	172.75
626.879	177.75
627.086	193.75
627.293	192.75
627.499	188.75
627.706	189.75
627.912	201.75
628.119	171.75
628.325	176.75
628.532	190.75
628.738	186.75
628.945	182.75
629.151	188.75
629.357	169.75
629.564	175.75
629.77	193.75
629.976	184.75
630.183	171.75
630.389	172.75
630.595	172.75
630.802	178.75
631.008	187.75
631.214	164.75
631.42	165.75
631.627	181.75
631.833	177.75
632.039	178.75
632.245	167.75
632.451	154.75
632.657	176.75
632.863	166.75
633.069	167.75
633.275	171.75
633.481	171.75
633.688	162.75
633.893	175.75
634.099	183.75
634.305	170.75
634.511	160.75
634.717	160.75
634.923	170.75
635.129	175.75
635.335	158.75
635.541	162.75
635.747	178.75
635.952	150.75
636.158	157.75
636.364	172.75
636.57	180.75
636.775	164.75
636.981	162.75
637.187	161.75
637.392	156.75
637.598	165.75
637.804	170.75
638.009	183.75
638.215	177.75
638.421	173.75
638.626	161.75
638.832	161.75
639.037	162.75
639.243	161.75
639.448	160.75
639.654	157.75
639.859	164.75
640.065	166.75
640.27	156.75
640.475	153.75
640.681	153.75
640.886	158.75
641.091	159.75
641.297	156.75
641.502	158.75
641.707	157.75
641.913	146.75
642.118	157.75
642.323	144.75
642.528	163.75
642.733	156.75
642.939	168.75
643.144	143.75
643.349	151.75
643.554	161.75
643.759	160.75
643.964	154.75
644.169	157.75
644.374	145.75
644.579	150.75
644.784	153.75
644.989	157.75
645.194	150.75
645.399	151.75
645.604	151.75
645.809	176.75
646.014	145.75
646.219	168.75
646.423	162.75
646.628	143.75
646.833	150.75
647.038	156.75
647.243	156.75
647.447	152.75
647.652	150.75
647.857	159.75
648.062	160.75
648.266	146.75
648.471	168.75
648.676	149.75
648.88	152.75
649.085	148.75
649.289	162.75
649.494	164.75
649.698	165.75
649.903	180.75
650.107	156.75
650.312	155.75
650.516	145.75
650.721	150.75
650.925	138.75
651.13	147.75
651.334	138.75
651.539	145.75
651.743	139.75
651.947	151.75
652.152	142.75
652.356	144.75
652.56	147.75
652.764	134.75
652.969	149.75
653.173	134.75
653.377	133.75
653.581	130.75
653.785	127.75
653.99	129.75
654.194	140.75
654.398	144.75
654.602	128.75
654.806	112.75
655.01	136.75
655.214	143.75
655.418	125.75
655.622	136.75
655.826	110.75
656.03	136.75
656.234	128.75
656.438	132.75
656.642	135.75
656.846	125.75
657.049	136.75
657.253	116.75
657.457	132.75
657.661	115.75
657.865	122.75
658.068	115.75
658.272	126.75
658.476	117.75
658.68	109.75
658.883	112.75
659.087	120.75
659.291	112.75
659.494	105.75
659.698	100.75
659.901	90.75
660.105	98.75
660.309	90.75
660.512	102.75
660.716	90.75
660.919	93.75
661.123	101.75
661.326	93.75
661.53	100.75
661.733	93.75
661.936	91.75
662.14	94.75
662.343	94.75
662.546	95.75
662.75	90.75
662.953	73.75
663.156	77.75
663.36	79.75
663.563	88.75
663.766	92.75
663.969	88.75
664.173	82.75
664.376	91.75
664.579	80.75
664.782	84.75
664.985	96.75
665.188	100.75
665.391	75.75
665.594	94.75
665.797	86.75
666	76.75
666.203	90.75
666.406	86.75
666.609	80.75
666.812	88.75
667.015	86.75
667.218	84.75
667.421	92.75
667.624	74.75
667.827	89.75
668.03	103.75
668.232	86.75
668.435	100.75
668.638	73.75
668.841	89.75
669.043	88.75
669.246	76.75
669.449	83.75
669.651	103.75
669.854	90.75
670.057	84.75
670.259	94.75
670.462	86.75
670.665	93.75
670.867	71.75
671.07	90.75
671.272	95.75
671.475	89.75
671.677	77.75
671.88	93.75
672.082	91.75
672.284	79.75
672.487	94.75
672.689	94.75
672.892	76.75
