Data from 1977.PennyLincolnUp.Lamp.En5.5.200Scan.071719.P1_HRD10591_16-06-39-864.txt Node
Date: Thu Jul 18 16:06:39 EDT 2019
User: cochatt
Spectrometer: HR+D1059
Trigger mode: 1
Integration Time (sec): 1.000000E-1
Scans to average: 1
Electric dark correction enabled: true
Nonlinearity correction enabled: false
Boxcar width: 0
XAxis mode: Wavelengths
Number of Pixels in Spectrum: 2048
>>>>>Begin Spectral Data<<<<<
223.165	-9.12
223.4	-9.12
223.635	-9.12
223.869	-11.12
224.104	-23.12
224.338	-23.12
224.573	-21.12
224.808	-9.12
225.042	-7.12
225.277	7.88
225.511	0.88
225.746	-0.12
225.98	5.88
226.215	-1.12
226.449	17.88
226.683	21.88
226.918	23.88
227.152	26.88
227.387	38.88
227.621	33.88
227.856	39.88
228.09	36.88
228.324	47.88
228.559	53.88
228.793	64.88
229.027	83.88
229.262	95.88
229.496	92.88
229.73	112.88
229.964	135.88
230.199	123.88
230.433	110.88
230.667	98.88
230.901	93.88
231.136	115.88
231.37	107.88
231.604	103.88
231.838	106.88
232.072	81.88
232.306	100.88
232.541	105.88
232.775	122.88
233.009	118.88
233.243	104.88
233.477	104.88
233.711	120.88
233.945	118.88
234.179	98.88
234.413	99.88
234.647	113.88
234.881	110.88
235.115	114.88
235.349	128.88
235.583	100.88
235.817	122.88
236.051	122.88
236.285	123.88
236.519	117.88
236.753	119.88
236.987	120.88
237.221	159.88
237.455	207.88
237.689	174.88
237.922	129.88
238.156	130.88
238.39	129.88
238.624	135.88
238.858	131.88
239.091	119.88
239.325	127.88
239.559	134.88
239.793	127.88
240.027	120.88
240.26	129.88
240.494	146.88
240.728	151.88
240.961	129.88
241.195	144.88
241.429	120.88
241.662	153.88
241.896	119.88
242.13	117.88
242.363	122.88
242.597	127.88
242.83	128.88
243.064	141.88
243.298	137.88
243.531	142.88
243.765	130.88
243.998	132.88
244.232	135.88
244.465	145.88
244.699	159.88
244.932	136.88
245.166	141.88
245.399	152.88
245.633	135.88
245.866	144.88
246.099	136.88
246.333	136.88
246.566	148.88
246.8	148.88
247.033	160.88
247.266	158.88
247.5	145.88
247.733	146.88
247.966	158.88
248.2	170.88
248.433	184.88
248.666	166.88
248.899	178.88
249.133	190.88
249.366	194.88
249.599	174.88
249.832	185.88
250.066	172.88
250.299	170.88
250.532	180.88
250.765	182.88
250.998	218.88
251.231	200.88
251.465	211.88
251.698	191.88
251.931	182.88
252.164	190.88
252.397	200.88
252.63	195.88
252.863	186.88
253.096	209.88
253.329	213.88
253.562	191.88
253.795	212.88
254.028	208.88
254.261	208.88
254.494	221.88
254.727	239.88
254.96	243.88
255.193	243.88
255.426	232.88
255.659	234.88
255.892	215.88
256.124	226.88
256.357	210.88
256.59	216.88
256.823	207.88
257.056	219.88
257.289	219.88
257.521	212.88
257.754	209.88
257.987	211.88
258.22	219.88
258.452	227.88
258.685	224.88
258.918	194.88
259.151	195.88
259.383	219.88
259.616	218.88
259.849	217.88
260.081	236.88
260.314	270.88
260.547	265.88
260.779	244.88
261.012	223.88
261.244	218.88
261.477	213.88
261.71	229.88
261.942	221.88
262.175	227.88
262.407	231.88
262.64	219.88
262.872	224.88
263.105	217.88
263.337	227.88
263.57	219.88
263.802	204.88
264.035	217.88
264.267	227.88
264.499	234.88
264.732	211.88
264.964	206.88
265.197	226.88
265.429	218.88
265.661	209.88
265.894	215.88
266.126	217.88
266.358	219.88
266.591	226.88
266.823	218.88
267.055	235.88
267.287	243.88
267.52	235.88
267.752	231.88
267.984	209.88
268.216	235.88
268.448	225.88
268.681	244.88
268.913	239.88
269.145	239.88
269.377	268.88
269.609	298.88
269.841	276.88
270.073	278.88
270.306	285.88
270.538	305.88
270.77	287.88
271.002	306.88
271.234	298.88
271.466	305.88
271.698	300.88
271.93	307.88
272.162	312.88
272.394	310.88
272.626	291.88
272.858	269.88
273.09	290.88
273.322	267.88
273.553	279.88
273.785	276.88
274.017	259.88
274.249	269.88
274.481	274.88
274.713	272.88
274.945	260.88
275.176	283.88
275.408	265.88
275.64	271.88
275.872	264.88
276.104	262.88
276.335	286.88
276.567	290.88
276.799	312.88
277.031	299.88
277.262	308.88
277.494	304.88
277.726	309.88
277.957	288.88
278.189	291.88
278.421	288.88
278.652	295.88
278.884	287.88
279.115	272.88
279.347	281.88
279.579	275.88
279.81	259.88
280.042	276.88
280.273	302.88
280.505	277.88
280.736	296.88
280.968	270.88
281.199	281.88
281.431	295.88
281.662	294.88
281.894	294.88
282.125	272.88
282.356	300.88
282.588	324.88
282.819	314.88
283.051	299.88
283.282	294.88
283.513	294.88
283.745	278.88
283.976	283.88
284.207	298.88
284.439	296.88
284.67	302.88
284.901	293.88
285.132	280.88
285.364	299.88
285.595	299.88
285.826	310.88
286.057	290.88
286.288	286.88
286.52	292.88
286.751	299.88
286.982	314.88
287.213	282.88
287.444	300.88
287.675	304.88
287.906	298.88
288.138	318.88
288.369	317.88
288.6	305.88
288.831	314.88
289.062	309.88
289.293	317.88
289.524	316.88
289.755	298.88
289.986	320.88
290.217	292.88
290.448	291.88
290.679	314.88
290.91	323.88
291.141	322.88
291.371	310.88
291.602	292.88
291.833	299.88
292.064	299.88
292.295	303.88
292.526	306.88
292.757	305.88
292.987	311.88
293.218	296.88
293.449	312.88
293.68	311.88
293.91	310.88
294.141	298.88
294.372	310.88
294.603	316.88
294.833	327.88
295.064	311.88
295.295	308.88
295.525	313.88
295.756	336.88
295.987	318.88
296.217	341.88
296.448	342.88
296.679	326.88
296.909	316.88
297.14	323.88
297.37	309.88
297.601	327.88
297.831	335.88
298.062	345.88
298.292	319.88
298.523	319.88
298.753	310.88
298.984	318.88
299.214	318.88
299.445	334.88
299.675	344.88
299.905	355.88
300.136	330.88
300.366	334.88
300.597	357.88
300.827	340.88
301.057	324.88
301.288	342.88
301.518	342.88
301.748	355.88
301.979	363.88
302.209	361.88
302.439	370.88
302.669	330.88
302.9	358.88
303.13	350.88
303.36	375.88
303.59	330.88
303.82	350.88
304.051	350.88
304.281	350.88
304.511	358.88
304.741	345.88
304.971	355.88
305.201	369.88
305.431	357.88
305.661	347.88
305.891	363.88
306.121	359.88
306.352	363.88
306.582	326.88
306.812	336.88
307.042	350.88
307.272	350.88
307.502	361.88
307.731	351.88
307.961	343.88
308.191	346.88
308.421	349.88
308.651	361.88
308.881	348.88
309.111	361.88
309.341	346.88
309.571	375.88
309.8	368.88
310.03	354.88
310.26	382.88
310.49	400.88
310.72	369.88
310.949	383.88
311.179	401.88
311.409	394.88
311.639	391.88
311.868	386.88
312.098	401.88
312.328	385.88
312.557	390.88
312.787	406.88
313.017	406.88
313.246	383.88
313.476	380.88
313.706	393.88
313.935	391.88
314.165	405.88
314.394	410.88
314.624	411.88
314.853	397.88
315.083	402.88
315.312	371.88
315.542	403.88
315.771	386.88
316.001	384.88
316.23	387.88
316.46	399.88
316.689	385.88
316.919	397.88
317.148	416.88
317.377	409.88
317.607	394.88
317.836	392.88
318.065	399.88
318.295	374.88
318.524	399.88
318.753	386.88
318.983	384.88
319.212	391.88
319.441	411.88
319.67	401.88
319.9	408.88
320.129	409.88
320.358	400.88
320.587	368.88
320.816	406.88
321.046	394.88
321.275	414.88
321.504	404.88
321.733	422.88
321.962	422.88
322.191	422.88
322.42	436.88
322.649	438.88
322.878	451.88
323.108	453.88
323.337	444.88
323.566	486.88
323.795	527.88
324.024	566.88
324.253	617.88
324.482	884.88
324.71	1259.88
324.939	1740.88
325.168	1467.88
325.397	790.88
325.626	574.88
325.855	507.88
326.084	488.88
326.313	497.88
326.542	494.88
326.77	518.88
326.999	591.88
327.228	772.88
327.457	1108.88
327.686	1273.88
327.914	894.88
328.143	644.88
328.372	566.88
328.6	510.88
328.829	520.88
329.058	538.88
329.287	542.88
329.515	498.88
329.744	488.88
329.972	492.88
330.201	512.88
330.43	521.88
330.658	552.88
330.887	562.88
331.115	534.88
331.344	514.88
331.572	463.88
331.801	485.88
332.03	478.88
332.258	480.88
332.486	478.88
332.715	481.88
332.943	482.88
333.172	474.88
333.4	496.88
333.629	515.88
333.857	515.88
334.085	522.88
334.314	511.88
334.542	525.88
334.771	527.88
334.999	479.88
335.227	490.88
335.455	504.88
335.684	474.88
335.912	472.88
336.14	470.88
336.369	446.88
336.597	488.88
336.825	460.88
337.053	464.88
337.281	436.88
337.51	459.88
337.738	463.88
337.966	465.88
338.194	457.88
338.422	459.88
338.65	460.88
338.878	450.88
339.106	449.88
339.334	437.88
339.562	439.88
339.79	427.88
340.018	458.88
340.246	418.88
340.474	463.88
340.702	439.88
340.93	426.88
341.158	435.88
341.386	427.88
341.614	460.88
341.842	449.88
342.07	421.88
342.298	432.88
342.526	436.88
342.754	435.88
342.981	418.88
343.209	438.88
343.437	453.88
343.665	447.88
343.893	433.88
344.12	455.88
344.348	456.88
344.576	451.88
344.804	445.88
345.031	451.88
345.259	430.88
345.487	445.88
345.714	428.88
345.942	442.88
346.17	428.88
346.397	450.88
346.625	416.88
346.853	410.88
347.08	424.88
347.308	404.88
347.535	444.88
347.763	429.88
347.99	420.88
348.218	438.88
348.445	426.88
348.673	413.88
348.9	422.88
349.128	422.88
349.355	391.88
349.583	393.88
349.81	414.88
350.037	414.88
350.265	412.88
350.492	410.88
350.72	417.88
350.947	408.88
351.174	433.88
351.402	438.88
351.629	412.88
351.856	407.88
352.083	414.88
352.311	414.88
352.538	412.88
352.765	410.88
352.992	395.88
353.22	422.88
353.447	405.88
353.674	403.88
353.901	386.88
354.128	397.88
354.355	382.88
354.583	391.88
354.81	396.88
355.037	385.88
355.264	393.88
355.491	383.88
355.718	402.88
355.945	406.88
356.172	386.88
356.399	380.88
356.626	388.88
356.853	403.88
357.08	382.88
357.307	385.88
357.534	385.88
357.761	390.88
357.988	394.88
358.215	378.88
358.441	386.88
358.668	392.88
358.895	379.88
359.122	414.88
359.349	389.88
359.576	399.88
359.802	436.88
360.029	440.88
360.256	451.88
360.483	432.88
360.709	420.88
360.936	386.88
361.163	397.88
361.39	428.88
361.616	407.88
361.843	396.88
362.07	411.88
362.296	399.88
362.523	411.88
362.749	425.88
362.976	392.88
363.203	393.88
363.429	408.88
363.656	372.88
363.882	400.88
364.109	391.88
364.335	397.88
364.562	396.88
364.788	391.88
365.015	395.88
365.241	402.88
365.468	424.88
365.694	403.88
365.92	409.88
366.147	411.88
366.373	383.88
366.599	394.88
366.826	382.88
367.052	383.88
367.278	388.88
367.505	382.88
367.731	380.88
367.957	393.88
368.184	395.88
368.41	414.88
368.636	403.88
368.862	407.88
369.089	392.88
369.315	383.88
369.541	384.88
369.767	391.88
369.993	394.88
370.219	391.88
370.445	396.88
370.672	376.88
370.898	396.88
371.124	385.88
371.35	401.88
371.576	385.88
371.802	405.88
372.028	397.88
372.254	400.88
372.48	388.88
372.706	408.88
372.932	394.88
373.158	395.88
373.384	397.88
373.61	404.88
373.835	416.88
374.061	401.88
374.287	408.88
374.513	389.88
374.739	413.88
374.965	398.88
375.191	403.88
375.416	404.88
375.642	397.88
375.868	392.88
376.094	392.88
376.319	388.88
376.545	367.88
376.771	392.88
376.997	391.88
377.222	401.88
377.448	382.88
377.674	377.88
377.899	378.88
378.125	390.88
378.35	380.88
378.576	374.88
378.802	379.88
379.027	380.88
379.253	382.88
379.478	388.88
379.704	378.88
379.929	374.88
380.155	397.88
380.38	380.88
380.606	378.88
380.831	379.88
381.057	383.88
381.282	368.88
381.507	376.88
381.733	389.88
381.958	387.88
382.184	391.88
382.409	404.88
382.634	398.88
382.86	408.88
383.085	394.88
383.31	405.88
383.535	392.88
383.761	404.88
383.986	404.88
384.211	411.88
384.436	410.88
384.662	414.88
384.887	424.88
385.112	411.88
385.337	437.88
385.562	416.88
385.787	411.88
386.013	459.88
386.238	437.88
386.463	437.88
386.688	431.88
386.913	419.88
387.138	409.88
387.363	423.88
387.588	417.88
387.813	420.88
388.038	435.88
388.263	434.88
388.488	440.88
388.713	415.88
388.938	432.88
389.163	434.88
389.387	425.88
389.612	427.88
389.837	426.88
390.062	409.88
390.287	425.88
390.512	402.88
390.736	407.88
390.961	424.88
391.186	432.88
391.411	438.88
391.636	418.88
391.86	440.88
392.085	468.88
392.31	458.88
392.534	453.88
392.759	438.88
392.984	451.88
393.208	423.88
393.433	437.88
393.658	425.88
393.882	431.88
394.107	436.88
394.331	437.88
394.556	417.88
394.78	430.88
395.005	430.88
395.229	420.88
395.454	453.88
395.678	438.88
395.903	468.88
396.127	478.88
396.352	473.88
396.576	456.88
396.801	432.88
397.025	462.88
397.249	461.88
397.474	449.88
397.698	447.88
397.922	466.88
398.147	483.88
398.371	463.88
398.595	500.88
398.82	472.88
399.044	512.88
399.268	526.88
399.492	541.88
399.717	593.88
399.941	630.88
400.165	617.88
400.389	598.88
400.613	560.88
400.837	530.88
401.062	495.88
401.286	497.88
401.51	494.88
401.734	463.88
401.958	474.88
402.182	491.88
402.406	488.88
402.63	483.88
402.854	502.88
403.078	494.88
403.302	488.88
403.526	508.88
403.75	494.88
403.974	504.88
404.198	505.88
404.422	518.88
404.645	518.88
404.869	507.88
405.093	540.88
405.317	566.88
405.541	592.88
405.765	554.88
405.988	523.88
406.212	532.88
406.436	539.88
406.66	558.88
406.883	536.88
407.107	571.88
407.331	607.88
407.555	649.88
407.778	628.88
408.002	599.88
408.226	552.88
408.449	568.88
408.673	534.88
408.896	589.88
409.12	613.88
409.344	572.88
409.567	529.88
409.791	534.88
410.014	488.88
410.238	517.88
410.461	478.88
410.685	489.88
410.908	537.88
411.132	536.88
411.355	564.88
411.578	556.88
411.802	531.88
412.025	506.88
412.249	502.88
412.472	507.88
412.695	570.88
412.919	561.88
413.142	507.88
413.365	486.88
413.589	484.88
413.812	486.88
414.035	489.88
414.258	475.88
414.482	486.88
414.705	475.88
414.928	455.88
415.151	476.88
415.374	485.88
415.597	483.88
415.821	466.88
416.044	466.88
416.267	473.88
416.49	440.88
416.713	457.88
416.936	463.88
417.159	468.88
417.382	458.88
417.605	479.88
417.828	489.88
418.051	506.88
418.274	491.88
418.497	468.88
418.72	473.88
418.943	461.88
419.166	473.88
419.389	518.88
419.611	520.88
419.834	504.88
420.057	500.88
420.28	486.88
420.503	501.88
420.726	485.88
420.948	501.88
421.171	534.88
421.394	558.88
421.617	497.88
421.839	487.88
422.062	472.88
422.285	478.88
422.507	552.88
422.73	601.88
422.953	579.88
423.175	516.88
423.398	508.88
423.621	501.88
423.843	492.88
424.066	504.88
424.288	522.88
424.511	539.88
424.733	576.88
424.956	639.88
425.178	625.88
425.401	614.88
425.623	626.88
425.846	546.88
426.068	501.88
426.291	516.88
426.513	506.88
426.735	517.88
426.958	530.88
427.18	584.88
427.402	698.88
427.625	759.88
427.847	670.88
428.069	575.88
428.292	553.88
428.514	502.88
428.736	496.88
428.958	489.88
429.181	456.88
429.403	469.88
429.625	464.88
429.847	479.88
430.069	544.88
430.292	556.88
430.514	483.88
430.736	471.88
430.958	451.88
431.18	428.88
431.402	447.88
431.624	440.88
431.846	426.88
432.068	433.88
432.29	452.88
432.512	451.88
432.734	456.88
432.956	464.88
433.178	460.88
433.4	450.88
433.622	435.88
433.844	446.88
434.066	440.88
434.287	457.88
434.509	453.88
434.731	465.88
434.953	494.88
435.175	483.88
435.397	507.88
435.618	522.88
435.84	545.88
436.062	615.88
436.284	688.88
436.505	552.88
436.727	487.88
436.949	470.88
437.17	455.88
437.392	451.88
437.614	456.88
437.835	499.88
438.057	562.88
438.278	642.88
438.5	647.88
438.721	729.88
438.943	690.88
439.165	551.88
439.386	496.88
439.608	498.88
439.829	509.88
440.05	530.88
440.272	550.88
440.493	534.88
440.715	479.88
440.936	482.88
441.158	470.88
441.379	479.88
441.6	471.88
441.822	517.88
442.043	542.88
442.264	601.88
442.486	623.88
442.707	552.88
442.928	492.88
443.149	517.88
443.371	529.88
443.592	587.88
443.813	651.88
444.034	684.88
444.255	595.88
444.476	530.88
444.698	520.88
444.919	512.88
445.14	608.88
445.361	552.88
445.582	545.88
445.803	598.88
446.024	654.88
446.245	686.88
446.466	618.88
446.687	535.88
446.908	524.88
447.129	487.88
447.35	446.88
447.571	457.88
447.792	453.88
448.013	460.88
448.234	459.88
448.455	516.88
448.675	594.88
448.896	683.88
449.117	592.88
449.338	588.88
449.559	673.88
449.779	721.88
450	617.88
450.221	522.88
450.442	477.88
450.662	462.88
450.883	451.88
451.104	443.88
451.324	458.88
451.545	418.88
451.766	414.88
451.986	423.88
452.207	392.88
452.428	402.88
452.648	381.88
452.869	414.88
453.089	436.88
453.31	407.88
453.53	438.88
453.751	426.88
453.971	411.88
454.192	406.88
454.412	417.88
454.633	406.88
454.853	401.88
455.073	415.88
455.294	420.88
455.514	475.88
455.734	452.88
455.955	424.88
456.175	379.88
456.395	387.88
456.616	377.88
456.836	403.88
457.056	376.88
457.276	366.88
457.497	376.88
457.717	363.88
457.937	405.88
458.157	402.88
458.377	424.88
458.598	428.88
458.818	464.88
459.038	514.88
459.258	557.88
459.478	484.88
459.698	435.88
459.918	432.88
460.138	447.88
460.358	463.88
460.578	455.88
460.798	455.88
461.018	457.88
461.238	460.88
461.458	461.88
461.678	441.88
461.898	477.88
462.118	479.88
462.338	484.88
462.558	465.88
462.777	490.88
462.997	527.88
463.217	528.88
463.437	530.88
463.657	490.88
463.876	512.88
464.096	508.88
464.316	485.88
464.536	499.88
464.755	488.88
464.975	499.88
465.195	514.88
465.414	529.88
465.634	481.88
465.854	458.88
466.073	461.88
466.293	434.88
466.512	412.88
466.732	403.88
466.951	417.88
467.171	423.88
467.391	410.88
467.61	426.88
467.829	443.88
468.049	432.88
468.268	435.88
468.488	412.88
468.707	399.88
468.927	414.88
469.146	407.88
469.365	415.88
469.585	432.88
469.804	432.88
470.023	406.88
470.243	433.88
470.462	441.88
470.681	426.88
470.901	431.88
471.12	435.88
471.339	434.88
471.558	440.88
471.777	422.88
471.997	410.88
472.216	431.88
472.435	448.88
472.654	418.88
472.873	417.88
473.092	420.88
473.311	413.88
473.53	434.88
473.749	423.88
473.968	450.88
474.187	547.88
474.406	560.88
474.625	479.88
474.844	436.88
475.063	431.88
475.282	418.88
475.501	427.88
475.72	433.88
475.939	435.88
476.158	432.88
476.377	437.88
476.596	431.88
476.814	451.88
477.033	423.88
477.252	454.88
477.471	440.88
477.69	456.88
477.908	439.88
478.127	465.88
478.346	446.88
478.564	462.88
478.783	458.88
479.002	452.88
479.22	473.88
479.439	499.88
479.658	494.88
479.876	497.88
480.095	532.88
480.313	536.88
480.532	539.88
480.751	516.88
480.969	531.88
481.188	546.88
481.406	570.88
481.624	527.88
481.843	523.88
482.061	516.88
482.28	472.88
482.498	466.88
482.717	486.88
482.935	471.88
483.153	486.88
483.372	511.88
483.59	470.88
483.808	476.88
484.027	491.88
484.245	497.88
484.463	508.88
484.681	490.88
484.9	504.88
485.118	485.88
485.336	496.88
485.554	514.88
485.772	507.88
485.99	502.88
486.209	498.88
486.427	487.88
486.645	516.88
486.863	521.88
487.081	530.88
487.299	526.88
487.517	499.88
487.735	550.88
487.953	525.88
488.171	525.88
488.389	515.88
488.607	501.88
488.825	511.88
489.043	530.88
489.261	512.88
489.479	547.88
489.696	523.88
489.914	538.88
490.132	523.88
490.35	535.88
490.568	550.88
490.786	560.88
491.003	539.88
491.221	552.88
491.439	581.88
491.657	568.88
491.874	582.88
492.092	582.88
492.31	578.88
492.527	558.88
492.745	587.88
492.963	584.88
493.18	602.88
493.398	596.88
493.615	582.88
493.833	606.88
494.05	596.88
494.268	589.88
494.485	597.88
494.703	601.88
494.92	609.88
495.138	588.88
495.355	598.88
495.573	587.88
495.79	587.88
496.008	609.88
496.225	604.88
496.442	601.88
496.66	602.88
496.877	595.88
497.094	616.88
497.312	638.88
497.529	618.88
497.746	642.88
497.963	632.88
498.181	684.88
498.398	699.88
498.615	696.88
498.832	708.88
499.049	731.88
499.267	742.88
499.484	810.88
499.701	831.88
499.918	857.88
500.135	904.88
500.352	948.88
500.569	958.88
500.786	962.88
501.003	935.88
501.22	915.88
501.437	848.88
501.654	859.88
501.871	792.88
502.088	761.88
502.305	736.88
502.522	715.88
502.739	702.88
502.956	676.88
503.172	658.88
503.389	661.88
503.606	636.88
503.823	658.88
504.04	638.88
504.256	623.88
504.473	639.88
504.69	622.88
504.907	617.88
505.123	600.88
505.34	612.88
505.557	604.88
505.773	593.88
505.99	576.88
506.207	583.88
506.423	587.88
506.64	578.88
506.856	567.88
507.073	547.88
507.289	551.88
507.506	566.88
507.722	560.88
507.939	554.88
508.155	552.88
508.372	534.88
508.588	538.88
508.805	506.88
509.021	548.88
509.238	559.88
509.454	545.88
509.67	547.88
509.887	558.88
510.103	536.88
510.319	530.88
510.536	600.88
510.752	851.88
510.968	729.88
511.184	527.88
511.401	531.88
511.617	519.88
511.833	512.88
512.049	502.88
512.265	519.88
512.481	505.88
512.698	506.88
512.914	505.88
513.13	513.88
513.346	529.88
513.562	496.88
513.778	507.88
513.994	507.88
514.21	531.88
514.426	514.88
514.642	555.88
514.858	544.88
515.074	563.88
515.29	673.88
515.506	896.88
515.721	739.88
515.937	578.88
516.153	582.88
516.369	517.88
516.585	536.88
516.801	537.88
517.016	525.88
517.232	551.88
517.448	568.88
517.664	549.88
517.879	562.88
518.095	552.88
518.311	561.88
518.527	546.88
518.742	537.88
518.958	533.88
519.173	517.88
519.389	539.88
519.605	528.88
519.82	516.88
520.036	530.88
520.251	531.88
520.467	545.88
520.682	542.88
520.898	535.88
521.113	549.88
521.329	588.88
521.544	603.88
521.76	737.88
521.975	1116.88
522.19	1042.88
522.406	650.88
522.621	549.88
522.836	494.88
523.052	495.88
523.267	495.88
523.482	448.88
523.698	466.88
523.913	468.88
524.128	469.88
524.343	466.88
524.559	458.88
524.774	443.88
524.989	449.88
525.204	431.88
525.419	446.88
525.634	427.88
525.849	432.88
526.064	444.88
526.28	444.88
526.495	431.88
526.71	409.88
526.925	414.88
527.14	402.88
527.355	425.88
527.57	428.88
527.785	427.88
527.999	427.88
528.214	420.88
528.429	439.88
528.644	431.88
528.859	425.88
529.074	434.88
529.289	436.88
529.503	482.88
529.718	471.88
529.933	436.88
530.148	409.88
530.363	436.88
530.577	434.88
530.792	427.88
531.007	428.88
531.221	431.88
531.436	404.88
531.651	424.88
531.865	428.88
532.08	421.88
532.295	424.88
532.509	411.88
532.724	414.88
532.938	401.88
533.153	398.88
533.367	415.88
533.582	415.88
533.796	402.88
534.011	390.88
534.225	401.88
534.44	412.88
534.654	402.88
534.868	386.88
535.083	403.88
535.297	408.88
535.511	396.88
535.726	387.88
535.94	408.88
536.154	406.88
536.369	400.88
536.583	406.88
536.797	415.88
537.011	384.88
537.225	400.88
537.44	388.88
537.654	405.88
537.868	410.88
538.082	395.88
538.296	404.88
538.51	392.88
538.724	394.88
538.938	396.88
539.153	396.88
539.367	397.88
539.581	397.88
539.795	383.88
540.009	387.88
540.222	397.88
540.436	398.88
540.65	404.88
540.864	391.88
541.078	410.88
541.292	408.88
541.506	404.88
541.72	416.88
541.934	360.88
542.147	388.88
542.361	387.88
542.575	389.88
542.789	391.88
543.002	402.88
543.216	392.88
543.43	398.88
543.644	391.88
543.857	384.88
544.071	385.88
544.285	394.88
544.498	372.88
544.712	401.88
544.925	401.88
545.139	403.88
545.352	379.88
545.566	374.88
545.779	376.88
545.993	376.88
546.206	388.88
546.42	394.88
546.633	390.88
546.847	382.88
547.06	390.88
547.274	389.88
547.487	387.88
547.7	378.88
547.914	368.88
548.127	378.88
548.34	371.88
548.554	393.88
548.767	373.88
548.98	372.88
549.193	376.88
549.407	359.88
549.62	388.88
549.833	394.88
550.046	376.88
550.259	401.88
550.473	382.88
550.686	378.88
550.899	370.88
551.112	355.88
551.325	366.88
551.538	370.88
551.751	390.88
551.964	384.88
552.177	390.88
552.39	360.88
552.603	386.88
552.816	372.88
553.029	393.88
553.242	391.88
553.455	391.88
553.667	403.88
553.88	383.88
554.093	391.88
554.306	388.88
554.519	393.88
554.732	380.88
554.944	364.88
555.157	374.88
555.37	356.88
555.583	357.88
555.795	370.88
556.008	369.88
556.221	364.88
556.433	366.88
556.646	326.88
556.859	347.88
557.071	323.88
557.284	343.88
557.496	340.88
557.709	326.88
557.921	338.88
558.134	332.88
558.346	339.88
558.559	330.88
558.771	337.88
558.984	340.88
559.196	348.88
559.409	321.88
559.621	340.88
559.833	329.88
560.046	314.88
560.258	346.88
560.47	321.88
560.683	334.88
560.895	345.88
561.107	327.88
561.32	343.88
561.532	330.88
561.744	328.88
561.956	332.88
562.168	339.88
562.381	334.88
562.593	328.88
562.805	339.88
563.017	328.88
563.229	330.88
563.441	347.88
563.653	342.88
563.865	347.88
564.077	340.88
564.289	348.88
564.501	362.88
564.713	362.88
564.925	372.88
565.137	347.88
565.349	366.88
565.561	388.88
565.773	391.88
565.985	382.88
566.197	384.88
566.408	414.88
566.62	416.88
566.832	437.88
567.044	432.88
567.255	409.88
567.467	465.88
567.679	452.88
567.891	490.88
568.102	478.88
568.314	452.88
568.526	424.88
568.737	437.88
568.949	396.88
569.161	410.88
569.372	378.88
569.584	366.88
569.795	366.88
570.007	339.88
570.218	374.88
570.43	372.88
570.641	354.88
570.853	354.88
571.064	350.88
571.276	341.88
571.487	312.88
571.698	330.88
571.91	327.88
572.121	317.88
572.333	306.88
572.544	310.88
572.755	316.88
572.966	314.88
573.178	319.88
573.389	312.88
573.6	296.88
573.811	283.88
574.023	303.88
574.234	289.88
574.445	302.88
574.656	291.88
574.867	284.88
575.078	306.88
575.289	292.88
575.501	300.88
575.712	289.88
575.923	296.88
576.134	270.88
576.345	277.88
576.556	269.88
576.767	284.88
576.978	279.88
577.188	310.88
577.399	276.88
577.61	269.88
577.821	294.88
578.032	281.88
578.243	317.88
578.454	418.88
578.665	325.88
578.875	294.88
579.086	282.88
579.297	271.88
579.508	287.88
579.718	281.88
579.929	285.88
580.14	289.88
580.35	263.88
580.561	268.88
580.772	274.88
580.982	263.88
581.193	248.88
581.403	241.88
581.614	256.88
581.825	260.88
582.035	260.88
582.246	266.88
582.456	263.88
582.667	282.88
582.877	265.88
583.087	263.88
583.298	273.88
583.508	272.88
583.719	263.88
583.929	272.88
584.139	256.88
584.35	255.88
584.56	272.88
584.77	265.88
584.981	263.88
585.191	254.88
585.401	261.88
585.611	268.88
585.821	255.88
586.032	257.88
586.242	281.88
586.452	265.88
586.662	242.88
586.872	255.88
587.082	267.88
587.292	246.88
587.502	267.88
587.713	242.88
587.923	266.88
588.133	249.88
588.343	264.88
588.553	238.88
588.762	241.88
588.972	271.88
589.182	274.88
589.392	264.88
589.602	264.88
589.812	258.88
590.022	280.88
590.232	259.88
590.441	242.88
590.651	263.88
590.861	245.88
591.071	261.88
591.281	257.88
591.49	257.88
591.7	257.88
591.91	263.88
592.119	263.88
592.329	262.88
592.539	264.88
592.748	278.88
592.958	262.88
593.167	267.88
593.377	288.88
593.587	295.88
593.796	293.88
594.006	297.88
594.215	283.88
594.424	277.88
594.634	272.88
594.843	296.88
595.053	284.88
595.262	280.88
595.472	275.88
595.681	255.88
595.89	268.88
596.1	262.88
596.309	260.88
596.518	234.88
596.727	252.88
596.937	240.88
597.146	233.88
597.355	251.88
597.564	228.88
597.774	224.88
597.983	232.88
598.192	220.88
598.401	233.88
598.61	225.88
598.819	231.88
599.028	234.88
599.237	244.88
599.446	228.88
599.655	235.88
599.864	231.88
600.073	232.88
600.282	232.88
600.491	230.88
600.7	211.88
600.909	231.88
601.118	218.88
601.327	230.88
601.536	210.88
601.745	233.88
601.953	225.88
602.162	228.88
602.371	222.88
602.58	224.88
602.789	204.88
602.997	211.88
603.206	223.88
603.415	219.88
603.623	220.88
603.832	201.88
604.041	224.88
604.249	228.88
604.458	207.88
604.666	226.88
604.875	215.88
605.084	204.88
605.292	216.88
605.501	212.88
605.709	216.88
605.918	214.88
606.126	202.88
606.334	208.88
606.543	202.88
606.751	217.88
606.96	195.88
607.168	227.88
607.376	196.88
607.585	214.88
607.793	212.88
608.001	208.88
608.21	221.88
608.418	202.88
608.626	207.88
608.834	207.88
609.043	223.88
609.251	210.88
609.459	218.88
609.667	209.88
609.875	202.88
610.083	213.88
610.291	209.88
610.499	205.88
610.707	211.88
610.916	199.88
611.124	208.88
611.332	221.88
611.54	220.88
611.748	228.88
611.955	210.88
612.163	226.88
612.371	213.88
612.579	206.88
612.787	216.88
612.995	208.88
613.203	204.88
613.411	192.88
613.618	198.88
613.826	180.88
614.034	215.88
614.242	209.88
614.449	204.88
614.657	205.88
614.865	217.88
615.072	199.88
615.28	200.88
615.488	203.88
615.695	198.88
615.903	204.88
616.111	221.88
616.318	200.88
616.526	204.88
616.733	190.88
616.941	182.88
617.148	211.88
617.356	226.88
617.563	184.88
617.771	215.88
617.978	197.88
618.185	194.88
618.393	203.88
618.6	192.88
618.807	203.88
619.015	196.88
619.222	200.88
619.429	191.88
619.637	193.88
619.844	187.88
620.051	187.88
620.258	194.88
620.466	190.88
620.673	217.88
620.88	197.88
621.087	181.88
621.294	197.88
621.501	179.88
621.708	192.88
621.915	197.88
622.122	194.88
622.329	210.88
622.536	194.88
622.743	190.88
622.95	194.88
623.157	186.88
623.364	196.88
623.571	182.88
623.778	193.88
623.985	178.88
624.192	165.88
624.399	193.88
624.606	169.88
624.812	178.88
625.019	188.88
625.226	180.88
625.433	182.88
625.639	192.88
625.846	196.88
626.053	187.88
626.259	170.88
626.466	186.88
626.673	190.88
626.879	183.88
627.086	201.88
627.293	183.88
627.499	190.88
627.706	187.88
627.912	191.88
628.119	181.88
628.325	182.88
628.532	176.88
628.738	176.88
628.945	182.88
629.151	188.88
629.357	171.88
629.564	187.88
629.77	176.88
629.976	162.88
630.183	155.88
630.389	183.88
630.595	171.88
630.802	166.88
631.008	179.88
631.214	163.88
631.42	160.88
631.627	194.88
631.833	161.88
632.039	160.88
632.245	163.88
632.451	162.88
632.657	171.88
632.863	164.88
633.069	162.88
633.275	161.88
633.481	161.88
633.688	154.88
633.893	178.88
634.099	159.88
634.305	167.88
634.511	174.88
634.717	174.88
634.923	155.88
635.129	174.88
635.335	152.88
635.541	167.88
635.747	170.88
635.952	161.88
636.158	154.88
636.364	162.88
636.57	163.88
636.775	159.88
636.981	170.88
637.187	158.88
637.392	144.88
637.598	156.88
637.804	155.88
638.009	166.88
638.215	163.88
638.421	138.88
638.626	152.88
638.832	170.88
639.037	155.88
639.243	153.88
639.448	155.88
639.654	186.88
639.859	155.88
640.065	145.88
640.27	151.88
640.475	163.88
640.681	152.88
640.886	158.88
641.091	159.88
641.297	164.88
641.502	139.88
641.707	153.88
641.913	159.88
642.118	149.88
642.323	151.88
642.528	148.88
642.733	163.88
642.939	155.88
643.144	145.88
643.349	150.88
643.554	140.88
643.759	155.88
643.964	162.88
644.169	138.88
644.374	151.88
644.579	162.88
644.784	133.88
644.989	132.88
645.194	165.88
645.399	149.88
645.604	133.88
645.809	144.88
646.014	144.88
646.219	148.88
646.423	156.88
646.628	165.88
646.833	166.88
647.038	151.88
647.243	147.88
647.447	149.88
647.652	158.88
647.857	142.88
648.062	151.88
648.266	155.88
648.471	160.88
648.676	164.88
648.88	165.88
649.085	177.88
649.289	147.88
649.494	152.88
649.698	162.88
649.903	155.88
650.107	144.88
650.312	148.88
650.516	158.88
650.721	146.88
650.925	145.88
651.13	145.88
651.334	135.88
651.539	124.88
651.743	141.88
651.947	134.88
652.152	125.88
652.356	135.88
652.56	131.88
652.764	131.88
652.969	126.88
653.173	127.88
653.377	137.88
653.581	130.88
653.785	114.88
653.99	117.88
654.194	131.88
654.398	122.88
654.602	128.88
654.806	127.88
655.01	130.88
655.214	130.88
655.418	130.88
655.622	135.88
655.826	120.88
656.03	112.88
656.234	117.88
656.438	114.88
656.642	146.88
656.846	134.88
657.049	108.88
657.253	109.88
657.457	115.88
657.661	118.88
657.865	97.88
658.068	105.88
658.272	104.88
658.476	95.88
658.68	112.88
658.883	92.88
659.087	112.88
659.291	116.88
659.494	79.88
659.698	91.88
659.901	89.88
660.105	94.88
660.309	85.88
660.512	89.88
660.716	81.88
660.919	88.88
661.123	87.88
661.326	86.88
661.53	90.88
661.733	74.88
661.936	70.88
662.14	100.88
662.343	82.88
662.546	96.88
662.75	94.88
662.953	85.88
663.156	75.88
663.36	78.88
663.563	76.88
663.766	69.88
663.969	75.88
664.173	76.88
664.376	81.88
664.579	70.88
664.782	74.88
664.985	82.88
665.188	80.88
665.391	86.88
665.594	73.88
665.797	80.88
666	74.88
666.203	90.88
666.406	66.88
666.609	87.88
666.812	87.88
667.015	79.88
667.218	74.88
667.421	77.88
667.624	70.88
667.827	66.88
668.03	79.88
668.232	70.88
668.435	64.88
668.638	81.88
668.841	81.88
669.043	74.88
669.246	88.88
669.449	85.88
669.651	75.88
669.854	83.88
670.057	62.88
670.259	77.88
670.462	87.88
670.665	84.88
670.867	75.88
671.07	88.88
671.272	97.88
671.475	90.88
671.677	76.88
671.88	81.88
672.082	87.88
672.284	77.88
672.487	76.88
672.689	68.88
672.892	72.88
