Data from 1977.PennyLincolnUp.Lamp.En5.5.200Scan.071719.P1_HRD10591_16-06-54-864.txt Node
Date: Thu Jul 18 16:06:54 EDT 2019
User: cochatt
Spectrometer: HR+D1059
Trigger mode: 1
Integration Time (sec): 1.000000E-1
Scans to average: 1
Electric dark correction enabled: true
Nonlinearity correction enabled: false
Boxcar width: 0
XAxis mode: Wavelengths
Number of Pixels in Spectrum: 2048
>>>>>Begin Spectral Data<<<<<
223.165	-19.31
223.4	-19.31
223.635	-19.31
223.869	-28.31
224.104	-11.31
224.338	0.69
224.573	-5.31
224.808	-15.31
225.042	2.69
225.277	-7.31
225.511	-5.31
225.746	13.69
225.98	-6.31
226.215	5.69
226.449	2.69
226.683	17.69
226.918	28.69
227.152	26.69
227.387	32.69
227.621	31.69
227.856	52.69
228.09	64.69
228.324	51.69
228.559	45.69
228.793	58.69
229.027	90.69
229.262	115.69
229.496	88.69
229.73	121.69
229.964	141.69
230.199	128.69
230.433	114.69
230.667	114.69
230.901	96.69
231.136	105.69
231.37	101.69
231.604	101.69
231.838	106.69
232.072	118.69
232.306	123.69
232.541	119.69
232.775	120.69
233.009	111.69
233.243	111.69
233.477	106.69
233.711	102.69
233.945	114.69
234.179	138.69
234.413	104.69
234.647	125.69
234.881	115.69
235.115	123.69
235.349	121.69
235.583	109.69
235.817	114.69
236.051	118.69
236.285	124.69
236.519	133.69
236.753	119.69
236.987	146.69
237.221	169.69
237.455	221.69
237.689	175.69
237.922	135.69
238.156	143.69
238.39	125.69
238.624	119.69
238.858	120.69
239.091	141.69
239.325	127.69
239.559	123.69
239.793	131.69
240.027	127.69
240.26	131.69
240.494	151.69
240.728	154.69
240.961	151.69
241.195	144.69
241.429	142.69
241.662	144.69
241.896	134.69
242.13	146.69
242.363	145.69
242.597	132.69
242.83	143.69
243.064	142.69
243.298	143.69
243.531	134.69
243.765	126.69
243.998	141.69
244.232	144.69
244.465	146.69
244.699	142.69
244.932	144.69
245.166	144.69
245.399	142.69
245.633	145.69
245.866	142.69
246.099	150.69
246.333	150.69
246.566	145.69
246.8	148.69
247.033	155.69
247.266	159.69
247.5	183.69
247.733	183.69
247.966	171.69
248.2	157.69
248.433	179.69
248.666	175.69
248.899	198.69
249.133	197.69
249.366	205.69
249.599	204.69
249.832	185.69
250.066	189.69
250.299	183.69
250.532	189.69
250.765	198.69
250.998	207.69
251.231	212.69
251.465	207.69
251.698	199.69
251.931	191.69
252.164	191.69
252.397	200.69
252.63	187.69
252.863	221.69
253.096	202.69
253.329	222.69
253.562	217.69
253.795	216.69
254.028	200.69
254.261	220.69
254.494	223.69
254.727	255.69
254.96	274.69
255.193	265.69
255.426	254.69
255.659	222.69
255.892	235.69
256.124	218.69
256.357	236.69
256.59	229.69
256.823	210.69
257.056	210.69
257.289	202.69
257.521	216.69
257.754	225.69
257.987	199.69
258.22	221.69
258.452	220.69
258.685	195.69
258.918	226.69
259.151	210.69
259.383	229.69
259.616	231.69
259.849	218.69
260.081	247.69
260.314	248.69
260.547	270.69
260.779	239.69
261.012	239.69
261.244	227.69
261.477	231.69
261.71	224.69
261.942	232.69
262.175	244.69
262.407	240.69
262.64	234.69
262.872	224.69
263.105	214.69
263.337	211.69
263.57	234.69
263.802	219.69
264.035	221.69
264.267	234.69
264.499	226.69
264.732	225.69
264.964	221.69
265.197	236.69
265.429	218.69
265.661	221.69
265.894	238.69
266.126	231.69
266.358	237.69
266.591	235.69
266.823	246.69
267.055	234.69
267.287	239.69
267.52	242.69
267.752	226.69
267.984	248.69
268.216	231.69
268.448	230.69
268.681	242.69
268.913	260.69
269.145	266.69
269.377	283.69
269.609	275.69
269.841	266.69
270.073	272.69
270.306	295.69
270.538	312.69
270.77	319.69
271.002	317.69
271.234	288.69
271.466	301.69
271.698	303.69
271.93	312.69
272.162	315.69
272.394	336.69
272.626	290.69
272.858	282.69
273.09	301.69
273.322	299.69
273.553	286.69
273.785	269.69
274.017	271.69
274.249	277.69
274.481	285.69
274.713	250.69
274.945	283.69
275.176	291.69
275.408	292.69
275.64	280.69
275.872	259.69
276.104	291.69
276.335	291.69
276.567	284.69
276.799	303.69
277.031	291.69
277.262	324.69
277.494	318.69
277.726	324.69
277.957	312.69
278.189	304.69
278.421	299.69
278.652	298.69
278.884	279.69
279.115	278.69
279.347	283.69
279.579	278.69
279.81	273.69
280.042	280.69
280.273	282.69
280.505	282.69
280.736	282.69
280.968	277.69
281.199	296.69
281.431	300.69
281.662	312.69
281.894	280.69
282.125	302.69
282.356	304.69
282.588	325.69
282.819	317.69
283.051	308.69
283.282	280.69
283.513	304.69
283.745	298.69
283.976	283.69
284.207	316.69
284.439	318.69
284.67	317.69
284.901	298.69
285.132	302.69
285.364	292.69
285.595	294.69
285.826	309.69
286.057	296.69
286.288	312.69
286.52	298.69
286.751	303.69
286.982	325.69
287.213	309.69
287.444	321.69
287.675	299.69
287.906	318.69
288.138	320.69
288.369	322.69
288.6	321.69
288.831	327.69
289.062	330.69
289.293	324.69
289.524	316.69
289.755	320.69
289.986	316.69
290.217	301.69
290.448	312.69
290.679	302.69
290.91	314.69
291.141	307.69
291.371	315.69
291.602	323.69
291.833	290.69
292.064	334.69
292.295	333.69
292.526	307.69
292.757	314.69
292.987	306.69
293.218	289.69
293.449	324.69
293.68	340.69
293.91	314.69
294.141	324.69
294.372	336.69
294.603	324.69
294.833	316.69
295.064	317.69
295.295	320.69
295.525	327.69
295.756	333.69
295.987	333.69
296.217	368.69
296.448	339.69
296.679	332.69
296.909	326.69
297.14	345.69
297.37	324.69
297.601	322.69
297.831	320.69
298.062	332.69
298.292	332.69
298.523	340.69
298.753	344.69
298.984	326.69
299.214	335.69
299.445	344.69
299.675	346.69
299.905	336.69
300.136	336.69
300.366	330.69
300.597	346.69
300.827	336.69
301.057	344.69
301.288	358.69
301.518	372.69
301.748	365.69
301.979	362.69
302.209	353.69
302.439	361.69
302.669	356.69
302.9	363.69
303.13	377.69
303.36	358.69
303.59	360.69
303.82	361.69
304.051	386.69
304.281	365.69
304.511	359.69
304.741	382.69
304.971	368.69
305.201	348.69
305.431	371.69
305.661	374.69
305.891	345.69
306.121	360.69
306.352	353.69
306.582	361.69
306.812	358.69
307.042	355.69
307.272	353.69
307.502	359.69
307.731	363.69
307.961	354.69
308.191	359.69
308.421	361.69
308.651	363.69
308.881	395.69
309.111	356.69
309.341	350.69
309.571	368.69
309.8	361.69
310.03	384.69
310.26	392.69
310.49	386.69
310.72	391.69
310.949	404.69
311.179	415.69
311.409	424.69
311.639	405.69
311.868	403.69
312.098	401.69
312.328	429.69
312.557	417.69
312.787	409.69
313.017	413.69
313.246	410.69
313.476	397.69
313.706	395.69
313.935	412.69
314.165	429.69
314.394	392.69
314.624	418.69
314.853	405.69
315.083	401.69
315.312	394.69
315.542	410.69
315.771	406.69
316.001	404.69
316.23	401.69
316.46	404.69
316.689	419.69
316.919	428.69
317.148	413.69
317.377	418.69
317.607	406.69
317.836	408.69
318.065	413.69
318.295	401.69
318.524	411.69
318.753	410.69
318.983	402.69
319.212	399.69
319.441	413.69
319.67	420.69
319.9	416.69
320.129	401.69
320.358	398.69
320.587	412.69
320.816	416.69
321.046	420.69
321.275	433.69
321.504	420.69
321.733	423.69
321.962	429.69
322.191	428.69
322.42	419.69
322.649	440.69
322.878	456.69
323.108	464.69
323.337	477.69
323.566	506.69
323.795	530.69
324.024	552.69
324.253	639.69
324.482	855.69
324.71	1310.69
324.939	1803.69
325.168	1550.69
325.397	822.69
325.626	602.69
325.855	530.69
326.084	518.69
326.313	491.69
326.542	484.69
326.77	539.69
326.999	615.69
327.228	832.69
327.457	1155.69
327.686	1351.69
327.914	924.69
328.143	638.69
328.372	568.69
328.6	557.69
328.829	542.69
329.058	540.69
329.287	539.69
329.515	554.69
329.744	503.69
329.972	518.69
330.201	508.69
330.43	542.69
330.658	552.69
330.887	580.69
331.115	544.69
331.344	509.69
331.572	473.69
331.801	472.69
332.03	508.69
332.258	481.69
332.486	514.69
332.715	489.69
332.943	495.69
333.172	486.69
333.4	491.69
333.629	498.69
333.857	534.69
334.085	501.69
334.314	522.69
334.542	541.69
334.771	538.69
334.999	521.69
335.227	491.69
335.455	482.69
335.684	485.69
335.912	482.69
336.14	468.69
336.369	464.69
336.597	496.69
336.825	479.69
337.053	461.69
337.281	470.69
337.51	458.69
337.738	485.69
337.966	466.69
338.194	449.69
338.422	447.69
338.65	459.69
338.878	474.69
339.106	461.69
339.334	452.69
339.562	488.69
339.79	463.69
340.018	459.69
340.246	468.69
340.474	429.69
340.702	429.69
340.93	441.69
341.158	455.69
341.386	447.69
341.614	437.69
341.842	444.69
342.07	431.69
342.298	436.69
342.526	440.69
342.754	450.69
342.981	434.69
343.209	434.69
343.437	467.69
343.665	460.69
343.893	487.69
344.12	482.69
344.348	463.69
344.576	471.69
344.804	456.69
345.031	468.69
345.259	459.69
345.487	450.69
345.714	435.69
345.942	454.69
346.17	446.69
346.397	419.69
346.625	448.69
346.853	430.69
347.08	427.69
347.308	432.69
347.535	429.69
347.763	453.69
347.99	438.69
348.218	446.69
348.445	424.69
348.673	405.69
348.9	423.69
349.128	414.69
349.355	414.69
349.583	411.69
349.81	422.69
350.037	424.69
350.265	414.69
350.492	408.69
350.72	422.69
350.947	430.69
351.174	430.69
351.402	420.69
351.629	440.69
351.856	427.69
352.083	428.69
352.311	410.69
352.538	444.69
352.765	428.69
352.992	421.69
353.22	417.69
353.447	410.69
353.674	414.69
353.901	406.69
354.128	391.69
354.355	408.69
354.583	419.69
354.81	426.69
355.037	395.69
355.264	407.69
355.491	398.69
355.718	400.69
355.945	421.69
356.172	387.69
356.399	398.69
356.626	396.69
356.853	412.69
357.08	386.69
357.307	404.69
357.534	400.69
357.761	404.69
357.988	401.69
358.215	411.69
358.441	421.69
358.668	411.69
358.895	405.69
359.122	418.69
359.349	397.69
359.576	425.69
359.802	426.69
360.029	454.69
360.256	450.69
360.483	438.69
360.709	432.69
360.936	426.69
361.163	398.69
361.39	415.69
361.616	407.69
361.843	403.69
362.07	400.69
362.296	400.69
362.523	422.69
362.749	406.69
362.976	412.69
363.203	409.69
363.429	411.69
363.656	403.69
363.882	403.69
364.109	407.69
364.335	408.69
364.562	399.69
364.788	398.69
365.015	401.69
365.241	418.69
365.468	423.69
365.694	417.69
365.92	385.69
366.147	410.69
366.373	396.69
366.599	414.69
366.826	408.69
367.052	404.69
367.278	387.69
367.505	382.69
367.731	404.69
367.957	386.69
368.184	407.69
368.41	408.69
368.636	415.69
368.862	399.69
369.089	406.69
369.315	396.69
369.541	408.69
369.767	410.69
369.993	400.69
370.219	411.69
370.445	401.69
370.672	392.69
370.898	386.69
371.124	410.69
371.35	400.69
371.576	399.69
371.802	411.69
372.028	395.69
372.254	397.69
372.48	380.69
372.706	410.69
372.932	418.69
373.158	419.69
373.384	401.69
373.61	390.69
373.835	414.69
374.061	418.69
374.287	408.69
374.513	401.69
374.739	437.69
374.965	403.69
375.191	403.69
375.416	392.69
375.642	412.69
375.868	404.69
376.094	418.69
376.319	393.69
376.545	392.69
376.771	401.69
376.997	408.69
377.222	390.69
377.448	401.69
377.674	392.69
377.899	408.69
378.125	407.69
378.35	395.69
378.576	380.69
378.802	382.69
379.027	385.69
379.253	413.69
379.478	393.69
379.704	408.69
379.929	393.69
380.155	398.69
380.38	390.69
380.606	394.69
380.831	407.69
381.057	404.69
381.282	384.69
381.507	400.69
381.733	397.69
381.958	412.69
382.184	401.69
382.409	388.69
382.634	403.69
382.86	389.69
383.085	418.69
383.31	426.69
383.535	417.69
383.761	430.69
383.986	423.69
384.211	424.69
384.436	434.69
384.662	420.69
384.887	439.69
385.112	438.69
385.337	436.69
385.562	434.69
385.787	447.69
386.013	439.69
386.238	425.69
386.463	442.69
386.688	447.69
386.913	444.69
387.138	436.69
387.363	424.69
387.588	422.69
387.813	432.69
388.038	435.69
388.263	432.69
388.488	456.69
388.713	450.69
388.938	432.69
389.163	435.69
389.387	431.69
389.612	427.69
389.837	438.69
390.062	424.69
390.287	440.69
390.512	415.69
390.736	427.69
390.961	420.69
391.186	431.69
391.411	462.69
391.636	451.69
391.86	448.69
392.085	466.69
392.31	458.69
392.534	434.69
392.759	449.69
392.984	440.69
393.208	436.69
393.433	442.69
393.658	442.69
393.882	441.69
394.107	426.69
394.331	442.69
394.556	426.69
394.78	460.69
395.005	431.69
395.229	448.69
395.454	469.69
395.678	458.69
395.903	453.69
396.127	508.69
396.352	469.69
396.576	449.69
396.801	466.69
397.025	464.69
397.249	443.69
397.474	442.69
397.698	451.69
397.922	483.69
398.147	490.69
398.371	476.69
398.595	511.69
398.82	508.69
399.044	517.69
399.268	510.69
399.492	569.69
399.717	607.69
399.941	618.69
400.165	610.69
400.389	611.69
400.613	571.69
400.837	522.69
401.062	518.69
401.286	522.69
401.51	505.69
401.734	491.69
401.958	505.69
402.182	490.69
402.406	523.69
402.63	521.69
402.854	498.69
403.078	508.69
403.302	505.69
403.526	527.69
403.75	532.69
403.974	523.69
404.198	519.69
404.422	519.69
404.645	542.69
404.869	519.69
405.093	562.69
405.317	571.69
405.541	592.69
405.765	579.69
405.988	523.69
406.212	541.69
406.436	555.69
406.66	539.69
406.883	550.69
407.107	564.69
407.331	613.69
407.555	651.69
407.778	663.69
408.002	591.69
408.226	586.69
408.449	547.69
408.673	555.69
408.896	583.69
409.12	614.69
409.344	584.69
409.567	555.69
409.791	531.69
410.014	510.69
410.238	527.69
410.461	506.69
410.685	504.69
410.908	538.69
411.132	566.69
411.355	581.69
411.578	543.69
411.802	519.69
412.025	504.69
412.249	503.69
412.472	552.69
412.695	557.69
412.919	528.69
413.142	499.69
413.365	509.69
413.589	488.69
413.812	494.69
414.035	486.69
414.258	477.69
414.482	484.69
414.705	485.69
414.928	476.69
415.151	472.69
415.374	491.69
415.597	474.69
415.821	462.69
416.044	470.69
416.267	469.69
416.49	479.69
416.713	464.69
416.936	459.69
417.159	468.69
417.382	467.69
417.605	477.69
417.828	505.69
418.051	504.69
418.274	499.69
418.497	478.69
418.72	470.69
418.943	452.69
419.166	495.69
419.389	511.69
419.611	488.69
419.834	520.69
420.057	525.69
420.28	522.69
420.503	502.69
420.726	488.69
420.948	494.69
421.171	534.69
421.394	563.69
421.617	493.69
421.839	502.69
422.062	502.69
422.285	496.69
422.507	549.69
422.73	620.69
422.953	605.69
423.175	509.69
423.398	514.69
423.621	520.69
423.843	558.69
424.066	547.69
424.288	520.69
424.511	548.69
424.733	590.69
424.956	654.69
425.178	628.69
425.401	643.69
425.623	647.69
425.846	540.69
426.068	520.69
426.291	503.69
426.513	504.69
426.735	535.69
426.958	559.69
427.18	629.69
427.402	718.69
427.625	788.69
427.847	696.69
428.069	604.69
428.292	533.69
428.514	494.69
428.736	519.69
428.958	481.69
429.181	486.69
429.403	478.69
429.625	485.69
429.847	508.69
430.069	586.69
430.292	566.69
430.514	487.69
430.736	486.69
430.958	496.69
431.18	469.69
431.402	468.69
431.624	458.69
431.846	446.69
432.068	467.69
432.29	456.69
432.512	453.69
432.734	468.69
432.956	450.69
433.178	459.69
433.4	484.69
433.622	461.69
433.844	456.69
434.066	438.69
434.287	453.69
434.509	440.69
434.731	470.69
434.953	477.69
435.175	496.69
435.397	532.69
435.618	535.69
435.84	548.69
436.062	660.69
436.284	695.69
436.505	576.69
436.727	506.69
436.949	479.69
437.17	465.69
437.392	436.69
437.614	504.69
437.835	510.69
438.057	585.69
438.278	660.69
438.5	665.69
438.721	742.69
438.943	708.69
439.165	583.69
439.386	532.69
439.608	526.69
439.829	508.69
440.05	546.69
440.272	579.69
440.493	524.69
440.715	484.69
440.936	467.69
441.158	466.69
441.379	474.69
441.6	504.69
441.822	498.69
442.043	553.69
442.264	602.69
442.486	656.69
442.707	558.69
442.928	523.69
443.149	534.69
443.371	554.69
443.592	578.69
443.813	691.69
444.034	724.69
444.255	598.69
444.476	552.69
444.698	550.69
444.919	536.69
445.14	614.69
445.361	579.69
445.582	565.69
445.803	597.69
446.024	696.69
446.245	675.69
446.466	605.69
446.687	547.69
446.908	491.69
447.129	487.69
447.35	463.69
447.571	467.69
447.792	476.69
448.013	472.69
448.234	477.69
448.455	520.69
448.675	632.69
448.896	703.69
449.117	590.69
449.338	582.69
449.559	695.69
449.779	758.69
450	606.69
450.221	519.69
450.442	465.69
450.662	474.69
450.883	479.69
451.104	473.69
451.324	469.69
451.545	434.69
451.766	435.69
451.986	416.69
452.207	419.69
452.428	422.69
452.648	431.69
452.869	419.69
453.089	415.69
453.31	437.69
453.53	419.69
453.751	410.69
453.971	409.69
454.192	432.69
454.412	408.69
454.633	414.69
454.853	420.69
455.073	412.69
455.294	443.69
455.514	487.69
455.734	492.69
455.955	399.69
456.175	382.69
456.395	398.69
456.616	392.69
456.836	407.69
457.056	414.69
457.276	390.69
457.497	416.69
457.717	402.69
457.937	392.69
458.157	422.69
458.377	409.69
458.598	430.69
458.818	455.69
459.038	504.69
459.258	563.69
459.478	488.69
459.698	458.69
459.918	443.69
460.138	474.69
460.358	460.69
460.578	453.69
460.798	459.69
461.018	469.69
461.238	474.69
461.458	483.69
461.678	450.69
461.898	465.69
462.118	476.69
462.338	494.69
462.558	477.69
462.777	493.69
462.997	508.69
463.217	532.69
463.437	524.69
463.657	500.69
463.876	543.69
464.096	524.69
464.316	506.69
464.536	508.69
464.755	483.69
464.975	501.69
465.195	525.69
465.414	544.69
465.634	483.69
465.854	466.69
466.073	452.69
466.293	455.69
466.512	438.69
466.732	410.69
466.951	415.69
467.171	436.69
467.391	419.69
467.61	443.69
467.829	446.69
468.049	445.69
468.268	435.69
468.488	424.69
468.707	421.69
468.927	412.69
469.146	413.69
469.365	423.69
469.585	398.69
469.804	413.69
470.023	435.69
470.243	427.69
470.462	460.69
470.681	463.69
470.901	475.69
471.12	451.69
471.339	438.69
471.558	431.69
471.777	426.69
471.997	426.69
472.216	431.69
472.435	439.69
472.654	480.69
472.873	434.69
473.092	429.69
473.311	439.69
473.53	406.69
473.749	428.69
473.968	471.69
474.187	549.69
474.406	591.69
474.625	471.69
474.844	444.69
475.063	440.69
475.282	423.69
475.501	442.69
475.72	444.69
475.939	446.69
476.158	458.69
476.377	446.69
476.596	443.69
476.814	436.69
477.033	461.69
477.252	448.69
477.471	448.69
477.69	465.69
477.908	487.69
478.127	476.69
478.346	489.69
478.564	491.69
478.783	466.69
479.002	478.69
479.22	484.69
479.439	516.69
479.658	522.69
479.876	533.69
480.095	540.69
480.313	536.69
480.532	547.69
480.751	540.69
480.969	546.69
481.188	550.69
481.406	598.69
481.624	544.69
481.843	518.69
482.061	494.69
482.28	514.69
482.498	524.69
482.717	499.69
482.935	516.69
483.153	482.69
483.372	495.69
483.59	512.69
483.808	508.69
484.027	499.69
484.245	513.69
484.463	496.69
484.681	509.69
484.9	512.69
485.118	503.69
485.336	510.69
485.554	521.69
485.772	527.69
485.99	518.69
486.209	532.69
486.427	507.69
486.645	514.69
486.863	534.69
487.081	542.69
487.299	539.69
487.517	529.69
487.735	527.69
487.953	542.69
488.171	556.69
488.389	545.69
488.607	524.69
488.825	530.69
489.043	515.69
489.261	540.69
489.479	539.69
489.696	544.69
489.914	547.69
490.132	551.69
490.35	552.69
490.568	553.69
490.786	571.69
491.003	571.69
491.221	581.69
491.439	581.69
491.657	580.69
491.874	598.69
492.092	583.69
492.31	640.69
492.527	587.69
492.745	591.69
492.963	593.69
493.18	600.69
493.398	625.69
493.615	602.69
493.833	612.69
494.05	603.69
494.268	617.69
494.485	597.69
494.703	595.69
494.92	622.69
495.138	631.69
495.355	616.69
495.573	642.69
495.79	612.69
496.008	633.69
496.225	618.69
496.442	620.69
496.66	632.69
496.877	638.69
497.094	630.69
497.312	637.69
497.529	640.69
497.746	632.69
497.963	676.69
498.181	694.69
498.398	717.69
498.615	706.69
498.832	719.69
499.049	751.69
499.267	777.69
499.484	791.69
499.701	827.69
499.918	865.69
500.135	935.69
500.352	971.69
500.569	995.69
500.786	988.69
501.003	965.69
501.22	908.69
501.437	888.69
501.654	841.69
501.871	829.69
502.088	796.69
502.305	770.69
502.522	735.69
502.739	730.69
502.956	690.69
503.172	677.69
503.389	664.69
503.606	653.69
503.823	668.69
504.04	652.69
504.256	638.69
504.473	652.69
504.69	642.69
504.907	650.69
505.123	631.69
505.34	608.69
505.557	617.69
505.773	614.69
505.99	595.69
506.207	600.69
506.423	587.69
506.64	576.69
506.856	574.69
507.073	572.69
507.289	572.69
507.506	571.69
507.722	570.69
507.939	582.69
508.155	571.69
508.372	565.69
508.588	571.69
508.805	564.69
509.021	577.69
509.238	570.69
509.454	587.69
509.67	573.69
509.887	568.69
510.103	544.69
510.319	552.69
510.536	611.69
510.752	878.69
510.968	740.69
511.184	563.69
511.401	543.69
511.617	551.69
511.833	533.69
512.049	509.69
512.265	533.69
512.481	541.69
512.698	522.69
512.914	522.69
513.13	515.69
513.346	523.69
513.562	500.69
513.778	507.69
513.994	534.69
514.21	534.69
514.426	551.69
514.642	566.69
514.858	583.69
515.074	589.69
515.29	674.69
515.506	849.69
515.721	765.69
515.937	597.69
516.153	548.69
516.369	574.69
516.585	541.69
516.801	524.69
517.016	535.69
517.232	560.69
517.448	555.69
517.664	589.69
517.879	579.69
518.095	583.69
518.311	560.69
518.527	573.69
518.742	553.69
518.958	529.69
519.173	538.69
519.389	537.69
519.605	558.69
519.82	531.69
520.036	532.69
520.251	543.69
520.467	555.69
520.682	569.69
520.898	548.69
521.113	579.69
521.329	583.69
521.544	603.69
521.76	743.69
521.975	1074.69
522.19	1021.69
522.406	656.69
522.621	569.69
522.836	527.69
523.052	492.69
523.267	505.69
523.482	488.69
523.698	470.69
523.913	480.69
524.128	469.69
524.343	456.69
524.559	458.69
524.774	447.69
524.989	444.69
525.204	468.69
525.419	477.69
525.634	454.69
525.849	443.69
526.064	460.69
526.28	425.69
526.495	458.69
526.71	449.69
526.925	443.69
527.14	441.69
527.355	425.69
527.57	439.69
527.785	420.69
527.999	436.69
528.214	431.69
528.429	439.69
528.644	450.69
528.859	448.69
529.074	434.69
529.289	455.69
529.503	477.69
529.718	470.69
529.933	442.69
530.148	435.69
530.363	450.69
530.577	420.69
530.792	448.69
531.007	440.69
531.221	445.69
531.436	428.69
531.651	436.69
531.865	415.69
532.08	421.69
532.295	420.69
532.509	423.69
532.724	426.69
532.938	431.69
533.153	414.69
533.367	439.69
533.582	418.69
533.796	437.69
534.011	410.69
534.225	408.69
534.44	404.69
534.654	408.69
534.868	435.69
535.083	414.69
535.297	435.69
535.511	420.69
535.726	418.69
535.94	413.69
536.154	404.69
536.369	411.69
536.583	382.69
536.797	414.69
537.011	388.69
537.225	406.69
537.44	408.69
537.654	405.69
537.868	422.69
538.082	407.69
538.296	408.69
538.51	410.69
538.724	412.69
538.938	426.69
539.153	427.69
539.367	421.69
539.581	410.69
539.795	405.69
540.009	408.69
540.222	410.69
540.436	393.69
540.65	379.69
540.864	410.69
541.078	406.69
541.292	424.69
541.506	411.69
541.72	398.69
541.934	406.69
542.147	406.69
542.361	407.69
542.575	411.69
542.789	390.69
543.002	392.69
543.216	418.69
543.43	410.69
543.644	403.69
543.857	390.69
544.071	408.69
544.285	421.69
544.498	417.69
544.712	400.69
544.925	415.69
545.139	402.69
545.352	376.69
545.566	388.69
545.779	392.69
545.993	398.69
546.206	404.69
546.42	407.69
546.633	407.69
546.847	383.69
547.06	384.69
547.274	397.69
547.487	386.69
547.7	390.69
547.914	389.69
548.127	409.69
548.34	375.69
548.554	403.69
548.767	403.69
548.98	389.69
549.193	382.69
549.407	393.69
549.62	371.69
549.833	401.69
550.046	388.69
550.259	392.69
550.473	389.69
550.686	370.69
550.899	391.69
551.112	373.69
551.325	385.69
551.538	383.69
551.751	383.69
551.964	376.69
552.177	379.69
552.39	399.69
552.603	389.69
552.816	374.69
553.029	390.69
553.242	380.69
553.455	390.69
553.667	402.69
553.88	403.69
554.093	389.69
554.306	386.69
554.519	380.69
554.732	381.69
554.944	396.69
555.157	383.69
555.37	363.69
555.583	376.69
555.795	372.69
556.008	374.69
556.221	361.69
556.433	354.69
556.646	359.69
556.859	352.69
557.071	356.69
557.284	340.69
557.496	354.69
557.709	336.69
557.921	358.69
558.134	341.69
558.346	352.69
558.559	356.69
558.771	347.69
558.984	351.69
559.196	355.69
559.409	319.69
559.621	326.69
559.833	337.69
560.046	332.69
560.258	344.69
560.47	355.69
560.683	350.69
560.895	337.69
561.107	358.69
561.32	351.69
561.532	358.69
561.744	331.69
561.956	329.69
562.168	340.69
562.381	342.69
562.593	351.69
562.805	347.69
563.017	363.69
563.229	370.69
563.441	350.69
563.653	361.69
563.865	354.69
564.077	361.69
564.289	350.69
564.501	352.69
564.713	360.69
564.925	353.69
565.137	382.69
565.349	376.69
565.561	372.69
565.773	384.69
565.985	386.69
566.197	394.69
566.408	413.69
566.62	426.69
566.832	455.69
567.044	477.69
567.255	458.69
567.467	450.69
567.679	461.69
567.891	455.69
568.102	467.69
568.314	481.69
568.526	453.69
568.737	429.69
568.949	410.69
569.161	378.69
569.372	383.69
569.584	366.69
569.795	365.69
570.007	354.69
570.218	382.69
570.43	377.69
570.641	342.69
570.853	330.69
571.064	329.69
571.276	351.69
571.487	331.69
571.698	338.69
571.91	322.69
572.121	314.69
572.333	330.69
572.544	334.69
572.755	340.69
572.966	314.69
573.178	320.69
573.389	313.69
573.6	315.69
573.811	320.69
574.023	316.69
574.234	303.69
574.445	312.69
574.656	304.69
574.867	315.69
575.078	300.69
575.289	291.69
575.501	292.69
575.712	301.69
575.923	293.69
576.134	292.69
576.345	279.69
576.556	292.69
576.767	276.69
576.978	284.69
577.188	289.69
577.399	303.69
577.61	287.69
577.821	290.69
578.032	290.69
578.243	298.69
578.454	415.69
578.665	343.69
578.875	284.69
579.086	278.69
579.297	278.69
579.508	269.69
579.718	295.69
579.929	267.69
580.14	262.69
580.35	284.69
580.561	285.69
580.772	270.69
580.982	286.69
581.193	278.69
581.403	278.69
581.614	263.69
581.825	271.69
582.035	273.69
582.246	286.69
582.456	278.69
582.667	278.69
582.877	287.69
583.087	275.69
583.298	277.69
583.508	271.69
583.719	271.69
583.929	281.69
584.139	262.69
584.35	270.69
584.56	246.69
584.77	265.69
584.981	271.69
585.191	268.69
585.401	277.69
585.611	258.69
585.821	266.69
586.032	263.69
586.242	264.69
586.452	267.69
586.662	252.69
586.872	262.69
587.082	258.69
587.292	279.69
587.502	255.69
587.713	266.69
587.923	268.69
588.133	271.69
588.343	258.69
588.553	255.69
588.762	269.69
588.972	278.69
589.182	256.69
589.392	253.69
589.602	277.69
589.812	253.69
590.022	265.69
590.232	271.69
590.441	281.69
590.651	275.69
590.861	264.69
591.071	278.69
591.281	260.69
591.49	263.69
591.7	286.69
591.91	285.69
592.119	280.69
592.329	265.69
592.539	286.69
592.748	276.69
592.958	284.69
593.167	283.69
593.377	308.69
593.587	291.69
593.796	295.69
594.006	290.69
594.215	282.69
594.424	277.69
594.634	282.69
594.843	293.69
595.053	300.69
595.262	273.69
595.472	260.69
595.681	263.69
595.89	266.69
596.1	272.69
596.309	243.69
596.518	248.69
596.727	253.69
596.937	243.69
597.146	247.69
597.355	245.69
597.564	263.69
597.774	244.69
597.983	249.69
598.192	244.69
598.401	236.69
598.61	232.69
598.819	244.69
599.028	245.69
599.237	246.69
599.446	255.69
599.655	221.69
599.864	233.69
600.073	227.69
600.282	232.69
600.491	234.69
600.7	229.69
600.909	235.69
601.118	230.69
601.327	225.69
601.536	211.69
601.745	248.69
601.953	230.69
602.162	234.69
602.371	231.69
602.58	222.69
602.789	234.69
602.997	232.69
603.206	224.69
603.415	234.69
603.623	224.69
603.832	224.69
604.041	211.69
604.249	223.69
604.458	235.69
604.666	234.69
604.875	215.69
605.084	221.69
605.292	219.69
605.501	213.69
605.709	216.69
605.918	227.69
606.126	223.69
606.334	221.69
606.543	226.69
606.751	216.69
606.96	223.69
607.168	234.69
607.376	222.69
607.585	212.69
607.793	211.69
608.001	223.69
608.21	211.69
608.418	215.69
608.626	217.69
608.834	201.69
609.043	222.69
609.251	204.69
609.459	226.69
609.667	231.69
609.875	207.69
610.083	203.69
610.291	217.69
610.499	212.69
610.707	223.69
610.916	223.69
611.124	245.69
611.332	225.69
611.54	210.69
611.748	213.69
611.955	207.69
612.163	232.69
612.371	217.69
612.579	206.69
612.787	207.69
612.995	201.69
613.203	208.69
613.411	212.69
613.618	195.69
613.826	209.69
614.034	211.69
614.242	221.69
614.449	227.69
614.657	217.69
614.865	207.69
615.072	208.69
615.28	215.69
615.488	212.69
615.695	213.69
615.903	205.69
616.111	224.69
616.318	210.69
616.526	213.69
616.733	199.69
616.941	212.69
617.148	212.69
617.356	223.69
617.563	211.69
617.771	200.69
617.978	228.69
618.185	218.69
618.393	204.69
618.6	204.69
618.807	213.69
619.015	202.69
619.222	217.69
619.429	207.69
619.637	208.69
619.844	204.69
620.051	197.69
620.258	191.69
620.466	203.69
620.673	194.69
620.88	200.69
621.087	203.69
621.294	188.69
621.501	207.69
621.708	198.69
621.915	195.69
622.122	208.69
622.329	194.69
622.536	193.69
622.743	191.69
622.95	202.69
623.157	184.69
623.364	187.69
623.571	192.69
623.778	190.69
623.985	203.69
624.192	181.69
624.399	195.69
624.606	186.69
624.812	184.69
625.019	191.69
625.226	198.69
625.433	185.69
625.639	191.69
625.846	173.69
626.053	185.69
626.259	201.69
626.466	181.69
626.673	177.69
626.879	178.69
627.086	171.69
627.293	197.69
627.499	198.69
627.706	183.69
627.912	167.69
628.119	169.69
628.325	175.69
628.532	180.69
628.738	188.69
628.945	186.69
629.151	175.69
629.357	198.69
629.564	176.69
629.77	199.69
629.976	169.69
630.183	169.69
630.389	185.69
630.595	182.69
630.802	176.69
631.008	163.69
631.214	183.69
631.42	172.69
631.627	178.69
631.833	166.69
632.039	159.69
632.245	169.69
632.451	163.69
632.657	174.69
632.863	161.69
633.069	174.69
633.275	167.69
633.481	180.69
633.688	169.69
633.893	160.69
634.099	162.69
634.305	170.69
634.511	178.69
634.717	163.69
634.923	178.69
635.129	154.69
635.335	159.69
635.541	168.69
635.747	166.69
635.952	164.69
636.158	155.69
636.364	186.69
636.57	183.69
636.775	170.69
636.981	182.69
637.187	180.69
637.392	181.69
637.598	180.69
637.804	162.69
638.009	167.69
638.215	172.69
638.421	147.69
638.626	171.69
638.832	158.69
639.037	160.69
639.243	158.69
639.448	166.69
639.654	165.69
639.859	162.69
640.065	159.69
640.27	155.69
640.475	168.69
640.681	164.69
640.886	175.69
641.091	157.69
641.297	169.69
641.502	155.69
641.707	164.69
641.913	143.69
642.118	159.69
642.323	167.69
642.528	163.69
642.733	145.69
642.939	166.69
643.144	156.69
643.349	158.69
643.554	147.69
643.759	156.69
643.964	152.69
644.169	160.69
644.374	156.69
644.579	160.69
644.784	167.69
644.989	154.69
645.194	164.69
645.399	147.69
645.604	147.69
645.809	155.69
646.014	156.69
646.219	156.69
646.423	150.69
646.628	147.69
646.833	156.69
647.038	155.69
647.243	158.69
647.447	145.69
647.652	166.69
647.857	140.69
648.062	164.69
648.266	145.69
648.471	157.69
648.676	164.69
648.88	159.69
649.085	144.69
649.289	159.69
649.494	160.69
649.698	167.69
649.903	167.69
650.107	143.69
650.312	159.69
650.516	151.69
650.721	135.69
650.925	158.69
651.13	136.69
651.334	138.69
651.539	130.69
651.743	145.69
651.947	130.69
652.152	142.69
652.356	141.69
652.56	139.69
652.764	135.69
652.969	138.69
653.173	139.69
653.377	139.69
653.581	134.69
653.785	133.69
653.99	125.69
654.194	130.69
654.398	128.69
654.602	133.69
654.806	146.69
655.01	142.69
655.214	115.69
655.418	144.69
655.622	132.69
655.826	134.69
656.03	126.69
656.234	143.69
656.438	125.69
656.642	127.69
656.846	147.69
657.049	144.69
657.253	124.69
657.457	127.69
657.661	121.69
657.865	119.69
658.068	104.69
658.272	109.69
658.476	109.69
658.68	99.69
658.883	96.69
659.087	98.69
659.291	101.69
659.494	107.69
659.698	86.69
659.901	113.69
660.105	93.69
660.309	99.69
660.512	87.69
660.716	84.69
660.919	92.69
661.123	88.69
661.326	92.69
661.53	96.69
661.733	95.69
661.936	81.69
662.14	95.69
662.343	107.69
662.546	76.69
662.75	106.69
662.953	100.69
663.156	99.69
663.36	87.69
663.563	92.69
663.766	82.69
663.969	80.69
664.173	76.69
664.376	96.69
664.579	90.69
664.782	83.69
664.985	93.69
665.188	90.69
665.391	81.69
665.594	92.69
665.797	85.69
666	91.69
666.203	84.69
666.406	79.69
666.609	74.69
666.812	76.69
667.015	87.69
667.218	81.69
667.421	91.69
667.624	78.69
667.827	75.69
668.03	84.69
668.232	92.69
668.435	74.69
668.638	85.69
668.841	77.69
669.043	85.69
669.246	88.69
669.449	89.69
669.651	76.69
669.854	98.69
670.057	78.69
670.259	93.69
670.462	79.69
670.665	88.69
670.867	95.69
671.07	110.69
671.272	87.69
671.475	101.69
671.677	86.69
671.88	83.69
672.082	88.69
672.284	83.69
672.487	86.69
672.689	99.69
672.892	88.69
