Data from 1977.PennyLincolnUp.Lamp.En5.5.200Scan.071719.P1_HRD10591_16-07-10-864.txt Node
Date: Thu Jul 18 16:07:10 EDT 2019
User: cochatt
Spectrometer: HR+D1059
Trigger mode: 1
Integration Time (sec): 1.000000E-1
Scans to average: 1
Electric dark correction enabled: true
Nonlinearity correction enabled: false
Boxcar width: 0
XAxis mode: Wavelengths
Number of Pixels in Spectrum: 2048
>>>>>Begin Spectral Data<<<<<
223.165	-8.94
223.4	-8.94
223.635	-8.94
223.869	-22.94
224.104	-19.94
224.338	-9.94
224.573	-5.94
224.808	-12.94
225.042	4.06
225.277	-6.94
225.511	-3.94
225.746	2.06
225.98	9.06
226.215	6.06
226.449	8.06
226.683	8.06
226.918	28.06
227.152	26.06
227.387	20.06
227.621	44.06
227.856	45.06
228.09	53.06
228.324	43.06
228.559	52.06
228.793	68.06
229.027	104.06
229.262	96.06
229.496	102.06
229.73	135.06
229.964	144.06
230.199	125.06
230.433	110.06
230.667	109.06
230.901	117.06
231.136	100.06
231.37	118.06
231.604	108.06
231.838	119.06
232.072	110.06
232.306	116.06
232.541	110.06
232.775	105.06
233.009	110.06
233.243	105.06
233.477	114.06
233.711	114.06
233.945	124.06
234.179	123.06
234.413	107.06
234.647	124.06
234.881	119.06
235.115	112.06
235.349	126.06
235.583	106.06
235.817	121.06
236.051	104.06
236.285	124.06
236.519	119.06
236.753	133.06
236.987	134.06
237.221	163.06
237.455	214.06
237.689	182.06
237.922	154.06
238.156	128.06
238.39	142.06
238.624	122.06
238.858	130.06
239.091	125.06
239.325	116.06
239.559	127.06
239.793	145.06
240.027	125.06
240.26	142.06
240.494	143.06
240.728	149.06
240.961	156.06
241.195	128.06
241.429	128.06
241.662	158.06
241.896	138.06
242.13	139.06
242.363	150.06
242.597	127.06
242.83	148.06
243.064	146.06
243.298	138.06
243.531	146.06
243.765	150.06
243.998	156.06
244.232	145.06
244.465	140.06
244.699	151.06
244.932	160.06
245.166	138.06
245.399	152.06
245.633	162.06
245.866	148.06
246.099	137.06
246.333	149.06
246.566	165.06
246.8	152.06
247.033	154.06
247.266	164.06
247.5	160.06
247.733	171.06
247.966	169.06
248.2	172.06
248.433	172.06
248.666	167.06
248.899	194.06
249.133	203.06
249.366	200.06
249.599	197.06
249.832	175.06
250.066	165.06
250.299	176.06
250.532	182.06
250.765	200.06
250.998	206.06
251.231	226.06
251.465	203.06
251.698	221.06
251.931	202.06
252.164	194.06
252.397	208.06
252.63	198.06
252.863	195.06
253.096	211.06
253.329	204.06
253.562	220.06
253.795	198.06
254.028	227.06
254.261	223.06
254.494	238.06
254.727	241.06
254.96	290.06
255.193	261.06
255.426	252.06
255.659	234.06
255.892	237.06
256.124	211.06
256.357	213.06
256.59	215.06
256.823	228.06
257.056	223.06
257.289	216.06
257.521	216.06
257.754	203.06
257.987	204.06
258.22	196.06
258.452	193.06
258.685	193.06
258.918	196.06
259.151	212.06
259.383	219.06
259.616	217.06
259.849	234.06
260.081	250.06
260.314	249.06
260.547	246.06
260.779	238.06
261.012	238.06
261.244	247.06
261.477	218.06
261.71	235.06
261.942	238.06
262.175	224.06
262.407	245.06
262.64	215.06
262.872	203.06
263.105	217.06
263.337	218.06
263.57	220.06
263.802	214.06
264.035	227.06
264.267	212.06
264.499	237.06
264.732	230.06
264.964	218.06
265.197	230.06
265.429	242.06
265.661	229.06
265.894	227.06
266.126	222.06
266.358	236.06
266.591	237.06
266.823	242.06
267.055	240.06
267.287	252.06
267.52	246.06
267.752	226.06
267.984	221.06
268.216	231.06
268.448	230.06
268.681	258.06
268.913	263.06
269.145	268.06
269.377	269.06
269.609	284.06
269.841	273.06
270.073	302.06
270.306	293.06
270.538	311.06
270.77	308.06
271.002	318.06
271.234	302.06
271.466	306.06
271.698	308.06
271.93	290.06
272.162	325.06
272.394	314.06
272.626	303.06
272.858	285.06
273.09	299.06
273.322	284.06
273.553	270.06
273.785	286.06
274.017	271.06
274.249	281.06
274.481	272.06
274.713	272.06
274.945	289.06
275.176	276.06
275.408	271.06
275.64	285.06
275.872	268.06
276.104	288.06
276.335	292.06
276.567	303.06
276.799	316.06
277.031	309.06
277.262	324.06
277.494	326.06
277.726	327.06
277.957	310.06
278.189	292.06
278.421	306.06
278.652	288.06
278.884	291.06
279.115	282.06
279.347	305.06
279.579	296.06
279.81	272.06
280.042	271.06
280.273	287.06
280.505	267.06
280.736	264.06
280.968	289.06
281.199	286.06
281.431	302.06
281.662	295.06
281.894	275.06
282.125	300.06
282.356	324.06
282.588	335.06
282.819	307.06
283.051	312.06
283.282	293.06
283.513	315.06
283.745	306.06
283.976	286.06
284.207	301.06
284.439	306.06
284.67	322.06
284.901	320.06
285.132	311.06
285.364	302.06
285.595	296.06
285.826	287.06
286.057	310.06
286.288	310.06
286.52	301.06
286.751	290.06
286.982	300.06
287.213	293.06
287.444	315.06
287.675	300.06
287.906	327.06
288.138	327.06
288.369	348.06
288.6	299.06
288.831	312.06
289.062	314.06
289.293	321.06
289.524	311.06
289.755	301.06
289.986	311.06
290.217	321.06
290.448	317.06
290.679	322.06
290.91	302.06
291.141	303.06
291.371	322.06
291.602	325.06
291.833	320.06
292.064	318.06
292.295	315.06
292.526	330.06
292.757	327.06
292.987	312.06
293.218	312.06
293.449	312.06
293.68	315.06
293.91	322.06
294.141	319.06
294.372	317.06
294.603	332.06
294.833	316.06
295.064	336.06
295.295	302.06
295.525	324.06
295.756	326.06
295.987	315.06
296.217	343.06
296.448	343.06
296.679	333.06
296.909	322.06
297.14	314.06
297.37	324.06
297.601	316.06
297.831	344.06
298.062	338.06
298.292	343.06
298.523	334.06
298.753	346.06
298.984	335.06
299.214	331.06
299.445	332.06
299.675	330.06
299.905	336.06
300.136	352.06
300.366	319.06
300.597	328.06
300.827	342.06
301.057	347.06
301.288	356.06
301.518	334.06
301.748	366.06
301.979	357.06
302.209	363.06
302.439	351.06
302.669	334.06
302.9	350.06
303.13	335.06
303.36	341.06
303.59	360.06
303.82	365.06
304.051	358.06
304.281	354.06
304.511	357.06
304.741	349.06
304.971	336.06
305.201	363.06
305.431	351.06
305.661	362.06
305.891	364.06
306.121	355.06
306.352	365.06
306.582	353.06
306.812	377.06
307.042	347.06
307.272	354.06
307.502	342.06
307.731	368.06
307.961	360.06
308.191	381.06
308.421	360.06
308.651	349.06
308.881	366.06
309.111	364.06
309.341	357.06
309.571	372.06
309.8	378.06
310.03	388.06
310.26	391.06
310.49	391.06
310.72	402.06
310.949	398.06
311.179	406.06
311.409	390.06
311.639	378.06
311.868	399.06
312.098	396.06
312.328	380.06
312.557	420.06
312.787	426.06
313.017	413.06
313.246	403.06
313.476	394.06
313.706	380.06
313.935	411.06
314.165	420.06
314.394	422.06
314.624	420.06
314.853	422.06
315.083	395.06
315.312	416.06
315.542	414.06
315.771	393.06
316.001	390.06
316.23	383.06
316.46	393.06
316.689	395.06
316.919	386.06
317.148	401.06
317.377	408.06
317.607	408.06
317.836	399.06
318.065	409.06
318.295	414.06
318.524	396.06
318.753	390.06
318.983	395.06
319.212	390.06
319.441	409.06
319.67	402.06
319.9	400.06
320.129	422.06
320.358	399.06
320.587	384.06
320.816	415.06
321.046	413.06
321.275	412.06
321.504	407.06
321.733	423.06
321.962	437.06
322.191	439.06
322.42	442.06
322.649	443.06
322.878	458.06
323.108	468.06
323.337	461.06
323.566	500.06
323.795	514.06
324.024	532.06
324.253	672.06
324.482	889.06
324.71	1332.06
324.939	1816.06
325.168	1574.06
325.397	831.06
325.626	607.06
325.855	534.06
326.084	503.06
326.313	476.06
326.542	518.06
326.77	548.06
326.999	616.06
327.228	811.06
327.457	1170.06
327.686	1380.06
327.914	948.06
328.143	642.06
328.372	606.06
328.6	567.06
328.829	540.06
329.058	546.06
329.287	555.06
329.515	526.06
329.744	515.06
329.972	495.06
330.201	514.06
330.43	564.06
330.658	575.06
330.887	587.06
331.115	559.06
331.344	518.06
331.572	493.06
331.801	493.06
332.03	503.06
332.258	495.06
332.486	482.06
332.715	476.06
332.943	485.06
333.172	484.06
333.4	510.06
333.629	499.06
333.857	522.06
334.085	492.06
334.314	521.06
334.542	534.06
334.771	535.06
334.999	528.06
335.227	503.06
335.455	485.06
335.684	474.06
335.912	476.06
336.14	471.06
336.369	474.06
336.597	473.06
336.825	469.06
337.053	458.06
337.281	450.06
337.51	450.06
337.738	471.06
337.966	465.06
338.194	457.06
338.422	474.06
338.65	444.06
338.878	451.06
339.106	456.06
339.334	443.06
339.562	439.06
339.79	453.06
340.018	438.06
340.246	448.06
340.474	445.06
340.702	444.06
340.93	440.06
341.158	461.06
341.386	457.06
341.614	449.06
341.842	439.06
342.07	436.06
342.298	436.06
342.526	422.06
342.754	454.06
342.981	420.06
343.209	427.06
343.437	440.06
343.665	464.06
343.893	460.06
344.12	484.06
344.348	474.06
344.576	466.06
344.804	463.06
345.031	476.06
345.259	467.06
345.487	449.06
345.714	425.06
345.942	422.06
346.17	457.06
346.397	443.06
346.625	438.06
346.853	423.06
347.08	425.06
347.308	426.06
347.535	413.06
347.763	454.06
347.99	448.06
348.218	431.06
348.445	433.06
348.673	428.06
348.9	406.06
349.128	424.06
349.355	430.06
349.583	398.06
349.81	415.06
350.037	428.06
350.265	402.06
350.492	405.06
350.72	419.06
350.947	409.06
351.174	429.06
351.402	421.06
351.629	441.06
351.856	416.06
352.083	419.06
352.311	452.06
352.538	438.06
352.765	423.06
352.992	416.06
353.22	428.06
353.447	422.06
353.674	428.06
353.901	379.06
354.128	405.06
354.355	412.06
354.583	408.06
354.81	381.06
355.037	408.06
355.264	400.06
355.491	389.06
355.718	389.06
355.945	393.06
356.172	382.06
356.399	394.06
356.626	389.06
356.853	378.06
357.08	374.06
357.307	406.06
357.534	392.06
357.761	399.06
357.988	410.06
358.215	422.06
358.441	387.06
358.668	386.06
358.895	407.06
359.122	394.06
359.349	410.06
359.576	423.06
359.802	420.06
360.029	446.06
360.256	438.06
360.483	407.06
360.709	440.06
360.936	430.06
361.163	417.06
361.39	418.06
361.616	411.06
361.843	411.06
362.07	425.06
362.296	408.06
362.523	387.06
362.749	402.06
362.976	382.06
363.203	401.06
363.429	404.06
363.656	409.06
363.882	397.06
364.109	390.06
364.335	394.06
364.562	394.06
364.788	390.06
365.015	397.06
365.241	373.06
365.468	409.06
365.694	388.06
365.92	406.06
366.147	396.06
366.373	399.06
366.599	423.06
366.826	390.06
367.052	390.06
367.278	389.06
367.505	405.06
367.731	393.06
367.957	396.06
368.184	401.06
368.41	404.06
368.636	400.06
368.862	442.06
369.089	423.06
369.315	382.06
369.541	402.06
369.767	380.06
369.993	401.06
370.219	384.06
370.445	393.06
370.672	389.06
370.898	387.06
371.124	395.06
371.35	395.06
371.576	406.06
371.802	380.06
372.028	380.06
372.254	386.06
372.48	380.06
372.706	400.06
372.932	401.06
373.158	398.06
373.384	414.06
373.61	396.06
373.835	416.06
374.061	406.06
374.287	404.06
374.513	390.06
374.739	413.06
374.965	413.06
375.191	405.06
375.416	399.06
375.642	399.06
375.868	414.06
376.094	398.06
376.319	405.06
376.545	377.06
376.771	395.06
376.997	403.06
377.222	378.06
377.448	386.06
377.674	383.06
377.899	383.06
378.125	387.06
378.35	373.06
378.576	378.06
378.802	384.06
379.027	384.06
379.253	399.06
379.478	388.06
379.704	388.06
379.929	392.06
380.155	372.06
380.38	384.06
380.606	392.06
380.831	390.06
381.057	398.06
381.282	401.06
381.507	386.06
381.733	406.06
381.958	404.06
382.184	389.06
382.409	411.06
382.634	406.06
382.86	410.06
383.085	415.06
383.31	400.06
383.535	424.06
383.761	413.06
383.986	403.06
384.211	419.06
384.436	423.06
384.662	431.06
384.887	422.06
385.112	419.06
385.337	431.06
385.562	421.06
385.787	403.06
386.013	438.06
386.238	445.06
386.463	462.06
386.688	443.06
386.913	434.06
387.138	426.06
387.363	431.06
387.588	422.06
387.813	439.06
388.038	430.06
388.263	438.06
388.488	436.06
388.713	442.06
388.938	444.06
389.163	418.06
389.387	432.06
389.612	432.06
389.837	452.06
390.062	421.06
390.287	439.06
390.512	438.06
390.736	408.06
390.961	441.06
391.186	430.06
391.411	428.06
391.636	456.06
391.86	432.06
392.085	442.06
392.31	454.06
392.534	451.06
392.759	431.06
392.984	468.06
393.208	424.06
393.433	425.06
393.658	446.06
393.882	432.06
394.107	424.06
394.331	417.06
394.556	431.06
394.78	416.06
395.005	443.06
395.229	436.06
395.454	437.06
395.678	461.06
395.903	466.06
396.127	478.06
396.352	460.06
396.576	447.06
396.801	443.06
397.025	440.06
397.249	469.06
397.474	475.06
397.698	451.06
397.922	470.06
398.147	483.06
398.371	483.06
398.595	495.06
398.82	471.06
399.044	514.06
399.268	539.06
399.492	548.06
399.717	601.06
399.941	587.06
400.165	592.06
400.389	608.06
400.613	571.06
400.837	532.06
401.062	523.06
401.286	478.06
401.51	489.06
401.734	485.06
401.958	490.06
402.182	498.06
402.406	497.06
402.63	513.06
402.854	491.06
403.078	496.06
403.302	512.06
403.526	540.06
403.75	504.06
403.974	501.06
404.198	505.06
404.422	516.06
404.645	520.06
404.869	508.06
405.093	543.06
405.317	583.06
405.541	586.06
405.765	557.06
405.988	525.06
406.212	533.06
406.436	551.06
406.66	570.06
406.883	540.06
407.107	575.06
407.331	603.06
407.555	687.06
407.778	662.06
408.002	617.06
408.226	571.06
408.449	557.06
408.673	571.06
408.896	567.06
409.12	629.06
409.344	573.06
409.567	520.06
409.791	511.06
410.014	518.06
410.238	489.06
410.461	495.06
410.685	507.06
410.908	531.06
411.132	550.06
411.355	560.06
411.578	548.06
411.802	523.06
412.025	482.06
412.249	514.06
412.472	546.06
412.695	549.06
412.919	544.06
413.142	510.06
413.365	483.06
413.589	479.06
413.812	491.06
414.035	496.06
414.258	474.06
414.482	471.06
414.705	476.06
414.928	475.06
415.151	480.06
415.374	477.06
415.597	483.06
415.821	460.06
416.044	460.06
416.267	470.06
416.49	475.06
416.713	464.06
416.936	492.06
417.159	469.06
417.382	460.06
417.605	448.06
417.828	510.06
418.051	512.06
418.274	489.06
418.497	468.06
418.72	492.06
418.943	487.06
419.166	493.06
419.389	536.06
419.611	514.06
419.834	519.06
420.057	491.06
420.28	502.06
420.503	499.06
420.726	486.06
420.948	490.06
421.171	544.06
421.394	569.06
421.617	517.06
421.839	498.06
422.062	492.06
422.285	493.06
422.507	530.06
422.73	621.06
422.953	586.06
423.175	527.06
423.398	502.06
423.621	512.06
423.843	526.06
424.066	522.06
424.288	493.06
424.511	523.06
424.733	588.06
424.956	656.06
425.178	630.06
425.401	607.06
425.623	634.06
425.846	554.06
426.068	515.06
426.291	505.06
426.513	506.06
426.735	519.06
426.958	556.06
427.18	625.06
427.402	728.06
427.625	776.06
427.847	694.06
428.069	611.06
428.292	540.06
428.514	506.06
428.736	487.06
428.958	469.06
429.181	469.06
429.403	479.06
429.625	494.06
429.847	524.06
430.069	544.06
430.292	549.06
430.514	492.06
430.736	487.06
430.958	467.06
431.18	459.06
431.402	459.06
431.624	452.06
431.846	461.06
432.068	455.06
432.29	468.06
432.512	453.06
432.734	461.06
432.956	448.06
433.178	461.06
433.4	461.06
433.622	475.06
433.844	456.06
434.066	466.06
434.287	468.06
434.509	469.06
434.731	452.06
434.953	467.06
435.175	515.06
435.397	515.06
435.618	509.06
435.84	568.06
436.062	621.06
436.284	679.06
436.505	565.06
436.727	501.06
436.949	498.06
437.17	455.06
437.392	450.06
437.614	462.06
437.835	489.06
438.057	581.06
438.278	682.06
438.5	670.06
438.721	729.06
438.943	690.06
439.165	554.06
439.386	524.06
439.608	526.06
439.829	523.06
440.05	537.06
440.272	575.06
440.493	549.06
440.715	498.06
440.936	472.06
441.158	467.06
441.379	478.06
441.6	486.06
441.822	503.06
442.043	537.06
442.264	610.06
442.486	639.06
442.707	562.06
442.928	518.06
443.149	522.06
443.371	555.06
443.592	580.06
443.813	646.06
444.034	705.06
444.255	587.06
444.476	551.06
444.698	532.06
444.919	552.06
445.14	645.06
445.361	572.06
445.582	560.06
445.803	606.06
446.024	681.06
446.245	703.06
446.466	632.06
446.687	556.06
446.908	492.06
447.129	477.06
447.35	489.06
447.571	464.06
447.792	458.06
448.013	459.06
448.234	478.06
448.455	521.06
448.675	640.06
448.896	700.06
449.117	610.06
449.338	550.06
449.559	672.06
449.779	770.06
450	602.06
450.221	492.06
450.442	455.06
450.662	440.06
450.883	436.06
451.104	456.06
451.324	456.06
451.545	432.06
451.766	417.06
451.986	422.06
452.207	425.06
452.428	421.06
452.648	408.06
452.869	406.06
453.089	429.06
453.31	437.06
453.53	416.06
453.751	418.06
453.971	429.06
454.192	429.06
454.412	413.06
454.633	406.06
454.853	408.06
455.073	396.06
455.294	450.06
455.514	486.06
455.734	474.06
455.955	436.06
456.175	398.06
456.395	390.06
456.616	390.06
456.836	409.06
457.056	388.06
457.276	407.06
457.497	406.06
457.717	396.06
457.937	404.06
458.157	414.06
458.377	403.06
458.598	436.06
458.818	486.06
459.038	534.06
459.258	556.06
459.478	469.06
459.698	458.06
459.918	451.06
460.138	450.06
460.358	469.06
460.578	445.06
460.798	475.06
461.018	459.06
461.238	476.06
461.458	468.06
461.678	458.06
461.898	467.06
462.118	465.06
462.338	486.06
462.558	496.06
462.777	484.06
462.997	522.06
463.217	522.06
463.437	552.06
463.657	492.06
463.876	487.06
464.096	492.06
464.316	504.06
464.536	485.06
464.755	497.06
464.975	500.06
465.195	520.06
465.414	536.06
465.634	508.06
465.854	472.06
466.073	463.06
466.293	454.06
466.512	428.06
466.732	427.06
466.951	427.06
467.171	431.06
467.391	447.06
467.61	445.06
467.829	429.06
468.049	432.06
468.268	446.06
468.488	438.06
468.707	423.06
468.927	425.06
469.146	399.06
469.365	431.06
469.585	425.06
469.804	425.06
470.023	439.06
470.243	433.06
470.462	413.06
470.681	453.06
470.901	446.06
471.12	454.06
471.339	414.06
471.558	425.06
471.777	412.06
471.997	429.06
472.216	439.06
472.435	457.06
472.654	451.06
472.873	425.06
473.092	455.06
473.311	430.06
473.53	434.06
473.749	426.06
473.968	467.06
474.187	551.06
474.406	569.06
474.625	462.06
474.844	441.06
475.063	424.06
475.282	420.06
475.501	433.06
475.72	420.06
475.939	455.06
476.158	430.06
476.377	460.06
476.596	438.06
476.814	451.06
477.033	437.06
477.252	452.06
477.471	461.06
477.69	471.06
477.908	455.06
478.127	487.06
478.346	452.06
478.564	475.06
478.783	499.06
479.002	467.06
479.22	485.06
479.439	507.06
479.658	522.06
479.876	526.06
480.095	506.06
480.313	546.06
480.532	554.06
480.751	529.06
480.969	521.06
481.188	550.06
481.406	577.06
481.624	533.06
481.843	512.06
482.061	509.06
482.28	533.06
482.498	509.06
482.717	503.06
482.935	487.06
483.153	472.06
483.372	505.06
483.59	500.06
483.808	496.06
484.027	491.06
484.245	513.06
484.463	502.06
484.681	521.06
484.9	526.06
485.118	526.06
485.336	507.06
485.554	481.06
485.772	519.06
485.99	511.06
486.209	521.06
486.427	516.06
486.645	503.06
486.863	526.06
487.081	510.06
487.299	512.06
487.517	528.06
487.735	529.06
487.953	526.06
488.171	542.06
488.389	523.06
488.607	524.06
488.825	536.06
489.043	534.06
489.261	551.06
489.479	534.06
489.696	554.06
489.914	553.06
490.132	547.06
490.35	546.06
490.568	547.06
490.786	539.06
491.003	580.06
491.221	591.06
491.439	599.06
491.657	570.06
491.874	591.06
492.092	593.06
492.31	596.06
492.527	566.06
492.745	579.06
492.963	607.06
493.18	583.06
493.398	603.06
493.615	596.06
493.833	601.06
494.05	582.06
494.268	608.06
494.485	634.06
494.703	597.06
494.92	610.06
495.138	631.06
495.355	645.06
495.573	611.06
495.79	607.06
496.008	618.06
496.225	624.06
496.442	619.06
496.66	620.06
496.877	628.06
497.094	630.06
497.312	647.06
497.529	646.06
497.746	622.06
497.963	654.06
498.181	681.06
498.398	680.06
498.615	700.06
498.832	728.06
499.049	727.06
499.267	772.06
499.484	783.06
499.701	808.06
499.918	850.06
500.135	926.06
500.352	958.06
500.569	961.06
500.786	967.06
501.003	939.06
501.22	909.06
501.437	856.06
501.654	843.06
501.871	858.06
502.088	788.06
502.305	772.06
502.522	719.06
502.739	719.06
502.956	697.06
503.172	696.06
503.389	662.06
503.606	667.06
503.823	655.06
504.04	629.06
504.256	648.06
504.473	642.06
504.69	647.06
504.907	636.06
505.123	639.06
505.34	586.06
505.557	610.06
505.773	635.06
505.99	598.06
506.207	582.06
506.423	596.06
506.64	567.06
506.856	554.06
507.073	570.06
507.289	576.06
507.506	570.06
507.722	571.06
507.939	558.06
508.155	568.06
508.372	555.06
508.588	550.06
508.805	556.06
509.021	550.06
509.238	557.06
509.454	568.06
509.67	573.06
509.887	554.06
510.103	562.06
510.319	554.06
510.536	640.06
510.752	918.06
510.968	749.06
511.184	538.06
511.401	526.06
511.617	533.06
511.833	532.06
512.049	519.06
512.265	518.06
512.481	530.06
512.698	525.06
512.914	500.06
513.13	524.06
513.346	502.06
513.562	519.06
513.778	508.06
513.994	508.06
514.21	523.06
514.426	546.06
514.642	558.06
514.858	607.06
515.074	631.06
515.29	687.06
515.506	878.06
515.721	770.06
515.937	605.06
516.153	544.06
516.369	556.06
516.585	539.06
516.801	563.06
517.016	544.06
517.232	535.06
517.448	540.06
517.664	579.06
517.879	567.06
518.095	557.06
518.311	552.06
518.527	570.06
518.742	536.06
518.958	534.06
519.173	544.06
519.389	525.06
519.605	526.06
519.82	527.06
520.036	527.06
520.251	538.06
520.467	543.06
520.682	573.06
520.898	547.06
521.113	548.06
521.329	586.06
521.544	638.06
521.76	769.06
521.975	1135.06
522.19	1080.06
522.406	665.06
522.621	548.06
522.836	516.06
523.052	500.06
523.267	490.06
523.482	490.06
523.698	481.06
523.913	468.06
524.128	475.06
524.343	446.06
524.559	463.06
524.774	452.06
524.989	484.06
525.204	460.06
525.419	456.06
525.634	448.06
525.849	456.06
526.064	428.06
526.28	452.06
526.495	432.06
526.71	432.06
526.925	424.06
527.14	437.06
527.355	440.06
527.57	424.06
527.785	456.06
527.999	425.06
528.214	442.06
528.429	432.06
528.644	427.06
528.859	461.06
529.074	418.06
529.289	444.06
529.503	493.06
529.718	475.06
529.933	473.06
530.148	428.06
530.363	431.06
530.577	406.06
530.792	438.06
531.007	430.06
531.221	414.06
531.436	415.06
531.651	418.06
531.865	415.06
532.08	412.06
532.295	404.06
532.509	411.06
532.724	414.06
532.938	406.06
533.153	418.06
533.367	410.06
533.582	402.06
533.796	433.06
534.011	413.06
534.225	402.06
534.44	403.06
534.654	409.06
534.868	407.06
535.083	417.06
535.297	424.06
535.511	424.06
535.726	421.06
535.94	412.06
536.154	436.06
536.369	406.06
536.583	394.06
536.797	396.06
537.011	384.06
537.225	388.06
537.44	385.06
537.654	384.06
537.868	375.06
538.082	415.06
538.296	401.06
538.51	404.06
538.724	399.06
538.938	395.06
539.153	408.06
539.367	424.06
539.581	400.06
539.795	411.06
540.009	386.06
540.222	393.06
540.436	408.06
540.65	404.06
540.864	405.06
541.078	414.06
541.292	412.06
541.506	409.06
541.72	393.06
541.934	387.06
542.147	420.06
542.361	401.06
542.575	390.06
542.789	400.06
543.002	382.06
543.216	402.06
543.43	407.06
543.644	404.06
543.857	415.06
544.071	397.06
544.285	404.06
544.498	403.06
544.712	385.06
544.925	390.06
545.139	396.06
545.352	383.06
545.566	393.06
545.779	411.06
545.993	379.06
546.206	387.06
546.42	399.06
546.633	392.06
546.847	381.06
547.06	390.06
547.274	399.06
547.487	381.06
547.7	379.06
547.914	372.06
548.127	395.06
548.34	404.06
548.554	397.06
548.767	379.06
548.98	384.06
549.193	382.06
549.407	384.06
549.62	372.06
549.833	394.06
550.046	379.06
550.259	371.06
550.473	367.06
550.686	386.06
550.899	385.06
551.112	357.06
551.325	406.06
551.538	380.06
551.751	371.06
551.964	380.06
552.177	392.06
552.39	378.06
552.603	391.06
552.816	393.06
553.029	382.06
553.242	374.06
553.455	387.06
553.667	399.06
553.88	404.06
554.093	390.06
554.306	396.06
554.519	385.06
554.732	387.06
554.944	364.06
555.157	374.06
555.37	360.06
555.583	371.06
555.795	348.06
556.008	340.06
556.221	358.06
556.433	360.06
556.646	379.06
556.859	366.06
557.071	352.06
557.284	341.06
557.496	336.06
557.709	357.06
557.921	349.06
558.134	350.06
558.346	355.06
558.559	342.06
558.771	348.06
558.984	327.06
559.196	343.06
559.409	334.06
559.621	356.06
559.833	335.06
560.046	336.06
560.258	345.06
560.47	341.06
560.683	333.06
560.895	335.06
561.107	342.06
561.32	333.06
561.532	366.06
561.744	340.06
561.956	334.06
562.168	333.06
562.381	331.06
562.593	351.06
562.805	341.06
563.017	342.06
563.229	346.06
563.441	341.06
563.653	327.06
563.865	346.06
564.077	355.06
564.289	355.06
564.501	369.06
564.713	362.06
564.925	359.06
565.137	374.06
565.349	374.06
565.561	360.06
565.773	372.06
565.985	390.06
566.197	392.06
566.408	433.06
566.62	436.06
566.832	416.06
567.044	435.06
567.255	446.06
567.467	446.06
567.679	454.06
567.891	459.06
568.102	472.06
568.314	463.06
568.526	447.06
568.737	429.06
568.949	422.06
569.161	385.06
569.372	367.06
569.584	364.06
569.795	350.06
570.007	373.06
570.218	366.06
570.43	336.06
570.641	339.06
570.853	329.06
571.064	347.06
571.276	334.06
571.487	313.06
571.698	315.06
571.91	334.06
572.121	325.06
572.333	307.06
572.544	304.06
572.755	325.06
572.966	326.06
573.178	330.06
573.389	318.06
573.6	309.06
573.811	294.06
574.023	301.06
574.234	295.06
574.445	312.06
574.656	298.06
574.867	292.06
575.078	316.06
575.289	299.06
575.501	287.06
575.712	285.06
575.923	293.06
576.134	293.06
576.345	280.06
576.556	297.06
576.767	290.06
576.978	293.06
577.188	290.06
577.399	281.06
577.61	280.06
577.821	285.06
578.032	295.06
578.243	313.06
578.454	425.06
578.665	340.06
578.875	271.06
579.086	273.06
579.297	278.06
579.508	269.06
579.718	291.06
579.929	286.06
580.14	276.06
580.35	271.06
580.561	278.06
580.772	261.06
580.982	270.06
581.193	278.06
581.403	277.06
581.614	260.06
581.825	267.06
582.035	270.06
582.246	272.06
582.456	280.06
582.667	260.06
582.877	282.06
583.087	271.06
583.298	272.06
583.508	284.06
583.719	274.06
583.929	263.06
584.139	275.06
584.35	266.06
584.56	274.06
584.77	260.06
584.981	256.06
585.191	257.06
585.401	263.06
585.611	239.06
585.821	255.06
586.032	261.06
586.242	254.06
586.452	292.06
586.662	262.06
586.872	255.06
587.082	280.06
587.292	262.06
587.502	263.06
587.713	238.06
587.923	265.06
588.133	270.06
588.343	263.06
588.553	260.06
588.762	255.06
588.972	269.06
589.182	254.06
589.392	266.06
589.602	290.06
589.812	260.06
590.022	265.06
590.232	290.06
590.441	273.06
590.651	247.06
590.861	274.06
591.071	246.06
591.281	270.06
591.49	272.06
591.7	270.06
591.91	275.06
592.119	253.06
592.329	258.06
592.539	288.06
592.748	271.06
592.958	288.06
593.167	287.06
593.377	270.06
593.587	292.06
593.796	283.06
594.006	286.06
594.215	284.06
594.424	286.06
594.634	276.06
594.843	266.06
595.053	273.06
595.262	259.06
595.472	262.06
595.681	270.06
595.89	245.06
596.1	255.06
596.309	250.06
596.518	273.06
596.727	244.06
596.937	237.06
597.146	248.06
597.355	257.06
597.564	256.06
597.774	234.06
597.983	248.06
598.192	227.06
598.401	228.06
598.61	241.06
598.819	255.06
599.028	229.06
599.237	221.06
599.446	227.06
599.655	252.06
599.864	244.06
600.073	228.06
600.282	226.06
600.491	228.06
600.7	204.06
600.909	237.06
601.118	215.06
601.327	229.06
601.536	230.06
601.745	221.06
601.953	206.06
602.162	244.06
602.371	198.06
602.58	210.06
602.789	223.06
602.997	222.06
603.206	222.06
603.415	219.06
603.623	244.06
603.832	228.06
604.041	235.06
604.249	213.06
604.458	219.06
604.666	208.06
604.875	216.06
605.084	222.06
605.292	206.06
605.501	214.06
605.709	222.06
605.918	220.06
606.126	223.06
606.334	206.06
606.543	215.06
606.751	208.06
606.96	222.06
607.168	192.06
607.376	227.06
607.585	217.06
607.793	186.06
608.001	217.06
608.21	221.06
608.418	208.06
608.626	207.06
608.834	212.06
609.043	218.06
609.251	206.06
609.459	204.06
609.667	217.06
609.875	221.06
610.083	212.06
610.291	208.06
610.499	208.06
610.707	228.06
610.916	228.06
611.124	218.06
611.332	203.06
611.54	222.06
611.748	219.06
611.955	212.06
612.163	212.06
612.371	215.06
612.579	219.06
612.787	208.06
612.995	208.06
613.203	213.06
613.411	211.06
613.618	205.06
613.826	210.06
614.034	212.06
614.242	210.06
614.449	209.06
614.657	199.06
614.865	196.06
615.072	209.06
615.28	222.06
615.488	196.06
615.695	216.06
615.903	214.06
616.111	208.06
616.318	205.06
616.526	219.06
616.733	222.06
616.941	209.06
617.148	210.06
617.356	202.06
617.563	204.06
617.771	215.06
617.978	208.06
618.185	200.06
618.393	205.06
618.6	205.06
618.807	208.06
619.015	206.06
619.222	202.06
619.429	211.06
619.637	204.06
619.844	205.06
620.051	182.06
620.258	196.06
620.466	195.06
620.673	198.06
620.88	203.06
621.087	196.06
621.294	214.06
621.501	191.06
621.708	201.06
621.915	206.06
622.122	187.06
622.329	201.06
622.536	191.06
622.743	203.06
622.95	205.06
623.157	204.06
623.364	186.06
623.571	209.06
623.778	188.06
623.985	183.06
624.192	188.06
624.399	192.06
624.606	183.06
624.812	184.06
625.019	207.06
625.226	206.06
625.433	189.06
625.639	193.06
625.846	183.06
626.053	176.06
626.259	187.06
626.466	178.06
626.673	191.06
626.879	181.06
627.086	177.06
627.293	185.06
627.499	185.06
627.706	189.06
627.912	188.06
628.119	188.06
628.325	180.06
628.532	180.06
628.738	175.06
628.945	176.06
629.151	173.06
629.357	162.06
629.564	172.06
629.77	186.06
629.976	188.06
630.183	171.06
630.389	175.06
630.595	179.06
630.802	172.06
631.008	159.06
631.214	183.06
631.42	175.06
631.627	190.06
631.833	173.06
632.039	174.06
632.245	171.06
632.451	173.06
632.657	174.06
632.863	146.06
633.069	169.06
633.275	179.06
633.481	170.06
633.688	180.06
633.893	158.06
634.099	166.06
634.305	160.06
634.511	160.06
634.717	165.06
634.923	162.06
635.129	175.06
635.335	154.06
635.541	172.06
635.747	175.06
635.952	176.06
636.158	156.06
636.364	164.06
636.57	166.06
636.775	174.06
636.981	168.06
637.187	158.06
637.392	164.06
637.598	170.06
637.804	172.06
638.009	155.06
638.215	186.06
638.421	178.06
638.626	164.06
638.832	155.06
639.037	160.06
639.243	166.06
639.448	146.06
639.654	164.06
639.859	166.06
640.065	167.06
640.27	163.06
640.475	139.06
640.681	144.06
640.886	159.06
641.091	161.06
641.297	162.06
641.502	170.06
641.707	171.06
641.913	155.06
642.118	154.06
642.323	145.06
642.528	160.06
642.733	156.06
642.939	165.06
643.144	150.06
643.349	153.06
643.554	168.06
643.759	149.06
643.964	168.06
644.169	152.06
644.374	152.06
644.579	142.06
644.784	155.06
644.989	146.06
645.194	156.06
645.399	166.06
645.604	154.06
645.809	132.06
646.014	142.06
646.219	145.06
646.423	142.06
646.628	156.06
646.833	160.06
647.038	150.06
647.243	162.06
647.447	136.06
647.652	164.06
647.857	159.06
648.062	151.06
648.266	166.06
648.471	139.06
648.676	150.06
648.88	144.06
649.085	157.06
649.289	149.06
649.494	150.06
649.698	186.06
649.903	182.06
650.107	161.06
650.312	140.06
650.516	162.06
650.721	141.06
650.925	128.06
651.13	149.06
651.334	138.06
651.539	146.06
651.743	135.06
651.947	145.06
652.152	128.06
652.356	137.06
652.56	134.06
652.764	150.06
652.969	116.06
653.173	136.06
653.377	107.06
653.581	130.06
653.785	127.06
653.99	122.06
654.194	139.06
654.398	132.06
654.602	131.06
654.806	142.06
655.01	148.06
655.214	126.06
655.418	114.06
655.622	138.06
655.826	129.06
656.03	149.06
656.234	133.06
656.438	124.06
656.642	127.06
656.846	127.06
657.049	115.06
657.253	118.06
657.457	127.06
657.661	130.06
657.865	129.06
658.068	126.06
658.272	108.06
658.476	110.06
658.68	86.06
658.883	102.06
659.087	93.06
659.291	100.06
659.494	92.06
659.698	101.06
659.901	100.06
660.105	98.06
660.309	111.06
660.512	92.06
660.716	84.06
660.919	81.06
661.123	104.06
661.326	90.06
661.53	83.06
661.733	96.06
661.936	91.06
662.14	85.06
662.343	80.06
662.546	93.06
662.75	80.06
662.953	88.06
663.156	84.06
663.36	94.06
663.563	91.06
663.766	87.06
663.969	79.06
664.173	83.06
664.376	102.06
664.579	61.06
664.782	87.06
664.985	75.06
665.188	84.06
665.391	82.06
665.594	77.06
665.797	84.06
666	84.06
666.203	81.06
666.406	86.06
666.609	87.06
666.812	70.06
667.015	91.06
667.218	80.06
667.421	84.06
667.624	88.06
667.827	70.06
668.03	93.06
668.232	92.06
668.435	83.06
668.638	80.06
668.841	77.06
669.043	77.06
669.246	77.06
669.449	88.06
669.651	68.06
669.854	78.06
670.057	80.06
670.259	80.06
670.462	101.06
670.665	87.06
670.867	80.06
671.07	87.06
671.272	84.06
671.475	84.06
671.677	79.06
671.88	93.06
672.082	78.06
672.284	94.06
672.487	68.06
672.689	84.06
672.892	85.06
