Data from 1977.PennyLincolnUp.Lamp.En5.5.200Scan.071719.P1_HRD10591_16-05-12-863.txt Node
Date: Thu Jul 18 16:05:12 EDT 2019
User: cochatt
Spectrometer: HR+D1059
Trigger mode: 1
Integration Time (sec): 1.000000E-1
Scans to average: 1
Electric dark correction enabled: true
Nonlinearity correction enabled: false
Boxcar width: 0
XAxis mode: Wavelengths
Number of Pixels in Spectrum: 2048
>>>>>Begin Spectral Data<<<<<
223.165	-5.12
223.4	-5.12
223.635	-5.12
223.869	-18.12
224.104	-22.12
224.338	-12.12
224.573	-22.12
224.808	-11.12
225.042	-14.12
225.277	-8.12
225.511	6.88
225.746	-3.12
225.98	18.88
226.215	25.88
226.449	7.88
226.683	27.88
226.918	4.88
227.152	23.88
227.387	28.88
227.621	35.88
227.856	44.88
228.09	59.88
228.324	37.88
228.559	56.88
228.793	65.88
229.027	96.88
229.262	91.88
229.496	95.88
229.73	96.88
229.964	106.88
230.199	109.88
230.433	100.88
230.667	103.88
230.901	103.88
231.136	95.88
231.37	98.88
231.604	93.88
231.838	97.88
232.072	103.88
232.306	94.88
232.541	111.88
232.775	95.88
233.009	100.88
233.243	103.88
233.477	111.88
233.711	119.88
233.945	111.88
234.179	113.88
234.413	115.88
234.647	105.88
234.881	115.88
235.115	111.88
235.349	116.88
235.583	123.88
235.817	97.88
236.051	107.88
236.285	115.88
236.519	100.88
236.753	111.88
236.987	121.88
237.221	135.88
237.455	175.88
237.689	160.88
237.922	125.88
238.156	116.88
238.39	116.88
238.624	95.88
238.858	107.88
239.091	134.88
239.325	111.88
239.559	132.88
239.793	119.88
240.027	107.88
240.26	123.88
240.494	109.88
240.728	121.88
240.961	129.88
241.195	136.88
241.429	126.88
241.662	121.88
241.896	123.88
242.13	138.88
242.363	134.88
242.597	130.88
242.83	132.88
243.064	112.88
243.298	132.88
243.531	118.88
243.765	159.88
243.998	131.88
244.232	135.88
244.465	115.88
244.699	121.88
244.932	140.88
245.166	136.88
245.399	149.88
245.633	143.88
245.866	139.88
246.099	129.88
246.333	140.88
246.566	124.88
246.8	130.88
247.033	142.88
247.266	141.88
247.5	145.88
247.733	145.88
247.966	152.88
248.2	147.88
248.433	157.88
248.666	154.88
248.899	168.88
249.133	160.88
249.366	184.88
249.599	163.88
249.832	156.88
250.066	157.88
250.299	172.88
250.532	168.88
250.765	198.88
250.998	171.88
251.231	180.88
251.465	180.88
251.698	172.88
251.931	167.88
252.164	165.88
252.397	184.88
252.63	181.88
252.863	185.88
253.096	199.88
253.329	184.88
253.562	201.88
253.795	183.88
254.028	180.88
254.261	181.88
254.494	188.88
254.727	204.88
254.96	213.88
255.193	211.88
255.426	209.88
255.659	199.88
255.892	191.88
256.124	201.88
256.357	201.88
256.59	184.88
256.823	210.88
257.056	193.88
257.289	179.88
257.521	191.88
257.754	186.88
257.987	179.88
258.22	189.88
258.452	196.88
258.685	176.88
258.918	180.88
259.151	190.88
259.383	193.88
259.616	198.88
259.849	210.88
260.081	194.88
260.314	219.88
260.547	217.88
260.779	221.88
261.012	210.88
261.244	181.88
261.477	198.88
261.71	204.88
261.942	197.88
262.175	214.88
262.407	193.88
262.64	190.88
262.872	213.88
263.105	203.88
263.337	203.88
263.57	200.88
263.802	203.88
264.035	200.88
264.267	190.88
264.499	194.88
264.732	195.88
264.964	183.88
265.197	205.88
265.429	196.88
265.661	201.88
265.894	184.88
266.126	214.88
266.358	212.88
266.591	219.88
266.823	213.88
267.055	218.88
267.287	200.88
267.52	208.88
267.752	212.88
267.984	222.88
268.216	205.88
268.448	236.88
268.681	211.88
268.913	212.88
269.145	218.88
269.377	255.88
269.609	239.88
269.841	237.88
270.073	255.88
270.306	259.88
270.538	254.88
270.77	268.88
271.002	257.88
271.234	247.88
271.466	268.88
271.698	259.88
271.93	275.88
272.162	285.88
272.394	267.88
272.626	240.88
272.858	255.88
273.09	261.88
273.322	241.88
273.553	240.88
273.785	236.88
274.017	236.88
274.249	234.88
274.481	252.88
274.713	245.88
274.945	249.88
275.176	247.88
275.408	258.88
275.64	270.88
275.872	266.88
276.104	243.88
276.335	241.88
276.567	240.88
276.799	261.88
277.031	265.88
277.262	275.88
277.494	281.88
277.726	258.88
277.957	270.88
278.189	270.88
278.421	252.88
278.652	226.88
278.884	251.88
279.115	243.88
279.347	243.88
279.579	254.88
279.81	234.88
280.042	247.88
280.273	264.88
280.505	261.88
280.736	260.88
280.968	253.88
281.199	248.88
281.431	255.88
281.662	253.88
281.894	269.88
282.125	262.88
282.356	277.88
282.588	276.88
282.819	278.88
283.051	275.88
283.282	243.88
283.513	263.88
283.745	255.88
283.976	283.88
284.207	291.88
284.439	272.88
284.67	274.88
284.901	279.88
285.132	270.88
285.364	276.88
285.595	282.88
285.826	293.88
286.057	254.88
286.288	279.88
286.52	265.88
286.751	258.88
286.982	288.88
287.213	268.88
287.444	281.88
287.675	280.88
287.906	297.88
288.138	281.88
288.369	309.88
288.6	305.88
288.831	294.88
289.062	273.88
289.293	280.88
289.524	289.88
289.755	273.88
289.986	289.88
290.217	279.88
290.448	283.88
290.679	306.88
290.91	285.88
291.141	274.88
291.371	293.88
291.602	284.88
291.833	264.88
292.064	286.88
292.295	298.88
292.526	278.88
292.757	284.88
292.987	294.88
293.218	285.88
293.449	284.88
293.68	290.88
293.91	295.88
294.141	284.88
294.372	296.88
294.603	287.88
294.833	310.88
295.064	293.88
295.295	305.88
295.525	283.88
295.756	294.88
295.987	270.88
296.217	295.88
296.448	294.88
296.679	295.88
296.909	280.88
297.14	285.88
297.37	303.88
297.601	292.88
297.831	283.88
298.062	289.88
298.292	299.88
298.523	305.88
298.753	316.88
298.984	311.88
299.214	288.88
299.445	314.88
299.675	317.88
299.905	290.88
300.136	306.88
300.366	308.88
300.597	315.88
300.827	330.88
301.057	304.88
301.288	318.88
301.518	316.88
301.748	312.88
301.979	321.88
302.209	312.88
302.439	303.88
302.669	325.88
302.9	321.88
303.13	317.88
303.36	308.88
303.59	322.88
303.82	320.88
304.051	329.88
304.281	327.88
304.511	315.88
304.741	305.88
304.971	329.88
305.201	340.88
305.431	319.88
305.661	345.88
305.891	331.88
306.121	313.88
306.352	316.88
306.582	330.88
306.812	332.88
307.042	305.88
307.272	322.88
307.502	327.88
307.731	340.88
307.961	315.88
308.191	313.88
308.421	315.88
308.651	312.88
308.881	329.88
309.111	339.88
309.341	323.88
309.571	337.88
309.8	328.88
310.03	324.88
310.26	365.88
310.49	347.88
310.72	332.88
310.949	344.88
311.179	362.88
311.409	341.88
311.639	330.88
311.868	336.88
312.098	349.88
312.328	347.88
312.557	363.88
312.787	357.88
313.017	375.88
313.246	355.88
313.476	367.88
313.706	369.88
313.935	348.88
314.165	346.88
314.394	358.88
314.624	376.88
314.853	349.88
315.083	357.88
315.312	360.88
315.542	358.88
315.771	355.88
316.001	341.88
316.23	353.88
316.46	360.88
316.689	360.88
316.919	341.88
317.148	344.88
317.377	357.88
317.607	350.88
317.836	347.88
318.065	355.88
318.295	352.88
318.524	355.88
318.753	347.88
318.983	347.88
319.212	354.88
319.441	367.88
319.67	357.88
319.9	343.88
320.129	373.88
320.358	356.88
320.587	352.88
320.816	364.88
321.046	378.88
321.275	370.88
321.504	352.88
321.733	363.88
321.962	373.88
322.191	371.88
322.42	368.88
322.649	408.88
322.878	383.88
323.108	385.88
323.337	397.88
323.566	410.88
323.795	435.88
324.024	443.88
324.253	486.88
324.482	651.88
324.71	909.88
324.939	1221.88
325.168	1087.88
325.397	596.88
325.626	477.88
325.855	425.88
326.084	412.88
326.313	422.88
326.542	397.88
326.77	447.88
326.999	493.88
327.228	618.88
327.457	858.88
327.686	967.88
327.914	685.88
328.143	515.88
328.372	435.88
328.6	462.88
328.829	451.88
329.058	443.88
329.287	429.88
329.515	431.88
329.744	416.88
329.972	440.88
330.201	423.88
330.43	444.88
330.658	455.88
330.887	469.88
331.115	463.88
331.344	434.88
331.572	404.88
331.801	431.88
332.03	420.88
332.258	426.88
332.486	405.88
332.715	410.88
332.943	431.88
333.172	429.88
333.4	438.88
333.629	437.88
333.857	448.88
334.085	442.88
334.314	446.88
334.542	458.88
334.771	474.88
334.999	455.88
335.227	437.88
335.455	444.88
335.684	434.88
335.912	406.88
336.14	425.88
336.369	439.88
336.597	427.88
336.825	419.88
337.053	431.88
337.281	418.88
337.51	426.88
337.738	411.88
337.966	409.88
338.194	401.88
338.422	403.88
338.65	418.88
338.878	391.88
339.106	403.88
339.334	418.88
339.562	391.88
339.79	401.88
340.018	371.88
340.246	383.88
340.474	382.88
340.702	394.88
340.93	401.88
341.158	381.88
341.386	403.88
341.614	393.88
341.842	391.88
342.07	391.88
342.298	397.88
342.526	396.88
342.754	390.88
342.981	399.88
343.209	392.88
343.437	389.88
343.665	400.88
343.893	420.88
344.12	418.88
344.348	412.88
344.576	424.88
344.804	413.88
345.031	395.88
345.259	405.88
345.487	391.88
345.714	405.88
345.942	362.88
346.17	400.88
346.397	408.88
346.625	396.88
346.853	388.88
347.08	378.88
347.308	391.88
347.535	370.88
347.763	395.88
347.99	348.88
348.218	394.88
348.445	376.88
348.673	377.88
348.9	363.88
349.128	367.88
349.355	369.88
349.583	381.88
349.81	369.88
350.037	370.88
350.265	371.88
350.492	376.88
350.72	365.88
350.947	375.88
351.174	371.88
351.402	384.88
351.629	375.88
351.856	353.88
352.083	387.88
352.311	383.88
352.538	388.88
352.765	392.88
352.992	354.88
353.22	353.88
353.447	374.88
353.674	391.88
353.901	373.88
354.128	368.88
354.355	385.88
354.583	360.88
354.81	355.88
355.037	345.88
355.264	344.88
355.491	349.88
355.718	357.88
355.945	377.88
356.172	343.88
356.399	367.88
356.626	352.88
356.853	337.88
357.08	351.88
357.307	358.88
357.534	356.88
357.761	353.88
357.988	354.88
358.215	373.88
358.441	383.88
358.668	357.88
358.895	355.88
359.122	343.88
359.349	371.88
359.576	357.88
359.802	385.88
360.029	378.88
360.256	409.88
360.483	365.88
360.709	361.88
360.936	369.88
361.163	371.88
361.39	380.88
361.616	368.88
361.843	371.88
362.07	361.88
362.296	365.88
362.523	364.88
362.749	362.88
362.976	361.88
363.203	368.88
363.429	353.88
363.656	350.88
363.882	368.88
364.109	347.88
364.335	362.88
364.562	360.88
364.788	350.88
365.015	361.88
365.241	373.88
365.468	356.88
365.694	345.88
365.92	358.88
366.147	360.88
366.373	368.88
366.599	378.88
366.826	374.88
367.052	367.88
367.278	357.88
367.505	379.88
367.731	351.88
367.957	364.88
368.184	353.88
368.41	373.88
368.636	362.88
368.862	363.88
369.089	373.88
369.315	360.88
369.541	365.88
369.767	349.88
369.993	356.88
370.219	359.88
370.445	353.88
370.672	371.88
370.898	360.88
371.124	353.88
371.35	361.88
371.576	364.88
371.802	362.88
372.028	347.88
372.254	354.88
372.48	354.88
372.706	367.88
372.932	372.88
373.158	375.88
373.384	374.88
373.61	369.88
373.835	357.88
374.061	364.88
374.287	389.88
374.513	364.88
374.739	369.88
374.965	361.88
375.191	372.88
375.416	367.88
375.642	367.88
375.868	372.88
376.094	359.88
376.319	353.88
376.545	356.88
376.771	386.88
376.997	376.88
377.222	358.88
377.448	357.88
377.674	361.88
377.899	351.88
378.125	351.88
378.35	358.88
378.576	374.88
378.802	370.88
379.027	360.88
379.253	360.88
379.478	369.88
379.704	373.88
379.929	351.88
380.155	356.88
380.38	355.88
380.606	373.88
380.831	370.88
381.057	375.88
381.282	365.88
381.507	354.88
381.733	359.88
381.958	354.88
382.184	376.88
382.409	368.88
382.634	358.88
382.86	385.88
383.085	379.88
383.31	385.88
383.535	380.88
383.761	379.88
383.986	359.88
384.211	390.88
384.436	399.88
384.662	393.88
384.887	402.88
385.112	379.88
385.337	392.88
385.562	388.88
385.787	385.88
386.013	410.88
386.238	406.88
386.463	390.88
386.688	391.88
386.913	408.88
387.138	415.88
387.363	404.88
387.588	389.88
387.813	386.88
388.038	406.88
388.263	409.88
388.488	403.88
388.713	392.88
388.938	375.88
389.163	374.88
389.387	397.88
389.612	384.88
389.837	405.88
390.062	381.88
390.287	397.88
390.512	377.88
390.736	391.88
390.961	379.88
391.186	404.88
391.411	388.88
391.636	412.88
391.86	417.88
392.085	405.88
392.31	423.88
392.534	392.88
392.759	409.88
392.984	416.88
393.208	376.88
393.433	396.88
393.658	404.88
393.882	391.88
394.107	410.88
394.331	408.88
394.556	393.88
394.78	390.88
395.005	407.88
395.229	398.88
395.454	425.88
395.678	419.88
395.903	413.88
396.127	435.88
396.352	446.88
396.576	414.88
396.801	396.88
397.025	412.88
397.249	409.88
397.474	413.88
397.698	428.88
397.922	411.88
398.147	428.88
398.371	454.88
398.595	434.88
398.82	435.88
399.044	482.88
399.268	474.88
399.492	475.88
399.717	539.88
399.941	567.88
400.165	561.88
400.389	562.88
400.613	503.88
400.837	479.88
401.062	468.88
401.286	464.88
401.51	464.88
401.734	458.88
401.958	452.88
402.182	441.88
402.406	436.88
402.63	471.88
402.854	459.88
403.078	471.88
403.302	468.88
403.526	475.88
403.75	480.88
403.974	462.88
404.198	464.88
404.422	461.88
404.645	473.88
404.869	479.88
405.093	463.88
405.317	501.88
405.541	547.88
405.765	503.88
405.988	483.88
406.212	485.88
406.436	496.88
406.66	496.88
406.883	481.88
407.107	515.88
407.331	549.88
407.555	571.88
407.778	592.88
408.002	550.88
408.226	528.88
408.449	499.88
408.673	479.88
408.896	491.88
409.12	530.88
409.344	524.88
409.567	493.88
409.791	473.88
410.014	466.88
410.238	470.88
410.461	456.88
410.685	450.88
410.908	461.88
411.132	499.88
411.355	516.88
411.578	488.88
411.802	477.88
412.025	461.88
412.249	462.88
412.472	459.88
412.695	495.88
412.919	469.88
413.142	448.88
413.365	454.88
413.589	428.88
413.812	438.88
414.035	447.88
414.258	433.88
414.482	412.88
414.705	441.88
414.928	422.88
415.151	431.88
415.374	424.88
415.597	428.88
415.821	426.88
416.044	439.88
416.267	445.88
416.49	422.88
416.713	419.88
416.936	426.88
417.159	438.88
417.382	433.88
417.605	415.88
417.828	428.88
418.051	445.88
418.274	435.88
418.497	452.88
418.72	428.88
418.943	419.88
419.166	459.88
419.389	463.88
419.611	465.88
419.834	459.88
420.057	442.88
420.28	439.88
420.503	432.88
420.726	432.88
420.948	442.88
421.171	472.88
421.394	495.88
421.617	443.88
421.839	424.88
422.062	455.88
422.285	451.88
422.507	481.88
422.73	517.88
422.953	524.88
423.175	469.88
423.398	470.88
423.621	453.88
423.843	461.88
424.066	457.88
424.288	466.88
424.511	473.88
424.733	517.88
424.956	588.88
425.178	515.88
425.401	515.88
425.623	552.88
425.846	483.88
426.068	469.88
426.291	468.88
426.513	460.88
426.735	458.88
426.958	483.88
427.18	534.88
427.402	619.88
427.625	660.88
427.847	556.88
428.069	492.88
428.292	473.88
428.514	429.88
428.736	422.88
428.958	439.88
429.181	445.88
429.403	414.88
429.625	409.88
429.847	475.88
430.069	483.88
430.292	469.88
430.514	435.88
430.736	425.88
430.958	411.88
431.18	404.88
431.402	406.88
431.624	403.88
431.846	411.88
432.068	395.88
432.29	399.88
432.512	412.88
432.734	421.88
432.956	413.88
433.178	418.88
433.4	405.88
433.622	411.88
433.844	406.88
434.066	407.88
434.287	410.88
434.509	393.88
434.731	411.88
434.953	434.88
435.175	450.88
435.397	470.88
435.618	459.88
435.84	475.88
436.062	512.88
436.284	590.88
436.505	492.88
436.727	461.88
436.949	436.88
437.17	425.88
437.392	408.88
437.614	432.88
437.835	444.88
438.057	490.88
438.278	569.88
438.5	580.88
438.721	604.88
438.943	587.88
439.165	499.88
439.386	444.88
439.608	433.88
439.829	447.88
440.05	450.88
440.272	474.88
440.493	456.88
440.715	436.88
440.936	443.88
441.158	437.88
441.379	440.88
441.6	440.88
441.822	428.88
442.043	473.88
442.264	520.88
442.486	566.88
442.707	491.88
442.928	459.88
443.149	474.88
443.371	448.88
443.592	491.88
443.813	549.88
444.034	602.88
444.255	537.88
444.476	485.88
444.698	469.88
444.919	476.88
445.14	568.88
445.361	519.88
445.582	455.88
445.803	524.88
446.024	562.88
446.245	563.88
446.466	546.88
446.687	471.88
446.908	453.88
447.129	422.88
447.35	405.88
447.571	409.88
447.792	405.88
448.013	407.88
448.234	411.88
448.455	431.88
448.675	524.88
448.896	590.88
449.117	524.88
449.338	497.88
449.559	567.88
449.779	625.88
450	497.88
450.221	424.88
450.442	397.88
450.662	391.88
450.883	410.88
451.104	396.88
451.324	391.88
451.545	364.88
451.766	361.88
451.986	357.88
452.207	374.88
452.428	364.88
452.648	370.88
452.869	360.88
453.089	373.88
453.31	387.88
453.53	376.88
453.751	377.88
453.971	373.88
454.192	394.88
454.412	381.88
454.633	368.88
454.853	362.88
455.073	372.88
455.294	372.88
455.514	425.88
455.734	428.88
455.955	387.88
456.175	370.88
456.395	346.88
456.616	381.88
456.836	355.88
457.056	347.88
457.276	337.88
457.497	382.88
457.717	371.88
457.937	375.88
458.157	367.88
458.377	356.88
458.598	372.88
458.818	410.88
459.038	423.88
459.258	454.88
459.478	421.88
459.698	409.88
459.918	413.88
460.138	399.88
460.358	410.88
460.578	441.88
460.798	414.88
461.018	440.88
461.238	420.88
461.458	397.88
461.678	397.88
461.898	425.88
462.118	446.88
462.338	440.88
462.558	471.88
462.777	477.88
462.997	467.88
463.217	471.88
463.437	501.88
463.657	490.88
463.876	445.88
464.096	452.88
464.316	446.88
464.536	465.88
464.755	456.88
464.975	449.88
465.195	431.88
465.414	453.88
465.634	417.88
465.854	404.88
466.073	417.88
466.293	403.88
466.512	395.88
466.732	392.88
466.951	385.88
467.171	397.88
467.391	386.88
467.61	387.88
467.829	375.88
468.049	381.88
468.268	376.88
468.488	385.88
468.707	375.88
468.927	381.88
469.146	357.88
469.365	387.88
469.585	353.88
469.804	373.88
470.023	377.88
470.243	414.88
470.462	398.88
470.681	394.88
470.901	403.88
471.12	373.88
471.339	386.88
471.558	386.88
471.777	379.88
471.997	375.88
472.216	402.88
472.435	375.88
472.654	392.88
472.873	382.88
473.092	405.88
473.311	383.88
473.53	371.88
473.749	384.88
473.968	416.88
474.187	485.88
474.406	475.88
474.625	411.88
474.844	393.88
475.063	405.88
475.282	396.88
475.501	418.88
475.72	406.88
475.939	396.88
476.158	394.88
476.377	391.88
476.596	400.88
476.814	395.88
477.033	397.88
477.252	402.88
477.471	399.88
477.69	414.88
477.908	426.88
478.127	420.88
478.346	432.88
478.564	440.88
478.783	434.88
479.002	451.88
479.22	434.88
479.439	464.88
479.658	460.88
479.876	485.88
480.095	452.88
480.313	461.88
480.532	508.88
480.751	490.88
480.969	478.88
481.188	476.88
481.406	507.88
481.624	469.88
481.843	447.88
482.061	426.88
482.28	438.88
482.498	468.88
482.717	453.88
482.935	443.88
483.153	447.88
483.372	460.88
483.59	447.88
483.808	456.88
484.027	453.88
484.245	457.88
484.463	453.88
484.681	439.88
484.9	461.88
485.118	464.88
485.336	469.88
485.554	455.88
485.772	466.88
485.99	462.88
486.209	443.88
486.427	472.88
486.645	471.88
486.863	475.88
487.081	480.88
487.299	458.88
487.517	460.88
487.735	465.88
487.953	455.88
488.171	457.88
488.389	471.88
488.607	467.88
488.825	467.88
489.043	484.88
489.261	465.88
489.479	472.88
489.696	483.88
489.914	471.88
490.132	487.88
490.35	479.88
490.568	497.88
490.786	467.88
491.003	474.88
491.221	482.88
491.439	509.88
491.657	499.88
491.874	505.88
492.092	535.88
492.31	509.88
492.527	525.88
492.745	529.88
492.963	529.88
493.18	540.88
493.398	514.88
493.615	504.88
493.833	528.88
494.05	520.88
494.268	542.88
494.485	516.88
494.703	531.88
494.92	542.88
495.138	552.88
495.355	525.88
495.573	534.88
495.79	529.88
496.008	547.88
496.225	539.88
496.442	560.88
496.66	559.88
496.877	539.88
497.094	565.88
497.312	555.88
497.529	581.88
497.746	554.88
497.963	584.88
498.181	593.88
498.398	591.88
498.615	623.88
498.832	651.88
499.049	675.88
499.267	709.88
499.484	703.88
499.701	740.88
499.918	787.88
500.135	853.88
500.352	896.88
500.569	886.88
500.786	889.88
501.003	872.88
501.22	818.88
501.437	771.88
501.654	743.88
501.871	748.88
502.088	703.88
502.305	654.88
502.522	660.88
502.739	639.88
502.956	593.88
503.172	607.88
503.389	581.88
503.606	601.88
503.823	585.88
504.04	578.88
504.256	578.88
504.473	576.88
504.69	572.88
504.907	546.88
505.123	565.88
505.34	529.88
505.557	530.88
505.773	499.88
505.99	525.88
506.207	504.88
506.423	526.88
506.64	509.88
506.856	509.88
507.073	500.88
507.289	500.88
507.506	491.88
507.722	499.88
507.939	494.88
508.155	491.88
508.372	481.88
508.588	484.88
508.805	496.88
509.021	482.88
509.238	480.88
509.454	487.88
509.67	493.88
509.887	478.88
510.103	472.88
510.319	488.88
510.536	502.88
510.752	693.88
510.968	600.88
511.184	476.88
511.401	471.88
511.617	458.88
511.833	450.88
512.049	451.88
512.265	452.88
512.481	451.88
512.698	430.88
512.914	459.88
513.13	427.88
513.346	439.88
513.562	459.88
513.778	462.88
513.994	445.88
514.21	453.88
514.426	474.88
514.642	472.88
514.858	466.88
515.074	506.88
515.29	545.88
515.506	675.88
515.721	598.88
515.937	496.88
516.153	465.88
516.369	484.88
516.585	491.88
516.801	473.88
517.016	501.88
517.232	497.88
517.448	486.88
517.664	511.88
517.879	501.88
518.095	499.88
518.311	492.88
518.527	487.88
518.742	501.88
518.958	450.88
519.173	482.88
519.389	453.88
519.605	464.88
519.82	453.88
520.036	462.88
520.251	463.88
520.467	486.88
520.682	477.88
520.898	463.88
521.113	468.88
521.329	471.88
521.544	485.88
521.76	596.88
521.975	777.88
522.19	728.88
522.406	513.88
522.621	466.88
522.836	433.88
523.052	431.88
523.267	412.88
523.482	430.88
523.698	411.88
523.913	421.88
524.128	407.88
524.343	413.88
524.559	381.88
524.774	402.88
524.989	401.88
525.204	403.88
525.419	393.88
525.634	380.88
525.849	403.88
526.064	386.88
526.28	401.88
526.495	391.88
526.71	410.88
526.925	417.88
527.14	392.88
527.355	370.88
527.57	377.88
527.785	386.88
527.999	367.88
528.214	385.88
528.429	385.88
528.644	400.88
528.859	375.88
529.074	377.88
529.289	416.88
529.503	405.88
529.718	415.88
529.933	401.88
530.148	384.88
530.363	390.88
530.577	414.88
530.792	397.88
531.007	368.88
531.221	383.88
531.436	383.88
531.651	373.88
531.865	375.88
532.08	378.88
532.295	380.88
532.509	380.88
532.724	364.88
532.938	373.88
533.153	373.88
533.367	365.88
533.582	386.88
533.796	376.88
534.011	379.88
534.225	387.88
534.44	372.88
534.654	359.88
534.868	358.88
535.083	377.88
535.297	385.88
535.511	379.88
535.726	380.88
535.94	380.88
536.154	365.88
536.369	365.88
536.583	381.88
536.797	361.88
537.011	348.88
537.225	348.88
537.44	369.88
537.654	362.88
537.868	363.88
538.082	350.88
538.296	352.88
538.51	344.88
538.724	348.88
538.938	356.88
539.153	340.88
539.367	357.88
539.581	371.88
539.795	366.88
540.009	371.88
540.222	358.88
540.436	371.88
540.65	366.88
540.864	355.88
541.078	371.88
541.292	359.88
541.506	358.88
541.72	347.88
541.934	342.88
542.147	354.88
542.361	356.88
542.575	359.88
542.789	362.88
543.002	373.88
543.216	360.88
543.43	353.88
543.644	354.88
543.857	355.88
544.071	346.88
544.285	378.88
544.498	358.88
544.712	344.88
544.925	365.88
545.139	337.88
545.352	357.88
545.566	371.88
545.779	372.88
545.993	371.88
546.206	376.88
546.42	386.88
546.633	362.88
546.847	367.88
547.06	343.88
547.274	363.88
547.487	349.88
547.7	342.88
547.914	337.88
548.127	346.88
548.34	334.88
548.554	353.88
548.767	349.88
548.98	358.88
549.193	354.88
549.407	348.88
549.62	355.88
549.833	357.88
550.046	356.88
550.259	368.88
550.473	351.88
550.686	350.88
550.899	342.88
551.112	341.88
551.325	339.88
551.538	336.88
551.751	339.88
551.964	351.88
552.177	332.88
552.39	336.88
552.603	345.88
552.816	348.88
553.029	363.88
553.242	362.88
553.455	359.88
553.667	368.88
553.88	360.88
554.093	369.88
554.306	364.88
554.519	356.88
554.732	340.88
554.944	336.88
555.157	349.88
555.37	331.88
555.583	327.88
555.795	330.88
556.008	332.88
556.221	313.88
556.433	328.88
556.646	320.88
556.859	322.88
557.071	313.88
557.284	324.88
557.496	325.88
557.709	310.88
557.921	313.88
558.134	321.88
558.346	317.88
558.559	328.88
558.771	300.88
558.984	305.88
559.196	313.88
559.409	331.88
559.621	330.88
559.833	309.88
560.046	303.88
560.258	307.88
560.47	328.88
560.683	315.88
560.895	303.88
561.107	291.88
561.32	297.88
561.532	314.88
561.744	308.88
561.956	315.88
562.168	310.88
562.381	308.88
562.593	313.88
562.805	300.88
563.017	296.88
563.229	295.88
563.441	321.88
563.653	328.88
563.865	323.88
564.077	301.88
564.289	319.88
564.501	325.88
564.713	339.88
564.925	332.88
565.137	344.88
565.349	356.88
565.561	354.88
565.773	350.88
565.985	362.88
566.197	367.88
566.408	379.88
566.62	409.88
566.832	405.88
567.044	409.88
567.255	420.88
567.467	420.88
567.679	421.88
567.891	431.88
568.102	445.88
568.314	430.88
568.526	429.88
568.737	391.88
568.949	392.88
569.161	371.88
569.372	351.88
569.584	341.88
569.795	336.88
570.007	318.88
570.218	337.88
570.43	325.88
570.641	331.88
570.853	316.88
571.064	313.88
571.276	310.88
571.487	312.88
571.698	318.88
571.91	303.88
572.121	295.88
572.333	293.88
572.544	283.88
572.755	292.88
572.966	267.88
573.178	267.88
573.389	285.88
573.6	290.88
573.811	273.88
574.023	273.88
574.234	282.88
574.445	270.88
574.656	269.88
574.867	255.88
575.078	268.88
575.289	272.88
575.501	256.88
575.712	247.88
575.923	274.88
576.134	249.88
576.345	269.88
576.556	278.88
576.767	282.88
576.978	277.88
577.188	273.88
577.399	276.88
577.61	264.88
577.821	282.88
578.032	257.88
578.243	295.88
578.454	344.88
578.665	293.88
578.875	261.88
579.086	261.88
579.297	265.88
579.508	269.88
579.718	267.88
579.929	263.88
580.14	272.88
580.35	234.88
580.561	254.88
580.772	240.88
580.982	242.88
581.193	239.88
581.403	248.88
581.614	237.88
581.825	265.88
582.035	241.88
582.246	237.88
582.456	259.88
582.667	240.88
582.877	223.88
583.087	245.88
583.298	264.88
583.508	242.88
583.719	234.88
583.929	251.88
584.139	225.88
584.35	271.88
584.56	256.88
584.77	239.88
584.981	243.88
585.191	241.88
585.401	240.88
585.611	245.88
585.821	240.88
586.032	235.88
586.242	251.88
586.452	233.88
586.662	219.88
586.872	243.88
587.082	252.88
587.292	252.88
587.502	234.88
587.713	244.88
587.923	238.88
588.133	229.88
588.343	251.88
588.553	215.88
588.762	259.88
588.972	226.88
589.182	268.88
589.392	248.88
589.602	244.88
589.812	245.88
590.022	228.88
590.232	231.88
590.441	240.88
590.651	235.88
590.861	249.88
591.071	234.88
591.281	239.88
591.49	239.88
591.7	251.88
591.91	251.88
592.119	263.88
592.329	263.88
592.539	265.88
592.748	249.88
592.958	242.88
593.167	267.88
593.377	262.88
593.587	268.88
593.796	267.88
594.006	278.88
594.215	267.88
594.424	266.88
594.634	272.88
594.843	263.88
595.053	250.88
595.262	257.88
595.472	270.88
595.681	239.88
595.89	255.88
596.1	235.88
596.309	241.88
596.518	237.88
596.727	230.88
596.937	234.88
597.146	224.88
597.355	211.88
597.564	219.88
597.774	233.88
597.983	219.88
598.192	221.88
598.401	233.88
598.61	220.88
598.819	224.88
599.028	225.88
599.237	208.88
599.446	225.88
599.655	226.88
599.864	210.88
600.073	224.88
600.282	192.88
600.491	203.88
600.7	208.88
600.909	211.88
601.118	201.88
601.327	219.88
601.536	201.88
601.745	218.88
601.953	208.88
602.162	221.88
602.371	196.88
602.58	209.88
602.789	219.88
602.997	206.88
603.206	224.88
603.415	216.88
603.623	215.88
603.832	202.88
604.041	199.88
604.249	194.88
604.458	203.88
604.666	199.88
604.875	211.88
605.084	197.88
605.292	216.88
605.501	199.88
605.709	206.88
605.918	207.88
606.126	200.88
606.334	191.88
606.543	194.88
606.751	199.88
606.96	202.88
607.168	195.88
607.376	204.88
607.585	199.88
607.793	217.88
608.001	202.88
608.21	213.88
608.418	190.88
608.626	185.88
608.834	203.88
609.043	196.88
609.251	213.88
609.459	200.88
609.667	201.88
609.875	198.88
610.083	184.88
610.291	185.88
610.499	202.88
610.707	194.88
610.916	216.88
611.124	211.88
611.332	201.88
611.54	200.88
611.748	180.88
611.955	180.88
612.163	195.88
612.371	185.88
612.579	195.88
612.787	189.88
612.995	187.88
613.203	209.88
613.411	191.88
613.618	187.88
613.826	185.88
614.034	202.88
614.242	190.88
614.449	179.88
614.657	191.88
614.865	206.88
615.072	200.88
615.28	194.88
615.488	194.88
615.695	198.88
615.903	193.88
616.111	205.88
616.318	197.88
616.526	191.88
616.733	192.88
616.941	191.88
617.148	204.88
617.356	207.88
617.563	191.88
617.771	191.88
617.978	202.88
618.185	187.88
618.393	181.88
618.6	196.88
618.807	208.88
619.015	179.88
619.222	188.88
619.429	189.88
619.637	183.88
619.844	178.88
620.051	184.88
620.258	180.88
620.466	171.88
620.673	175.88
620.88	179.88
621.087	182.88
621.294	193.88
621.501	181.88
621.708	188.88
621.915	190.88
622.122	178.88
622.329	188.88
622.536	171.88
622.743	177.88
622.95	174.88
623.157	189.88
623.364	187.88
623.571	171.88
623.778	164.88
623.985	177.88
624.192	179.88
624.399	174.88
624.606	190.88
624.812	175.88
625.019	183.88
625.226	182.88
625.433	186.88
625.639	167.88
625.846	168.88
626.053	173.88
626.259	170.88
626.466	169.88
626.673	177.88
626.879	189.88
627.086	182.88
627.293	156.88
627.499	173.88
627.706	162.88
627.912	185.88
628.119	178.88
628.325	182.88
628.532	172.88
628.738	153.88
628.945	171.88
629.151	153.88
629.357	177.88
629.564	179.88
629.77	154.88
629.976	166.88
630.183	170.88
630.389	152.88
630.595	173.88
630.802	183.88
631.008	152.88
631.214	167.88
631.42	175.88
631.627	163.88
631.833	157.88
632.039	157.88
632.245	151.88
632.451	143.88
632.657	173.88
632.863	161.88
633.069	150.88
633.275	149.88
633.481	166.88
633.688	163.88
633.893	168.88
634.099	160.88
634.305	148.88
634.511	146.88
634.717	152.88
634.923	155.88
635.129	146.88
635.335	163.88
635.541	150.88
635.747	167.88
635.952	157.88
636.158	155.88
636.364	167.88
636.57	147.88
636.775	155.88
636.981	145.88
637.187	152.88
637.392	144.88
637.598	148.88
637.804	157.88
638.009	149.88
638.215	173.88
638.421	145.88
638.626	147.88
638.832	155.88
639.037	136.88
639.243	143.88
639.448	149.88
639.654	153.88
639.859	170.88
640.065	145.88
640.27	149.88
640.475	154.88
640.681	151.88
640.886	131.88
641.091	141.88
641.297	154.88
641.502	157.88
641.707	148.88
641.913	138.88
642.118	149.88
642.323	142.88
642.528	138.88
642.733	151.88
642.939	140.88
643.144	127.88
643.349	129.88
643.554	152.88
643.759	155.88
643.964	146.88
644.169	142.88
644.374	143.88
644.579	154.88
644.784	147.88
644.989	140.88
645.194	157.88
645.399	149.88
645.604	141.88
645.809	149.88
646.014	129.88
646.219	145.88
646.423	142.88
646.628	146.88
646.833	155.88
647.038	158.88
647.243	144.88
647.447	146.88
647.652	148.88
647.857	144.88
648.062	138.88
648.266	155.88
648.471	139.88
648.676	148.88
648.88	135.88
649.085	156.88
649.289	149.88
649.494	151.88
649.698	146.88
649.903	149.88
650.107	143.88
650.312	137.88
650.516	152.88
650.721	137.88
650.925	127.88
651.13	124.88
651.334	124.88
651.539	141.88
651.743	133.88
651.947	123.88
652.152	135.88
652.356	126.88
652.56	133.88
652.764	119.88
652.969	130.88
653.173	125.88
653.377	124.88
653.581	120.88
653.785	123.88
653.99	133.88
654.194	113.88
654.398	118.88
654.602	121.88
654.806	127.88
655.01	128.88
655.214	127.88
655.418	135.88
655.622	118.88
655.826	119.88
656.03	138.88
656.234	120.88
656.438	140.88
656.642	133.88
656.846	128.88
657.049	123.88
657.253	101.88
657.457	113.88
657.661	113.88
657.865	103.88
658.068	92.88
658.272	110.88
658.476	102.88
658.68	107.88
658.883	90.88
659.087	102.88
659.291	94.88
659.494	90.88
659.698	95.88
659.901	88.88
660.105	89.88
660.309	87.88
660.512	99.88
660.716	88.88
660.919	80.88
661.123	71.88
661.326	80.88
661.53	96.88
661.733	90.88
661.936	108.88
662.14	76.88
662.343	89.88
662.546	86.88
662.75	87.88
662.953	79.88
663.156	90.88
663.36	96.88
663.563	91.88
663.766	100.88
663.969	86.88
664.173	89.88
664.376	81.88
664.579	86.88
664.782	74.88
664.985	83.88
665.188	88.88
665.391	89.88
665.594	84.88
665.797	90.88
666	71.88
666.203	78.88
666.406	69.88
666.609	75.88
666.812	76.88
667.015	86.88
667.218	89.88
667.421	72.88
667.624	74.88
667.827	79.88
668.03	77.88
668.232	86.88
668.435	75.88
668.638	80.88
668.841	78.88
669.043	79.88
669.246	93.88
669.449	82.88
669.651	75.88
669.854	81.88
670.057	83.88
670.259	68.88
670.462	84.88
670.665	71.88
670.867	82.88
671.07	83.88
671.272	81.88
671.475	69.88
671.677	73.88
671.88	72.88
672.082	83.88
672.284	85.88
672.487	82.88
672.689	82.88
672.892	68.88
