Data from 1977.PennyLincolnUp.Lamp.En5.5.200Scan.071719.P1_HRD10591_16-07-22-864.txt Node
Date: Thu Jul 18 16:07:22 EDT 2019
User: cochatt
Spectrometer: HR+D1059
Trigger mode: 1
Integration Time (sec): 1.000000E-1
Scans to average: 1
Electric dark correction enabled: true
Nonlinearity correction enabled: false
Boxcar width: 0
XAxis mode: Wavelengths
Number of Pixels in Spectrum: 2048
>>>>>Begin Spectral Data<<<<<
223.165	-19.62
223.4	-19.62
223.635	-19.62
223.869	-8.62
224.104	-15.62
224.338	-7.62
224.573	-19.62
224.808	-16.62
225.042	-4.62
225.277	-11.62
225.511	-1.62
225.746	10.38
225.98	-11.62
226.215	4.38
226.449	28.38
226.683	25.38
226.918	18.38
227.152	30.38
227.387	35.38
227.621	36.38
227.856	32.38
228.09	32.38
228.324	46.38
228.559	45.38
228.793	55.38
229.027	91.38
229.262	111.38
229.496	120.38
229.73	113.38
229.964	145.38
230.199	110.38
230.433	115.38
230.667	101.38
230.901	99.38
231.136	90.38
231.37	104.38
231.604	117.38
231.838	98.38
232.072	104.38
232.306	118.38
232.541	115.38
232.775	119.38
233.009	108.38
233.243	102.38
233.477	115.38
233.711	117.38
233.945	111.38
234.179	120.38
234.413	111.38
234.647	111.38
234.881	119.38
235.115	113.38
235.349	121.38
235.583	112.38
235.817	122.38
236.051	127.38
236.285	122.38
236.519	121.38
236.753	125.38
236.987	136.38
237.221	159.38
237.455	217.38
237.689	169.38
237.922	134.38
238.156	122.38
238.39	139.38
238.624	106.38
238.858	112.38
239.091	112.38
239.325	120.38
239.559	123.38
239.793	115.38
240.027	127.38
240.26	137.38
240.494	151.38
240.728	139.38
240.961	139.38
241.195	147.38
241.429	138.38
241.662	143.38
241.896	134.38
242.13	133.38
242.363	134.38
242.597	136.38
242.83	124.38
243.064	144.38
243.298	145.38
243.531	135.38
243.765	140.38
243.998	134.38
244.232	135.38
244.465	132.38
244.699	143.38
244.932	157.38
245.166	153.38
245.399	153.38
245.633	138.38
245.866	153.38
246.099	156.38
246.333	146.38
246.566	155.38
246.8	148.38
247.033	153.38
247.266	161.38
247.5	176.38
247.733	171.38
247.966	163.38
248.2	163.38
248.433	167.38
248.666	178.38
248.899	176.38
249.133	189.38
249.366	206.38
249.599	193.38
249.832	170.38
250.066	159.38
250.299	164.38
250.532	186.38
250.765	186.38
250.998	191.38
251.231	227.38
251.465	214.38
251.698	200.38
251.931	186.38
252.164	198.38
252.397	191.38
252.63	199.38
252.863	186.38
253.096	204.38
253.329	225.38
253.562	202.38
253.795	215.38
254.028	208.38
254.261	188.38
254.494	209.38
254.727	243.38
254.96	235.38
255.193	249.38
255.426	226.38
255.659	214.38
255.892	211.38
256.124	222.38
256.357	218.38
256.59	220.38
256.823	218.38
257.056	198.38
257.289	224.38
257.521	235.38
257.754	197.38
257.987	205.38
258.22	212.38
258.452	211.38
258.685	217.38
258.918	211.38
259.151	204.38
259.383	200.38
259.616	224.38
259.849	232.38
260.081	231.38
260.314	234.38
260.547	258.38
260.779	254.38
261.012	219.38
261.244	231.38
261.477	214.38
261.71	215.38
261.942	226.38
262.175	225.38
262.407	213.38
262.64	226.38
262.872	218.38
263.105	227.38
263.337	209.38
263.57	207.38
263.802	206.38
264.035	208.38
264.267	208.38
264.499	192.38
264.732	215.38
264.964	210.38
265.197	208.38
265.429	220.38
265.661	224.38
265.894	217.38
266.126	223.38
266.358	218.38
266.591	246.38
266.823	244.38
267.055	233.38
267.287	252.38
267.52	241.38
267.752	240.38
267.984	219.38
268.216	242.38
268.448	245.38
268.681	252.38
268.913	250.38
269.145	261.38
269.377	274.38
269.609	280.38
269.841	270.38
270.073	281.38
270.306	279.38
270.538	293.38
270.77	312.38
271.002	286.38
271.234	292.38
271.466	314.38
271.698	298.38
271.93	288.38
272.162	294.38
272.394	306.38
272.626	306.38
272.858	290.38
273.09	288.38
273.322	276.38
273.553	264.38
273.785	271.38
274.017	261.38
274.249	246.38
274.481	260.38
274.713	265.38
274.945	274.38
275.176	274.38
275.408	274.38
275.64	282.38
275.872	286.38
276.104	262.38
276.335	286.38
276.567	281.38
276.799	284.38
277.031	298.38
277.262	318.38
277.494	305.38
277.726	311.38
277.957	297.38
278.189	268.38
278.421	271.38
278.652	291.38
278.884	294.38
279.115	279.38
279.347	264.38
279.579	278.38
279.81	257.38
280.042	283.38
280.273	283.38
280.505	263.38
280.736	272.38
280.968	279.38
281.199	284.38
281.431	283.38
281.662	278.38
281.894	288.38
282.125	283.38
282.356	294.38
282.588	302.38
282.819	303.38
283.051	289.38
283.282	273.38
283.513	289.38
283.745	282.38
283.976	304.38
284.207	294.38
284.439	295.38
284.67	290.38
284.901	311.38
285.132	298.38
285.364	295.38
285.595	285.38
285.826	288.38
286.057	307.38
286.288	286.38
286.52	300.38
286.751	301.38
286.982	304.38
287.213	310.38
287.444	301.38
287.675	313.38
287.906	298.38
288.138	315.38
288.369	318.38
288.6	310.38
288.831	308.38
289.062	286.38
289.293	290.38
289.524	312.38
289.755	308.38
289.986	298.38
290.217	295.38
290.448	318.38
290.679	305.38
290.91	316.38
291.141	328.38
291.371	315.38
291.602	302.38
291.833	315.38
292.064	302.38
292.295	312.38
292.526	295.38
292.757	304.38
292.987	306.38
293.218	296.38
293.449	317.38
293.68	314.38
293.91	325.38
294.141	306.38
294.372	313.38
294.603	319.38
294.833	318.38
295.064	306.38
295.295	319.38
295.525	305.38
295.756	320.38
295.987	312.38
296.217	338.38
296.448	325.38
296.679	322.38
296.909	327.38
297.14	303.38
297.37	307.38
297.601	327.38
297.831	326.38
298.062	326.38
298.292	313.38
298.523	318.38
298.753	335.38
298.984	298.38
299.214	334.38
299.445	325.38
299.675	347.38
299.905	341.38
300.136	351.38
300.366	328.38
300.597	323.38
300.827	331.38
301.057	336.38
301.288	335.38
301.518	344.38
301.748	332.38
301.979	337.38
302.209	339.38
302.439	359.38
302.669	344.38
302.9	354.38
303.13	343.38
303.36	358.38
303.59	346.38
303.82	376.38
304.051	335.38
304.281	366.38
304.511	332.38
304.741	339.38
304.971	344.38
305.201	351.38
305.431	343.38
305.661	345.38
305.891	334.38
306.121	324.38
306.352	335.38
306.582	339.38
306.812	321.38
307.042	353.38
307.272	343.38
307.502	353.38
307.731	365.38
307.961	352.38
308.191	338.38
308.421	351.38
308.651	343.38
308.881	342.38
309.111	358.38
309.341	352.38
309.571	361.38
309.8	345.38
310.03	366.38
310.26	362.38
310.49	376.38
310.72	360.38
310.949	387.38
311.179	375.38
311.409	386.38
311.639	382.38
311.868	406.38
312.098	391.38
312.328	400.38
312.557	396.38
312.787	411.38
313.017	418.38
313.246	372.38
313.476	397.38
313.706	378.38
313.935	393.38
314.165	380.38
314.394	408.38
314.624	432.38
314.853	393.38
315.083	387.38
315.312	383.38
315.542	379.38
315.771	390.38
316.001	396.38
316.23	369.38
316.46	389.38
316.689	374.38
316.919	413.38
317.148	403.38
317.377	372.38
317.607	392.38
317.836	398.38
318.065	390.38
318.295	386.38
318.524	385.38
318.753	380.38
318.983	390.38
319.212	391.38
319.441	387.38
319.67	407.38
319.9	389.38
320.129	387.38
320.358	387.38
320.587	403.38
320.816	384.38
321.046	406.38
321.275	394.38
321.504	398.38
321.733	382.38
321.962	404.38
322.191	422.38
322.42	418.38
322.649	447.38
322.878	448.38
323.108	425.38
323.337	452.38
323.566	436.38
323.795	490.38
324.024	524.38
324.253	629.38
324.482	854.38
324.71	1272.38
324.939	1809.38
325.168	1534.38
325.397	797.38
325.626	593.38
325.855	522.38
326.084	475.38
326.313	512.38
326.542	475.38
326.77	526.38
326.999	600.38
327.228	796.38
327.457	1154.38
327.686	1355.38
327.914	902.38
328.143	635.38
328.372	585.38
328.6	562.38
328.829	528.38
329.058	514.38
329.287	527.38
329.515	517.38
329.744	479.38
329.972	492.38
330.201	510.38
330.43	528.38
330.658	529.38
330.887	554.38
331.115	559.38
331.344	480.38
331.572	488.38
331.801	486.38
332.03	489.38
332.258	461.38
332.486	470.38
332.715	450.38
332.943	458.38
333.172	450.38
333.4	471.38
333.629	466.38
333.857	476.38
334.085	515.38
334.314	508.38
334.542	518.38
334.771	514.38
334.999	490.38
335.227	503.38
335.455	494.38
335.684	461.38
335.912	459.38
336.14	457.38
336.369	462.38
336.597	460.38
336.825	467.38
337.053	457.38
337.281	432.38
337.51	448.38
337.738	450.38
337.966	436.38
338.194	438.38
338.422	452.38
338.65	452.38
338.878	456.38
339.106	426.38
339.334	433.38
339.562	436.38
339.79	446.38
340.018	414.38
340.246	426.38
340.474	439.38
340.702	428.38
340.93	439.38
341.158	425.38
341.386	416.38
341.614	452.38
341.842	433.38
342.07	427.38
342.298	396.38
342.526	444.38
342.754	408.38
342.981	424.38
343.209	428.38
343.437	438.38
343.665	445.38
343.893	447.38
344.12	443.38
344.348	466.38
344.576	437.38
344.804	439.38
345.031	452.38
345.259	450.38
345.487	458.38
345.714	436.38
345.942	434.38
346.17	405.38
346.397	411.38
346.625	410.38
346.853	403.38
347.08	403.38
347.308	400.38
347.535	395.38
347.763	431.38
347.99	417.38
348.218	422.38
348.445	443.38
348.673	399.38
348.9	438.38
349.128	425.38
349.355	390.38
349.583	416.38
349.81	404.38
350.037	404.38
350.265	408.38
350.492	395.38
350.72	395.38
350.947	403.38
351.174	417.38
351.402	409.38
351.629	409.38
351.856	407.38
352.083	394.38
352.311	398.38
352.538	421.38
352.765	422.38
352.992	418.38
353.22	416.38
353.447	417.38
353.674	421.38
353.901	396.38
354.128	385.38
354.355	408.38
354.583	408.38
354.81	390.38
355.037	395.38
355.264	376.38
355.491	377.38
355.718	376.38
355.945	385.38
356.172	382.38
356.399	372.38
356.626	388.38
356.853	373.38
357.08	388.38
357.307	384.38
357.534	384.38
357.761	400.38
357.988	397.38
358.215	380.38
358.441	369.38
358.668	372.38
358.895	383.38
359.122	392.38
359.349	397.38
359.576	406.38
359.802	421.38
360.029	412.38
360.256	416.38
360.483	427.38
360.709	404.38
360.936	409.38
361.163	400.38
361.39	408.38
361.616	413.38
361.843	408.38
362.07	388.38
362.296	400.38
362.523	409.38
362.749	400.38
362.976	389.38
363.203	396.38
363.429	387.38
363.656	379.38
363.882	384.38
364.109	366.38
364.335	381.38
364.562	408.38
364.788	380.38
365.015	362.38
365.241	384.38
365.468	408.38
365.694	394.38
365.92	394.38
366.147	371.38
366.373	386.38
366.599	384.38
366.826	386.38
367.052	387.38
367.278	378.38
367.505	367.38
367.731	390.38
367.957	378.38
368.184	385.38
368.41	380.38
368.636	410.38
368.862	388.38
369.089	390.38
369.315	373.38
369.541	376.38
369.767	384.38
369.993	390.38
370.219	395.38
370.445	379.38
370.672	382.38
370.898	378.38
371.124	371.38
371.35	370.38
371.576	377.38
371.802	388.38
372.028	384.38
372.254	384.38
372.48	380.38
372.706	403.38
372.932	380.38
373.158	390.38
373.384	387.38
373.61	400.38
373.835	392.38
374.061	388.38
374.287	382.38
374.513	391.38
374.739	399.38
374.965	393.38
375.191	391.38
375.416	391.38
375.642	379.38
375.868	394.38
376.094	381.38
376.319	385.38
376.545	392.38
376.771	376.38
376.997	399.38
377.222	391.38
377.448	362.38
377.674	395.38
377.899	374.38
378.125	379.38
378.35	369.38
378.576	370.38
378.802	366.38
379.027	376.38
379.253	375.38
379.478	375.38
379.704	378.38
379.929	376.38
380.155	393.38
380.38	381.38
380.606	372.38
380.831	375.38
381.057	386.38
381.282	386.38
381.507	387.38
381.733	391.38
381.958	373.38
382.184	391.38
382.409	374.38
382.634	386.38
382.86	383.38
383.085	392.38
383.31	411.38
383.535	406.38
383.761	417.38
383.986	379.38
384.211	383.38
384.436	410.38
384.662	402.38
384.887	405.38
385.112	396.38
385.337	413.38
385.562	454.38
385.787	393.38
386.013	408.38
386.238	409.38
386.463	426.38
386.688	420.38
386.913	408.38
387.138	414.38
387.363	409.38
387.588	417.38
387.813	396.38
388.038	404.38
388.263	414.38
388.488	415.38
388.713	425.38
388.938	410.38
389.163	410.38
389.387	423.38
389.612	381.38
389.837	412.38
390.062	414.38
390.287	420.38
390.512	411.38
390.736	400.38
390.961	410.38
391.186	426.38
391.411	419.38
391.636	439.38
391.86	420.38
392.085	443.38
392.31	446.38
392.534	430.38
392.759	451.38
392.984	418.38
393.208	410.38
393.433	415.38
393.658	427.38
393.882	440.38
394.107	418.38
394.331	422.38
394.556	424.38
394.78	425.38
395.005	440.38
395.229	428.38
395.454	427.38
395.678	444.38
395.903	436.38
396.127	444.38
396.352	441.38
396.576	423.38
396.801	416.38
397.025	434.38
397.249	440.38
397.474	461.38
397.698	426.38
397.922	451.38
398.147	456.38
398.371	479.38
398.595	472.38
398.82	483.38
399.044	482.38
399.268	498.38
399.492	559.38
399.717	556.38
399.941	594.38
400.165	604.38
400.389	612.38
400.613	551.38
400.837	518.38
401.062	486.38
401.286	486.38
401.51	485.38
401.734	478.38
401.958	465.38
402.182	458.38
402.406	494.38
402.63	470.38
402.854	483.38
403.078	478.38
403.302	479.38
403.526	501.38
403.75	502.38
403.974	468.38
404.198	489.38
404.422	512.38
404.645	473.38
404.869	486.38
405.093	548.38
405.317	561.38
405.541	585.38
405.765	559.38
405.988	522.38
406.212	522.38
406.436	534.38
406.66	549.38
406.883	527.38
407.107	549.38
407.331	560.38
407.555	626.38
407.778	646.38
408.002	562.38
408.226	527.38
408.449	528.38
408.673	549.38
408.896	572.38
409.12	585.38
409.344	561.38
409.567	518.38
409.791	486.38
410.014	507.38
410.238	478.38
410.461	485.38
410.685	476.38
410.908	499.38
411.132	532.38
411.355	552.38
411.578	528.38
411.802	511.38
412.025	503.38
412.249	480.38
412.472	510.38
412.695	550.38
412.919	516.38
413.142	514.38
413.365	497.38
413.589	476.38
413.812	464.38
414.035	456.38
414.258	460.38
414.482	465.38
414.705	449.38
414.928	446.38
415.151	464.38
415.374	430.38
415.597	442.38
415.821	444.38
416.044	440.38
416.267	464.38
416.49	457.38
416.713	440.38
416.936	442.38
417.159	456.38
417.382	467.38
417.605	452.38
417.828	442.38
418.051	474.38
418.274	457.38
418.497	442.38
418.72	458.38
418.943	453.38
419.166	483.38
419.389	489.38
419.611	487.38
419.834	488.38
420.057	516.38
420.28	495.38
420.503	458.38
420.726	450.38
420.948	478.38
421.171	513.38
421.394	558.38
421.617	498.38
421.839	483.38
422.062	486.38
422.285	477.38
422.507	553.38
422.73	601.38
422.953	570.38
423.175	509.38
423.398	489.38
423.621	487.38
423.843	500.38
424.066	521.38
424.288	497.38
424.511	519.38
424.733	562.38
424.956	638.38
425.178	608.38
425.401	595.38
425.623	610.38
425.846	532.38
426.068	499.38
426.291	486.38
426.513	496.38
426.735	488.38
426.958	530.38
427.18	629.38
427.402	703.38
427.625	792.38
427.847	663.38
428.069	572.38
428.292	523.38
428.514	482.38
428.736	450.38
428.958	467.38
429.181	450.38
429.403	459.38
429.625	474.38
429.847	499.38
430.069	514.38
430.292	538.38
430.514	491.38
430.736	462.38
430.958	468.38
431.18	444.38
431.402	428.38
431.624	433.38
431.846	432.38
432.068	418.38
432.29	458.38
432.512	424.38
432.734	438.38
432.956	459.38
433.178	448.38
433.4	466.38
433.622	453.38
433.844	415.38
434.066	434.38
434.287	418.38
434.509	433.38
434.731	447.38
434.953	458.38
435.175	468.38
435.397	486.38
435.618	490.38
435.84	512.38
436.062	611.38
436.284	679.38
436.505	570.38
436.727	488.38
436.949	465.38
437.17	431.38
437.392	459.38
437.614	459.38
437.835	501.38
438.057	564.38
438.278	649.38
438.5	652.38
438.721	708.38
438.943	686.38
439.165	544.38
439.386	512.38
439.608	514.38
439.829	516.38
440.05	515.38
440.272	559.38
440.493	516.38
440.715	488.38
440.936	464.38
441.158	456.38
441.379	458.38
441.6	482.38
441.822	500.38
442.043	532.38
442.264	576.38
442.486	634.38
442.707	529.38
442.928	508.38
443.149	483.38
443.371	529.38
443.592	572.38
443.813	629.38
444.034	698.38
444.255	581.38
444.476	518.38
444.698	512.38
444.919	523.38
445.14	629.38
445.361	593.38
445.582	512.38
445.803	600.38
446.024	669.38
446.245	659.38
446.466	606.38
446.687	551.38
446.908	468.38
447.129	472.38
447.35	460.38
447.571	448.38
447.792	450.38
448.013	459.38
448.234	479.38
448.455	510.38
448.675	601.38
448.896	702.38
449.117	568.38
449.338	578.38
449.559	668.38
449.779	716.38
450	596.38
450.221	488.38
450.442	456.38
450.662	434.38
450.883	417.38
451.104	438.38
451.324	447.38
451.545	432.38
451.766	422.38
451.986	391.38
452.207	408.38
452.428	388.38
452.648	404.38
452.869	410.38
453.089	388.38
453.31	408.38
453.53	396.38
453.751	391.38
453.971	421.38
454.192	427.38
454.412	406.38
454.633	391.38
454.853	391.38
455.073	397.38
455.294	424.38
455.514	464.38
455.734	469.38
455.955	401.38
456.175	387.38
456.395	377.38
456.616	366.38
456.836	374.38
457.056	379.38
457.276	375.38
457.497	363.38
457.717	370.38
457.937	386.38
458.157	382.38
458.377	413.38
458.598	411.38
458.818	453.38
459.038	522.38
459.258	525.38
459.478	462.38
459.698	433.38
459.918	449.38
460.138	451.38
460.358	460.38
460.578	443.38
460.798	456.38
461.018	446.38
461.238	461.38
461.458	451.38
461.678	435.38
461.898	468.38
462.118	428.38
462.338	430.38
462.558	478.38
462.777	455.38
462.997	496.38
463.217	527.38
463.437	502.38
463.657	476.38
463.876	484.38
464.096	496.38
464.316	471.38
464.536	487.38
464.755	488.38
464.975	466.38
465.195	496.38
465.414	500.38
465.634	463.38
465.854	466.38
466.073	426.38
466.293	417.38
466.512	427.38
466.732	428.38
466.951	415.38
467.171	407.38
467.391	416.38
467.61	416.38
467.829	434.38
468.049	411.38
468.268	414.38
468.488	402.38
468.707	405.38
468.927	385.38
469.146	363.38
469.365	390.38
469.585	395.38
469.804	409.38
470.023	420.38
470.243	420.38
470.462	417.38
470.681	442.38
470.901	438.38
471.12	413.38
471.339	419.38
471.558	435.38
471.777	414.38
471.997	417.38
472.216	408.38
472.435	425.38
472.654	420.38
472.873	412.38
473.092	405.38
473.311	416.38
473.53	400.38
473.749	419.38
473.968	466.38
474.187	525.38
474.406	537.38
474.625	448.38
474.844	444.38
475.063	434.38
475.282	420.38
475.501	427.38
475.72	422.38
475.939	432.38
476.158	420.38
476.377	416.38
476.596	444.38
476.814	427.38
477.033	433.38
477.252	419.38
477.471	446.38
477.69	436.38
477.908	454.38
478.127	464.38
478.346	442.38
478.564	457.38
478.783	457.38
479.002	463.38
479.22	481.38
479.439	486.38
479.658	494.38
479.876	490.38
480.095	484.38
480.313	521.38
480.532	512.38
480.751	525.38
480.969	513.38
481.188	550.38
481.406	575.38
481.624	510.38
481.843	512.38
482.061	493.38
482.28	488.38
482.498	469.38
482.717	457.38
482.935	464.38
483.153	489.38
483.372	492.38
483.59	474.38
483.808	462.38
484.027	478.38
484.245	487.38
484.463	487.38
484.681	495.38
484.9	492.38
485.118	491.38
485.336	509.38
485.554	478.38
485.772	492.38
485.99	507.38
486.209	510.38
486.427	496.38
486.645	501.38
486.863	524.38
487.081	524.38
487.299	515.38
487.517	491.38
487.735	512.38
487.953	505.38
488.171	500.38
488.389	519.38
488.607	526.38
488.825	516.38
489.043	499.38
489.261	494.38
489.479	517.38
489.696	536.38
489.914	499.38
490.132	523.38
490.35	524.38
490.568	522.38
490.786	535.38
491.003	549.38
491.221	563.38
491.439	559.38
491.657	571.38
491.874	578.38
492.092	579.38
492.31	577.38
492.527	560.38
492.745	594.38
492.963	574.38
493.18	575.38
493.398	588.38
493.615	585.38
493.833	587.38
494.05	590.38
494.268	610.38
494.485	588.38
494.703	600.38
494.92	570.38
495.138	579.38
495.355	595.38
495.573	618.38
495.79	610.38
496.008	632.38
496.225	583.38
496.442	590.38
496.66	615.38
496.877	594.38
497.094	611.38
497.312	626.38
497.529	649.38
497.746	621.38
497.963	635.38
498.181	661.38
498.398	663.38
498.615	692.38
498.832	684.38
499.049	715.38
499.267	722.38
499.484	770.38
499.701	798.38
499.918	845.38
500.135	879.38
500.352	929.38
500.569	959.38
500.786	952.38
501.003	915.38
501.22	869.38
501.437	852.38
501.654	824.38
501.871	827.38
502.088	739.38
502.305	730.38
502.522	702.38
502.739	680.38
502.956	676.38
503.172	654.38
503.389	630.38
503.606	629.38
503.823	617.38
504.04	642.38
504.256	622.38
504.473	633.38
504.69	599.38
504.907	614.38
505.123	601.38
505.34	604.38
505.557	553.38
505.773	580.38
505.99	582.38
506.207	558.38
506.423	574.38
506.64	556.38
506.856	549.38
507.073	599.38
507.289	538.38
507.506	551.38
507.722	531.38
507.939	554.38
508.155	548.38
508.372	534.38
508.588	534.38
508.805	534.38
509.021	530.38
509.238	548.38
509.454	536.38
509.67	543.38
509.887	515.38
510.103	530.38
510.319	537.38
510.536	600.38
510.752	873.38
510.968	736.38
511.184	548.38
511.401	502.38
511.617	533.38
511.833	508.38
512.049	504.38
512.265	516.38
512.481	515.38
512.698	502.38
512.914	482.38
513.13	497.38
513.346	489.38
513.562	506.38
513.778	514.38
513.994	508.38
514.21	517.38
514.426	522.38
514.642	538.38
514.858	564.38
515.074	595.38
515.29	656.38
515.506	886.38
515.721	744.38
515.937	589.38
516.153	520.38
516.369	552.38
516.585	538.38
516.801	523.38
517.016	529.38
517.232	520.38
517.448	531.38
517.664	553.38
517.879	552.38
518.095	542.38
518.311	539.38
518.527	535.38
518.742	536.38
518.958	534.38
519.173	512.38
519.389	530.38
519.605	516.38
519.82	496.38
520.036	510.38
520.251	530.38
520.467	548.38
520.682	528.38
520.898	543.38
521.113	552.38
521.329	580.38
521.544	603.38
521.76	712.38
521.975	1091.38
522.19	1013.38
522.406	638.38
522.621	530.38
522.836	513.38
523.052	472.38
523.267	480.38
523.482	463.38
523.698	458.38
523.913	461.38
524.128	451.38
524.343	436.38
524.559	442.38
524.774	443.38
524.989	439.38
525.204	433.38
525.419	443.38
525.634	447.38
525.849	432.38
526.064	436.38
526.28	415.38
526.495	411.38
526.71	429.38
526.925	436.38
527.14	425.38
527.355	416.38
527.57	434.38
527.785	431.38
527.999	418.38
528.214	412.38
528.429	401.38
528.644	403.38
528.859	422.38
529.074	449.38
529.289	421.38
529.503	468.38
529.718	444.38
529.933	448.38
530.148	425.38
530.363	426.38
530.577	426.38
530.792	405.38
531.007	404.38
531.221	416.38
531.436	410.38
531.651	415.38
531.865	410.38
532.08	414.38
532.295	416.38
532.509	405.38
532.724	402.38
532.938	418.38
533.153	414.38
533.367	395.38
533.582	410.38
533.796	387.38
534.011	409.38
534.225	396.38
534.44	386.38
534.654	402.38
534.868	410.38
535.083	407.38
535.297	394.38
535.511	402.38
535.726	419.38
535.94	391.38
536.154	390.38
536.369	402.38
536.583	380.38
536.797	395.38
537.011	383.38
537.225	394.38
537.44	388.38
537.654	402.38
537.868	390.38
538.082	368.38
538.296	384.38
538.51	408.38
538.724	387.38
538.938	378.38
539.153	400.38
539.367	419.38
539.581	375.38
539.795	386.38
540.009	379.38
540.222	375.38
540.436	383.38
540.65	378.38
540.864	408.38
541.078	405.38
541.292	387.38
541.506	375.38
541.72	373.38
541.934	371.38
542.147	386.38
542.361	381.38
542.575	386.38
542.789	359.38
543.002	384.38
543.216	405.38
543.43	362.38
543.644	391.38
543.857	373.38
544.071	380.38
544.285	402.38
544.498	369.38
544.712	385.38
544.925	380.38
545.139	396.38
545.352	390.38
545.566	369.38
545.779	378.38
545.993	361.38
546.206	390.38
546.42	378.38
546.633	378.38
546.847	392.38
547.06	366.38
547.274	402.38
547.487	382.38
547.7	365.38
547.914	377.38
548.127	364.38
548.34	388.38
548.554	379.38
548.767	363.38
548.98	354.38
549.193	378.38
549.407	378.38
549.62	371.38
549.833	389.38
550.046	379.38
550.259	386.38
550.473	373.38
550.686	358.38
550.899	374.38
551.112	368.38
551.325	366.38
551.538	373.38
551.751	375.38
551.964	367.38
552.177	376.38
552.39	366.38
552.603	351.38
552.816	367.38
553.029	368.38
553.242	376.38
553.455	395.38
553.667	385.38
553.88	376.38
554.093	383.38
554.306	386.38
554.519	382.38
554.732	366.38
554.944	360.38
555.157	366.38
555.37	350.38
555.583	372.38
555.795	368.38
556.008	365.38
556.221	340.38
556.433	336.38
556.646	337.38
556.859	332.38
557.071	330.38
557.284	321.38
557.496	350.38
557.709	321.38
557.921	338.38
558.134	323.38
558.346	326.38
558.559	350.38
558.771	315.38
558.984	318.38
559.196	346.38
559.409	316.38
559.621	310.38
559.833	326.38
560.046	327.38
560.258	329.38
560.47	322.38
560.683	340.38
560.895	342.38
561.107	328.38
561.32	335.38
561.532	322.38
561.744	332.38
561.956	330.38
562.168	340.38
562.381	334.38
562.593	331.38
562.805	318.38
563.017	335.38
563.229	327.38
563.441	348.38
563.653	351.38
563.865	344.38
564.077	329.38
564.289	342.38
564.501	362.38
564.713	358.38
564.925	361.38
565.137	362.38
565.349	353.38
565.561	355.38
565.773	391.38
565.985	371.38
566.197	392.38
566.408	406.38
566.62	412.38
566.832	405.38
567.044	415.38
567.255	430.38
567.467	420.38
567.679	430.38
567.891	425.38
568.102	445.38
568.314	418.38
568.526	415.38
568.737	410.38
568.949	406.38
569.161	388.38
569.372	364.38
569.584	345.38
569.795	352.38
570.007	343.38
570.218	367.38
570.43	369.38
570.641	346.38
570.853	322.38
571.064	340.38
571.276	322.38
571.487	325.38
571.698	318.38
571.91	319.38
572.121	323.38
572.333	306.38
572.544	300.38
572.755	287.38
572.966	294.38
573.178	296.38
573.389	303.38
573.6	292.38
573.811	298.38
574.023	283.38
574.234	288.38
574.445	302.38
574.656	292.38
574.867	279.38
575.078	272.38
575.289	284.38
575.501	283.38
575.712	274.38
575.923	268.38
576.134	276.38
576.345	303.38
576.556	282.38
576.767	274.38
576.978	272.38
577.188	281.38
577.399	278.38
577.61	275.38
577.821	268.38
578.032	286.38
578.243	298.38
578.454	417.38
578.665	334.38
578.875	275.38
579.086	268.38
579.297	257.38
579.508	284.38
579.718	270.38
579.929	283.38
580.14	272.38
580.35	272.38
580.561	262.38
580.772	246.38
580.982	263.38
581.193	256.38
581.403	268.38
581.614	240.38
581.825	250.38
582.035	263.38
582.246	268.38
582.456	252.38
582.667	238.38
582.877	262.38
583.087	253.38
583.298	246.38
583.508	241.38
583.719	268.38
583.929	262.38
584.139	249.38
584.35	248.38
584.56	254.38
584.77	262.38
584.981	248.38
585.191	234.38
585.401	258.38
585.611	265.38
585.821	235.38
586.032	244.38
586.242	258.38
586.452	265.38
586.662	243.38
586.872	265.38
587.082	265.38
587.292	250.38
587.502	254.38
587.713	250.38
587.923	260.38
588.133	265.38
588.343	247.38
588.553	249.38
588.762	259.38
588.972	253.38
589.182	255.38
589.392	247.38
589.602	240.38
589.812	248.38
590.022	250.38
590.232	230.38
590.441	257.38
590.651	259.38
590.861	246.38
591.071	256.38
591.281	258.38
591.49	257.38
591.7	245.38
591.91	250.38
592.119	250.38
592.329	277.38
592.539	266.38
592.748	269.38
592.958	278.38
593.167	259.38
593.377	285.38
593.587	283.38
593.796	270.38
594.006	274.38
594.215	260.38
594.424	268.38
594.634	258.38
594.843	263.38
595.053	268.38
595.262	254.38
595.472	253.38
595.681	262.38
595.89	260.38
596.1	233.38
596.309	236.38
596.518	245.38
596.727	254.38
596.937	240.38
597.146	233.38
597.355	250.38
597.564	244.38
597.774	236.38
597.983	245.38
598.192	223.38
598.401	240.38
598.61	240.38
598.819	229.38
599.028	219.38
599.237	216.38
599.446	231.38
599.655	234.38
599.864	224.38
600.073	241.38
600.282	221.38
600.491	233.38
600.7	222.38
600.909	229.38
601.118	232.38
601.327	217.38
601.536	197.38
601.745	232.38
601.953	231.38
602.162	232.38
602.371	206.38
602.58	213.38
602.789	190.38
602.997	227.38
603.206	218.38
603.415	219.38
603.623	210.38
603.832	227.38
604.041	211.38
604.249	208.38
604.458	219.38
604.666	200.38
604.875	210.38
605.084	207.38
605.292	242.38
605.501	196.38
605.709	207.38
605.918	213.38
606.126	210.38
606.334	212.38
606.543	203.38
606.751	222.38
606.96	205.38
607.168	215.38
607.376	207.38
607.585	210.38
607.793	202.38
608.001	217.38
608.21	212.38
608.418	209.38
608.626	199.38
608.834	206.38
609.043	221.38
609.251	194.38
609.459	205.38
609.667	223.38
609.875	202.38
610.083	202.38
610.291	202.38
610.499	198.38
610.707	209.38
610.916	199.38
611.124	211.38
611.332	198.38
611.54	218.38
611.748	217.38
611.955	225.38
612.163	195.38
612.371	215.38
612.579	204.38
612.787	201.38
612.995	204.38
613.203	216.38
613.411	195.38
613.618	208.38
613.826	195.38
614.034	204.38
614.242	210.38
614.449	205.38
614.657	186.38
614.865	204.38
615.072	179.38
615.28	211.38
615.488	197.38
615.695	211.38
615.903	198.38
616.111	202.38
616.318	201.38
616.526	204.38
616.733	195.38
616.941	189.38
617.148	205.38
617.356	184.38
617.563	192.38
617.771	194.38
617.978	201.38
618.185	204.38
618.393	202.38
618.6	188.38
618.807	188.38
619.015	205.38
619.222	198.38
619.429	176.38
619.637	183.38
619.844	192.38
620.051	180.38
620.258	169.38
620.466	180.38
620.673	193.38
620.88	181.38
621.087	188.38
621.294	186.38
621.501	184.38
621.708	183.38
621.915	188.38
622.122	197.38
622.329	190.38
622.536	213.38
622.743	193.38
622.95	180.38
623.157	184.38
623.364	183.38
623.571	187.38
623.778	184.38
623.985	190.38
624.192	179.38
624.399	182.38
624.606	171.38
624.812	189.38
625.019	180.38
625.226	194.38
625.433	187.38
625.639	174.38
625.846	185.38
626.053	191.38
626.259	186.38
626.466	191.38
626.673	178.38
626.879	149.38
627.086	186.38
627.293	162.38
627.499	168.38
627.706	169.38
627.912	187.38
628.119	174.38
628.325	171.38
628.532	175.38
628.738	182.38
628.945	186.38
629.151	180.38
629.357	184.38
629.564	171.38
629.77	176.38
629.976	178.38
630.183	156.38
630.389	176.38
630.595	166.38
630.802	159.38
631.008	166.38
631.214	152.38
631.42	161.38
631.627	163.38
631.833	162.38
632.039	164.38
632.245	155.38
632.451	178.38
632.657	187.38
632.863	171.38
633.069	168.38
633.275	172.38
633.481	161.38
633.688	160.38
633.893	172.38
634.099	165.38
634.305	166.38
634.511	154.38
634.717	186.38
634.923	151.38
635.129	155.38
635.335	169.38
635.541	170.38
635.747	156.38
635.952	161.38
636.158	161.38
636.364	160.38
636.57	171.38
636.775	162.38
636.981	155.38
637.187	172.38
637.392	162.38
637.598	153.38
637.804	168.38
638.009	162.38
638.215	159.38
638.421	157.38
638.626	148.38
638.832	152.38
639.037	150.38
639.243	166.38
639.448	155.38
639.654	148.38
639.859	141.38
640.065	142.38
640.27	149.38
640.475	158.38
640.681	148.38
640.886	143.38
641.091	136.38
641.297	153.38
641.502	160.38
641.707	161.38
641.913	160.38
642.118	142.38
642.323	145.38
642.528	139.38
642.733	151.38
642.939	159.38
643.144	148.38
643.349	151.38
643.554	156.38
643.759	148.38
643.964	145.38
644.169	137.38
644.374	141.38
644.579	168.38
644.784	148.38
644.989	151.38
645.194	144.38
645.399	154.38
645.604	162.38
645.809	137.38
646.014	140.38
646.219	147.38
646.423	158.38
646.628	148.38
646.833	147.38
647.038	150.38
647.243	167.38
647.447	144.38
647.652	123.38
647.857	149.38
648.062	158.38
648.266	144.38
648.471	168.38
648.676	146.38
648.88	143.38
649.085	155.38
649.289	144.38
649.494	132.38
649.698	162.38
649.903	151.38
650.107	156.38
650.312	159.38
650.516	140.38
650.721	144.38
650.925	134.38
651.13	146.38
651.334	137.38
651.539	132.38
651.743	151.38
651.947	142.38
652.152	130.38
652.356	129.38
652.56	136.38
652.764	142.38
652.969	114.38
653.173	131.38
653.377	132.38
653.581	126.38
653.785	127.38
653.99	133.38
654.194	121.38
654.398	119.38
654.602	134.38
654.806	126.38
655.01	132.38
655.214	140.38
655.418	136.38
655.622	123.38
655.826	124.38
656.03	138.38
656.234	133.38
656.438	122.38
656.642	136.38
656.846	115.38
657.049	127.38
657.253	117.38
657.457	123.38
657.661	106.38
657.865	102.38
658.068	102.38
658.272	104.38
658.476	103.38
658.68	98.38
658.883	88.38
659.087	103.38
659.291	94.38
659.494	101.38
659.698	109.38
659.901	82.38
660.105	106.38
660.309	94.38
660.512	90.38
660.716	88.38
660.919	107.38
661.123	84.38
661.326	88.38
661.53	81.38
661.733	70.38
661.936	80.38
662.14	73.38
662.343	96.38
662.546	91.38
662.75	91.38
662.953	83.38
663.156	75.38
663.36	82.38
663.563	77.38
663.766	92.38
663.969	74.38
664.173	80.38
664.376	78.38
664.579	77.38
664.782	71.38
664.985	70.38
665.188	81.38
665.391	85.38
665.594	87.38
665.797	75.38
666	83.38
666.203	82.38
666.406	71.38
666.609	78.38
666.812	82.38
667.015	83.38
667.218	91.38
667.421	83.38
667.624	81.38
667.827	80.38
668.03	84.38
668.232	88.38
668.435	92.38
668.638	85.38
668.841	85.38
669.043	82.38
669.246	100.38
669.449	73.38
669.651	87.38
669.854	72.38
670.057	90.38
670.259	80.38
670.462	92.38
670.665	65.38
670.867	81.38
671.07	76.38
671.272	93.38
671.475	83.38
671.677	83.38
671.88	81.38
672.082	83.38
672.284	86.38
672.487	89.38
672.689	88.38
672.892	78.38
