Data from 1977.PennyLincolnUp.Lamp.En5.5.200Scan.071719.P1_HRD10591_16-07-02-865.txt Node
Date: Thu Jul 18 16:07:02 EDT 2019
User: cochatt
Spectrometer: HR+D1059
Trigger mode: 1
Integration Time (sec): 1.000000E-1
Scans to average: 1
Electric dark correction enabled: true
Nonlinearity correction enabled: false
Boxcar width: 0
XAxis mode: Wavelengths
Number of Pixels in Spectrum: 2048
>>>>>Begin Spectral Data<<<<<
223.165	-19.94
223.4	-19.94
223.635	-19.94
223.869	-8.94
224.104	-22.94
224.338	-7.94
224.573	-10.94
224.808	-8.94
225.042	-13.94
225.277	1.06
225.511	-19.94
225.746	0.06
225.98	5.06
226.215	4.06
226.449	19.06
226.683	31.06
226.918	24.06
227.152	29.06
227.387	40.06
227.621	19.06
227.856	53.06
228.09	46.06
228.324	49.06
228.559	46.06
228.793	65.06
229.027	89.06
229.262	103.06
229.496	107.06
229.73	127.06
229.964	151.06
230.199	130.06
230.433	126.06
230.667	107.06
230.901	105.06
231.136	105.06
231.37	113.06
231.604	115.06
231.838	108.06
232.072	107.06
232.306	118.06
232.541	125.06
232.775	117.06
233.009	107.06
233.243	113.06
233.477	117.06
233.711	119.06
233.945	137.06
234.179	127.06
234.413	117.06
234.647	116.06
234.881	104.06
235.115	101.06
235.349	95.06
235.583	119.06
235.817	121.06
236.051	115.06
236.285	118.06
236.519	124.06
236.753	113.06
236.987	132.06
237.221	162.06
237.455	209.06
237.689	169.06
237.922	134.06
238.156	137.06
238.39	133.06
238.624	121.06
238.858	118.06
239.091	124.06
239.325	119.06
239.559	122.06
239.793	119.06
240.027	142.06
240.26	141.06
240.494	146.06
240.728	147.06
240.961	148.06
241.195	132.06
241.429	148.06
241.662	128.06
241.896	143.06
242.13	133.06
242.363	116.06
242.597	129.06
242.83	138.06
243.064	137.06
243.298	150.06
243.531	117.06
243.765	129.06
243.998	132.06
244.232	128.06
244.465	146.06
244.699	108.06
244.932	142.06
245.166	149.06
245.399	132.06
245.633	143.06
245.866	133.06
246.099	135.06
246.333	135.06
246.566	145.06
246.8	156.06
247.033	161.06
247.266	144.06
247.5	150.06
247.733	182.06
247.966	178.06
248.2	166.06
248.433	165.06
248.666	162.06
248.899	186.06
249.133	181.06
249.366	202.06
249.599	198.06
249.832	178.06
250.066	196.06
250.299	170.06
250.532	178.06
250.765	198.06
250.998	216.06
251.231	219.06
251.465	208.06
251.698	183.06
251.931	198.06
252.164	191.06
252.397	191.06
252.63	202.06
252.863	214.06
253.096	200.06
253.329	206.06
253.562	211.06
253.795	223.06
254.028	210.06
254.261	217.06
254.494	225.06
254.727	237.06
254.96	277.06
255.193	270.06
255.426	241.06
255.659	219.06
255.892	215.06
256.124	223.06
256.357	241.06
256.59	230.06
256.823	206.06
257.056	216.06
257.289	208.06
257.521	212.06
257.754	209.06
257.987	209.06
258.22	216.06
258.452	207.06
258.685	191.06
258.918	219.06
259.151	206.06
259.383	223.06
259.616	220.06
259.849	226.06
260.081	230.06
260.314	256.06
260.547	245.06
260.779	216.06
261.012	208.06
261.244	229.06
261.477	220.06
261.71	218.06
261.942	213.06
262.175	212.06
262.407	233.06
262.64	221.06
262.872	211.06
263.105	221.06
263.337	206.06
263.57	213.06
263.802	211.06
264.035	222.06
264.267	222.06
264.499	213.06
264.732	201.06
264.964	212.06
265.197	225.06
265.429	226.06
265.661	226.06
265.894	215.06
266.126	222.06
266.358	228.06
266.591	236.06
266.823	218.06
267.055	245.06
267.287	238.06
267.52	243.06
267.752	234.06
267.984	253.06
268.216	239.06
268.448	230.06
268.681	250.06
268.913	261.06
269.145	257.06
269.377	254.06
269.609	283.06
269.841	258.06
270.073	282.06
270.306	295.06
270.538	325.06
270.77	305.06
271.002	299.06
271.234	295.06
271.466	297.06
271.698	318.06
271.93	321.06
272.162	331.06
272.394	325.06
272.626	286.06
272.858	279.06
273.09	283.06
273.322	269.06
273.553	265.06
273.785	276.06
274.017	253.06
274.249	269.06
274.481	261.06
274.713	258.06
274.945	298.06
275.176	261.06
275.408	264.06
275.64	274.06
275.872	281.06
276.104	279.06
276.335	279.06
276.567	283.06
276.799	292.06
277.031	326.06
277.262	299.06
277.494	309.06
277.726	296.06
277.957	312.06
278.189	301.06
278.421	292.06
278.652	288.06
278.884	287.06
279.115	272.06
279.347	257.06
279.579	279.06
279.81	255.06
280.042	284.06
280.273	288.06
280.505	278.06
280.736	274.06
280.968	276.06
281.199	281.06
281.431	262.06
281.662	285.06
281.894	273.06
282.125	285.06
282.356	295.06
282.588	305.06
282.819	331.06
283.051	309.06
283.282	286.06
283.513	285.06
283.745	284.06
283.976	282.06
284.207	294.06
284.439	287.06
284.67	302.06
284.901	313.06
285.132	280.06
285.364	289.06
285.595	312.06
285.826	294.06
286.057	300.06
286.288	311.06
286.52	307.06
286.751	302.06
286.982	316.06
287.213	287.06
287.444	309.06
287.675	305.06
287.906	307.06
288.138	311.06
288.369	302.06
288.6	324.06
288.831	314.06
289.062	319.06
289.293	293.06
289.524	314.06
289.755	309.06
289.986	305.06
290.217	316.06
290.448	310.06
290.679	298.06
290.91	308.06
291.141	316.06
291.371	308.06
291.602	299.06
291.833	307.06
292.064	325.06
292.295	323.06
292.526	321.06
292.757	313.06
292.987	307.06
293.218	309.06
293.449	316.06
293.68	302.06
293.91	318.06
294.141	315.06
294.372	315.06
294.603	324.06
294.833	337.06
295.064	307.06
295.295	312.06
295.525	317.06
295.756	339.06
295.987	323.06
296.217	319.06
296.448	330.06
296.679	311.06
296.909	320.06
297.14	334.06
297.37	338.06
297.601	314.06
297.831	323.06
298.062	325.06
298.292	322.06
298.523	317.06
298.753	330.06
298.984	333.06
299.214	326.06
299.445	321.06
299.675	308.06
299.905	342.06
300.136	329.06
300.366	323.06
300.597	339.06
300.827	366.06
301.057	349.06
301.288	362.06
301.518	358.06
301.748	334.06
301.979	340.06
302.209	342.06
302.439	334.06
302.669	342.06
302.9	355.06
303.13	351.06
303.36	351.06
303.59	348.06
303.82	361.06
304.051	352.06
304.281	343.06
304.511	343.06
304.741	355.06
304.971	344.06
305.201	355.06
305.431	346.06
305.661	342.06
305.891	352.06
306.121	354.06
306.352	365.06
306.582	345.06
306.812	335.06
307.042	348.06
307.272	353.06
307.502	339.06
307.731	357.06
307.961	348.06
308.191	352.06
308.421	345.06
308.651	353.06
308.881	359.06
309.111	386.06
309.341	379.06
309.571	379.06
309.8	374.06
310.03	369.06
310.26	374.06
310.49	385.06
310.72	391.06
310.949	387.06
311.179	391.06
311.409	370.06
311.639	381.06
311.868	382.06
312.098	389.06
312.328	392.06
312.557	415.06
312.787	398.06
313.017	409.06
313.246	385.06
313.476	387.06
313.706	387.06
313.935	400.06
314.165	401.06
314.394	411.06
314.624	415.06
314.853	402.06
315.083	388.06
315.312	395.06
315.542	401.06
315.771	396.06
316.001	372.06
316.23	377.06
316.46	399.06
316.689	411.06
316.919	389.06
317.148	404.06
317.377	426.06
317.607	387.06
317.836	397.06
318.065	387.06
318.295	408.06
318.524	386.06
318.753	375.06
318.983	381.06
319.212	390.06
319.441	402.06
319.67	419.06
319.9	403.06
320.129	412.06
320.358	382.06
320.587	390.06
320.816	411.06
321.046	390.06
321.275	413.06
321.504	426.06
321.733	405.06
321.962	422.06
322.191	411.06
322.42	425.06
322.649	472.06
322.878	439.06
323.108	460.06
323.337	461.06
323.566	485.06
323.795	522.06
324.024	537.06
324.253	641.06
324.482	875.06
324.71	1296.06
324.939	1806.06
325.168	1548.06
325.397	822.06
325.626	589.06
325.855	527.06
326.084	467.06
326.313	471.06
326.542	491.06
326.77	529.06
326.999	601.06
327.228	810.06
327.457	1155.06
327.686	1349.06
327.914	905.06
328.143	639.06
328.372	578.06
328.6	547.06
328.829	517.06
329.058	520.06
329.287	538.06
329.515	531.06
329.744	513.06
329.972	469.06
330.201	471.06
330.43	534.06
330.658	554.06
330.887	563.06
331.115	543.06
331.344	469.06
331.572	477.06
331.801	472.06
332.03	478.06
332.258	486.06
332.486	462.06
332.715	477.06
332.943	445.06
333.172	483.06
333.4	464.06
333.629	476.06
333.857	500.06
334.085	525.06
334.314	521.06
334.542	532.06
334.771	497.06
334.999	505.06
335.227	498.06
335.455	485.06
335.684	478.06
335.912	490.06
336.14	433.06
336.369	463.06
336.597	460.06
336.825	470.06
337.053	456.06
337.281	447.06
337.51	446.06
337.738	459.06
337.966	454.06
338.194	451.06
338.422	450.06
338.65	454.06
338.878	447.06
339.106	433.06
339.334	451.06
339.562	441.06
339.79	443.06
340.018	426.06
340.246	447.06
340.474	432.06
340.702	425.06
340.93	428.06
341.158	415.06
341.386	421.06
341.614	427.06
341.842	432.06
342.07	423.06
342.298	438.06
342.526	431.06
342.754	463.06
342.981	411.06
343.209	424.06
343.437	429.06
343.665	427.06
343.893	451.06
344.12	454.06
344.348	440.06
344.576	457.06
344.804	457.06
345.031	459.06
345.259	443.06
345.487	455.06
345.714	435.06
345.942	419.06
346.17	419.06
346.397	413.06
346.625	428.06
346.853	420.06
347.08	402.06
347.308	413.06
347.535	409.06
347.763	417.06
347.99	399.06
348.218	433.06
348.445	420.06
348.673	421.06
348.9	397.06
349.128	391.06
349.355	413.06
349.583	407.06
349.81	394.06
350.037	404.06
350.265	391.06
350.492	391.06
350.72	402.06
350.947	398.06
351.174	421.06
351.402	408.06
351.629	413.06
351.856	423.06
352.083	406.06
352.311	404.06
352.538	416.06
352.765	437.06
352.992	414.06
353.22	383.06
353.447	414.06
353.674	389.06
353.901	384.06
354.128	392.06
354.355	370.06
354.583	374.06
354.81	386.06
355.037	394.06
355.264	381.06
355.491	405.06
355.718	381.06
355.945	369.06
356.172	399.06
356.399	405.06
356.626	389.06
356.853	381.06
357.08	399.06
357.307	373.06
357.534	388.06
357.761	400.06
357.988	399.06
358.215	403.06
358.441	413.06
358.668	375.06
358.895	387.06
359.122	413.06
359.349	408.06
359.576	404.06
359.802	406.06
360.029	451.06
360.256	431.06
360.483	430.06
360.709	418.06
360.936	420.06
361.163	405.06
361.39	388.06
361.616	411.06
361.843	392.06
362.07	427.06
362.296	398.06
362.523	405.06
362.749	399.06
362.976	409.06
363.203	409.06
363.429	405.06
363.656	391.06
363.882	394.06
364.109	398.06
364.335	394.06
364.562	377.06
364.788	388.06
365.015	391.06
365.241	383.06
365.468	390.06
365.694	370.06
365.92	391.06
366.147	382.06
366.373	375.06
366.599	383.06
366.826	371.06
367.052	394.06
367.278	385.06
367.505	391.06
367.731	382.06
367.957	376.06
368.184	384.06
368.41	394.06
368.636	405.06
368.862	410.06
369.089	396.06
369.315	409.06
369.541	374.06
369.767	400.06
369.993	392.06
370.219	381.06
370.445	403.06
370.672	397.06
370.898	377.06
371.124	377.06
371.35	396.06
371.576	410.06
371.802	393.06
372.028	358.06
372.254	391.06
372.48	391.06
372.706	402.06
372.932	405.06
373.158	409.06
373.384	393.06
373.61	407.06
373.835	402.06
374.061	402.06
374.287	404.06
374.513	403.06
374.739	409.06
374.965	409.06
375.191	429.06
375.416	403.06
375.642	411.06
375.868	394.06
376.094	386.06
376.319	387.06
376.545	402.06
376.771	379.06
376.997	387.06
377.222	404.06
377.448	379.06
377.674	381.06
377.899	386.06
378.125	378.06
378.35	375.06
378.576	400.06
378.802	385.06
379.027	391.06
379.253	375.06
379.478	394.06
379.704	393.06
379.929	384.06
380.155	399.06
380.38	380.06
380.606	373.06
380.831	385.06
381.057	393.06
381.282	378.06
381.507	389.06
381.733	390.06
381.958	395.06
382.184	408.06
382.409	385.06
382.634	394.06
382.86	391.06
383.085	402.06
383.31	387.06
383.535	409.06
383.761	400.06
383.986	395.06
384.211	397.06
384.436	411.06
384.662	391.06
384.887	429.06
385.112	410.06
385.337	407.06
385.562	417.06
385.787	420.06
386.013	448.06
386.238	429.06
386.463	432.06
386.688	425.06
386.913	428.06
387.138	417.06
387.363	413.06
387.588	413.06
387.813	405.06
388.038	438.06
388.263	417.06
388.488	444.06
388.713	433.06
388.938	421.06
389.163	422.06
389.387	422.06
389.612	423.06
389.837	410.06
390.062	429.06
390.287	413.06
390.512	427.06
390.736	413.06
390.961	426.06
391.186	399.06
391.411	426.06
391.636	415.06
391.86	421.06
392.085	447.06
392.31	454.06
392.534	429.06
392.759	433.06
392.984	425.06
393.208	418.06
393.433	425.06
393.658	428.06
393.882	433.06
394.107	427.06
394.331	414.06
394.556	421.06
394.78	429.06
395.005	446.06
395.229	452.06
395.454	451.06
395.678	439.06
395.903	459.06
396.127	463.06
396.352	466.06
396.576	433.06
396.801	449.06
397.025	429.06
397.249	449.06
397.474	433.06
397.698	441.06
397.922	449.06
398.147	470.06
398.371	460.06
398.595	486.06
398.82	468.06
399.044	490.06
399.268	522.06
399.492	552.06
399.717	566.06
399.941	592.06
400.165	615.06
400.389	597.06
400.613	544.06
400.837	490.06
401.062	500.06
401.286	491.06
401.51	489.06
401.734	453.06
401.958	481.06
402.182	493.06
402.406	501.06
402.63	509.06
402.854	475.06
403.078	503.06
403.302	487.06
403.526	514.06
403.75	477.06
403.974	511.06
404.198	505.06
404.422	493.06
404.645	500.06
404.869	519.06
405.093	520.06
405.317	549.06
405.541	573.06
405.765	550.06
405.988	514.06
406.212	531.06
406.436	529.06
406.66	556.06
406.883	523.06
407.107	557.06
407.331	582.06
407.555	639.06
407.778	634.06
408.002	596.06
408.226	561.06
408.449	558.06
408.673	547.06
408.896	563.06
409.12	606.06
409.344	579.06
409.567	535.06
409.791	501.06
410.014	498.06
410.238	483.06
410.461	479.06
410.685	493.06
410.908	525.06
411.132	524.06
411.355	561.06
411.578	556.06
411.802	506.06
412.025	502.06
412.249	503.06
412.472	505.06
412.695	548.06
412.919	544.06
413.142	490.06
413.365	462.06
413.589	460.06
413.812	483.06
414.035	471.06
414.258	471.06
414.482	485.06
414.705	467.06
414.928	474.06
415.151	485.06
415.374	468.06
415.597	478.06
415.821	469.06
416.044	472.06
416.267	464.06
416.49	461.06
416.713	464.06
416.936	458.06
417.159	475.06
417.382	473.06
417.605	467.06
417.828	484.06
418.051	500.06
418.274	480.06
418.497	470.06
418.72	449.06
418.943	460.06
419.166	457.06
419.389	490.06
419.611	506.06
419.834	497.06
420.057	517.06
420.28	475.06
420.503	472.06
420.726	461.06
420.948	484.06
421.171	540.06
421.394	553.06
421.617	495.06
421.839	480.06
422.062	482.06
422.285	492.06
422.507	537.06
422.73	599.06
422.953	586.06
423.175	511.06
423.398	473.06
423.621	486.06
423.843	515.06
424.066	505.06
424.288	515.06
424.511	543.06
424.733	590.06
424.956	635.06
425.178	625.06
425.401	591.06
425.623	623.06
425.846	561.06
426.068	499.06
426.291	519.06
426.513	502.06
426.735	531.06
426.958	567.06
427.18	612.06
427.402	699.06
427.625	803.06
427.847	671.06
428.069	597.06
428.292	532.06
428.514	484.06
428.736	463.06
428.958	442.06
429.181	437.06
429.403	466.06
429.625	469.06
429.847	490.06
430.069	563.06
430.292	561.06
430.514	478.06
430.736	441.06
430.958	475.06
431.18	464.06
431.402	446.06
431.624	435.06
431.846	453.06
432.068	430.06
432.29	454.06
432.512	449.06
432.734	420.06
432.956	449.06
433.178	459.06
433.4	446.06
433.622	449.06
433.844	442.06
434.066	440.06
434.287	447.06
434.509	449.06
434.731	427.06
434.953	469.06
435.175	479.06
435.397	495.06
435.618	487.06
435.84	537.06
436.062	612.06
436.284	663.06
436.505	563.06
436.727	498.06
436.949	487.06
437.17	458.06
437.392	459.06
437.614	474.06
437.835	502.06
438.057	566.06
438.278	669.06
438.5	652.06
438.721	720.06
438.943	679.06
439.165	569.06
439.386	501.06
439.608	499.06
439.829	498.06
440.05	494.06
440.272	542.06
440.493	544.06
440.715	509.06
440.936	485.06
441.158	486.06
441.379	471.06
441.6	500.06
441.822	483.06
442.043	522.06
442.264	600.06
442.486	605.06
442.707	555.06
442.928	486.06
443.149	492.06
443.371	518.06
443.592	583.06
443.813	666.06
444.034	678.06
444.255	575.06
444.476	527.06
444.698	518.06
444.919	522.06
445.14	616.06
445.361	559.06
445.582	513.06
445.803	602.06
446.024	643.06
446.245	685.06
446.466	607.06
446.687	542.06
446.908	506.06
447.129	475.06
447.35	467.06
447.571	471.06
447.792	439.06
448.013	457.06
448.234	459.06
448.455	523.06
448.675	621.06
448.896	715.06
449.117	607.06
449.338	577.06
449.559	642.06
449.779	756.06
450	580.06
450.221	471.06
450.442	463.06
450.662	472.06
450.883	441.06
451.104	446.06
451.324	437.06
451.545	427.06
451.766	431.06
451.986	434.06
452.207	397.06
452.428	410.06
452.648	411.06
452.869	409.06
453.089	418.06
453.31	429.06
453.53	422.06
453.751	402.06
453.971	399.06
454.192	398.06
454.412	400.06
454.633	409.06
454.853	390.06
455.073	389.06
455.294	433.06
455.514	451.06
455.734	477.06
455.955	405.06
456.175	383.06
456.395	377.06
456.616	407.06
456.836	387.06
457.056	387.06
457.276	396.06
457.497	386.06
457.717	382.06
457.937	394.06
458.157	385.06
458.377	391.06
458.598	436.06
458.818	454.06
459.038	530.06
459.258	525.06
459.478	475.06
459.698	437.06
459.918	440.06
460.138	445.06
460.358	453.06
460.578	485.06
460.798	453.06
461.018	462.06
461.238	477.06
461.458	466.06
461.678	476.06
461.898	460.06
462.118	461.06
462.338	461.06
462.558	466.06
462.777	486.06
462.997	504.06
463.217	496.06
463.437	513.06
463.657	499.06
463.876	491.06
464.096	471.06
464.316	486.06
464.536	497.06
464.755	495.06
464.975	470.06
465.195	511.06
465.414	545.06
465.634	502.06
465.854	454.06
466.073	448.06
466.293	418.06
466.512	440.06
466.732	409.06
466.951	406.06
467.171	427.06
467.391	431.06
467.61	405.06
467.829	428.06
468.049	429.06
468.268	410.06
468.488	416.06
468.707	402.06
468.927	407.06
469.146	400.06
469.365	418.06
469.585	409.06
469.804	408.06
470.023	420.06
470.243	431.06
470.462	425.06
470.681	434.06
470.901	425.06
471.12	426.06
471.339	427.06
471.558	439.06
471.777	430.06
471.997	396.06
472.216	434.06
472.435	433.06
472.654	431.06
472.873	438.06
473.092	419.06
473.311	413.06
473.53	411.06
473.749	434.06
473.968	461.06
474.187	534.06
474.406	556.06
474.625	453.06
474.844	441.06
475.063	424.06
475.282	418.06
475.501	427.06
475.72	442.06
475.939	420.06
476.158	436.06
476.377	437.06
476.596	442.06
476.814	421.06
477.033	435.06
477.252	435.06
477.471	456.06
477.69	456.06
477.908	464.06
478.127	473.06
478.346	455.06
478.564	447.06
478.783	474.06
479.002	488.06
479.22	482.06
479.439	486.06
479.658	512.06
479.876	517.06
480.095	503.06
480.313	561.06
480.532	523.06
480.751	516.06
480.969	515.06
481.188	551.06
481.406	556.06
481.624	514.06
481.843	499.06
482.061	477.06
482.28	471.06
482.498	481.06
482.717	496.06
482.935	473.06
483.153	489.06
483.372	493.06
483.59	507.06
483.808	471.06
484.027	474.06
484.245	477.06
484.463	476.06
484.681	508.06
484.9	485.06
485.118	482.06
485.336	484.06
485.554	497.06
485.772	490.06
485.99	498.06
486.209	518.06
486.427	502.06
486.645	502.06
486.863	526.06
487.081	519.06
487.299	519.06
487.517	509.06
487.735	508.06
487.953	503.06
488.171	511.06
488.389	526.06
488.607	517.06
488.825	513.06
489.043	520.06
489.261	512.06
489.479	534.06
489.696	531.06
489.914	527.06
490.132	530.06
490.35	537.06
490.568	538.06
490.786	531.06
491.003	535.06
491.221	533.06
491.439	565.06
491.657	567.06
491.874	569.06
492.092	573.06
492.31	584.06
492.527	575.06
492.745	602.06
492.963	599.06
493.18	598.06
493.398	573.06
493.615	582.06
493.833	597.06
494.05	574.06
494.268	616.06
494.485	573.06
494.703	607.06
494.92	592.06
495.138	605.06
495.355	603.06
495.573	599.06
495.79	595.06
496.008	613.06
496.225	602.06
496.442	614.06
496.66	631.06
496.877	609.06
497.094	639.06
497.312	606.06
497.529	635.06
497.746	643.06
497.963	658.06
498.181	679.06
498.398	664.06
498.615	707.06
498.832	702.06
499.049	706.06
499.267	750.06
499.484	771.06
499.701	786.06
499.918	838.06
500.135	878.06
500.352	907.06
500.569	945.06
500.786	940.06
501.003	919.06
501.22	915.06
501.437	849.06
501.654	823.06
501.871	802.06
502.088	781.06
502.305	720.06
502.522	704.06
502.739	699.06
502.956	660.06
503.172	657.06
503.389	668.06
503.606	642.06
503.823	649.06
504.04	643.06
504.256	617.06
504.473	618.06
504.69	615.06
504.907	599.06
505.123	593.06
505.34	599.06
505.557	598.06
505.773	611.06
505.99	574.06
506.207	568.06
506.423	589.06
506.64	577.06
506.856	582.06
507.073	549.06
507.289	571.06
507.506	531.06
507.722	568.06
507.939	561.06
508.155	562.06
508.372	536.06
508.588	539.06
508.805	550.06
509.021	541.06
509.238	555.06
509.454	571.06
509.67	546.06
509.887	551.06
510.103	555.06
510.319	533.06
510.536	621.06
510.752	858.06
510.968	712.06
511.184	545.06
511.401	519.06
511.617	527.06
511.833	498.06
512.049	513.06
512.265	513.06
512.481	500.06
512.698	486.06
512.914	519.06
513.13	520.06
513.346	491.06
513.562	499.06
513.778	506.06
513.994	525.06
514.21	529.06
514.426	532.06
514.642	546.06
514.858	590.06
515.074	581.06
515.29	665.06
515.506	894.06
515.721	773.06
515.937	607.06
516.153	565.06
516.369	566.06
516.585	535.06
516.801	535.06
517.016	543.06
517.232	541.06
517.448	546.06
517.664	558.06
517.879	571.06
518.095	566.06
518.311	556.06
518.527	531.06
518.742	501.06
518.958	534.06
519.173	515.06
519.389	512.06
519.605	516.06
519.82	503.06
520.036	505.06
520.251	519.06
520.467	551.06
520.682	538.06
520.898	542.06
521.113	548.06
521.329	581.06
521.544	616.06
521.76	735.06
521.975	1078.06
522.19	1045.06
522.406	659.06
522.621	551.06
522.836	513.06
523.052	490.06
523.267	479.06
523.482	458.06
523.698	468.06
523.913	484.06
524.128	474.06
524.343	448.06
524.559	437.06
524.774	446.06
524.989	433.06
525.204	451.06
525.419	430.06
525.634	455.06
525.849	450.06
526.064	430.06
526.28	452.06
526.495	434.06
526.71	422.06
526.925	408.06
527.14	442.06
527.355	419.06
527.57	429.06
527.785	429.06
527.999	441.06
528.214	428.06
528.429	431.06
528.644	424.06
528.859	407.06
529.074	413.06
529.289	428.06
529.503	474.06
529.718	464.06
529.933	437.06
530.148	450.06
530.363	431.06
530.577	423.06
530.792	414.06
531.007	427.06
531.221	397.06
531.436	427.06
531.651	413.06
531.865	429.06
532.08	435.06
532.295	419.06
532.509	413.06
532.724	408.06
532.938	397.06
533.153	389.06
533.367	409.06
533.582	416.06
533.796	401.06
534.011	417.06
534.225	388.06
534.44	408.06
534.654	400.06
534.868	405.06
535.083	393.06
535.297	402.06
535.511	398.06
535.726	414.06
535.94	394.06
536.154	405.06
536.369	432.06
536.583	406.06
536.797	407.06
537.011	369.06
537.225	363.06
537.44	409.06
537.654	388.06
537.868	394.06
538.082	414.06
538.296	397.06
538.51	385.06
538.724	427.06
538.938	417.06
539.153	413.06
539.367	396.06
539.581	407.06
539.795	377.06
540.009	381.06
540.222	395.06
540.436	379.06
540.65	388.06
540.864	383.06
541.078	410.06
541.292	425.06
541.506	381.06
541.72	397.06
541.934	397.06
542.147	399.06
542.361	374.06
542.575	364.06
542.789	382.06
543.002	401.06
543.216	389.06
543.43	385.06
543.644	401.06
543.857	415.06
544.071	382.06
544.285	396.06
544.498	401.06
544.712	387.06
544.925	391.06
545.139	391.06
545.352	384.06
545.566	397.06
545.779	374.06
545.993	385.06
546.206	387.06
546.42	382.06
546.633	389.06
546.847	390.06
547.06	382.06
547.274	384.06
547.487	379.06
547.7	383.06
547.914	378.06
548.127	372.06
548.34	394.06
548.554	380.06
548.767	376.06
548.98	368.06
549.193	380.06
549.407	379.06
549.62	369.06
549.833	389.06
550.046	387.06
550.259	387.06
550.473	359.06
550.686	385.06
550.899	377.06
551.112	364.06
551.325	369.06
551.538	359.06
551.751	363.06
551.964	380.06
552.177	368.06
552.39	377.06
552.603	382.06
552.816	377.06
553.029	387.06
553.242	390.06
553.455	402.06
553.667	405.06
553.88	405.06
554.093	385.06
554.306	389.06
554.519	395.06
554.732	396.06
554.944	365.06
555.157	367.06
555.37	350.06
555.583	374.06
555.795	350.06
556.008	364.06
556.221	346.06
556.433	344.06
556.646	350.06
556.859	346.06
557.071	369.06
557.284	336.06
557.496	315.06
557.709	322.06
557.921	348.06
558.134	349.06
558.346	334.06
558.559	336.06
558.771	331.06
558.984	315.06
559.196	326.06
559.409	340.06
559.621	321.06
559.833	344.06
560.046	341.06
560.258	334.06
560.47	337.06
560.683	312.06
560.895	330.06
561.107	340.06
561.32	329.06
561.532	339.06
561.744	342.06
561.956	346.06
562.168	332.06
562.381	321.06
562.593	328.06
562.805	339.06
563.017	325.06
563.229	326.06
563.441	335.06
563.653	346.06
563.865	340.06
564.077	339.06
564.289	356.06
564.501	353.06
564.713	345.06
564.925	339.06
565.137	361.06
565.349	363.06
565.561	372.06
565.773	362.06
565.985	383.06
566.197	391.06
566.408	390.06
566.62	422.06
566.832	408.06
567.044	433.06
567.255	431.06
567.467	436.06
567.679	437.06
567.891	458.06
568.102	454.06
568.314	446.06
568.526	414.06
568.737	421.06
568.949	415.06
569.161	390.06
569.372	359.06
569.584	362.06
569.795	366.06
570.007	339.06
570.218	362.06
570.43	369.06
570.641	341.06
570.853	338.06
571.064	338.06
571.276	333.06
571.487	325.06
571.698	334.06
571.91	319.06
572.121	294.06
572.333	306.06
572.544	296.06
572.755	302.06
572.966	301.06
573.178	301.06
573.389	310.06
573.6	292.06
573.811	308.06
574.023	280.06
574.234	305.06
574.445	296.06
574.656	295.06
574.867	299.06
575.078	290.06
575.289	286.06
575.501	299.06
575.712	289.06
575.923	292.06
576.134	284.06
576.345	275.06
576.556	279.06
576.767	301.06
576.978	279.06
577.188	311.06
577.399	293.06
577.61	277.06
577.821	278.06
578.032	289.06
578.243	317.06
578.454	413.06
578.665	344.06
578.875	309.06
579.086	291.06
579.297	279.06
579.508	267.06
579.718	270.06
579.929	267.06
580.14	268.06
580.35	281.06
580.561	249.06
580.772	263.06
580.982	268.06
581.193	257.06
581.403	281.06
581.614	277.06
581.825	271.06
582.035	266.06
582.246	247.06
582.456	251.06
582.667	263.06
582.877	270.06
583.087	265.06
583.298	259.06
583.508	263.06
583.719	262.06
583.929	248.06
584.139	262.06
584.35	269.06
584.56	255.06
584.77	231.06
584.981	262.06
585.191	248.06
585.401	253.06
585.611	265.06
585.821	253.06
586.032	284.06
586.242	261.06
586.452	262.06
586.662	247.06
586.872	267.06
587.082	251.06
587.292	236.06
587.502	261.06
587.713	247.06
587.923	227.06
588.133	265.06
588.343	257.06
588.553	230.06
588.762	259.06
588.972	239.06
589.182	256.06
589.392	251.06
589.602	257.06
589.812	259.06
590.022	254.06
590.232	257.06
590.441	245.06
590.651	238.06
590.861	243.06
591.071	250.06
591.281	251.06
591.49	245.06
591.7	253.06
591.91	250.06
592.119	261.06
592.329	271.06
592.539	290.06
592.748	283.06
592.958	274.06
593.167	269.06
593.377	275.06
593.587	272.06
593.796	270.06
594.006	290.06
594.215	279.06
594.424	280.06
594.634	266.06
594.843	286.06
595.053	267.06
595.262	273.06
595.472	252.06
595.681	258.06
595.89	250.06
596.1	232.06
596.309	256.06
596.518	235.06
596.727	234.06
596.937	249.06
597.146	249.06
597.355	234.06
597.564	240.06
597.774	243.06
597.983	249.06
598.192	240.06
598.401	237.06
598.61	229.06
598.819	220.06
599.028	218.06
599.237	224.06
599.446	237.06
599.655	239.06
599.864	214.06
600.073	227.06
600.282	233.06
600.491	226.06
600.7	227.06
600.909	218.06
601.118	205.06
601.327	223.06
601.536	219.06
601.745	216.06
601.953	220.06
602.162	220.06
602.371	217.06
602.58	223.06
602.789	217.06
602.997	227.06
603.206	198.06
603.415	228.06
603.623	226.06
603.832	213.06
604.041	210.06
604.249	221.06
604.458	215.06
604.666	222.06
604.875	232.06
605.084	209.06
605.292	203.06
605.501	213.06
605.709	209.06
605.918	231.06
606.126	230.06
606.334	204.06
606.543	197.06
606.751	218.06
606.96	210.06
607.168	201.06
607.376	211.06
607.585	197.06
607.793	221.06
608.001	208.06
608.21	205.06
608.418	212.06
608.626	217.06
608.834	213.06
609.043	218.06
609.251	204.06
609.459	203.06
609.667	190.06
609.875	215.06
610.083	222.06
610.291	221.06
610.499	200.06
610.707	213.06
610.916	221.06
611.124	207.06
611.332	209.06
611.54	230.06
611.748	213.06
611.955	202.06
612.163	209.06
612.371	215.06
612.579	211.06
612.787	215.06
612.995	205.06
613.203	207.06
613.411	197.06
613.618	212.06
613.826	203.06
614.034	198.06
614.242	210.06
614.449	205.06
614.657	229.06
614.865	213.06
615.072	217.06
615.28	199.06
615.488	201.06
615.695	210.06
615.903	213.06
616.111	194.06
616.318	213.06
616.526	203.06
616.733	211.06
616.941	209.06
617.148	209.06
617.356	213.06
617.563	188.06
617.771	191.06
617.978	199.06
618.185	204.06
618.393	199.06
618.6	194.06
618.807	195.06
619.015	204.06
619.222	176.06
619.429	203.06
619.637	195.06
619.844	205.06
620.051	215.06
620.258	206.06
620.466	186.06
620.673	196.06
620.88	196.06
621.087	189.06
621.294	190.06
621.501	184.06
621.708	190.06
621.915	194.06
622.122	181.06
622.329	177.06
622.536	182.06
622.743	191.06
622.95	195.06
623.157	186.06
623.364	206.06
623.571	192.06
623.778	177.06
623.985	191.06
624.192	185.06
624.399	198.06
624.606	199.06
624.812	194.06
625.019	182.06
625.226	174.06
625.433	177.06
625.639	199.06
625.846	185.06
626.053	194.06
626.259	181.06
626.466	203.06
626.673	177.06
626.879	172.06
627.086	180.06
627.293	191.06
627.499	191.06
627.706	186.06
627.912	184.06
628.119	174.06
628.325	193.06
628.532	163.06
628.738	187.06
628.945	183.06
629.151	183.06
629.357	188.06
629.564	164.06
629.77	178.06
629.976	183.06
630.183	179.06
630.389	174.06
630.595	175.06
630.802	174.06
631.008	171.06
631.214	163.06
631.42	178.06
631.627	187.06
631.833	171.06
632.039	176.06
632.245	161.06
632.451	165.06
632.657	177.06
632.863	177.06
633.069	169.06
633.275	171.06
633.481	173.06
633.688	158.06
633.893	165.06
634.099	169.06
634.305	153.06
634.511	161.06
634.717	157.06
634.923	160.06
635.129	159.06
635.335	164.06
635.541	155.06
635.747	174.06
635.952	163.06
636.158	153.06
636.364	166.06
636.57	177.06
636.775	174.06
636.981	158.06
637.187	162.06
637.392	174.06
637.598	179.06
637.804	149.06
638.009	161.06
638.215	157.06
638.421	163.06
638.626	164.06
638.832	157.06
639.037	147.06
639.243	153.06
639.448	154.06
639.654	163.06
639.859	153.06
640.065	146.06
640.27	146.06
640.475	162.06
640.681	166.06
640.886	162.06
641.091	150.06
641.297	177.06
641.502	143.06
641.707	149.06
641.913	153.06
642.118	139.06
642.323	164.06
642.528	133.06
642.733	154.06
642.939	164.06
643.144	142.06
643.349	134.06
643.554	157.06
643.759	150.06
643.964	147.06
644.169	158.06
644.374	148.06
644.579	156.06
644.784	163.06
644.989	144.06
645.194	159.06
645.399	159.06
645.604	148.06
645.809	159.06
646.014	149.06
646.219	159.06
646.423	161.06
646.628	156.06
646.833	151.06
647.038	145.06
647.243	135.06
647.447	140.06
647.652	142.06
647.857	149.06
648.062	165.06
648.266	153.06
648.471	159.06
648.676	154.06
648.88	142.06
649.085	148.06
649.289	163.06
649.494	139.06
649.698	160.06
649.903	166.06
650.107	155.06
650.312	136.06
650.516	145.06
650.721	143.06
650.925	159.06
651.13	135.06
651.334	133.06
651.539	151.06
651.743	136.06
651.947	141.06
652.152	140.06
652.356	138.06
652.56	134.06
652.764	123.06
652.969	139.06
653.173	141.06
653.377	150.06
653.581	141.06
653.785	131.06
653.99	136.06
654.194	136.06
654.398	124.06
654.602	113.06
654.806	123.06
655.01	130.06
655.214	142.06
655.418	126.06
655.622	136.06
655.826	130.06
656.03	123.06
656.234	122.06
656.438	127.06
656.642	124.06
656.846	120.06
657.049	123.06
657.253	127.06
657.457	114.06
657.661	112.06
657.865	113.06
658.068	130.06
658.272	95.06
658.476	113.06
658.68	113.06
658.883	119.06
659.087	107.06
659.291	111.06
659.494	94.06
659.698	89.06
659.901	100.06
660.105	95.06
660.309	82.06
660.512	101.06
660.716	96.06
660.919	91.06
661.123	98.06
661.326	81.06
661.53	89.06
661.733	101.06
661.936	78.06
662.14	88.06
662.343	87.06
662.546	79.06
662.75	92.06
662.953	91.06
663.156	85.06
663.36	83.06
663.563	82.06
663.766	76.06
663.969	79.06
664.173	88.06
664.376	78.06
664.579	74.06
664.782	89.06
664.985	84.06
665.188	93.06
665.391	104.06
665.594	82.06
665.797	78.06
666	84.06
666.203	78.06
666.406	76.06
666.609	79.06
666.812	82.06
667.015	91.06
667.218	67.06
667.421	71.06
667.624	82.06
667.827	83.06
668.03	67.06
668.232	76.06
668.435	80.06
668.638	84.06
668.841	89.06
669.043	92.06
669.246	83.06
669.449	77.06
669.651	89.06
669.854	87.06
670.057	99.06
670.259	81.06
670.462	78.06
670.665	80.06
670.867	85.06
671.07	85.06
671.272	86.06
671.475	88.06
671.677	85.06
671.88	91.06
672.082	89.06
672.284	90.06
672.487	76.06
672.689	78.06
672.892	79.06
