Data from 1977.PennyLincolnUp.Lamp.En5.5.200Scan.071719.P1_HRD10591_16-07-27-864.txt Node
Date: Thu Jul 18 16:07:27 EDT 2019
User: cochatt
Spectrometer: HR+D1059
Trigger mode: 1
Integration Time (sec): 1.000000E-1
Scans to average: 1
Electric dark correction enabled: true
Nonlinearity correction enabled: false
Boxcar width: 0
XAxis mode: Wavelengths
Number of Pixels in Spectrum: 2048
>>>>>Begin Spectral Data<<<<<
223.165	-27.31
223.4	-27.31
223.635	-27.31
223.869	-2.31
224.104	-19.31
224.338	-26.31
224.573	-14.31
224.808	-9.31
225.042	-7.31
225.277	-12.31
225.511	-9.31
225.746	4.69
225.98	14.69
226.215	11.69
226.449	22.69
226.683	15.69
226.918	21.69
227.152	36.69
227.387	34.69
227.621	36.69
227.856	39.69
228.09	44.69
228.324	45.69
228.559	59.69
228.793	56.69
229.027	96.69
229.262	97.69
229.496	114.69
229.73	120.69
229.964	123.69
230.199	117.69
230.433	105.69
230.667	100.69
230.901	112.69
231.136	107.69
231.37	108.69
231.604	120.69
231.838	116.69
232.072	101.69
232.306	128.69
232.541	108.69
232.775	107.69
233.009	119.69
233.243	124.69
233.477	99.69
233.711	112.69
233.945	109.69
234.179	121.69
234.413	115.69
234.647	105.69
234.881	124.69
235.115	134.69
235.349	113.69
235.583	106.69
235.817	122.69
236.051	130.69
236.285	131.69
236.519	119.69
236.753	131.69
236.987	141.69
237.221	174.69
237.455	202.69
237.689	165.69
237.922	140.69
238.156	118.69
238.39	128.69
238.624	123.69
238.858	116.69
239.091	133.69
239.325	132.69
239.559	126.69
239.793	106.69
240.027	140.69
240.26	133.69
240.494	131.69
240.728	137.69
240.961	143.69
241.195	142.69
241.429	148.69
241.662	122.69
241.896	132.69
242.13	132.69
242.363	133.69
242.597	138.69
242.83	156.69
243.064	152.69
243.298	113.69
243.531	124.69
243.765	131.69
243.998	132.69
244.232	141.69
244.465	147.69
244.699	140.69
244.932	149.69
245.166	124.69
245.399	144.69
245.633	149.69
245.866	150.69
246.099	148.69
246.333	149.69
246.566	146.69
246.8	145.69
247.033	146.69
247.266	159.69
247.5	143.69
247.733	162.69
247.966	172.69
248.2	167.69
248.433	173.69
248.666	165.69
248.899	181.69
249.133	184.69
249.366	197.69
249.599	201.69
249.832	181.69
250.066	172.69
250.299	200.69
250.532	202.69
250.765	197.69
250.998	209.69
251.231	210.69
251.465	212.69
251.698	208.69
251.931	201.69
252.164	196.69
252.397	210.69
252.63	208.69
252.863	196.69
253.096	208.69
253.329	244.69
253.562	217.69
253.795	211.69
254.028	202.69
254.261	220.69
254.494	214.69
254.727	222.69
254.96	257.69
255.193	258.69
255.426	244.69
255.659	240.69
255.892	218.69
256.124	231.69
256.357	227.69
256.59	216.69
256.823	214.69
257.056	211.69
257.289	195.69
257.521	193.69
257.754	209.69
257.987	198.69
258.22	207.69
258.452	206.69
258.685	222.69
258.918	202.69
259.151	234.69
259.383	219.69
259.616	228.69
259.849	244.69
260.081	244.69
260.314	246.69
260.547	263.69
260.779	250.69
261.012	249.69
261.244	240.69
261.477	258.69
261.71	253.69
261.942	225.69
262.175	220.69
262.407	230.69
262.64	217.69
262.872	225.69
263.105	225.69
263.337	222.69
263.57	221.69
263.802	242.69
264.035	220.69
264.267	216.69
264.499	217.69
264.732	228.69
264.964	218.69
265.197	229.69
265.429	225.69
265.661	215.69
265.894	230.69
266.126	226.69
266.358	233.69
266.591	233.69
266.823	233.69
267.055	230.69
267.287	240.69
267.52	226.69
267.752	257.69
267.984	248.69
268.216	256.69
268.448	243.69
268.681	230.69
268.913	252.69
269.145	260.69
269.377	274.69
269.609	286.69
269.841	289.69
270.073	280.69
270.306	292.69
270.538	317.69
270.77	316.69
271.002	312.69
271.234	296.69
271.466	309.69
271.698	313.69
271.93	331.69
272.162	318.69
272.394	343.69
272.626	321.69
272.858	300.69
273.09	274.69
273.322	284.69
273.553	288.69
273.785	272.69
274.017	262.69
274.249	271.69
274.481	270.69
274.713	283.69
274.945	281.69
275.176	274.69
275.408	277.69
275.64	281.69
275.872	274.69
276.104	273.69
276.335	267.69
276.567	268.69
276.799	295.69
277.031	320.69
277.262	325.69
277.494	309.69
277.726	318.69
277.957	313.69
278.189	294.69
278.421	301.69
278.652	288.69
278.884	284.69
279.115	294.69
279.347	293.69
279.579	269.69
279.81	283.69
280.042	298.69
280.273	270.69
280.505	300.69
280.736	288.69
280.968	295.69
281.199	294.69
281.431	286.69
281.662	284.69
281.894	291.69
282.125	285.69
282.356	300.69
282.588	320.69
282.819	310.69
283.051	302.69
283.282	280.69
283.513	312.69
283.745	300.69
283.976	308.69
284.207	302.69
284.439	307.69
284.67	308.69
284.901	308.69
285.132	298.69
285.364	308.69
285.595	308.69
285.826	301.69
286.057	288.69
286.288	288.69
286.52	308.69
286.751	289.69
286.982	299.69
287.213	316.69
287.444	299.69
287.675	308.69
287.906	320.69
288.138	308.69
288.369	344.69
288.6	322.69
288.831	314.69
289.062	321.69
289.293	334.69
289.524	308.69
289.755	330.69
289.986	288.69
290.217	313.69
290.448	310.69
290.679	325.69
290.91	318.69
291.141	304.69
291.371	315.69
291.602	335.69
291.833	322.69
292.064	316.69
292.295	312.69
292.526	322.69
292.757	321.69
292.987	295.69
293.218	302.69
293.449	324.69
293.68	322.69
293.91	321.69
294.141	314.69
294.372	317.69
294.603	312.69
294.833	325.69
295.064	303.69
295.295	315.69
295.525	318.69
295.756	326.69
295.987	344.69
296.217	332.69
296.448	347.69
296.679	338.69
296.909	322.69
297.14	332.69
297.37	333.69
297.601	342.69
297.831	335.69
298.062	317.69
298.292	317.69
298.523	333.69
298.753	339.69
298.984	341.69
299.214	357.69
299.445	355.69
299.675	341.69
299.905	340.69
300.136	349.69
300.366	328.69
300.597	346.69
300.827	365.69
301.057	341.69
301.288	338.69
301.518	333.69
301.748	366.69
301.979	358.69
302.209	366.69
302.439	372.69
302.669	355.69
302.9	366.69
303.13	355.69
303.36	368.69
303.59	363.69
303.82	369.69
304.051	359.69
304.281	360.69
304.511	360.69
304.741	350.69
304.971	361.69
305.201	347.69
305.431	355.69
305.661	358.69
305.891	365.69
306.121	352.69
306.352	359.69
306.582	369.69
306.812	332.69
307.042	361.69
307.272	341.69
307.502	361.69
307.731	380.69
307.961	380.69
308.191	353.69
308.421	384.69
308.651	374.69
308.881	382.69
309.111	364.69
309.341	368.69
309.571	373.69
309.8	393.69
310.03	370.69
310.26	398.69
310.49	388.69
310.72	397.69
310.949	423.69
311.179	404.69
311.409	386.69
311.639	374.69
311.868	398.69
312.098	407.69
312.328	412.69
312.557	411.69
312.787	424.69
313.017	416.69
313.246	402.69
313.476	384.69
313.706	386.69
313.935	402.69
314.165	401.69
314.394	423.69
314.624	409.69
314.853	398.69
315.083	383.69
315.312	392.69
315.542	401.69
315.771	402.69
316.001	418.69
316.23	396.69
316.46	393.69
316.689	418.69
316.919	408.69
317.148	412.69
317.377	420.69
317.607	411.69
317.836	431.69
318.065	390.69
318.295	398.69
318.524	409.69
318.753	396.69
318.983	402.69
319.212	385.69
319.441	408.69
319.67	408.69
319.9	409.69
320.129	408.69
320.358	410.69
320.587	418.69
320.816	418.69
321.046	427.69
321.275	410.69
321.504	416.69
321.733	415.69
321.962	408.69
322.191	428.69
322.42	441.69
322.649	470.69
322.878	448.69
323.108	472.69
323.337	470.69
323.566	478.69
323.795	502.69
324.024	546.69
324.253	665.69
324.482	909.69
324.71	1334.69
324.939	1837.69
325.168	1603.69
325.397	865.69
325.626	625.69
325.855	546.69
326.084	512.69
326.313	504.69
326.542	486.69
326.77	556.69
326.999	622.69
327.228	837.69
327.457	1189.69
327.686	1435.69
327.914	939.69
328.143	664.69
328.372	571.69
328.6	556.69
328.829	572.69
329.058	526.69
329.287	554.69
329.515	544.69
329.744	534.69
329.972	500.69
330.201	510.69
330.43	528.69
330.658	551.69
330.887	557.69
331.115	554.69
331.344	500.69
331.572	514.69
331.801	498.69
332.03	492.69
332.258	498.69
332.486	476.69
332.715	499.69
332.943	502.69
333.172	467.69
333.4	483.69
333.629	490.69
333.857	522.69
334.085	520.69
334.314	540.69
334.542	550.69
334.771	554.69
334.999	515.69
335.227	487.69
335.455	476.69
335.684	487.69
335.912	486.69
336.14	476.69
336.369	465.69
336.597	463.69
336.825	488.69
337.053	461.69
337.281	479.69
337.51	468.69
337.738	466.69
337.966	453.69
338.194	474.69
338.422	466.69
338.65	449.69
338.878	468.69
339.106	457.69
339.334	452.69
339.562	448.69
339.79	436.69
340.018	436.69
340.246	453.69
340.474	465.69
340.702	434.69
340.93	442.69
341.158	439.69
341.386	451.69
341.614	461.69
341.842	417.69
342.07	448.69
342.298	430.69
342.526	433.69
342.754	443.69
342.981	444.69
343.209	427.69
343.437	438.69
343.665	460.69
343.893	468.69
344.12	472.69
344.348	466.69
344.576	456.69
344.804	437.69
345.031	457.69
345.259	458.69
345.487	445.69
345.714	446.69
345.942	440.69
346.17	435.69
346.397	410.69
346.625	409.69
346.853	428.69
347.08	422.69
347.308	428.69
347.535	446.69
347.763	432.69
347.99	420.69
348.218	447.69
348.445	437.69
348.673	451.69
348.9	424.69
349.128	440.69
349.355	397.69
349.583	404.69
349.81	429.69
350.037	404.69
350.265	404.69
350.492	420.69
350.72	405.69
350.947	424.69
351.174	429.69
351.402	438.69
351.629	407.69
351.856	412.69
352.083	436.69
352.311	450.69
352.538	421.69
352.765	438.69
352.992	433.69
353.22	416.69
353.447	427.69
353.674	410.69
353.901	421.69
354.128	406.69
354.355	388.69
354.583	413.69
354.81	409.69
355.037	395.69
355.264	406.69
355.491	378.69
355.718	399.69
355.945	387.69
356.172	404.69
356.399	389.69
356.626	405.69
356.853	397.69
357.08	393.69
357.307	401.69
357.534	390.69
357.761	398.69
357.988	387.69
358.215	390.69
358.441	398.69
358.668	403.69
358.895	402.69
359.122	416.69
359.349	413.69
359.576	423.69
359.802	429.69
360.029	437.69
360.256	451.69
360.483	439.69
360.709	412.69
360.936	440.69
361.163	409.69
361.39	424.69
361.616	415.69
361.843	415.69
362.07	416.69
362.296	424.69
362.523	400.69
362.749	394.69
362.976	395.69
363.203	423.69
363.429	394.69
363.656	396.69
363.882	405.69
364.109	420.69
364.335	428.69
364.562	393.69
364.788	385.69
365.015	404.69
365.241	389.69
365.468	411.69
365.694	392.69
365.92	404.69
366.147	391.69
366.373	394.69
366.599	389.69
366.826	378.69
367.052	389.69
367.278	386.69
367.505	396.69
367.731	406.69
367.957	414.69
368.184	396.69
368.41	395.69
368.636	395.69
368.862	413.69
369.089	405.69
369.315	400.69
369.541	394.69
369.767	404.69
369.993	402.69
370.219	403.69
370.445	377.69
370.672	407.69
370.898	399.69
371.124	394.69
371.35	395.69
371.576	369.69
371.802	397.69
372.028	388.69
372.254	409.69
372.48	392.69
372.706	418.69
372.932	411.69
373.158	412.69
373.384	402.69
373.61	408.69
373.835	398.69
374.061	411.69
374.287	406.69
374.513	402.69
374.739	432.69
374.965	412.69
375.191	399.69
375.416	412.69
375.642	393.69
375.868	395.69
376.094	404.69
376.319	388.69
376.545	379.69
376.771	387.69
376.997	396.69
377.222	403.69
377.448	397.69
377.674	378.69
377.899	389.69
378.125	393.69
378.35	385.69
378.576	392.69
378.802	380.69
379.027	388.69
379.253	399.69
379.478	390.69
379.704	390.69
379.929	381.69
380.155	394.69
380.38	393.69
380.606	378.69
380.831	389.69
381.057	394.69
381.282	413.69
381.507	377.69
381.733	383.69
381.958	396.69
382.184	393.69
382.409	408.69
382.634	376.69
382.86	406.69
383.085	419.69
383.31	410.69
383.535	404.69
383.761	407.69
383.986	432.69
384.211	425.69
384.436	395.69
384.662	415.69
384.887	432.69
385.112	418.69
385.337	420.69
385.562	425.69
385.787	433.69
386.013	443.69
386.238	445.69
386.463	437.69
386.688	443.69
386.913	437.69
387.138	425.69
387.363	448.69
387.588	432.69
387.813	423.69
388.038	419.69
388.263	420.69
388.488	448.69
388.713	436.69
388.938	431.69
389.163	444.69
389.387	442.69
389.612	434.69
389.837	427.69
390.062	433.69
390.287	428.69
390.512	414.69
390.736	425.69
390.961	421.69
391.186	434.69
391.411	413.69
391.636	451.69
391.86	469.69
392.085	456.69
392.31	472.69
392.534	444.69
392.759	446.69
392.984	441.69
393.208	417.69
393.433	429.69
393.658	434.69
393.882	432.69
394.107	432.69
394.331	423.69
394.556	427.69
394.78	457.69
395.005	452.69
395.229	451.69
395.454	444.69
395.678	469.69
395.903	428.69
396.127	482.69
396.352	487.69
396.576	448.69
396.801	457.69
397.025	445.69
397.249	422.69
397.474	468.69
397.698	465.69
397.922	496.69
398.147	477.69
398.371	486.69
398.595	488.69
398.82	480.69
399.044	501.69
399.268	538.69
399.492	570.69
399.717	596.69
399.941	606.69
400.165	625.69
400.389	589.69
400.613	585.69
400.837	536.69
401.062	524.69
401.286	508.69
401.51	483.69
401.734	496.69
401.958	514.69
402.182	498.69
402.406	509.69
402.63	499.69
402.854	506.69
403.078	497.69
403.302	521.69
403.526	508.69
403.75	497.69
403.974	524.69
404.198	500.69
404.422	547.69
404.645	517.69
404.869	534.69
405.093	564.69
405.317	600.69
405.541	617.69
405.765	571.69
405.988	534.69
406.212	539.69
406.436	537.69
406.66	548.69
406.883	557.69
407.107	577.69
407.331	619.69
407.555	660.69
407.778	656.69
408.002	589.69
408.226	558.69
408.449	556.69
408.673	540.69
408.896	564.69
409.12	609.69
409.344	604.69
409.567	510.69
409.791	524.69
410.014	501.69
410.238	514.69
410.461	531.69
410.685	522.69
410.908	536.69
411.132	550.69
411.355	571.69
411.578	550.69
411.802	508.69
412.025	517.69
412.249	523.69
412.472	522.69
412.695	547.69
412.919	542.69
413.142	517.69
413.365	489.69
413.589	482.69
413.812	483.69
414.035	465.69
414.258	457.69
414.482	491.69
414.705	477.69
414.928	469.69
415.151	484.69
415.374	477.69
415.597	459.69
415.821	476.69
416.044	476.69
416.267	470.69
416.49	448.69
416.713	468.69
416.936	471.69
417.159	468.69
417.382	484.69
417.605	478.69
417.828	497.69
418.051	481.69
418.274	475.69
418.497	490.69
418.72	501.69
418.943	461.69
419.166	474.69
419.389	521.69
419.611	493.69
419.834	493.69
420.057	485.69
420.28	505.69
420.503	497.69
420.726	493.69
420.948	494.69
421.171	525.69
421.394	536.69
421.617	502.69
421.839	507.69
422.062	526.69
422.285	501.69
422.507	552.69
422.73	596.69
422.953	597.69
423.175	513.69
423.398	514.69
423.621	523.69
423.843	549.69
424.066	513.69
424.288	532.69
424.511	537.69
424.733	585.69
424.956	626.69
425.178	630.69
425.401	632.69
425.623	660.69
425.846	566.69
426.068	539.69
426.291	504.69
426.513	514.69
426.735	513.69
426.958	535.69
427.18	628.69
427.402	764.69
427.625	795.69
427.847	667.69
428.069	596.69
428.292	521.69
428.514	517.69
428.736	487.69
428.958	499.69
429.181	478.69
429.403	490.69
429.625	499.69
429.847	516.69
430.069	557.69
430.292	561.69
430.514	470.69
430.736	473.69
430.958	467.69
431.18	462.69
431.402	447.69
431.624	452.69
431.846	465.69
432.068	456.69
432.29	444.69
432.512	455.69
432.734	454.69
432.956	461.69
433.178	473.69
433.4	458.69
433.622	441.69
433.844	444.69
434.066	446.69
434.287	427.69
434.509	444.69
434.731	468.69
434.953	485.69
435.175	489.69
435.397	488.69
435.618	524.69
435.84	565.69
436.062	624.69
436.284	680.69
436.505	576.69
436.727	527.69
436.949	484.69
437.17	479.69
437.392	475.69
437.614	494.69
437.835	504.69
438.057	597.69
438.278	680.69
438.5	652.69
438.721	729.69
438.943	714.69
439.165	570.69
439.386	519.69
439.608	529.69
439.829	507.69
440.05	531.69
440.272	577.69
440.493	541.69
440.715	493.69
440.936	484.69
441.158	501.69
441.379	488.69
441.6	502.69
441.822	512.69
442.043	544.69
442.264	622.69
442.486	663.69
442.707	569.69
442.928	532.69
443.149	521.69
443.371	555.69
443.592	594.69
443.813	679.69
444.034	701.69
444.255	595.69
444.476	532.69
444.698	529.69
444.919	531.69
445.14	655.69
445.361	572.69
445.582	572.69
445.803	608.69
446.024	695.69
446.245	679.69
446.466	629.69
446.687	546.69
446.908	497.69
447.129	482.69
447.35	485.69
447.571	471.69
447.792	468.69
448.013	476.69
448.234	495.69
448.455	532.69
448.675	628.69
448.896	719.69
449.117	605.69
449.338	587.69
449.559	669.69
449.779	760.69
450	634.69
450.221	510.69
450.442	475.69
450.662	468.69
450.883	449.69
451.104	456.69
451.324	458.69
451.545	441.69
451.766	438.69
451.986	424.69
452.207	420.69
452.428	421.69
452.648	433.69
452.869	428.69
453.089	432.69
453.31	420.69
453.53	428.69
453.751	434.69
453.971	411.69
454.192	442.69
454.412	425.69
454.633	418.69
454.853	418.69
455.073	406.69
455.294	441.69
455.514	499.69
455.734	454.69
455.955	412.69
456.175	393.69
456.395	377.69
456.616	388.69
456.836	396.69
457.056	393.69
457.276	374.69
457.497	413.69
457.717	408.69
457.937	399.69
458.157	436.69
458.377	416.69
458.598	430.69
458.818	464.69
459.038	528.69
459.258	546.69
459.478	459.69
459.698	453.69
459.918	452.69
460.138	430.69
460.358	460.69
460.578	468.69
460.798	486.69
461.018	456.69
461.238	458.69
461.458	460.69
461.678	437.69
461.898	468.69
462.118	466.69
462.338	479.69
462.558	470.69
462.777	481.69
462.997	523.69
463.217	551.69
463.437	536.69
463.657	517.69
463.876	496.69
464.096	514.69
464.316	491.69
464.536	503.69
464.755	491.69
464.975	489.69
465.195	525.69
465.414	550.69
465.634	501.69
465.854	484.69
466.073	458.69
466.293	441.69
466.512	442.69
466.732	454.69
466.951	432.69
467.171	432.69
467.391	434.69
467.61	442.69
467.829	445.69
468.049	439.69
468.268	427.69
468.488	426.69
468.707	424.69
468.927	412.69
469.146	395.69
469.365	413.69
469.585	416.69
469.804	405.69
470.023	434.69
470.243	439.69
470.462	440.69
470.681	425.69
470.901	438.69
471.12	427.69
471.339	448.69
471.558	430.69
471.777	426.69
471.997	429.69
472.216	448.69
472.435	450.69
472.654	441.69
472.873	437.69
473.092	416.69
473.311	391.69
473.53	410.69
473.749	441.69
473.968	484.69
474.187	571.69
474.406	568.69
474.625	473.69
474.844	433.69
475.063	435.69
475.282	434.69
475.501	410.69
475.72	441.69
475.939	438.69
476.158	452.69
476.377	437.69
476.596	439.69
476.814	455.69
477.033	434.69
477.252	452.69
477.471	472.69
477.69	466.69
477.908	470.69
478.127	466.69
478.346	482.69
478.564	478.69
478.783	483.69
479.002	484.69
479.22	490.69
479.439	513.69
479.658	520.69
479.876	528.69
480.095	534.69
480.313	553.69
480.532	534.69
480.751	518.69
480.969	536.69
481.188	587.69
481.406	570.69
481.624	516.69
481.843	526.69
482.061	496.69
482.28	498.69
482.498	502.69
482.717	500.69
482.935	519.69
483.153	505.69
483.372	491.69
483.59	473.69
483.808	501.69
484.027	474.69
484.245	508.69
484.463	493.69
484.681	503.69
484.9	499.69
485.118	518.69
485.336	532.69
485.554	546.69
485.772	518.69
485.99	511.69
486.209	520.69
486.427	520.69
486.645	520.69
486.863	522.69
487.081	533.69
487.299	520.69
487.517	552.69
487.735	526.69
487.953	532.69
488.171	539.69
488.389	529.69
488.607	526.69
488.825	506.69
489.043	524.69
489.261	519.69
489.479	537.69
489.696	548.69
489.914	537.69
490.132	547.69
490.35	541.69
490.568	579.69
490.786	562.69
491.003	585.69
491.221	561.69
491.439	601.69
491.657	596.69
491.874	596.69
492.092	594.69
492.31	604.69
492.527	613.69
492.745	578.69
492.963	612.69
493.18	608.69
493.398	595.69
493.615	615.69
493.833	612.69
494.05	620.69
494.268	615.69
494.485	607.69
494.703	583.69
494.92	612.69
495.138	599.69
495.355	608.69
495.573	619.69
495.79	610.69
496.008	628.69
496.225	616.69
496.442	641.69
496.66	616.69
496.877	627.69
497.094	628.69
497.312	633.69
497.529	644.69
497.746	641.69
497.963	667.69
498.181	680.69
498.398	679.69
498.615	679.69
498.832	723.69
499.049	744.69
499.267	770.69
499.484	792.69
499.701	829.69
499.918	833.69
500.135	888.69
500.352	942.69
500.569	985.69
500.786	978.69
501.003	961.69
501.22	920.69
501.437	890.69
501.654	847.69
501.871	824.69
502.088	783.69
502.305	751.69
502.522	736.69
502.739	709.69
502.956	700.69
503.172	664.69
503.389	672.69
503.606	648.69
503.823	652.69
504.04	653.69
504.256	649.69
504.473	648.69
504.69	640.69
504.907	641.69
505.123	629.69
505.34	621.69
505.557	602.69
505.773	602.69
505.99	605.69
506.207	589.69
506.423	581.69
506.64	601.69
506.856	571.69
507.073	574.69
507.289	568.69
507.506	558.69
507.722	569.69
507.939	601.69
508.155	587.69
508.372	572.69
508.588	545.69
508.805	554.69
509.021	587.69
509.238	553.69
509.454	561.69
509.67	547.69
509.887	553.69
510.103	534.69
510.319	564.69
510.536	603.69
510.752	870.69
510.968	726.69
511.184	564.69
511.401	538.69
511.617	520.69
511.833	533.69
512.049	516.69
512.265	545.69
512.481	514.69
512.698	537.69
512.914	522.69
513.13	530.69
513.346	509.69
513.562	536.69
513.778	524.69
513.994	543.69
514.21	534.69
514.426	538.69
514.642	560.69
514.858	591.69
515.074	600.69
515.29	699.69
515.506	880.69
515.721	772.69
515.937	588.69
516.153	556.69
516.369	539.69
516.585	570.69
516.801	547.69
517.016	565.69
517.232	542.69
517.448	560.69
517.664	560.69
517.879	563.69
518.095	548.69
518.311	559.69
518.527	545.69
518.742	535.69
518.958	551.69
519.173	523.69
519.389	506.69
519.605	520.69
519.82	535.69
520.036	552.69
520.251	551.69
520.467	542.69
520.682	552.69
520.898	564.69
521.113	554.69
521.329	577.69
521.544	631.69
521.76	756.69
521.975	1129.69
522.19	1062.69
522.406	660.69
522.621	579.69
522.836	525.69
523.052	501.69
523.267	506.69
523.482	467.69
523.698	486.69
523.913	490.69
524.128	461.69
524.343	463.69
524.559	442.69
524.774	452.69
524.989	456.69
525.204	466.69
525.419	458.69
525.634	439.69
525.849	468.69
526.064	445.69
526.28	457.69
526.495	462.69
526.71	435.69
526.925	418.69
527.14	434.69
527.355	433.69
527.57	413.69
527.785	439.69
527.999	453.69
528.214	428.69
528.429	434.69
528.644	425.69
528.859	427.69
529.074	442.69
529.289	421.69
529.503	472.69
529.718	469.69
529.933	459.69
530.148	434.69
530.363	442.69
530.577	438.69
530.792	435.69
531.007	432.69
531.221	413.69
531.436	443.69
531.651	421.69
531.865	429.69
532.08	418.69
532.295	432.69
532.509	425.69
532.724	416.69
532.938	413.69
533.153	413.69
533.367	404.69
533.582	415.69
533.796	421.69
534.011	402.69
534.225	398.69
534.44	441.69
534.654	425.69
534.868	420.69
535.083	400.69
535.297	411.69
535.511	413.69
535.726	417.69
535.94	410.69
536.154	428.69
536.369	408.69
536.583	410.69
536.797	413.69
537.011	409.69
537.225	416.69
537.44	376.69
537.654	373.69
537.868	384.69
538.082	410.69
538.296	404.69
538.51	392.69
538.724	409.69
538.938	398.69
539.153	401.69
539.367	420.69
539.581	414.69
539.795	389.69
540.009	404.69
540.222	404.69
540.436	412.69
540.65	409.69
540.864	402.69
541.078	393.69
541.292	407.69
541.506	400.69
541.72	384.69
541.934	407.69
542.147	405.69
542.361	396.69
542.575	396.69
542.789	391.69
543.002	394.69
543.216	390.69
543.43	408.69
543.644	391.69
543.857	390.69
544.071	386.69
544.285	411.69
544.498	400.69
544.712	400.69
544.925	385.69
545.139	408.69
545.352	390.69
545.566	390.69
545.779	409.69
545.993	395.69
546.206	400.69
546.42	396.69
546.633	379.69
546.847	394.69
547.06	392.69
547.274	392.69
547.487	383.69
547.7	373.69
547.914	388.69
548.127	404.69
548.34	396.69
548.554	382.69
548.767	380.69
548.98	379.69
549.193	380.69
549.407	369.69
549.62	392.69
549.833	386.69
550.046	383.69
550.259	362.69
550.473	392.69
550.686	376.69
550.899	369.69
551.112	412.69
551.325	382.69
551.538	364.69
551.751	380.69
551.964	385.69
552.177	380.69
552.39	382.69
552.603	392.69
552.816	381.69
553.029	385.69
553.242	379.69
553.455	393.69
553.667	393.69
553.88	392.69
554.093	402.69
554.306	398.69
554.519	380.69
554.732	384.69
554.944	376.69
555.157	384.69
555.37	366.69
555.583	348.69
555.795	360.69
556.008	371.69
556.221	352.69
556.433	350.69
556.646	355.69
556.859	353.69
557.071	358.69
557.284	360.69
557.496	353.69
557.709	355.69
557.921	352.69
558.134	340.69
558.346	363.69
558.559	349.69
558.771	331.69
558.984	337.69
559.196	348.69
559.409	322.69
559.621	335.69
559.833	333.69
560.046	333.69
560.258	342.69
560.47	322.69
560.683	326.69
560.895	353.69
561.107	325.69
561.32	346.69
561.532	350.69
561.744	355.69
561.956	331.69
562.168	341.69
562.381	362.69
562.593	352.69
562.805	356.69
563.017	341.69
563.229	354.69
563.441	348.69
563.653	360.69
563.865	353.69
564.077	355.69
564.289	350.69
564.501	368.69
564.713	360.69
564.925	359.69
565.137	374.69
565.349	384.69
565.561	368.69
565.773	399.69
565.985	388.69
566.197	386.69
566.408	395.69
566.62	426.69
566.832	425.69
567.044	450.69
567.255	437.69
567.467	469.69
567.679	439.69
567.891	483.69
568.102	483.69
568.314	480.69
568.526	424.69
568.737	412.69
568.949	385.69
569.161	385.69
569.372	375.69
569.584	368.69
569.795	347.69
570.007	368.69
570.218	369.69
570.43	364.69
570.641	354.69
570.853	341.69
571.064	350.69
571.276	343.69
571.487	362.69
571.698	347.69
571.91	341.69
572.121	333.69
572.333	310.69
572.544	325.69
572.755	320.69
572.966	326.69
573.178	302.69
573.389	288.69
573.6	307.69
573.811	302.69
574.023	283.69
574.234	291.69
574.445	288.69
574.656	306.69
574.867	336.69
575.078	308.69
575.289	317.69
575.501	294.69
575.712	297.69
575.923	276.69
576.134	270.69
576.345	267.69
576.556	267.69
576.767	286.69
576.978	260.69
577.188	302.69
577.399	287.69
577.61	293.69
577.821	281.69
578.032	278.69
578.243	311.69
578.454	428.69
578.665	341.69
578.875	282.69
579.086	275.69
579.297	292.69
579.508	268.69
579.718	295.69
579.929	267.69
580.14	278.69
580.35	272.69
580.561	277.69
580.772	278.69
580.982	267.69
581.193	272.69
581.403	284.69
581.614	281.69
581.825	272.69
582.035	269.69
582.246	290.69
582.456	262.69
582.667	261.69
582.877	267.69
583.087	270.69
583.298	257.69
583.508	262.69
583.719	260.69
583.929	274.69
584.139	254.69
584.35	260.69
584.56	261.69
584.77	257.69
584.981	256.69
585.191	259.69
585.401	271.69
585.611	262.69
585.821	246.69
586.032	256.69
586.242	259.69
586.452	270.69
586.662	252.69
586.872	256.69
587.082	252.69
587.292	249.69
587.502	235.69
587.713	267.69
587.923	266.69
588.133	257.69
588.343	230.69
588.553	249.69
588.762	271.69
588.972	252.69
589.182	249.69
589.392	253.69
589.602	266.69
589.812	264.69
590.022	247.69
590.232	251.69
590.441	246.69
590.651	261.69
590.861	253.69
591.071	245.69
591.281	264.69
591.49	250.69
591.7	281.69
591.91	283.69
592.119	269.69
592.329	290.69
592.539	288.69
592.748	277.69
592.958	279.69
593.167	287.69
593.377	269.69
593.587	295.69
593.796	266.69
594.006	282.69
594.215	280.69
594.424	283.69
594.634	308.69
594.843	270.69
595.053	262.69
595.262	277.69
595.472	274.69
595.681	288.69
595.89	254.69
596.1	249.69
596.309	246.69
596.518	244.69
596.727	242.69
596.937	232.69
597.146	246.69
597.355	233.69
597.564	228.69
597.774	256.69
597.983	241.69
598.192	222.69
598.401	222.69
598.61	215.69
598.819	230.69
599.028	221.69
599.237	222.69
599.446	223.69
599.655	228.69
599.864	228.69
600.073	249.69
600.282	229.69
600.491	247.69
600.7	216.69
600.909	243.69
601.118	226.69
601.327	208.69
601.536	225.69
601.745	240.69
601.953	218.69
602.162	236.69
602.371	199.69
602.58	219.69
602.789	213.69
602.997	217.69
603.206	238.69
603.415	207.69
603.623	226.69
603.832	214.69
604.041	221.69
604.249	210.69
604.458	217.69
604.666	199.69
604.875	208.69
605.084	218.69
605.292	229.69
605.501	229.69
605.709	232.69
605.918	229.69
606.126	221.69
606.334	208.69
606.543	214.69
606.751	223.69
606.96	218.69
607.168	204.69
607.376	199.69
607.585	215.69
607.793	220.69
608.001	203.69
608.21	214.69
608.418	233.69
608.626	218.69
608.834	224.69
609.043	226.69
609.251	216.69
609.459	220.69
609.667	217.69
609.875	203.69
610.083	206.69
610.291	225.69
610.499	215.69
610.707	210.69
610.916	209.69
611.124	222.69
611.332	212.69
611.54	232.69
611.748	218.69
611.955	207.69
612.163	223.69
612.371	225.69
612.579	204.69
612.787	212.69
612.995	206.69
613.203	206.69
613.411	210.69
613.618	204.69
613.826	210.69
614.034	216.69
614.242	192.69
614.449	199.69
614.657	206.69
614.865	207.69
615.072	201.69
615.28	204.69
615.488	208.69
615.695	222.69
615.903	201.69
616.111	203.69
616.318	211.69
616.526	204.69
616.733	223.69
616.941	219.69
617.148	203.69
617.356	211.69
617.563	194.69
617.771	213.69
617.978	187.69
618.185	217.69
618.393	197.69
618.6	216.69
618.807	188.69
619.015	200.69
619.222	186.69
619.429	198.69
619.637	188.69
619.844	186.69
620.051	215.69
620.258	201.69
620.466	202.69
620.673	200.69
620.88	186.69
621.087	194.69
621.294	173.69
621.501	188.69
621.708	200.69
621.915	213.69
622.122	212.69
622.329	202.69
622.536	207.69
622.743	219.69
622.95	178.69
623.157	192.69
623.364	198.69
623.571	185.69
623.778	191.69
623.985	195.69
624.192	174.69
624.399	196.69
624.606	186.69
624.812	178.69
625.019	197.69
625.226	174.69
625.433	186.69
625.639	201.69
625.846	189.69
626.053	198.69
626.259	177.69
626.466	179.69
626.673	178.69
626.879	173.69
627.086	192.69
627.293	173.69
627.499	171.69
627.706	176.69
627.912	182.69
628.119	195.69
628.325	180.69
628.532	172.69
628.738	172.69
628.945	176.69
629.151	176.69
629.357	173.69
629.564	178.69
629.77	176.69
629.976	174.69
630.183	166.69
630.389	164.69
630.595	182.69
630.802	180.69
631.008	170.69
631.214	175.69
631.42	171.69
631.627	170.69
631.833	170.69
632.039	179.69
632.245	151.69
632.451	174.69
632.657	156.69
632.863	164.69
633.069	174.69
633.275	167.69
633.481	168.69
633.688	177.69
633.893	174.69
634.099	161.69
634.305	172.69
634.511	171.69
634.717	176.69
634.923	179.69
635.129	168.69
635.335	166.69
635.541	152.69
635.747	138.69
635.952	157.69
636.158	175.69
636.364	161.69
636.57	165.69
636.775	164.69
636.981	148.69
637.187	154.69
637.392	170.69
637.598	161.69
637.804	152.69
638.009	156.69
638.215	167.69
638.421	161.69
638.626	160.69
638.832	166.69
639.037	161.69
639.243	143.69
639.448	166.69
639.654	140.69
639.859	136.69
640.065	161.69
640.27	157.69
640.475	157.69
640.681	160.69
640.886	147.69
641.091	151.69
641.297	158.69
641.502	146.69
641.707	155.69
641.913	150.69
642.118	155.69
642.323	148.69
642.528	165.69
642.733	154.69
642.939	147.69
643.144	148.69
643.349	143.69
643.554	139.69
643.759	156.69
643.964	136.69
644.169	160.69
644.374	157.69
644.579	164.69
644.784	172.69
644.989	154.69
645.194	160.69
645.399	144.69
645.604	156.69
645.809	143.69
646.014	156.69
646.219	156.69
646.423	165.69
646.628	162.69
646.833	159.69
647.038	165.69
647.243	140.69
647.447	140.69
647.652	164.69
647.857	153.69
648.062	146.69
648.266	153.69
648.471	151.69
648.676	159.69
648.88	144.69
649.085	158.69
649.289	161.69
649.494	164.69
649.698	165.69
649.903	176.69
650.107	160.69
650.312	164.69
650.516	154.69
650.721	143.69
650.925	146.69
651.13	138.69
651.334	143.69
651.539	148.69
651.743	145.69
651.947	136.69
652.152	141.69
652.356	120.69
652.56	130.69
652.764	128.69
652.969	150.69
653.173	142.69
653.377	131.69
653.581	132.69
653.785	119.69
653.99	130.69
654.194	134.69
654.398	132.69
654.602	133.69
654.806	117.69
655.01	132.69
655.214	118.69
655.418	137.69
655.622	125.69
655.826	132.69
656.03	126.69
656.234	112.69
656.438	126.69
656.642	141.69
656.846	128.69
657.049	124.69
657.253	122.69
657.457	120.69
657.661	107.69
657.865	106.69
658.068	112.69
658.272	97.69
658.476	109.69
658.68	94.69
658.883	101.69
659.087	104.69
659.291	103.69
659.494	109.69
659.698	94.69
659.901	97.69
660.105	84.69
660.309	88.69
660.512	89.69
660.716	95.69
660.919	90.69
661.123	80.69
661.326	84.69
661.53	91.69
661.733	79.69
661.936	92.69
662.14	86.69
662.343	91.69
662.546	91.69
662.75	88.69
662.953	93.69
663.156	86.69
663.36	97.69
663.563	77.69
663.766	81.69
663.969	88.69
664.173	77.69
664.376	78.69
664.579	72.69
664.782	71.69
664.985	98.69
665.188	89.69
665.391	81.69
665.594	72.69
665.797	73.69
666	76.69
666.203	96.69
666.406	83.69
666.609	78.69
666.812	82.69
667.015	83.69
667.218	75.69
667.421	77.69
667.624	88.69
667.827	87.69
668.03	88.69
668.232	80.69
668.435	80.69
668.638	97.69
668.841	82.69
669.043	76.69
669.246	86.69
669.449	86.69
669.651	85.69
669.854	66.69
670.057	72.69
670.259	73.69
670.462	76.69
670.665	74.69
670.867	95.69
671.07	93.69
671.272	78.69
671.475	111.69
671.677	77.69
671.88	76.69
672.082	92.69
672.284	72.69
672.487	71.69
672.689	81.69
672.892	77.69
