Data from 1977.PennyLincolnUp.Lamp.En5.5.200Scan.071719.P1_HRD10591_16-07-09-865.txt Node
Date: Thu Jul 18 16:07:09 EDT 2019
User: cochatt
Spectrometer: HR+D1059
Trigger mode: 1
Integration Time (sec): 1.000000E-1
Scans to average: 1
Electric dark correction enabled: true
Nonlinearity correction enabled: false
Boxcar width: 0
XAxis mode: Wavelengths
Number of Pixels in Spectrum: 2048
>>>>>Begin Spectral Data<<<<<
223.165	-22.94
223.4	-22.94
223.635	-22.94
223.869	-5.94
224.104	-12.94
224.338	-22.94
224.573	-13.94
224.808	-11.94
225.042	-6.94
225.277	-4.94
225.511	-2.94
225.746	-6.94
225.98	3.06
226.215	6.06
226.449	21.06
226.683	18.06
226.918	25.06
227.152	39.06
227.387	27.06
227.621	51.06
227.856	51.06
228.09	44.06
228.324	51.06
228.559	71.06
228.793	57.06
229.027	77.06
229.262	97.06
229.496	105.06
229.73	108.06
229.964	144.06
230.199	138.06
230.433	107.06
230.667	101.06
230.901	99.06
231.136	120.06
231.37	113.06
231.604	115.06
231.838	102.06
232.072	120.06
232.306	121.06
232.541	114.06
232.775	103.06
233.009	125.06
233.243	115.06
233.477	111.06
233.711	110.06
233.945	114.06
234.179	119.06
234.413	123.06
234.647	116.06
234.881	112.06
235.115	99.06
235.349	113.06
235.583	94.06
235.817	105.06
236.051	133.06
236.285	124.06
236.519	117.06
236.753	118.06
236.987	149.06
237.221	164.06
237.455	213.06
237.689	183.06
237.922	135.06
238.156	127.06
238.39	122.06
238.624	108.06
238.858	133.06
239.091	119.06
239.325	120.06
239.559	127.06
239.793	133.06
240.027	138.06
240.26	134.06
240.494	156.06
240.728	135.06
240.961	140.06
241.195	149.06
241.429	143.06
241.662	139.06
241.896	120.06
242.13	119.06
242.363	130.06
242.597	129.06
242.83	131.06
243.064	142.06
243.298	144.06
243.531	127.06
243.765	133.06
243.998	139.06
244.232	130.06
244.465	140.06
244.699	132.06
244.932	139.06
245.166	150.06
245.399	156.06
245.633	153.06
245.866	141.06
246.099	156.06
246.333	133.06
246.566	141.06
246.8	151.06
247.033	155.06
247.266	165.06
247.5	158.06
247.733	155.06
247.966	174.06
248.2	171.06
248.433	163.06
248.666	175.06
248.899	166.06
249.133	188.06
249.366	199.06
249.599	190.06
249.832	177.06
250.066	173.06
250.299	179.06
250.532	193.06
250.765	223.06
250.998	233.06
251.231	214.06
251.465	201.06
251.698	208.06
251.931	204.06
252.164	207.06
252.397	189.06
252.63	208.06
252.863	206.06
253.096	213.06
253.329	215.06
253.562	205.06
253.795	216.06
254.028	217.06
254.261	210.06
254.494	234.06
254.727	249.06
254.96	254.06
255.193	275.06
255.426	244.06
255.659	216.06
255.892	222.06
256.124	218.06
256.357	221.06
256.59	212.06
256.823	220.06
257.056	217.06
257.289	202.06
257.521	213.06
257.754	199.06
257.987	215.06
258.22	217.06
258.452	211.06
258.685	219.06
258.918	198.06
259.151	218.06
259.383	212.06
259.616	230.06
259.849	232.06
260.081	237.06
260.314	257.06
260.547	238.06
260.779	229.06
261.012	233.06
261.244	227.06
261.477	245.06
261.71	221.06
261.942	207.06
262.175	234.06
262.407	233.06
262.64	218.06
262.872	219.06
263.105	224.06
263.337	229.06
263.57	207.06
263.802	213.06
264.035	229.06
264.267	238.06
264.499	223.06
264.732	207.06
264.964	216.06
265.197	209.06
265.429	230.06
265.661	217.06
265.894	220.06
266.126	222.06
266.358	206.06
266.591	234.06
266.823	228.06
267.055	233.06
267.287	233.06
267.52	242.06
267.752	249.06
267.984	242.06
268.216	215.06
268.448	226.06
268.681	241.06
268.913	261.06
269.145	259.06
269.377	288.06
269.609	298.06
269.841	272.06
270.073	276.06
270.306	307.06
270.538	313.06
270.77	309.06
271.002	320.06
271.234	299.06
271.466	310.06
271.698	322.06
271.93	319.06
272.162	319.06
272.394	308.06
272.626	296.06
272.858	300.06
273.09	293.06
273.322	285.06
273.553	285.06
273.785	256.06
274.017	258.06
274.249	263.06
274.481	262.06
274.713	275.06
274.945	281.06
275.176	273.06
275.408	291.06
275.64	292.06
275.872	267.06
276.104	283.06
276.335	283.06
276.567	278.06
276.799	277.06
277.031	300.06
277.262	318.06
277.494	312.06
277.726	337.06
277.957	285.06
278.189	291.06
278.421	289.06
278.652	276.06
278.884	271.06
279.115	292.06
279.347	277.06
279.579	282.06
279.81	277.06
280.042	281.06
280.273	291.06
280.505	285.06
280.736	286.06
280.968	276.06
281.199	273.06
281.431	276.06
281.662	275.06
281.894	288.06
282.125	285.06
282.356	298.06
282.588	310.06
282.819	311.06
283.051	296.06
283.282	289.06
283.513	285.06
283.745	292.06
283.976	314.06
284.207	299.06
284.439	291.06
284.67	310.06
284.901	292.06
285.132	285.06
285.364	291.06
285.595	307.06
285.826	306.06
286.057	295.06
286.288	296.06
286.52	295.06
286.751	316.06
286.982	285.06
287.213	295.06
287.444	335.06
287.675	297.06
287.906	317.06
288.138	317.06
288.369	316.06
288.6	307.06
288.831	305.06
289.062	308.06
289.293	327.06
289.524	293.06
289.755	310.06
289.986	310.06
290.217	301.06
290.448	303.06
290.679	321.06
290.91	313.06
291.141	314.06
291.371	312.06
291.602	308.06
291.833	313.06
292.064	333.06
292.295	325.06
292.526	316.06
292.757	311.06
292.987	297.06
293.218	301.06
293.449	309.06
293.68	319.06
293.91	316.06
294.141	326.06
294.372	310.06
294.603	316.06
294.833	301.06
295.064	296.06
295.295	326.06
295.525	325.06
295.756	310.06
295.987	334.06
296.217	330.06
296.448	317.06
296.679	319.06
296.909	299.06
297.14	322.06
297.37	334.06
297.601	322.06
297.831	333.06
298.062	348.06
298.292	334.06
298.523	335.06
298.753	323.06
298.984	351.06
299.214	334.06
299.445	318.06
299.675	317.06
299.905	349.06
300.136	323.06
300.366	325.06
300.597	353.06
300.827	339.06
301.057	357.06
301.288	342.06
301.518	352.06
301.748	349.06
301.979	354.06
302.209	347.06
302.439	344.06
302.669	346.06
302.9	355.06
303.13	346.06
303.36	358.06
303.59	370.06
303.82	357.06
304.051	375.06
304.281	347.06
304.511	350.06
304.741	345.06
304.971	356.06
305.201	369.06
305.431	362.06
305.661	345.06
305.891	363.06
306.121	347.06
306.352	357.06
306.582	347.06
306.812	356.06
307.042	348.06
307.272	353.06
307.502	365.06
307.731	360.06
307.961	381.06
308.191	365.06
308.421	357.06
308.651	352.06
308.881	361.06
309.111	369.06
309.341	355.06
309.571	371.06
309.8	373.06
310.03	397.06
310.26	381.06
310.49	386.06
310.72	382.06
310.949	416.06
311.179	379.06
311.409	390.06
311.639	384.06
311.868	389.06
312.098	378.06
312.328	395.06
312.557	417.06
312.787	414.06
313.017	429.06
313.246	395.06
313.476	376.06
313.706	386.06
313.935	406.06
314.165	405.06
314.394	419.06
314.624	412.06
314.853	393.06
315.083	394.06
315.312	400.06
315.542	391.06
315.771	384.06
316.001	397.06
316.23	393.06
316.46	391.06
316.689	398.06
316.919	407.06
317.148	390.06
317.377	411.06
317.607	402.06
317.836	415.06
318.065	424.06
318.295	413.06
318.524	399.06
318.753	389.06
318.983	384.06
319.212	409.06
319.441	405.06
319.67	420.06
319.9	406.06
320.129	395.06
320.358	402.06
320.587	385.06
320.816	390.06
321.046	422.06
321.275	424.06
321.504	417.06
321.733	433.06
321.962	423.06
322.191	435.06
322.42	440.06
322.649	449.06
322.878	449.06
323.108	461.06
323.337	477.06
323.566	492.06
323.795	524.06
324.024	540.06
324.253	662.06
324.482	851.06
324.71	1289.06
324.939	1819.06
325.168	1548.06
325.397	828.06
325.626	588.06
325.855	552.06
326.084	475.06
326.313	486.06
326.542	484.06
326.77	522.06
326.999	613.06
327.228	811.06
327.457	1191.06
327.686	1359.06
327.914	925.06
328.143	636.06
328.372	573.06
328.6	543.06
328.829	518.06
329.058	525.06
329.287	536.06
329.515	558.06
329.744	505.06
329.972	485.06
330.201	509.06
330.43	521.06
330.658	533.06
330.887	575.06
331.115	558.06
331.344	501.06
331.572	490.06
331.801	493.06
332.03	500.06
332.258	490.06
332.486	486.06
332.715	495.06
332.943	494.06
333.172	477.06
333.4	492.06
333.629	467.06
333.857	507.06
334.085	513.06
334.314	502.06
334.542	522.06
334.771	561.06
334.999	507.06
335.227	499.06
335.455	479.06
335.684	485.06
335.912	448.06
336.14	456.06
336.369	470.06
336.597	471.06
336.825	465.06
337.053	441.06
337.281	462.06
337.51	437.06
337.738	462.06
337.966	479.06
338.194	462.06
338.422	451.06
338.65	451.06
338.878	461.06
339.106	443.06
339.334	433.06
339.562	439.06
339.79	427.06
340.018	429.06
340.246	451.06
340.474	430.06
340.702	427.06
340.93	431.06
341.158	447.06
341.386	440.06
341.614	458.06
341.842	457.06
342.07	428.06
342.298	441.06
342.526	428.06
342.754	455.06
342.981	413.06
343.209	443.06
343.437	461.06
343.665	458.06
343.893	454.06
344.12	460.06
344.348	471.06
344.576	477.06
344.804	437.06
345.031	437.06
345.259	467.06
345.487	448.06
345.714	456.06
345.942	452.06
346.17	426.06
346.397	413.06
346.625	411.06
346.853	412.06
347.08	413.06
347.308	411.06
347.535	422.06
347.763	406.06
347.99	410.06
348.218	435.06
348.445	415.06
348.673	430.06
348.9	410.06
349.128	403.06
349.355	407.06
349.583	415.06
349.81	394.06
350.037	419.06
350.265	403.06
350.492	393.06
350.72	405.06
350.947	431.06
351.174	423.06
351.402	421.06
351.629	420.06
351.856	433.06
352.083	440.06
352.311	427.06
352.538	403.06
352.765	423.06
352.992	407.06
353.22	431.06
353.447	416.06
353.674	399.06
353.901	385.06
354.128	381.06
354.355	391.06
354.583	391.06
354.81	386.06
355.037	396.06
355.264	400.06
355.491	375.06
355.718	378.06
355.945	393.06
356.172	383.06
356.399	372.06
356.626	372.06
356.853	356.06
357.08	385.06
357.307	373.06
357.534	387.06
357.761	399.06
357.988	397.06
358.215	412.06
358.441	394.06
358.668	415.06
358.895	413.06
359.122	374.06
359.349	398.06
359.576	407.06
359.802	427.06
360.029	431.06
360.256	434.06
360.483	427.06
360.709	407.06
360.936	419.06
361.163	391.06
361.39	380.06
361.616	418.06
361.843	382.06
362.07	395.06
362.296	398.06
362.523	412.06
362.749	418.06
362.976	409.06
363.203	393.06
363.429	394.06
363.656	389.06
363.882	415.06
364.109	399.06
364.335	402.06
364.562	391.06
364.788	393.06
365.015	401.06
365.241	403.06
365.468	385.06
365.694	401.06
365.92	394.06
366.147	397.06
366.373	396.06
366.599	379.06
366.826	373.06
367.052	386.06
367.278	389.06
367.505	392.06
367.731	385.06
367.957	395.06
368.184	406.06
368.41	389.06
368.636	385.06
368.862	414.06
369.089	415.06
369.315	410.06
369.541	387.06
369.767	382.06
369.993	388.06
370.219	403.06
370.445	392.06
370.672	385.06
370.898	398.06
371.124	381.06
371.35	394.06
371.576	395.06
371.802	395.06
372.028	395.06
372.254	380.06
372.48	393.06
372.706	389.06
372.932	398.06
373.158	403.06
373.384	426.06
373.61	389.06
373.835	386.06
374.061	380.06
374.287	396.06
374.513	419.06
374.739	389.06
374.965	412.06
375.191	394.06
375.416	407.06
375.642	402.06
375.868	399.06
376.094	385.06
376.319	377.06
376.545	406.06
376.771	391.06
376.997	374.06
377.222	413.06
377.448	376.06
377.674	401.06
377.899	391.06
378.125	376.06
378.35	380.06
378.576	384.06
378.802	399.06
379.027	410.06
379.253	360.06
379.478	379.06
379.704	369.06
379.929	373.06
380.155	380.06
380.38	393.06
380.606	389.06
380.831	382.06
381.057	409.06
381.282	397.06
381.507	377.06
381.733	407.06
381.958	398.06
382.184	401.06
382.409	403.06
382.634	389.06
382.86	409.06
383.085	393.06
383.31	411.06
383.535	411.06
383.761	411.06
383.986	393.06
384.211	395.06
384.436	422.06
384.662	401.06
384.887	433.06
385.112	422.06
385.337	401.06
385.562	433.06
385.787	426.06
386.013	427.06
386.238	441.06
386.463	429.06
386.688	426.06
386.913	419.06
387.138	424.06
387.363	433.06
387.588	430.06
387.813	431.06
388.038	426.06
388.263	435.06
388.488	434.06
388.713	443.06
388.938	423.06
389.163	433.06
389.387	439.06
389.612	439.06
389.837	426.06
390.062	418.06
390.287	424.06
390.512	430.06
390.736	429.06
390.961	429.06
391.186	431.06
391.411	433.06
391.636	428.06
391.86	429.06
392.085	450.06
392.31	455.06
392.534	453.06
392.759	451.06
392.984	423.06
393.208	409.06
393.433	437.06
393.658	410.06
393.882	415.06
394.107	418.06
394.331	438.06
394.556	439.06
394.78	439.06
395.005	429.06
395.229	437.06
395.454	453.06
395.678	436.06
395.903	459.06
396.127	460.06
396.352	459.06
396.576	449.06
396.801	436.06
397.025	431.06
397.249	462.06
397.474	479.06
397.698	444.06
397.922	462.06
398.147	454.06
398.371	475.06
398.595	477.06
398.82	482.06
399.044	497.06
399.268	530.06
399.492	526.06
399.717	591.06
399.941	598.06
400.165	616.06
400.389	620.06
400.613	573.06
400.837	498.06
401.062	501.06
401.286	513.06
401.51	492.06
401.734	493.06
401.958	473.06
402.182	474.06
402.406	516.06
402.63	516.06
402.854	475.06
403.078	503.06
403.302	503.06
403.526	510.06
403.75	532.06
403.974	498.06
404.198	505.06
404.422	514.06
404.645	486.06
404.869	525.06
405.093	553.06
405.317	570.06
405.541	603.06
405.765	555.06
405.988	523.06
406.212	545.06
406.436	535.06
406.66	569.06
406.883	543.06
407.107	569.06
407.331	607.06
407.555	653.06
407.778	648.06
408.002	595.06
408.226	569.06
408.449	571.06
408.673	576.06
408.896	577.06
409.12	597.06
409.344	573.06
409.567	524.06
409.791	503.06
410.014	519.06
410.238	501.06
410.461	463.06
410.685	493.06
410.908	501.06
411.132	554.06
411.355	569.06
411.578	536.06
411.802	504.06
412.025	492.06
412.249	476.06
412.472	529.06
412.695	565.06
412.919	531.06
413.142	499.06
413.365	481.06
413.589	483.06
413.812	460.06
414.035	477.06
414.258	468.06
414.482	465.06
414.705	464.06
414.928	478.06
415.151	482.06
415.374	475.06
415.597	455.06
415.821	470.06
416.044	474.06
416.267	484.06
416.49	477.06
416.713	464.06
416.936	469.06
417.159	453.06
417.382	476.06
417.605	471.06
417.828	460.06
418.051	456.06
418.274	463.06
418.497	460.06
418.72	466.06
418.943	457.06
419.166	508.06
419.389	505.06
419.611	510.06
419.834	497.06
420.057	512.06
420.28	503.06
420.503	493.06
420.726	490.06
420.948	529.06
421.171	508.06
421.394	533.06
421.617	491.06
421.839	492.06
422.062	474.06
422.285	496.06
422.507	553.06
422.73	609.06
422.953	602.06
423.175	513.06
423.398	502.06
423.621	508.06
423.843	514.06
424.066	538.06
424.288	525.06
424.511	529.06
424.733	570.06
424.956	638.06
425.178	620.06
425.401	611.06
425.623	609.06
425.846	554.06
426.068	507.06
426.291	506.06
426.513	489.06
426.735	545.06
426.958	547.06
427.18	622.06
427.402	718.06
427.625	788.06
427.847	683.06
428.069	594.06
428.292	560.06
428.514	495.06
428.736	484.06
428.958	465.06
429.181	479.06
429.403	462.06
429.625	466.06
429.847	489.06
430.069	528.06
430.292	567.06
430.514	503.06
430.736	484.06
430.958	459.06
431.18	447.06
431.402	451.06
431.624	451.06
431.846	427.06
432.068	449.06
432.29	469.06
432.512	446.06
432.734	453.06
432.956	447.06
433.178	468.06
433.4	474.06
433.622	455.06
433.844	437.06
434.066	461.06
434.287	468.06
434.509	450.06
434.731	463.06
434.953	486.06
435.175	505.06
435.397	499.06
435.618	514.06
435.84	546.06
436.062	613.06
436.284	669.06
436.505	572.06
436.727	516.06
436.949	468.06
437.17	475.06
437.392	478.06
437.614	483.06
437.835	500.06
438.057	577.06
438.278	651.06
438.5	683.06
438.721	705.06
438.943	697.06
439.165	585.06
439.386	517.06
439.608	519.06
439.829	514.06
440.05	542.06
440.272	561.06
440.493	515.06
440.715	485.06
440.936	475.06
441.158	466.06
441.379	466.06
441.6	485.06
441.822	503.06
442.043	529.06
442.264	613.06
442.486	623.06
442.707	536.06
442.928	512.06
443.149	536.06
443.371	525.06
443.592	575.06
443.813	641.06
444.034	685.06
444.255	578.06
444.476	543.06
444.698	541.06
444.919	532.06
445.14	647.06
445.361	581.06
445.582	547.06
445.803	574.06
446.024	691.06
446.245	669.06
446.466	626.06
446.687	538.06
446.908	492.06
447.129	476.06
447.35	467.06
447.571	461.06
447.792	459.06
448.013	457.06
448.234	464.06
448.455	510.06
448.675	604.06
448.896	694.06
449.117	603.06
449.338	556.06
449.559	662.06
449.779	783.06
450	591.06
450.221	493.06
450.442	470.06
450.662	458.06
450.883	437.06
451.104	460.06
451.324	419.06
451.545	414.06
451.766	424.06
451.986	412.06
452.207	429.06
452.428	420.06
452.648	411.06
452.869	400.06
453.089	385.06
453.31	412.06
453.53	420.06
453.751	410.06
453.971	426.06
454.192	436.06
454.412	400.06
454.633	415.06
454.853	421.06
455.073	387.06
455.294	431.06
455.514	485.06
455.734	468.06
455.955	427.06
456.175	402.06
456.395	391.06
456.616	381.06
456.836	363.06
457.056	377.06
457.276	365.06
457.497	380.06
457.717	401.06
457.937	386.06
458.157	389.06
458.377	424.06
458.598	429.06
458.818	463.06
459.038	525.06
459.258	547.06
459.478	474.06
459.698	460.06
459.918	437.06
460.138	437.06
460.358	456.06
460.578	451.06
460.798	457.06
461.018	478.06
461.238	451.06
461.458	453.06
461.678	459.06
461.898	451.06
462.118	452.06
462.338	490.06
462.558	460.06
462.777	482.06
462.997	501.06
463.217	513.06
463.437	526.06
463.657	495.06
463.876	471.06
464.096	488.06
464.316	480.06
464.536	478.06
464.755	502.06
464.975	476.06
465.195	499.06
465.414	545.06
465.634	478.06
465.854	441.06
466.073	429.06
466.293	441.06
466.512	398.06
466.732	421.06
466.951	408.06
467.171	426.06
467.391	419.06
467.61	437.06
467.829	428.06
468.049	423.06
468.268	436.06
468.488	409.06
468.707	401.06
468.927	403.06
469.146	421.06
469.365	401.06
469.585	401.06
469.804	435.06
470.023	421.06
470.243	431.06
470.462	424.06
470.681	441.06
470.901	432.06
471.12	415.06
471.339	431.06
471.558	425.06
471.777	453.06
471.997	418.06
472.216	434.06
472.435	436.06
472.654	411.06
472.873	416.06
473.092	399.06
473.311	422.06
473.53	424.06
473.749	442.06
473.968	468.06
474.187	538.06
474.406	569.06
474.625	462.06
474.844	429.06
475.063	451.06
475.282	428.06
475.501	417.06
475.72	428.06
475.939	417.06
476.158	423.06
476.377	424.06
476.596	440.06
476.814	433.06
477.033	459.06
477.252	427.06
477.471	454.06
477.69	467.06
477.908	482.06
478.127	463.06
478.346	458.06
478.564	489.06
478.783	484.06
479.002	472.06
479.22	497.06
479.439	474.06
479.658	509.06
479.876	490.06
480.095	516.06
480.313	545.06
480.532	542.06
480.751	516.06
480.969	533.06
481.188	554.06
481.406	557.06
481.624	536.06
481.843	497.06
482.061	511.06
482.28	500.06
482.498	501.06
482.717	515.06
482.935	497.06
483.153	473.06
483.372	485.06
483.59	490.06
483.808	509.06
484.027	477.06
484.245	502.06
484.463	483.06
484.681	483.06
484.9	500.06
485.118	507.06
485.336	492.06
485.554	487.06
485.772	484.06
485.99	504.06
486.209	494.06
486.427	510.06
486.645	501.06
486.863	534.06
487.081	528.06
487.299	526.06
487.517	519.06
487.735	510.06
487.953	513.06
488.171	519.06
488.389	541.06
488.607	522.06
488.825	503.06
489.043	526.06
489.261	538.06
489.479	530.06
489.696	524.06
489.914	534.06
490.132	524.06
490.35	527.06
490.568	550.06
490.786	553.06
491.003	556.06
491.221	541.06
491.439	561.06
491.657	558.06
491.874	577.06
492.092	577.06
492.31	585.06
492.527	581.06
492.745	604.06
492.963	598.06
493.18	610.06
493.398	623.06
493.615	605.06
493.833	602.06
494.05	594.06
494.268	597.06
494.485	594.06
494.703	589.06
494.92	587.06
495.138	581.06
495.355	590.06
495.573	615.06
495.79	614.06
496.008	605.06
496.225	615.06
496.442	642.06
496.66	641.06
496.877	636.06
497.094	629.06
497.312	632.06
497.529	644.06
497.746	645.06
497.963	675.06
498.181	676.06
498.398	660.06
498.615	689.06
498.832	702.06
499.049	757.06
499.267	777.06
499.484	790.06
499.701	790.06
499.918	849.06
500.135	893.06
500.352	946.06
500.569	958.06
500.786	971.06
501.003	926.06
501.22	927.06
501.437	877.06
501.654	841.06
501.871	825.06
502.088	764.06
502.305	727.06
502.522	701.06
502.739	691.06
502.956	677.06
503.172	647.06
503.389	655.06
503.606	628.06
503.823	616.06
504.04	641.06
504.256	618.06
504.473	623.06
504.69	616.06
504.907	601.06
505.123	615.06
505.34	593.06
505.557	613.06
505.773	582.06
505.99	600.06
506.207	569.06
506.423	563.06
506.64	580.06
506.856	567.06
507.073	587.06
507.289	541.06
507.506	550.06
507.722	572.06
507.939	594.06
508.155	561.06
508.372	565.06
508.588	535.06
508.805	562.06
509.021	549.06
509.238	565.06
509.454	584.06
509.67	561.06
509.887	534.06
510.103	552.06
510.319	535.06
510.536	606.06
510.752	889.06
510.968	737.06
511.184	561.06
511.401	527.06
511.617	503.06
511.833	511.06
512.049	517.06
512.265	522.06
512.481	506.06
512.698	510.06
512.914	486.06
513.13	522.06
513.346	497.06
513.562	505.06
513.778	516.06
513.994	503.06
514.21	534.06
514.426	520.06
514.642	547.06
514.858	579.06
515.074	583.06
515.29	669.06
515.506	915.06
515.721	783.06
515.937	587.06
516.153	549.06
516.369	556.06
516.585	565.06
516.801	537.06
517.016	539.06
517.232	549.06
517.448	558.06
517.664	566.06
517.879	545.06
518.095	569.06
518.311	575.06
518.527	549.06
518.742	546.06
518.958	540.06
519.173	533.06
519.389	522.06
519.605	511.06
519.82	512.06
520.036	533.06
520.251	533.06
520.467	565.06
520.682	556.06
520.898	540.06
521.113	545.06
521.329	582.06
521.544	627.06
521.76	771.06
521.975	1083.06
522.19	1036.06
522.406	675.06
522.621	529.06
522.836	503.06
523.052	487.06
523.267	467.06
523.482	464.06
523.698	458.06
523.913	450.06
524.128	482.06
524.343	456.06
524.559	463.06
524.774	462.06
524.989	445.06
525.204	443.06
525.419	449.06
525.634	431.06
525.849	448.06
526.064	437.06
526.28	448.06
526.495	425.06
526.71	424.06
526.925	434.06
527.14	447.06
527.355	408.06
527.57	414.06
527.785	442.06
527.999	430.06
528.214	445.06
528.429	442.06
528.644	419.06
528.859	429.06
529.074	430.06
529.289	456.06
529.503	469.06
529.718	457.06
529.933	442.06
530.148	435.06
530.363	426.06
530.577	405.06
530.792	427.06
531.007	420.06
531.221	423.06
531.436	429.06
531.651	414.06
531.865	420.06
532.08	394.06
532.295	407.06
532.509	431.06
532.724	411.06
532.938	405.06
533.153	407.06
533.367	405.06
533.582	397.06
533.796	415.06
534.011	391.06
534.225	410.06
534.44	412.06
534.654	403.06
534.868	417.06
535.083	404.06
535.297	426.06
535.511	413.06
535.726	424.06
535.94	410.06
536.154	417.06
536.369	402.06
536.583	403.06
536.797	405.06
537.011	397.06
537.225	398.06
537.44	401.06
537.654	400.06
537.868	402.06
538.082	408.06
538.296	387.06
538.51	397.06
538.724	410.06
538.938	397.06
539.153	375.06
539.367	410.06
539.581	409.06
539.795	396.06
540.009	379.06
540.222	391.06
540.436	389.06
540.65	388.06
540.864	381.06
541.078	406.06
541.292	414.06
541.506	401.06
541.72	390.06
541.934	394.06
542.147	379.06
542.361	394.06
542.575	382.06
542.789	385.06
543.002	391.06
543.216	405.06
543.43	407.06
543.644	416.06
543.857	405.06
544.071	415.06
544.285	399.06
544.498	389.06
544.712	380.06
544.925	382.06
545.139	389.06
545.352	373.06
545.566	393.06
545.779	385.06
545.993	388.06
546.206	387.06
546.42	374.06
546.633	373.06
546.847	374.06
547.06	386.06
547.274	391.06
547.487	375.06
547.7	403.06
547.914	377.06
548.127	381.06
548.34	358.06
548.554	378.06
548.767	379.06
548.98	392.06
549.193	376.06
549.407	362.06
549.62	371.06
549.833	372.06
550.046	378.06
550.259	382.06
550.473	388.06
550.686	381.06
550.899	363.06
551.112	383.06
551.325	361.06
551.538	362.06
551.751	375.06
551.964	373.06
552.177	379.06
552.39	376.06
552.603	373.06
552.816	396.06
553.029	398.06
553.242	402.06
553.455	377.06
553.667	405.06
553.88	390.06
554.093	397.06
554.306	378.06
554.519	383.06
554.732	391.06
554.944	356.06
555.157	371.06
555.37	354.06
555.583	372.06
555.795	385.06
556.008	348.06
556.221	353.06
556.433	358.06
556.646	349.06
556.859	369.06
557.071	351.06
557.284	344.06
557.496	337.06
557.709	359.06
557.921	327.06
558.134	333.06
558.346	345.06
558.559	339.06
558.771	344.06
558.984	318.06
559.196	364.06
559.409	341.06
559.621	338.06
559.833	356.06
560.046	311.06
560.258	324.06
560.47	326.06
560.683	332.06
560.895	318.06
561.107	328.06
561.32	332.06
561.532	320.06
561.744	335.06
561.956	356.06
562.168	338.06
562.381	326.06
562.593	338.06
562.805	317.06
563.017	350.06
563.229	332.06
563.441	331.06
563.653	358.06
563.865	365.06
564.077	376.06
564.289	347.06
564.501	371.06
564.713	330.06
564.925	360.06
565.137	373.06
565.349	379.06
565.561	375.06
565.773	391.06
565.985	393.06
566.197	383.06
566.408	400.06
566.62	419.06
566.832	420.06
567.044	452.06
567.255	465.06
567.467	439.06
567.679	434.06
567.891	455.06
568.102	459.06
568.314	457.06
568.526	442.06
568.737	426.06
568.949	390.06
569.161	382.06
569.372	364.06
569.584	365.06
569.795	360.06
570.007	352.06
570.218	388.06
570.43	361.06
570.641	348.06
570.853	342.06
571.064	318.06
571.276	334.06
571.487	324.06
571.698	329.06
571.91	303.06
572.121	311.06
572.333	321.06
572.544	318.06
572.755	322.06
572.966	317.06
573.178	291.06
573.389	294.06
573.6	298.06
573.811	298.06
574.023	298.06
574.234	286.06
574.445	290.06
574.656	293.06
574.867	290.06
575.078	292.06
575.289	302.06
575.501	280.06
575.712	293.06
575.923	285.06
576.134	291.06
576.345	281.06
576.556	304.06
576.767	295.06
576.978	280.06
577.188	290.06
577.399	281.06
577.61	285.06
577.821	283.06
578.032	279.06
578.243	305.06
578.454	411.06
578.665	339.06
578.875	293.06
579.086	277.06
579.297	288.06
579.508	285.06
579.718	285.06
579.929	266.06
580.14	269.06
580.35	269.06
580.561	269.06
580.772	281.06
580.982	273.06
581.193	260.06
581.403	267.06
581.614	261.06
581.825	288.06
582.035	280.06
582.246	270.06
582.456	267.06
582.667	267.06
582.877	264.06
583.087	262.06
583.298	257.06
583.508	249.06
583.719	275.06
583.929	281.06
584.139	247.06
584.35	261.06
584.56	266.06
584.77	257.06
584.981	262.06
585.191	254.06
585.401	263.06
585.611	258.06
585.821	256.06
586.032	266.06
586.242	255.06
586.452	252.06
586.662	244.06
586.872	258.06
587.082	263.06
587.292	235.06
587.502	267.06
587.713	241.06
587.923	263.06
588.133	266.06
588.343	244.06
588.553	253.06
588.762	264.06
588.972	254.06
589.182	254.06
589.392	247.06
589.602	253.06
589.812	265.06
590.022	231.06
590.232	253.06
590.441	272.06
590.651	270.06
590.861	275.06
591.071	265.06
591.281	257.06
591.49	258.06
591.7	267.06
591.91	275.06
592.119	234.06
592.329	275.06
592.539	269.06
592.748	281.06
592.958	277.06
593.167	278.06
593.377	263.06
593.587	302.06
593.796	284.06
594.006	286.06
594.215	281.06
594.424	285.06
594.634	281.06
594.843	277.06
595.053	279.06
595.262	258.06
595.472	288.06
595.681	283.06
595.89	271.06
596.1	256.06
596.309	264.06
596.518	261.06
596.727	254.06
596.937	240.06
597.146	248.06
597.355	251.06
597.564	233.06
597.774	230.06
597.983	239.06
598.192	226.06
598.401	237.06
598.61	223.06
598.819	228.06
599.028	223.06
599.237	225.06
599.446	230.06
599.655	211.06
599.864	226.06
600.073	248.06
600.282	228.06
600.491	213.06
600.7	226.06
600.909	226.06
601.118	231.06
601.327	230.06
601.536	223.06
601.745	221.06
601.953	211.06
602.162	229.06
602.371	216.06
602.58	226.06
602.789	226.06
602.997	219.06
603.206	231.06
603.415	216.06
603.623	217.06
603.832	211.06
604.041	214.06
604.249	225.06
604.458	215.06
604.666	216.06
604.875	203.06
605.084	214.06
605.292	207.06
605.501	213.06
605.709	209.06
605.918	224.06
606.126	214.06
606.334	229.06
606.543	217.06
606.751	218.06
606.96	214.06
607.168	225.06
607.376	210.06
607.585	234.06
607.793	211.06
608.001	213.06
608.21	209.06
608.418	198.06
608.626	220.06
608.834	208.06
609.043	207.06
609.251	211.06
609.459	208.06
609.667	199.06
609.875	233.06
610.083	219.06
610.291	206.06
610.499	210.06
610.707	200.06
610.916	219.06
611.124	227.06
611.332	217.06
611.54	224.06
611.748	215.06
611.955	206.06
612.163	221.06
612.371	215.06
612.579	213.06
612.787	197.06
612.995	191.06
613.203	213.06
613.411	202.06
613.618	198.06
613.826	207.06
614.034	197.06
614.242	206.06
614.449	202.06
614.657	207.06
614.865	197.06
615.072	209.06
615.28	193.06
615.488	196.06
615.695	209.06
615.903	198.06
616.111	200.06
616.318	197.06
616.526	197.06
616.733	220.06
616.941	206.06
617.148	210.06
617.356	207.06
617.563	203.06
617.771	201.06
617.978	182.06
618.185	205.06
618.393	211.06
618.6	218.06
618.807	206.06
619.015	212.06
619.222	200.06
619.429	187.06
619.637	201.06
619.844	217.06
620.051	193.06
620.258	187.06
620.466	194.06
620.673	195.06
620.88	193.06
621.087	194.06
621.294	181.06
621.501	183.06
621.708	206.06
621.915	189.06
622.122	198.06
622.329	204.06
622.536	204.06
622.743	203.06
622.95	187.06
623.157	187.06
623.364	188.06
623.571	173.06
623.778	187.06
623.985	185.06
624.192	187.06
624.399	186.06
624.606	185.06
624.812	187.06
625.019	181.06
625.226	169.06
625.433	177.06
625.639	189.06
625.846	173.06
626.053	161.06
626.259	183.06
626.466	171.06
626.673	174.06
626.879	185.06
627.086	172.06
627.293	206.06
627.499	183.06
627.706	166.06
627.912	185.06
628.119	168.06
628.325	187.06
628.532	185.06
628.738	190.06
628.945	181.06
629.151	173.06
629.357	169.06
629.564	175.06
629.77	181.06
629.976	190.06
630.183	173.06
630.389	198.06
630.595	171.06
630.802	172.06
631.008	174.06
631.214	168.06
631.42	173.06
631.627	183.06
631.833	169.06
632.039	169.06
632.245	158.06
632.451	151.06
632.657	158.06
632.863	158.06
633.069	181.06
633.275	158.06
633.481	169.06
633.688	173.06
633.893	159.06
634.099	179.06
634.305	166.06
634.511	179.06
634.717	151.06
634.923	152.06
635.129	179.06
635.335	174.06
635.541	148.06
635.747	166.06
635.952	158.06
636.158	155.06
636.364	165.06
636.57	154.06
636.775	158.06
636.981	162.06
637.187	174.06
637.392	148.06
637.598	151.06
637.804	157.06
638.009	154.06
638.215	156.06
638.421	166.06
638.626	165.06
638.832	163.06
639.037	150.06
639.243	143.06
639.448	159.06
639.654	162.06
639.859	152.06
640.065	151.06
640.27	162.06
640.475	150.06
640.681	164.06
640.886	172.06
641.091	155.06
641.297	161.06
641.502	153.06
641.707	153.06
641.913	154.06
642.118	166.06
642.323	151.06
642.528	160.06
642.733	145.06
642.939	158.06
643.144	157.06
643.349	162.06
643.554	156.06
643.759	154.06
643.964	155.06
644.169	152.06
644.374	150.06
644.579	149.06
644.784	154.06
644.989	161.06
645.194	162.06
645.399	161.06
645.604	133.06
645.809	153.06
646.014	138.06
646.219	133.06
646.423	147.06
646.628	147.06
646.833	153.06
647.038	172.06
647.243	154.06
647.447	133.06
647.652	156.06
647.857	158.06
648.062	141.06
648.266	156.06
648.471	163.06
648.676	149.06
648.88	150.06
649.085	153.06
649.289	163.06
649.494	153.06
649.698	178.06
649.903	163.06
650.107	143.06
650.312	141.06
650.516	141.06
650.721	149.06
650.925	141.06
651.13	141.06
651.334	129.06
651.539	140.06
651.743	149.06
651.947	116.06
652.152	133.06
652.356	136.06
652.56	138.06
652.764	125.06
652.969	144.06
653.173	139.06
653.377	126.06
653.581	123.06
653.785	133.06
653.99	129.06
654.194	140.06
654.398	133.06
654.602	128.06
654.806	121.06
655.01	135.06
655.214	127.06
655.418	118.06
655.622	127.06
655.826	122.06
656.03	125.06
656.234	131.06
656.438	129.06
656.642	129.06
656.846	133.06
657.049	129.06
657.253	115.06
657.457	129.06
657.661	110.06
657.865	101.06
658.068	122.06
658.272	111.06
658.476	106.06
658.68	102.06
658.883	100.06
659.087	93.06
659.291	89.06
659.494	99.06
659.698	105.06
659.901	86.06
660.105	100.06
660.309	92.06
660.512	102.06
660.716	80.06
660.919	86.06
661.123	100.06
661.326	89.06
661.53	88.06
661.733	89.06
661.936	89.06
662.14	91.06
662.343	93.06
662.546	87.06
662.75	69.06
662.953	94.06
663.156	103.06
663.36	85.06
663.563	70.06
663.766	75.06
663.969	89.06
664.173	86.06
664.376	85.06
664.579	94.06
664.782	79.06
664.985	88.06
665.188	98.06
665.391	89.06
665.594	93.06
665.797	79.06
666	84.06
666.203	84.06
666.406	83.06
666.609	73.06
666.812	85.06
667.015	74.06
667.218	71.06
667.421	79.06
667.624	83.06
667.827	84.06
668.03	82.06
668.232	74.06
668.435	90.06
668.638	86.06
668.841	82.06
669.043	88.06
669.246	88.06
669.449	80.06
669.651	79.06
669.854	87.06
670.057	92.06
670.259	93.06
670.462	77.06
670.665	84.06
670.867	81.06
671.07	90.06
671.272	72.06
671.475	93.06
671.677	89.06
671.88	71.06
672.082	82.06
672.284	76.06
672.487	90.06
672.689	81.06
672.892	75.06
