Data from 1977.PennyLincolnUp.Lamp.En5.5.200Scan.071719.P1_HRD10591_16-05-04-865.txt Node
Date: Thu Jul 18 16:05:04 EDT 2019
User: cochatt
Spectrometer: HR+D1059
Trigger mode: 1
Integration Time (sec): 1.000000E-1
Scans to average: 1
Electric dark correction enabled: true
Nonlinearity correction enabled: false
Boxcar width: 0
XAxis mode: Wavelengths
Number of Pixels in Spectrum: 2048
>>>>>Begin Spectral Data<<<<<
223.165	-22.31
223.4	-22.31
223.635	-22.31
223.869	-7.31
224.104	-15.31
224.338	-12.31
224.573	-18.31
224.808	-3.31
225.042	-11.31
225.277	-12.31
225.511	-21.31
225.746	-2.31
225.98	2.69
226.215	12.69
226.449	16.69
226.683	20.69
226.918	31.69
227.152	41.69
227.387	35.69
227.621	31.69
227.856	40.69
228.09	38.69
228.324	54.69
228.559	54.69
228.793	54.69
229.027	92.69
229.262	106.69
229.496	99.69
229.73	98.69
229.964	126.69
230.199	105.69
230.433	100.69
230.667	106.69
230.901	113.69
231.136	110.69
231.37	104.69
231.604	95.69
231.838	101.69
232.072	105.69
232.306	124.69
232.541	107.69
232.775	123.69
233.009	104.69
233.243	119.69
233.477	111.69
233.711	114.69
233.945	114.69
234.179	106.69
234.413	101.69
234.647	122.69
234.881	116.69
235.115	118.69
235.349	111.69
235.583	118.69
235.817	119.69
236.051	116.69
236.285	106.69
236.519	112.69
236.753	117.69
236.987	128.69
237.221	145.69
237.455	195.69
237.689	154.69
237.922	128.69
238.156	125.69
238.39	128.69
238.624	125.69
238.858	121.69
239.091	117.69
239.325	117.69
239.559	104.69
239.793	122.69
240.027	116.69
240.26	123.69
240.494	157.69
240.728	131.69
240.961	140.69
241.195	135.69
241.429	134.69
241.662	124.69
241.896	118.69
242.13	130.69
242.363	131.69
242.597	132.69
242.83	141.69
243.064	143.69
243.298	123.69
243.531	136.69
243.765	140.69
243.998	123.69
244.232	133.69
244.465	129.69
244.699	130.69
244.932	131.69
245.166	154.69
245.399	140.69
245.633	134.69
245.866	141.69
246.099	149.69
246.333	134.69
246.566	132.69
246.8	140.69
247.033	153.69
247.266	136.69
247.5	145.69
247.733	163.69
247.966	154.69
248.2	149.69
248.433	156.69
248.666	162.69
248.899	159.69
249.133	179.69
249.366	186.69
249.599	172.69
249.832	172.69
250.066	155.69
250.299	148.69
250.532	161.69
250.765	182.69
250.998	183.69
251.231	187.69
251.465	195.69
251.698	202.69
251.931	177.69
252.164	168.69
252.397	178.69
252.63	202.69
252.863	183.69
253.096	190.69
253.329	192.69
253.562	183.69
253.795	179.69
254.028	199.69
254.261	195.69
254.494	192.69
254.727	205.69
254.96	233.69
255.193	233.69
255.426	214.69
255.659	199.69
255.892	198.69
256.124	209.69
256.357	199.69
256.59	199.69
256.823	175.69
257.056	199.69
257.289	194.69
257.521	193.69
257.754	196.69
257.987	203.69
258.22	199.69
258.452	200.69
258.685	193.69
258.918	190.69
259.151	194.69
259.383	197.69
259.616	209.69
259.849	213.69
260.081	220.69
260.314	211.69
260.547	214.69
260.779	219.69
261.012	197.69
261.244	214.69
261.477	203.69
261.71	194.69
261.942	217.69
262.175	205.69
262.407	192.69
262.64	201.69
262.872	191.69
263.105	204.69
263.337	204.69
263.57	201.69
263.802	216.69
264.035	211.69
264.267	197.69
264.499	195.69
264.732	208.69
264.964	206.69
265.197	202.69
265.429	188.69
265.661	206.69
265.894	216.69
266.126	202.69
266.358	207.69
266.591	216.69
266.823	220.69
267.055	220.69
267.287	212.69
267.52	212.69
267.752	216.69
267.984	221.69
268.216	223.69
268.448	221.69
268.681	230.69
268.913	246.69
269.145	254.69
269.377	244.69
269.609	240.69
269.841	257.69
270.073	249.69
270.306	262.69
270.538	268.69
270.77	267.69
271.002	274.69
271.234	243.69
271.466	265.69
271.698	268.69
271.93	277.69
272.162	287.69
272.394	276.69
272.626	270.69
272.858	234.69
273.09	244.69
273.322	259.69
273.553	263.69
273.785	251.69
274.017	268.69
274.249	243.69
274.481	246.69
274.713	251.69
274.945	262.69
275.176	269.69
275.408	248.69
275.64	234.69
275.872	239.69
276.104	268.69
276.335	253.69
276.567	250.69
276.799	251.69
277.031	280.69
277.262	270.69
277.494	282.69
277.726	287.69
277.957	266.69
278.189	273.69
278.421	235.69
278.652	262.69
278.884	251.69
279.115	248.69
279.347	256.69
279.579	249.69
279.81	280.69
280.042	267.69
280.273	252.69
280.505	267.69
280.736	279.69
280.968	264.69
281.199	257.69
281.431	271.69
281.662	255.69
281.894	262.69
282.125	261.69
282.356	295.69
282.588	282.69
282.819	272.69
283.051	263.69
283.282	273.69
283.513	251.69
283.745	277.69
283.976	262.69
284.207	290.69
284.439	268.69
284.67	278.69
284.901	272.69
285.132	271.69
285.364	284.69
285.595	288.69
285.826	280.69
286.057	290.69
286.288	264.69
286.52	286.69
286.751	280.69
286.982	275.69
287.213	288.69
287.444	286.69
287.675	296.69
287.906	294.69
288.138	295.69
288.369	294.69
288.6	289.69
288.831	274.69
289.062	283.69
289.293	311.69
289.524	285.69
289.755	297.69
289.986	296.69
290.217	282.69
290.448	301.69
290.679	278.69
290.91	297.69
291.141	280.69
291.371	287.69
291.602	297.69
291.833	300.69
292.064	279.69
292.295	289.69
292.526	299.69
292.757	294.69
292.987	292.69
293.218	303.69
293.449	311.69
293.68	300.69
293.91	291.69
294.141	284.69
294.372	294.69
294.603	288.69
294.833	278.69
295.064	287.69
295.295	278.69
295.525	295.69
295.756	295.69
295.987	300.69
296.217	316.69
296.448	287.69
296.679	307.69
296.909	301.69
297.14	302.69
297.37	288.69
297.601	282.69
297.831	301.69
298.062	301.69
298.292	295.69
298.523	312.69
298.753	301.69
298.984	320.69
299.214	312.69
299.445	309.69
299.675	315.69
299.905	315.69
300.136	298.69
300.366	290.69
300.597	321.69
300.827	312.69
301.057	318.69
301.288	319.69
301.518	320.69
301.748	336.69
301.979	324.69
302.209	331.69
302.439	323.69
302.669	325.69
302.9	342.69
303.13	336.69
303.36	322.69
303.59	323.69
303.82	310.69
304.051	334.69
304.281	310.69
304.511	316.69
304.741	321.69
304.971	315.69
305.201	315.69
305.431	335.69
305.661	341.69
305.891	341.69
306.121	323.69
306.352	334.69
306.582	320.69
306.812	331.69
307.042	340.69
307.272	330.69
307.502	330.69
307.731	320.69
307.961	313.69
308.191	342.69
308.421	332.69
308.651	328.69
308.881	341.69
309.111	358.69
309.341	332.69
309.571	358.69
309.8	328.69
310.03	334.69
310.26	333.69
310.49	354.69
310.72	337.69
310.949	360.69
311.179	343.69
311.409	345.69
311.639	348.69
311.868	358.69
312.098	373.69
312.328	348.69
312.557	349.69
312.787	359.69
313.017	347.69
313.246	359.69
313.476	364.69
313.706	350.69
313.935	335.69
314.165	364.69
314.394	370.69
314.624	346.69
314.853	342.69
315.083	371.69
315.312	348.69
315.542	372.69
315.771	336.69
316.001	352.69
316.23	354.69
316.46	364.69
316.689	351.69
316.919	368.69
317.148	361.69
317.377	345.69
317.607	367.69
317.836	357.69
318.065	362.69
318.295	370.69
318.524	370.69
318.753	339.69
318.983	364.69
319.212	354.69
319.441	351.69
319.67	371.69
319.9	364.69
320.129	360.69
320.358	367.69
320.587	362.69
320.816	355.69
321.046	376.69
321.275	381.69
321.504	384.69
321.733	362.69
321.962	370.69
322.191	375.69
322.42	365.69
322.649	386.69
322.878	380.69
323.108	393.69
323.337	395.69
323.566	403.69
323.795	411.69
324.024	453.69
324.253	478.69
324.482	648.69
324.71	904.69
324.939	1211.69
325.168	1044.69
325.397	591.69
325.626	451.69
325.855	438.69
326.084	404.69
326.313	409.69
326.542	426.69
326.77	425.69
326.999	495.69
327.228	600.69
327.457	844.69
327.686	929.69
327.914	674.69
328.143	502.69
328.372	463.69
328.6	445.69
328.829	461.69
329.058	427.69
329.287	454.69
329.515	443.69
329.744	402.69
329.972	422.69
330.201	412.69
330.43	424.69
330.658	448.69
330.887	483.69
331.115	483.69
331.344	430.69
331.572	428.69
331.801	437.69
332.03	437.69
332.258	427.69
332.486	406.69
332.715	408.69
332.943	452.69
333.172	452.69
333.4	437.69
333.629	431.69
333.857	452.69
334.085	446.69
334.314	452.69
334.542	464.69
334.771	457.69
334.999	444.69
335.227	442.69
335.455	430.69
335.684	432.69
335.912	439.69
336.14	403.69
336.369	423.69
336.597	422.69
336.825	406.69
337.053	443.69
337.281	418.69
337.51	417.69
337.738	415.69
337.966	430.69
338.194	422.69
338.422	419.69
338.65	418.69
338.878	396.69
339.106	394.69
339.334	418.69
339.562	399.69
339.79	405.69
340.018	392.69
340.246	413.69
340.474	423.69
340.702	414.69
340.93	395.69
341.158	402.69
341.386	392.69
341.614	397.69
341.842	420.69
342.07	390.69
342.298	405.69
342.526	390.69
342.754	381.69
342.981	392.69
343.209	395.69
343.437	396.69
343.665	393.69
343.893	413.69
344.12	430.69
344.348	408.69
344.576	415.69
344.804	407.69
345.031	403.69
345.259	426.69
345.487	397.69
345.714	391.69
345.942	384.69
346.17	381.69
346.397	377.69
346.625	376.69
346.853	386.69
347.08	398.69
347.308	386.69
347.535	389.69
347.763	383.69
347.99	396.69
348.218	370.69
348.445	370.69
348.673	383.69
348.9	379.69
349.128	387.69
349.355	375.69
349.583	375.69
349.81	362.69
350.037	382.69
350.265	379.69
350.492	370.69
350.72	364.69
350.947	382.69
351.174	364.69
351.402	392.69
351.629	373.69
351.856	380.69
352.083	382.69
352.311	382.69
352.538	377.69
352.765	376.69
352.992	356.69
353.22	378.69
353.447	368.69
353.674	359.69
353.901	377.69
354.128	355.69
354.355	361.69
354.583	358.69
354.81	358.69
355.037	354.69
355.264	348.69
355.491	357.69
355.718	344.69
355.945	360.69
356.172	355.69
356.399	349.69
356.626	359.69
356.853	364.69
357.08	365.69
357.307	350.69
357.534	357.69
357.761	352.69
357.988	336.69
358.215	350.69
358.441	347.69
358.668	358.69
358.895	353.69
359.122	372.69
359.349	352.69
359.576	368.69
359.802	397.69
360.029	358.69
360.256	382.69
360.483	380.69
360.709	362.69
360.936	375.69
361.163	361.69
361.39	372.69
361.616	373.69
361.843	375.69
362.07	361.69
362.296	354.69
362.523	364.69
362.749	363.69
362.976	368.69
363.203	356.69
363.429	373.69
363.656	366.69
363.882	350.69
364.109	350.69
364.335	342.69
364.562	355.69
364.788	361.69
365.015	374.69
365.241	363.69
365.468	350.69
365.694	356.69
365.92	356.69
366.147	342.69
366.373	366.69
366.599	333.69
366.826	365.69
367.052	365.69
367.278	356.69
367.505	363.69
367.731	382.69
367.957	362.69
368.184	368.69
368.41	353.69
368.636	346.69
368.862	346.69
369.089	365.69
369.315	355.69
369.541	373.69
369.767	364.69
369.993	380.69
370.219	350.69
370.445	356.69
370.672	346.69
370.898	358.69
371.124	374.69
371.35	359.69
371.576	359.69
371.802	368.69
372.028	348.69
372.254	368.69
372.48	367.69
372.706	365.69
372.932	362.69
373.158	379.69
373.384	382.69
373.61	379.69
373.835	361.69
374.061	364.69
374.287	367.69
374.513	366.69
374.739	378.69
374.965	381.69
375.191	373.69
375.416	373.69
375.642	356.69
375.868	374.69
376.094	365.69
376.319	386.69
376.545	376.69
376.771	362.69
376.997	370.69
377.222	364.69
377.448	358.69
377.674	370.69
377.899	362.69
378.125	374.69
378.35	368.69
378.576	355.69
378.802	374.69
379.027	360.69
379.253	349.69
379.478	363.69
379.704	369.69
379.929	346.69
380.155	342.69
380.38	348.69
380.606	358.69
380.831	360.69
381.057	380.69
381.282	368.69
381.507	364.69
381.733	364.69
381.958	353.69
382.184	360.69
382.409	360.69
382.634	374.69
382.86	374.69
383.085	357.69
383.31	378.69
383.535	378.69
383.761	376.69
383.986	397.69
384.211	391.69
384.436	375.69
384.662	386.69
384.887	380.69
385.112	386.69
385.337	393.69
385.562	381.69
385.787	376.69
386.013	408.69
386.238	403.69
386.463	398.69
386.688	406.69
386.913	422.69
387.138	413.69
387.363	375.69
387.588	401.69
387.813	404.69
388.038	402.69
388.263	398.69
388.488	398.69
388.713	403.69
388.938	405.69
389.163	391.69
389.387	405.69
389.612	381.69
389.837	408.69
390.062	395.69
390.287	413.69
390.512	392.69
390.736	381.69
390.961	400.69
391.186	396.69
391.411	403.69
391.636	404.69
391.86	411.69
392.085	417.69
392.31	421.69
392.534	418.69
392.759	410.69
392.984	393.69
393.208	399.69
393.433	395.69
393.658	401.69
393.882	416.69
394.107	398.69
394.331	392.69
394.556	404.69
394.78	414.69
395.005	401.69
395.229	397.69
395.454	407.69
395.678	418.69
395.903	433.69
396.127	437.69
396.352	454.69
396.576	392.69
396.801	409.69
397.025	413.69
397.249	408.69
397.474	422.69
397.698	435.69
397.922	435.69
398.147	445.69
398.371	461.69
398.595	430.69
398.82	463.69
399.044	466.69
399.268	476.69
399.492	496.69
399.717	527.69
399.941	546.69
400.165	540.69
400.389	552.69
400.613	523.69
400.837	488.69
401.062	464.69
401.286	455.69
401.51	454.69
401.734	475.69
401.958	466.69
402.182	458.69
402.406	439.69
402.63	478.69
402.854	457.69
403.078	440.69
403.302	452.69
403.526	492.69
403.75	466.69
403.974	488.69
404.198	477.69
404.422	464.69
404.645	478.69
404.869	454.69
405.093	474.69
405.317	524.69
405.541	538.69
405.765	501.69
405.988	479.69
406.212	483.69
406.436	495.69
406.66	504.69
406.883	491.69
407.107	526.69
407.331	562.69
407.555	595.69
407.778	586.69
408.002	543.69
408.226	520.69
408.449	500.69
408.673	477.69
408.896	522.69
409.12	532.69
409.344	522.69
409.567	466.69
409.791	510.69
410.014	485.69
410.238	478.69
410.461	450.69
410.685	451.69
410.908	486.69
411.132	483.69
411.355	501.69
411.578	511.69
411.802	486.69
412.025	474.69
412.249	468.69
412.472	464.69
412.695	489.69
412.919	482.69
413.142	473.69
413.365	438.69
413.589	459.69
413.812	443.69
414.035	421.69
414.258	435.69
414.482	438.69
414.705	423.69
414.928	436.69
415.151	433.69
415.374	432.69
415.597	434.69
415.821	432.69
416.044	419.69
416.267	438.69
416.49	431.69
416.713	422.69
416.936	404.69
417.159	412.69
417.382	432.69
417.605	450.69
417.828	440.69
418.051	449.69
418.274	418.69
418.497	427.69
418.72	427.69
418.943	412.69
419.166	449.69
419.389	483.69
419.611	440.69
419.834	460.69
420.057	441.69
420.28	426.69
420.503	412.69
420.726	442.69
420.948	451.69
421.171	462.69
421.394	500.69
421.617	447.69
421.839	461.69
422.062	429.69
422.285	443.69
422.507	506.69
422.73	540.69
422.953	509.69
423.175	480.69
423.398	467.69
423.621	435.69
423.843	456.69
424.066	466.69
424.288	476.69
424.511	477.69
424.733	533.69
424.956	585.69
425.178	538.69
425.401	532.69
425.623	555.69
425.846	485.69
426.068	475.69
426.291	437.69
426.513	449.69
426.735	437.69
426.958	471.69
427.18	546.69
427.402	636.69
427.625	684.69
427.847	580.69
428.069	522.69
428.292	483.69
428.514	429.69
428.736	441.69
428.958	438.69
429.181	415.69
429.403	416.69
429.625	428.69
429.847	443.69
430.069	489.69
430.292	478.69
430.514	464.69
430.736	434.69
430.958	418.69
431.18	422.69
431.402	411.69
431.624	400.69
431.846	395.69
432.068	387.69
432.29	400.69
432.512	414.69
432.734	428.69
432.956	421.69
433.178	421.69
433.4	418.69
433.622	421.69
433.844	411.69
434.066	392.69
434.287	415.69
434.509	425.69
434.731	427.69
434.953	428.69
435.175	431.69
435.397	459.69
435.618	451.69
435.84	487.69
436.062	552.69
436.284	580.69
436.505	500.69
436.727	451.69
436.949	439.69
437.17	427.69
437.392	423.69
437.614	426.69
437.835	458.69
438.057	501.69
438.278	578.69
438.5	568.69
438.721	630.69
438.943	604.69
439.165	488.69
439.386	456.69
439.608	428.69
439.829	445.69
440.05	456.69
440.272	476.69
440.493	461.69
440.715	420.69
440.936	441.69
441.158	408.69
441.379	425.69
441.6	441.69
441.822	456.69
442.043	483.69
442.264	523.69
442.486	534.69
442.707	470.69
442.928	455.69
443.149	460.69
443.371	479.69
443.592	498.69
443.813	567.69
444.034	620.69
444.255	524.69
444.476	487.69
444.698	476.69
444.919	453.69
445.14	554.69
445.361	508.69
445.582	479.69
445.803	480.69
446.024	560.69
446.245	555.69
446.466	542.69
446.687	466.69
446.908	452.69
447.129	411.69
447.35	426.69
447.571	420.69
447.792	403.69
448.013	411.69
448.234	405.69
448.455	453.69
448.675	531.69
448.896	642.69
449.117	519.69
449.338	493.69
449.559	572.69
449.779	646.69
450	526.69
450.221	434.69
450.442	409.69
450.662	417.69
450.883	388.69
451.104	398.69
451.324	368.69
451.545	376.69
451.766	378.69
451.986	371.69
452.207	371.69
452.428	375.69
452.648	383.69
452.869	381.69
453.089	360.69
453.31	388.69
453.53	397.69
453.751	365.69
453.971	384.69
454.192	382.69
454.412	349.69
454.633	380.69
454.853	370.69
455.073	405.69
455.294	386.69
455.514	435.69
455.734	416.69
455.955	368.69
456.175	356.69
456.395	364.69
456.616	339.69
456.836	357.69
457.056	356.69
457.276	347.69
457.497	370.69
457.717	372.69
457.937	356.69
458.157	357.69
458.377	382.69
458.598	388.69
458.818	410.69
459.038	452.69
459.258	463.69
459.478	429.69
459.698	403.69
459.918	413.69
460.138	413.69
460.358	442.69
460.578	436.69
460.798	457.69
461.018	431.69
461.238	422.69
461.458	437.69
461.678	426.69
461.898	430.69
462.118	441.69
462.338	441.69
462.558	436.69
462.777	449.69
462.997	490.69
463.217	485.69
463.437	485.69
463.657	482.69
463.876	464.69
464.096	467.69
464.316	471.69
464.536	463.69
464.755	464.69
464.975	469.69
465.195	448.69
465.414	462.69
465.634	431.69
465.854	411.69
466.073	420.69
466.293	380.69
466.512	393.69
466.732	408.69
466.951	410.69
467.171	391.69
467.391	386.69
467.61	386.69
467.829	365.69
468.049	397.69
468.268	386.69
468.488	381.69
468.707	388.69
468.927	375.69
469.146	379.69
469.365	383.69
469.585	381.69
469.804	383.69
470.023	405.69
470.243	406.69
470.462	376.69
470.681	386.69
470.901	415.69
471.12	373.69
471.339	387.69
471.558	409.69
471.777	396.69
471.997	376.69
472.216	378.69
472.435	398.69
472.654	376.69
472.873	386.69
473.092	392.69
473.311	372.69
473.53	392.69
473.749	389.69
473.968	404.69
474.187	484.69
474.406	495.69
474.625	413.69
474.844	398.69
475.063	401.69
475.282	375.69
475.501	383.69
475.72	396.69
475.939	384.69
476.158	382.69
476.377	393.69
476.596	404.69
476.814	392.69
477.033	403.69
477.252	427.69
477.471	409.69
477.69	425.69
477.908	431.69
478.127	428.69
478.346	429.69
478.564	447.69
478.783	462.69
479.002	466.69
479.22	439.69
479.439	464.69
479.658	493.69
479.876	456.69
480.095	499.69
480.313	506.69
480.532	491.69
480.751	478.69
480.969	468.69
481.188	516.69
481.406	501.69
481.624	492.69
481.843	472.69
482.061	457.69
482.28	432.69
482.498	428.69
482.717	441.69
482.935	461.69
483.153	443.69
483.372	471.69
483.59	462.69
483.808	420.69
484.027	450.69
484.245	444.69
484.463	456.69
484.681	458.69
484.9	460.69
485.118	446.69
485.336	447.69
485.554	477.69
485.772	448.69
485.99	465.69
486.209	445.69
486.427	450.69
486.645	454.69
486.863	485.69
487.081	467.69
487.299	469.69
487.517	488.69
487.735	484.69
487.953	472.69
488.171	492.69
488.389	466.69
488.607	476.69
488.825	479.69
489.043	475.69
489.261	473.69
489.479	499.69
489.696	478.69
489.914	479.69
490.132	478.69
490.35	495.69
490.568	490.69
490.786	484.69
491.003	494.69
491.221	492.69
491.439	518.69
491.657	507.69
491.874	522.69
492.092	506.69
492.31	527.69
492.527	512.69
492.745	507.69
492.963	495.69
493.18	507.69
493.398	549.69
493.615	555.69
493.833	528.69
494.05	515.69
494.268	528.69
494.485	537.69
494.703	525.69
494.92	542.69
495.138	548.69
495.355	564.69
495.573	549.69
495.79	540.69
496.008	532.69
496.225	531.69
496.442	555.69
496.66	564.69
496.877	570.69
497.094	554.69
497.312	575.69
497.529	546.69
497.746	576.69
497.963	600.69
498.181	606.69
498.398	623.69
498.615	621.69
498.832	651.69
499.049	679.69
499.267	687.69
499.484	710.69
499.701	743.69
499.918	798.69
500.135	830.69
500.352	886.69
500.569	903.69
500.786	930.69
501.003	873.69
501.22	833.69
501.437	784.69
501.654	783.69
501.871	731.69
502.088	714.69
502.305	692.69
502.522	644.69
502.739	654.69
502.956	631.69
503.172	619.69
503.389	608.69
503.606	597.69
503.823	557.69
504.04	575.69
504.256	597.69
504.473	579.69
504.69	584.69
504.907	602.69
505.123	554.69
505.34	564.69
505.557	535.69
505.773	553.69
505.99	517.69
506.207	520.69
506.423	526.69
506.64	535.69
506.856	490.69
507.073	497.69
507.289	506.69
507.506	491.69
507.722	480.69
507.939	498.69
508.155	484.69
508.372	472.69
508.588	478.69
508.805	482.69
509.021	471.69
509.238	488.69
509.454	481.69
509.67	476.69
509.887	461.69
510.103	489.69
510.319	495.69
510.536	499.69
510.752	678.69
510.968	562.69
511.184	454.69
511.401	461.69
511.617	458.69
511.833	466.69
512.049	440.69
512.265	451.69
512.481	456.69
512.698	455.69
512.914	461.69
513.13	450.69
513.346	450.69
513.562	447.69
513.778	457.69
513.994	476.69
514.21	450.69
514.426	464.69
514.642	490.69
514.858	484.69
515.074	518.69
515.29	532.69
515.506	660.69
515.721	610.69
515.937	482.69
516.153	477.69
516.369	508.69
516.585	510.69
516.801	488.69
517.016	503.69
517.232	501.69
517.448	514.69
517.664	493.69
517.879	492.69
518.095	507.69
518.311	517.69
518.527	479.69
518.742	472.69
518.958	478.69
519.173	467.69
519.389	475.69
519.605	464.69
519.82	460.69
520.036	454.69
520.251	460.69
520.467	498.69
520.682	487.69
520.898	463.69
521.113	472.69
521.329	485.69
521.544	536.69
521.76	566.69
521.975	756.69
522.19	736.69
522.406	536.69
522.621	468.69
522.836	449.69
523.052	410.69
523.267	429.69
523.482	444.69
523.698	398.69
523.913	418.69
524.128	399.69
524.343	405.69
524.559	397.69
524.774	423.69
524.989	414.69
525.204	422.69
525.419	388.69
525.634	405.69
525.849	408.69
526.064	398.69
526.28	405.69
526.495	404.69
526.71	384.69
526.925	397.69
527.14	392.69
527.355	414.69
527.57	389.69
527.785	367.69
527.999	374.69
528.214	367.69
528.429	378.69
528.644	401.69
528.859	392.69
529.074	398.69
529.289	409.69
529.503	412.69
529.718	414.69
529.933	398.69
530.148	394.69
530.363	407.69
530.577	387.69
530.792	376.69
531.007	379.69
531.221	384.69
531.436	377.69
531.651	387.69
531.865	383.69
532.08	401.69
532.295	365.69
532.509	383.69
532.724	387.69
532.938	371.69
533.153	380.69
533.367	368.69
533.582	374.69
533.796	376.69
534.011	351.69
534.225	390.69
534.44	385.69
534.654	373.69
534.868	392.69
535.083	386.69
535.297	372.69
535.511	386.69
535.726	381.69
535.94	380.69
536.154	390.69
536.369	374.69
536.583	373.69
536.797	361.69
537.011	367.69
537.225	370.69
537.44	365.69
537.654	378.69
537.868	384.69
538.082	377.69
538.296	346.69
538.51	360.69
538.724	367.69
538.938	386.69
539.153	362.69
539.367	378.69
539.581	373.69
539.795	387.69
540.009	364.69
540.222	346.69
540.436	359.69
540.65	357.69
540.864	365.69
541.078	360.69
541.292	360.69
541.506	340.69
541.72	374.69
541.934	377.69
542.147	378.69
542.361	364.69
542.575	364.69
542.789	348.69
543.002	350.69
543.216	345.69
543.43	361.69
543.644	356.69
543.857	364.69
544.071	375.69
544.285	376.69
544.498	366.69
544.712	364.69
544.925	364.69
545.139	347.69
545.352	360.69
545.566	357.69
545.779	373.69
545.993	365.69
546.206	362.69
546.42	361.69
546.633	367.69
546.847	361.69
547.06	354.69
547.274	341.69
547.487	350.69
547.7	340.69
547.914	356.69
548.127	355.69
548.34	345.69
548.554	346.69
548.767	367.69
548.98	354.69
549.193	366.69
549.407	351.69
549.62	362.69
549.833	359.69
550.046	346.69
550.259	336.69
550.473	340.69
550.686	355.69
550.899	362.69
551.112	344.69
551.325	354.69
551.538	350.69
551.751	347.69
551.964	347.69
552.177	346.69
552.39	372.69
552.603	362.69
552.816	374.69
553.029	381.69
553.242	374.69
553.455	362.69
553.667	380.69
553.88	382.69
554.093	352.69
554.306	348.69
554.519	348.69
554.732	341.69
554.944	344.69
555.157	326.69
555.37	342.69
555.583	336.69
555.795	334.69
556.008	321.69
556.221	323.69
556.433	335.69
556.646	315.69
556.859	324.69
557.071	304.69
557.284	309.69
557.496	314.69
557.709	328.69
557.921	319.69
558.134	324.69
558.346	318.69
558.559	308.69
558.771	314.69
558.984	304.69
559.196	316.69
559.409	312.69
559.621	316.69
559.833	317.69
560.046	299.69
560.258	307.69
560.47	313.69
560.683	298.69
560.895	322.69
561.107	323.69
561.32	321.69
561.532	323.69
561.744	327.69
561.956	296.69
562.168	301.69
562.381	320.69
562.593	313.69
562.805	318.69
563.017	320.69
563.229	310.69
563.441	304.69
563.653	324.69
563.865	323.69
564.077	322.69
564.289	299.69
564.501	324.69
564.713	330.69
564.925	340.69
565.137	357.69
565.349	371.69
565.561	356.69
565.773	360.69
565.985	380.69
566.197	382.69
566.408	399.69
566.62	400.69
566.832	406.69
567.044	414.69
567.255	428.69
567.467	422.69
567.679	416.69
567.891	453.69
568.102	434.69
568.314	430.69
568.526	414.69
568.737	397.69
568.949	393.69
569.161	373.69
569.372	353.69
569.584	347.69
569.795	327.69
570.007	325.69
570.218	342.69
570.43	334.69
570.641	320.69
570.853	315.69
571.064	324.69
571.276	338.69
571.487	291.69
571.698	318.69
571.91	307.69
572.121	302.69
572.333	306.69
572.544	294.69
572.755	274.69
572.966	294.69
573.178	294.69
573.389	295.69
573.6	291.69
573.811	280.69
574.023	279.69
574.234	300.69
574.445	284.69
574.656	275.69
574.867	269.69
575.078	270.69
575.289	275.69
575.501	272.69
575.712	272.69
575.923	282.69
576.134	289.69
576.345	298.69
576.556	258.69
576.767	260.69
576.978	274.69
577.188	264.69
577.399	276.69
577.61	287.69
577.821	258.69
578.032	270.69
578.243	274.69
578.454	339.69
578.665	291.69
578.875	255.69
579.086	269.69
579.297	246.69
579.508	250.69
579.718	251.69
579.929	264.69
580.14	263.69
580.35	261.69
580.561	254.69
580.772	258.69
580.982	271.69
581.193	258.69
581.403	242.69
581.614	266.69
581.825	256.69
582.035	254.69
582.246	260.69
582.456	245.69
582.667	250.69
582.877	236.69
583.087	252.69
583.298	257.69
583.508	233.69
583.719	264.69
583.929	256.69
584.139	248.69
584.35	244.69
584.56	258.69
584.77	255.69
584.981	259.69
585.191	262.69
585.401	242.69
585.611	245.69
585.821	238.69
586.032	255.69
586.242	242.69
586.452	249.69
586.662	254.69
586.872	239.69
587.082	244.69
587.292	252.69
587.502	253.69
587.713	243.69
587.923	240.69
588.133	254.69
588.343	253.69
588.553	238.69
588.762	255.69
588.972	250.69
589.182	259.69
589.392	260.69
589.602	243.69
589.812	251.69
590.022	258.69
590.232	240.69
590.441	264.69
590.651	244.69
590.861	261.69
591.071	257.69
591.281	263.69
591.49	251.69
591.7	247.69
591.91	254.69
592.119	236.69
592.329	254.69
592.539	254.69
592.748	266.69
592.958	257.69
593.167	278.69
593.377	272.69
593.587	269.69
593.796	275.69
594.006	258.69
594.215	278.69
594.424	278.69
594.634	268.69
594.843	260.69
595.053	255.69
595.262	253.69
595.472	243.69
595.681	255.69
595.89	247.69
596.1	249.69
596.309	235.69
596.518	223.69
596.727	242.69
596.937	237.69
597.146	240.69
597.355	219.69
597.564	239.69
597.774	235.69
597.983	233.69
598.192	225.69
598.401	235.69
598.61	230.69
598.819	231.69
599.028	235.69
599.237	216.69
599.446	220.69
599.655	223.69
599.864	199.69
600.073	226.69
600.282	221.69
600.491	198.69
600.7	229.69
600.909	249.69
601.118	207.69
601.327	212.69
601.536	214.69
601.745	218.69
601.953	219.69
602.162	231.69
602.371	194.69
602.58	212.69
602.789	204.69
602.997	231.69
603.206	213.69
603.415	226.69
603.623	214.69
603.832	193.69
604.041	203.69
604.249	224.69
604.458	219.69
604.666	204.69
604.875	204.69
605.084	199.69
605.292	219.69
605.501	199.69
605.709	200.69
605.918	200.69
606.126	215.69
606.334	207.69
606.543	200.69
606.751	205.69
606.96	194.69
607.168	187.69
607.376	211.69
607.585	215.69
607.793	210.69
608.001	210.69
608.21	184.69
608.418	203.69
608.626	200.69
608.834	213.69
609.043	214.69
609.251	218.69
609.459	195.69
609.667	210.69
609.875	193.69
610.083	196.69
610.291	200.69
610.499	212.69
610.707	203.69
610.916	215.69
611.124	201.69
611.332	223.69
611.54	223.69
611.748	204.69
611.955	190.69
612.163	201.69
612.371	195.69
612.579	212.69
612.787	191.69
612.995	199.69
613.203	207.69
613.411	196.69
613.618	189.69
613.826	197.69
614.034	194.69
614.242	197.69
614.449	208.69
614.657	195.69
614.865	198.69
615.072	192.69
615.28	212.69
615.488	190.69
615.695	182.69
615.903	200.69
616.111	199.69
616.318	202.69
616.526	202.69
616.733	205.69
616.941	199.69
617.148	201.69
617.356	195.69
617.563	210.69
617.771	191.69
617.978	190.69
618.185	197.69
618.393	195.69
618.6	191.69
618.807	196.69
619.015	187.69
619.222	204.69
619.429	201.69
619.637	186.69
619.844	188.69
620.051	180.69
620.258	175.69
620.466	185.69
620.673	187.69
620.88	188.69
621.087	203.69
621.294	202.69
621.501	190.69
621.708	204.69
621.915	185.69
622.122	196.69
622.329	197.69
622.536	186.69
622.743	178.69
622.95	177.69
623.157	183.69
623.364	189.69
623.571	182.69
623.778	187.69
623.985	194.69
624.192	196.69
624.399	190.69
624.606	187.69
624.812	182.69
625.019	180.69
625.226	191.69
625.433	175.69
625.639	194.69
625.846	194.69
626.053	163.69
626.259	184.69
626.466	179.69
626.673	181.69
626.879	185.69
627.086	183.69
627.293	165.69
627.499	172.69
627.706	179.69
627.912	175.69
628.119	175.69
628.325	165.69
628.532	180.69
628.738	175.69
628.945	181.69
629.151	180.69
629.357	174.69
629.564	164.69
629.77	178.69
629.976	180.69
630.183	180.69
630.389	182.69
630.595	165.69
630.802	167.69
631.008	170.69
631.214	186.69
631.42	169.69
631.627	169.69
631.833	186.69
632.039	158.69
632.245	163.69
632.451	165.69
632.657	174.69
632.863	174.69
633.069	178.69
633.275	174.69
633.481	166.69
633.688	168.69
633.893	185.69
634.099	168.69
634.305	164.69
634.511	167.69
634.717	173.69
634.923	154.69
635.129	169.69
635.335	154.69
635.541	139.69
635.747	160.69
635.952	164.69
636.158	164.69
636.364	153.69
636.57	159.69
636.775	156.69
636.981	160.69
637.187	156.69
637.392	160.69
637.598	167.69
637.804	165.69
638.009	161.69
638.215	158.69
638.421	149.69
638.626	157.69
638.832	154.69
639.037	141.69
639.243	167.69
639.448	142.69
639.654	171.69
639.859	156.69
640.065	151.69
640.27	157.69
640.475	149.69
640.681	160.69
640.886	164.69
641.091	159.69
641.297	142.69
641.502	156.69
641.707	153.69
641.913	168.69
642.118	158.69
642.323	156.69
642.528	159.69
642.733	162.69
642.939	156.69
643.144	159.69
643.349	155.69
643.554	155.69
643.759	144.69
643.964	150.69
644.169	156.69
644.374	127.69
644.579	162.69
644.784	135.69
644.989	143.69
645.194	156.69
645.399	149.69
645.604	135.69
645.809	162.69
646.014	142.69
646.219	152.69
646.423	142.69
646.628	153.69
646.833	159.69
647.038	148.69
647.243	130.69
647.447	163.69
647.652	144.69
647.857	136.69
648.062	149.69
648.266	150.69
648.471	158.69
648.676	158.69
648.88	145.69
649.085	139.69
649.289	139.69
649.494	159.69
649.698	144.69
649.903	163.69
650.107	156.69
650.312	134.69
650.516	153.69
650.721	143.69
650.925	142.69
651.13	138.69
651.334	127.69
651.539	130.69
651.743	143.69
651.947	137.69
652.152	133.69
652.356	140.69
652.56	125.69
652.764	132.69
652.969	140.69
653.173	132.69
653.377	121.69
653.581	133.69
653.785	134.69
653.99	119.69
654.194	126.69
654.398	132.69
654.602	126.69
654.806	121.69
655.01	131.69
655.214	135.69
655.418	126.69
655.622	126.69
655.826	127.69
656.03	138.69
656.234	128.69
656.438	133.69
656.642	126.69
656.846	131.69
657.049	128.69
657.253	127.69
657.457	127.69
657.661	106.69
657.865	110.69
658.068	122.69
658.272	126.69
658.476	110.69
658.68	119.69
658.883	101.69
659.087	80.69
659.291	99.69
659.494	117.69
659.698	95.69
659.901	99.69
660.105	85.69
660.309	96.69
660.512	89.69
660.716	99.69
660.919	104.69
661.123	102.69
661.326	101.69
661.53	87.69
661.733	95.69
661.936	85.69
662.14	93.69
662.343	96.69
662.546	95.69
662.75	83.69
662.953	92.69
663.156	84.69
663.36	79.69
663.563	89.69
663.766	82.69
663.969	93.69
664.173	93.69
664.376	86.69
664.579	86.69
664.782	76.69
664.985	84.69
665.188	88.69
665.391	86.69
665.594	74.69
665.797	83.69
666	88.69
666.203	83.69
666.406	86.69
666.609	85.69
666.812	92.69
667.015	92.69
667.218	84.69
667.421	94.69
667.624	80.69
667.827	79.69
668.03	84.69
668.232	88.69
668.435	75.69
668.638	73.69
668.841	88.69
669.043	87.69
669.246	79.69
669.449	87.69
669.651	76.69
669.854	81.69
670.057	86.69
670.259	76.69
670.462	90.69
670.665	80.69
670.867	79.69
671.07	81.69
671.272	84.69
671.475	99.69
671.677	81.69
671.88	87.69
672.082	74.69
672.284	92.69
672.487	83.69
672.689	87.69
672.892	85.69
