Data from 1977.PennyLincolnUp.Lamp.En5.5.200Scan.071719.P1_HRD10591_16-05-41-863.txt Node
Date: Thu Jul 18 16:05:41 EDT 2019
User: cochatt
Spectrometer: HR+D1059
Trigger mode: 1
Integration Time (sec): 1.000000E-1
Scans to average: 1
Electric dark correction enabled: true
Nonlinearity correction enabled: false
Boxcar width: 0
XAxis mode: Wavelengths
Number of Pixels in Spectrum: 2048
>>>>>Begin Spectral Data<<<<<
223.165	-19.94
223.4	-19.94
223.635	-19.94
223.869	-13.94
224.104	3.06
224.338	-22.94
224.573	-12.94
224.808	-18.94
225.042	-11.94
225.277	2.06
225.511	-0.94
225.746	12.06
225.98	6.06
226.215	8.06
226.449	1.06
226.683	23.06
226.918	25.06
227.152	21.06
227.387	44.06
227.621	29.06
227.856	42.06
228.09	48.06
228.324	46.06
228.559	54.06
228.793	60.06
229.027	86.06
229.262	92.06
229.496	104.06
229.73	107.06
229.964	126.06
230.199	124.06
230.433	117.06
230.667	108.06
230.901	103.06
231.136	95.06
231.37	121.06
231.604	115.06
231.838	102.06
232.072	121.06
232.306	114.06
232.541	104.06
232.775	93.06
233.009	108.06
233.243	109.06
233.477	119.06
233.711	115.06
233.945	114.06
234.179	99.06
234.413	105.06
234.647	106.06
234.881	128.06
235.115	107.06
235.349	111.06
235.583	126.06
235.817	119.06
236.051	125.06
236.285	125.06
236.519	116.06
236.753	123.06
236.987	133.06
237.221	132.06
237.455	188.06
237.689	161.06
237.922	127.06
238.156	119.06
238.39	123.06
238.624	128.06
238.858	115.06
239.091	119.06
239.325	115.06
239.559	126.06
239.793	115.06
240.027	131.06
240.26	132.06
240.494	162.06
240.728	146.06
240.961	131.06
241.195	136.06
241.429	138.06
241.662	125.06
241.896	117.06
242.13	141.06
242.363	138.06
242.597	120.06
242.83	134.06
243.064	128.06
243.298	122.06
243.531	131.06
243.765	121.06
243.998	143.06
244.232	127.06
244.465	123.06
244.699	147.06
244.932	147.06
245.166	139.06
245.399	138.06
245.633	152.06
245.866	135.06
246.099	120.06
246.333	145.06
246.566	141.06
246.8	142.06
247.033	155.06
247.266	148.06
247.5	155.06
247.733	152.06
247.966	167.06
248.2	154.06
248.433	159.06
248.666	164.06
248.899	166.06
249.133	177.06
249.366	201.06
249.599	192.06
249.832	165.06
250.066	165.06
250.299	154.06
250.532	185.06
250.765	192.06
250.998	202.06
251.231	193.06
251.465	188.06
251.698	170.06
251.931	171.06
252.164	182.06
252.397	180.06
252.63	179.06
252.863	192.06
253.096	194.06
253.329	191.06
253.562	207.06
253.795	202.06
254.028	197.06
254.261	199.06
254.494	209.06
254.727	209.06
254.96	260.06
255.193	240.06
255.426	222.06
255.659	212.06
255.892	212.06
256.124	214.06
256.357	220.06
256.59	187.06
256.823	220.06
257.056	193.06
257.289	182.06
257.521	183.06
257.754	191.06
257.987	195.06
258.22	195.06
258.452	213.06
258.685	207.06
258.918	208.06
259.151	210.06
259.383	200.06
259.616	202.06
259.849	224.06
260.081	233.06
260.314	222.06
260.547	232.06
260.779	224.06
261.012	228.06
261.244	220.06
261.477	221.06
261.71	215.06
261.942	202.06
262.175	210.06
262.407	214.06
262.64	199.06
262.872	213.06
263.105	217.06
263.337	192.06
263.57	208.06
263.802	202.06
264.035	209.06
264.267	212.06
264.499	193.06
264.732	195.06
264.964	195.06
265.197	217.06
265.429	213.06
265.661	190.06
265.894	221.06
266.126	214.06
266.358	221.06
266.591	212.06
266.823	210.06
267.055	217.06
267.287	228.06
267.52	226.06
267.752	240.06
267.984	213.06
268.216	243.06
268.448	213.06
268.681	226.06
268.913	257.06
269.145	249.06
269.377	274.06
269.609	266.06
269.841	258.06
270.073	257.06
270.306	275.06
270.538	273.06
270.77	296.06
271.002	270.06
271.234	273.06
271.466	274.06
271.698	288.06
271.93	288.06
272.162	293.06
272.394	290.06
272.626	281.06
272.858	270.06
273.09	265.06
273.322	276.06
273.553	262.06
273.785	266.06
274.017	252.06
274.249	252.06
274.481	255.06
274.713	245.06
274.945	265.06
275.176	252.06
275.408	264.06
275.64	279.06
275.872	251.06
276.104	261.06
276.335	275.06
276.567	272.06
276.799	287.06
277.031	280.06
277.262	301.06
277.494	300.06
277.726	283.06
277.957	286.06
278.189	280.06
278.421	281.06
278.652	262.06
278.884	265.06
279.115	257.06
279.347	261.06
279.579	279.06
279.81	279.06
280.042	269.06
280.273	270.06
280.505	269.06
280.736	280.06
280.968	275.06
281.199	264.06
281.431	266.06
281.662	263.06
281.894	264.06
282.125	269.06
282.356	274.06
282.588	292.06
282.819	301.06
283.051	288.06
283.282	289.06
283.513	283.06
283.745	263.06
283.976	291.06
284.207	313.06
284.439	278.06
284.67	288.06
284.901	288.06
285.132	286.06
285.364	292.06
285.595	282.06
285.826	273.06
286.057	286.06
286.288	283.06
286.52	281.06
286.751	286.06
286.982	292.06
287.213	270.06
287.444	287.06
287.675	309.06
287.906	294.06
288.138	309.06
288.369	307.06
288.6	306.06
288.831	292.06
289.062	314.06
289.293	316.06
289.524	312.06
289.755	322.06
289.986	291.06
290.217	300.06
290.448	297.06
290.679	306.06
290.91	288.06
291.141	293.06
291.371	287.06
291.602	307.06
291.833	282.06
292.064	301.06
292.295	301.06
292.526	295.06
292.757	288.06
292.987	316.06
293.218	309.06
293.449	294.06
293.68	306.06
293.91	286.06
294.141	310.06
294.372	299.06
294.603	309.06
294.833	307.06
295.064	288.06
295.295	295.06
295.525	305.06
295.756	286.06
295.987	310.06
296.217	315.06
296.448	338.06
296.679	337.06
296.909	310.06
297.14	292.06
297.37	312.06
297.601	315.06
297.831	327.06
298.062	322.06
298.292	306.06
298.523	310.06
298.753	325.06
298.984	314.06
299.214	335.06
299.445	318.06
299.675	299.06
299.905	307.06
300.136	315.06
300.366	326.06
300.597	310.06
300.827	333.06
301.057	343.06
301.288	343.06
301.518	312.06
301.748	329.06
301.979	327.06
302.209	342.06
302.439	333.06
302.669	323.06
302.9	343.06
303.13	341.06
303.36	326.06
303.59	346.06
303.82	339.06
304.051	346.06
304.281	326.06
304.511	312.06
304.741	338.06
304.971	347.06
305.201	346.06
305.431	345.06
305.661	340.06
305.891	343.06
306.121	347.06
306.352	330.06
306.582	346.06
306.812	345.06
307.042	338.06
307.272	341.06
307.502	345.06
307.731	349.06
307.961	346.06
308.191	328.06
308.421	332.06
308.651	353.06
308.881	338.06
309.111	353.06
309.341	349.06
309.571	352.06
309.8	361.06
310.03	365.06
310.26	379.06
310.49	360.06
310.72	371.06
310.949	374.06
311.179	345.06
311.409	369.06
311.639	378.06
311.868	363.06
312.098	381.06
312.328	372.06
312.557	376.06
312.787	383.06
313.017	396.06
313.246	362.06
313.476	348.06
313.706	378.06
313.935	381.06
314.165	362.06
314.394	392.06
314.624	392.06
314.853	397.06
315.083	379.06
315.312	387.06
315.542	379.06
315.771	364.06
316.001	378.06
316.23	364.06
316.46	380.06
316.689	384.06
316.919	386.06
317.148	390.06
317.377	378.06
317.607	359.06
317.836	388.06
318.065	388.06
318.295	369.06
318.524	374.06
318.753	363.06
318.983	372.06
319.212	374.06
319.441	376.06
319.67	392.06
319.9	385.06
320.129	380.06
320.358	385.06
320.587	389.06
320.816	398.06
321.046	402.06
321.275	405.06
321.504	385.06
321.733	409.06
321.962	384.06
322.191	397.06
322.42	406.06
322.649	418.06
322.878	419.06
323.108	424.06
323.337	426.06
323.566	445.06
323.795	477.06
324.024	508.06
324.253	562.06
324.482	765.06
324.71	1127.06
324.939	1537.06
325.168	1308.06
325.397	721.06
325.626	546.06
325.855	491.06
326.084	475.06
326.313	456.06
326.542	452.06
326.77	469.06
326.999	539.06
327.228	715.06
327.457	1014.06
327.686	1172.06
327.914	818.06
328.143	582.06
328.372	515.06
328.6	482.06
328.829	514.06
329.058	514.06
329.287	489.06
329.515	458.06
329.744	463.06
329.972	442.06
330.201	469.06
330.43	500.06
330.658	491.06
330.887	502.06
331.115	488.06
331.344	484.06
331.572	457.06
331.801	458.06
332.03	452.06
332.258	468.06
332.486	446.06
332.715	459.06
332.943	444.06
333.172	473.06
333.4	452.06
333.629	453.06
333.857	464.06
334.085	474.06
334.314	485.06
334.542	488.06
334.771	494.06
334.999	485.06
335.227	473.06
335.455	451.06
335.684	446.06
335.912	445.06
336.14	469.06
336.369	451.06
336.597	442.06
336.825	435.06
337.053	435.06
337.281	442.06
337.51	431.06
337.738	447.06
337.966	416.06
338.194	416.06
338.422	428.06
338.65	454.06
338.878	425.06
339.106	411.06
339.334	445.06
339.562	416.06
339.79	441.06
340.018	417.06
340.246	412.06
340.474	421.06
340.702	429.06
340.93	420.06
341.158	408.06
341.386	421.06
341.614	443.06
341.842	414.06
342.07	407.06
342.298	423.06
342.526	415.06
342.754	421.06
342.981	395.06
343.209	418.06
343.437	422.06
343.665	412.06
343.893	458.06
344.12	460.06
344.348	467.06
344.576	435.06
344.804	458.06
345.031	424.06
345.259	434.06
345.487	426.06
345.714	405.06
345.942	413.06
346.17	390.06
346.397	384.06
346.625	411.06
346.853	404.06
347.08	380.06
347.308	408.06
347.535	404.06
347.763	397.06
347.99	412.06
348.218	389.06
348.445	419.06
348.673	405.06
348.9	411.06
349.128	421.06
349.355	395.06
349.583	394.06
349.81	375.06
350.037	368.06
350.265	392.06
350.492	380.06
350.72	394.06
350.947	421.06
351.174	399.06
351.402	408.06
351.629	411.06
351.856	394.06
352.083	389.06
352.311	394.06
352.538	426.06
352.765	399.06
352.992	414.06
353.22	410.06
353.447	385.06
353.674	377.06
353.901	396.06
354.128	379.06
354.355	372.06
354.583	369.06
354.81	377.06
355.037	373.06
355.264	372.06
355.491	382.06
355.718	370.06
355.945	373.06
356.172	370.06
356.399	374.06
356.626	357.06
356.853	380.06
357.08	378.06
357.307	390.06
357.534	376.06
357.761	377.06
357.988	380.06
358.215	363.06
358.441	373.06
358.668	378.06
358.895	397.06
359.122	370.06
359.349	370.06
359.576	380.06
359.802	408.06
360.029	417.06
360.256	425.06
360.483	418.06
360.709	417.06
360.936	384.06
361.163	385.06
361.39	374.06
361.616	390.06
361.843	402.06
362.07	386.06
362.296	381.06
362.523	383.06
362.749	389.06
362.976	374.06
363.203	374.06
363.429	375.06
363.656	401.06
363.882	373.06
364.109	353.06
364.335	342.06
364.562	382.06
364.788	378.06
365.015	389.06
365.241	365.06
365.468	388.06
365.694	388.06
365.92	388.06
366.147	393.06
366.373	373.06
366.599	377.06
366.826	365.06
367.052	361.06
367.278	372.06
367.505	379.06
367.731	363.06
367.957	357.06
368.184	376.06
368.41	396.06
368.636	384.06
368.862	361.06
369.089	370.06
369.315	380.06
369.541	394.06
369.767	357.06
369.993	359.06
370.219	389.06
370.445	376.06
370.672	375.06
370.898	372.06
371.124	395.06
371.35	381.06
371.576	372.06
371.802	369.06
372.028	374.06
372.254	378.06
372.48	379.06
372.706	380.06
372.932	373.06
373.158	384.06
373.384	386.06
373.61	378.06
373.835	387.06
374.061	374.06
374.287	395.06
374.513	386.06
374.739	391.06
374.965	386.06
375.191	393.06
375.416	386.06
375.642	387.06
375.868	373.06
376.094	382.06
376.319	376.06
376.545	380.06
376.771	374.06
376.997	377.06
377.222	381.06
377.448	374.06
377.674	383.06
377.899	365.06
378.125	368.06
378.35	354.06
378.576	354.06
378.802	354.06
379.027	383.06
379.253	377.06
379.478	370.06
379.704	368.06
379.929	369.06
380.155	390.06
380.38	368.06
380.606	390.06
380.831	355.06
381.057	370.06
381.282	377.06
381.507	385.06
381.733	380.06
381.958	374.06
382.184	376.06
382.409	388.06
382.634	402.06
382.86	390.06
383.085	401.06
383.31	392.06
383.535	388.06
383.761	378.06
383.986	388.06
384.211	399.06
384.436	415.06
384.662	394.06
384.887	406.06
385.112	410.06
385.337	414.06
385.562	401.06
385.787	408.06
386.013	422.06
386.238	407.06
386.463	433.06
386.688	425.06
386.913	418.06
387.138	433.06
387.363	397.06
387.588	417.06
387.813	420.06
388.038	421.06
388.263	400.06
388.488	427.06
388.713	410.06
388.938	434.06
389.163	410.06
389.387	423.06
389.612	390.06
389.837	411.06
390.062	416.06
390.287	426.06
390.512	438.06
390.736	416.06
390.961	418.06
391.186	424.06
391.411	417.06
391.636	433.06
391.86	448.06
392.085	426.06
392.31	421.06
392.534	428.06
392.759	423.06
392.984	429.06
393.208	420.06
393.433	422.06
393.658	429.06
393.882	412.06
394.107	420.06
394.331	408.06
394.556	436.06
394.78	424.06
395.005	408.06
395.229	430.06
395.454	428.06
395.678	450.06
395.903	449.06
396.127	440.06
396.352	436.06
396.576	434.06
396.801	421.06
397.025	411.06
397.249	443.06
397.474	436.06
397.698	420.06
397.922	454.06
398.147	452.06
398.371	451.06
398.595	466.06
398.82	461.06
399.044	481.06
399.268	512.06
399.492	550.06
399.717	560.06
399.941	588.06
400.165	599.06
400.389	589.06
400.613	544.06
400.837	486.06
401.062	477.06
401.286	465.06
401.51	473.06
401.734	463.06
401.958	465.06
402.182	469.06
402.406	466.06
402.63	476.06
402.854	511.06
403.078	492.06
403.302	486.06
403.526	489.06
403.75	488.06
403.974	483.06
404.198	472.06
404.422	478.06
404.645	488.06
404.869	519.06
405.093	515.06
405.317	527.06
405.541	541.06
405.765	516.06
405.988	500.06
406.212	533.06
406.436	532.06
406.66	514.06
406.883	534.06
407.107	530.06
407.331	580.06
407.555	624.06
407.778	628.06
408.002	567.06
408.226	548.06
408.449	542.06
408.673	509.06
408.896	544.06
409.12	560.06
409.344	566.06
409.567	520.06
409.791	512.06
410.014	478.06
410.238	490.06
410.461	501.06
410.685	485.06
410.908	492.06
411.132	514.06
411.355	530.06
411.578	534.06
411.802	475.06
412.025	507.06
412.249	501.06
412.472	506.06
412.695	512.06
412.919	519.06
413.142	470.06
413.365	470.06
413.589	484.06
413.812	465.06
414.035	477.06
414.258	456.06
414.482	468.06
414.705	471.06
414.928	456.06
415.151	452.06
415.374	438.06
415.597	440.06
415.821	455.06
416.044	429.06
416.267	462.06
416.49	434.06
416.713	432.06
416.936	452.06
417.159	457.06
417.382	437.06
417.605	466.06
417.828	452.06
418.051	441.06
418.274	454.06
418.497	452.06
418.72	454.06
418.943	466.06
419.166	470.06
419.389	504.06
419.611	480.06
419.834	473.06
420.057	463.06
420.28	489.06
420.503	442.06
420.726	462.06
420.948	477.06
421.171	489.06
421.394	518.06
421.617	478.06
421.839	473.06
422.062	472.06
422.285	488.06
422.507	522.06
422.73	588.06
422.953	548.06
423.175	508.06
423.398	477.06
423.621	488.06
423.843	502.06
424.066	518.06
424.288	476.06
424.511	496.06
424.733	547.06
424.956	628.06
425.178	560.06
425.401	574.06
425.623	576.06
425.846	500.06
426.068	503.06
426.291	480.06
426.513	510.06
426.735	486.06
426.958	520.06
427.18	578.06
427.402	667.06
427.625	742.06
427.847	644.06
428.069	558.06
428.292	498.06
428.514	487.06
428.736	457.06
428.958	436.06
429.181	445.06
429.403	456.06
429.625	437.06
429.847	476.06
430.069	502.06
430.292	517.06
430.514	458.06
430.736	452.06
430.958	428.06
431.18	418.06
431.402	422.06
431.624	421.06
431.846	441.06
432.068	410.06
432.29	424.06
432.512	426.06
432.734	427.06
432.956	446.06
433.178	425.06
433.4	449.06
433.622	444.06
433.844	437.06
434.066	417.06
434.287	436.06
434.509	447.06
434.731	442.06
434.953	463.06
435.175	442.06
435.397	470.06
435.618	482.06
435.84	503.06
436.062	561.06
436.284	630.06
436.505	516.06
436.727	477.06
436.949	462.06
437.17	441.06
437.392	458.06
437.614	459.06
437.835	470.06
438.057	523.06
438.278	600.06
438.5	598.06
438.721	700.06
438.943	658.06
439.165	540.06
439.386	486.06
439.608	487.06
439.829	468.06
440.05	473.06
440.272	511.06
440.493	484.06
440.715	462.06
440.936	442.06
441.158	461.06
441.379	456.06
441.6	453.06
441.822	485.06
442.043	504.06
442.264	559.06
442.486	618.06
442.707	504.06
442.928	485.06
443.149	520.06
443.371	507.06
443.592	542.06
443.813	603.06
444.034	655.06
444.255	560.06
444.476	483.06
444.698	514.06
444.919	494.06
445.14	606.06
445.361	545.06
445.582	522.06
445.803	546.06
446.024	633.06
446.245	650.06
446.466	559.06
446.687	532.06
446.908	477.06
447.129	441.06
447.35	425.06
447.571	442.06
447.792	451.06
448.013	439.06
448.234	440.06
448.455	480.06
448.675	580.06
448.896	648.06
449.117	551.06
449.338	550.06
449.559	620.06
449.779	709.06
450	557.06
450.221	468.06
450.442	458.06
450.662	443.06
450.883	438.06
451.104	419.06
451.324	424.06
451.545	416.06
451.766	409.06
451.986	393.06
452.207	375.06
452.428	389.06
452.648	390.06
452.869	380.06
453.089	394.06
453.31	393.06
453.53	391.06
453.751	391.06
453.971	393.06
454.192	404.06
454.412	370.06
454.633	405.06
454.853	397.06
455.073	388.06
455.294	420.06
455.514	444.06
455.734	452.06
455.955	385.06
456.175	373.06
456.395	384.06
456.616	364.06
456.836	366.06
457.056	359.06
457.276	369.06
457.497	384.06
457.717	370.06
457.937	375.06
458.157	387.06
458.377	407.06
458.598	400.06
458.818	428.06
459.038	487.06
459.258	505.06
459.478	437.06
459.698	423.06
459.918	444.06
460.138	439.06
460.358	445.06
460.578	425.06
460.798	442.06
461.018	455.06
461.238	434.06
461.458	438.06
461.678	449.06
461.898	462.06
462.118	446.06
462.338	470.06
462.558	467.06
462.777	471.06
462.997	487.06
463.217	498.06
463.437	516.06
463.657	463.06
463.876	468.06
464.096	490.06
464.316	492.06
464.536	514.06
464.755	468.06
464.975	496.06
465.195	472.06
465.414	504.06
465.634	472.06
465.854	437.06
466.073	410.06
466.293	393.06
466.512	422.06
466.732	407.06
466.951	399.06
467.171	416.06
467.391	424.06
467.61	411.06
467.829	423.06
468.049	410.06
468.268	411.06
468.488	395.06
468.707	386.06
468.927	392.06
469.146	380.06
469.365	390.06
469.585	391.06
469.804	406.06
470.023	419.06
470.243	418.06
470.462	389.06
470.681	418.06
470.901	412.06
471.12	419.06
471.339	409.06
471.558	408.06
471.777	402.06
471.997	418.06
472.216	416.06
472.435	416.06
472.654	397.06
472.873	416.06
473.092	402.06
473.311	399.06
473.53	403.06
473.749	417.06
473.968	443.06
474.187	520.06
474.406	515.06
474.625	437.06
474.844	418.06
475.063	409.06
475.282	417.06
475.501	398.06
475.72	418.06
475.939	415.06
476.158	441.06
476.377	430.06
476.596	424.06
476.814	434.06
477.033	423.06
477.252	427.06
477.471	445.06
477.69	442.06
477.908	450.06
478.127	472.06
478.346	466.06
478.564	453.06
478.783	454.06
479.002	459.06
479.22	487.06
479.439	478.06
479.658	464.06
479.876	499.06
480.095	526.06
480.313	514.06
480.532	488.06
480.751	490.06
480.969	514.06
481.188	520.06
481.406	522.06
481.624	493.06
481.843	476.06
482.061	463.06
482.28	478.06
482.498	477.06
482.717	480.06
482.935	464.06
483.153	460.06
483.372	453.06
483.59	459.06
483.808	464.06
484.027	466.06
484.245	476.06
484.463	469.06
484.681	473.06
484.9	465.06
485.118	478.06
485.336	480.06
485.554	474.06
485.772	508.06
485.99	475.06
486.209	486.06
486.427	483.06
486.645	482.06
486.863	480.06
487.081	503.06
487.299	510.06
487.517	480.06
487.735	516.06
487.953	497.06
488.171	469.06
488.389	476.06
488.607	484.06
488.825	475.06
489.043	498.06
489.261	504.06
489.479	496.06
489.696	487.06
489.914	520.06
490.132	510.06
490.35	512.06
490.568	515.06
490.786	502.06
491.003	526.06
491.221	547.06
491.439	546.06
491.657	544.06
491.874	544.06
492.092	568.06
492.31	549.06
492.527	564.06
492.745	547.06
492.963	561.06
493.18	552.06
493.398	560.06
493.615	588.06
493.833	562.06
494.05	551.06
494.268	557.06
494.485	578.06
494.703	563.06
494.92	567.06
495.138	573.06
495.355	589.06
495.573	549.06
495.79	594.06
496.008	559.06
496.225	573.06
496.442	575.06
496.66	587.06
496.877	549.06
497.094	597.06
497.312	603.06
497.529	604.06
497.746	635.06
497.963	600.06
498.181	652.06
498.398	664.06
498.615	663.06
498.832	693.06
499.049	738.06
499.267	723.06
499.484	748.06
499.701	784.06
499.918	790.06
500.135	852.06
500.352	887.06
500.569	934.06
500.786	917.06
501.003	918.06
501.22	869.06
501.437	814.06
501.654	789.06
501.871	770.06
502.088	743.06
502.305	696.06
502.522	688.06
502.739	686.06
502.956	657.06
503.172	638.06
503.389	628.06
503.606	621.06
503.823	607.06
504.04	613.06
504.256	594.06
504.473	598.06
504.69	601.06
504.907	583.06
505.123	586.06
505.34	582.06
505.557	554.06
505.773	547.06
505.99	554.06
506.207	560.06
506.423	561.06
506.64	577.06
506.856	522.06
507.073	545.06
507.289	526.06
507.506	520.06
507.722	530.06
507.939	546.06
508.155	523.06
508.372	514.06
508.588	499.06
508.805	509.06
509.021	501.06
509.238	528.06
509.454	537.06
509.67	506.06
509.887	506.06
510.103	499.06
510.319	513.06
510.536	579.06
510.752	794.06
510.968	660.06
511.184	522.06
511.401	499.06
511.617	483.06
511.833	472.06
512.049	479.06
512.265	487.06
512.481	486.06
512.698	473.06
512.914	494.06
513.13	483.06
513.346	473.06
513.562	490.06
513.778	490.06
513.994	501.06
514.21	485.06
514.426	496.06
514.642	518.06
514.858	530.06
515.074	532.06
515.29	617.06
515.506	822.06
515.721	691.06
515.937	560.06
516.153	551.06
516.369	506.06
516.585	507.06
516.801	512.06
517.016	522.06
517.232	526.06
517.448	502.06
517.664	526.06
517.879	521.06
518.095	514.06
518.311	532.06
518.527	536.06
518.742	502.06
518.958	500.06
519.173	508.06
519.389	516.06
519.605	483.06
519.82	506.06
520.036	489.06
520.251	490.06
520.467	496.06
520.682	514.06
520.898	506.06
521.113	500.06
521.329	544.06
521.544	550.06
521.76	650.06
521.975	995.06
522.19	914.06
522.406	587.06
522.621	498.06
522.836	482.06
523.052	462.06
523.267	461.06
523.482	442.06
523.698	450.06
523.913	460.06
524.128	444.06
524.343	426.06
524.559	444.06
524.774	440.06
524.989	419.06
525.204	421.06
525.419	418.06
525.634	412.06
525.849	442.06
526.064	433.06
526.28	410.06
526.495	422.06
526.71	421.06
526.925	424.06
527.14	411.06
527.355	396.06
527.57	405.06
527.785	425.06
527.999	406.06
528.214	404.06
528.429	404.06
528.644	413.06
528.859	389.06
529.074	400.06
529.289	411.06
529.503	446.06
529.718	447.06
529.933	426.06
530.148	418.06
530.363	416.06
530.577	420.06
530.792	405.06
531.007	395.06
531.221	406.06
531.436	396.06
531.651	398.06
531.865	397.06
532.08	404.06
532.295	402.06
532.509	392.06
532.724	398.06
532.938	412.06
533.153	426.06
533.367	394.06
533.582	397.06
533.796	390.06
534.011	406.06
534.225	412.06
534.44	388.06
534.654	404.06
534.868	395.06
535.083	381.06
535.297	394.06
535.511	399.06
535.726	402.06
535.94	392.06
536.154	388.06
536.369	368.06
536.583	370.06
536.797	365.06
537.011	380.06
537.225	383.06
537.44	379.06
537.654	384.06
537.868	360.06
538.082	382.06
538.296	375.06
538.51	369.06
538.724	388.06
538.938	389.06
539.153	365.06
539.367	384.06
539.581	374.06
539.795	394.06
540.009	376.06
540.222	391.06
540.436	361.06
540.65	398.06
540.864	394.06
541.078	370.06
541.292	377.06
541.506	376.06
541.72	375.06
541.934	375.06
542.147	377.06
542.361	383.06
542.575	385.06
542.789	398.06
543.002	388.06
543.216	362.06
543.43	402.06
543.644	384.06
543.857	381.06
544.071	390.06
544.285	380.06
544.498	387.06
544.712	365.06
544.925	382.06
545.139	375.06
545.352	376.06
545.566	380.06
545.779	375.06
545.993	383.06
546.206	364.06
546.42	378.06
546.633	378.06
546.847	388.06
547.06	368.06
547.274	349.06
547.487	362.06
547.7	357.06
547.914	365.06
548.127	349.06
548.34	378.06
548.554	373.06
548.767	362.06
548.98	372.06
549.193	377.06
549.407	376.06
549.62	377.06
549.833	378.06
550.046	377.06
550.259	362.06
550.473	356.06
550.686	365.06
550.899	362.06
551.112	357.06
551.325	354.06
551.538	358.06
551.751	352.06
551.964	362.06
552.177	357.06
552.39	350.06
552.603	366.06
552.816	358.06
553.029	348.06
553.242	362.06
553.455	375.06
553.667	372.06
553.88	373.06
554.093	372.06
554.306	353.06
554.519	356.06
554.732	363.06
554.944	379.06
555.157	370.06
555.37	361.06
555.583	364.06
555.795	351.06
556.008	348.06
556.221	337.06
556.433	349.06
556.646	352.06
556.859	340.06
557.071	333.06
557.284	343.06
557.496	339.06
557.709	320.06
557.921	314.06
558.134	330.06
558.346	320.06
558.559	326.06
558.771	325.06
558.984	339.06
559.196	337.06
559.409	344.06
559.621	298.06
559.833	306.06
560.046	308.06
560.258	313.06
560.47	306.06
560.683	305.06
560.895	311.06
561.107	324.06
561.32	312.06
561.532	336.06
561.744	327.06
561.956	318.06
562.168	324.06
562.381	331.06
562.593	355.06
562.805	327.06
563.017	337.06
563.229	324.06
563.441	334.06
563.653	344.06
563.865	331.06
564.077	340.06
564.289	330.06
564.501	348.06
564.713	333.06
564.925	339.06
565.137	359.06
565.349	369.06
565.561	362.06
565.773	360.06
565.985	375.06
566.197	377.06
566.408	391.06
566.62	421.06
566.832	413.06
567.044	417.06
567.255	418.06
567.467	428.06
567.679	436.06
567.891	444.06
568.102	460.06
568.314	442.06
568.526	439.06
568.737	405.06
568.949	408.06
569.161	375.06
569.372	357.06
569.584	346.06
569.795	348.06
570.007	334.06
570.218	370.06
570.43	365.06
570.641	337.06
570.853	332.06
571.064	333.06
571.276	310.06
571.487	308.06
571.698	325.06
571.91	318.06
572.121	318.06
572.333	295.06
572.544	297.06
572.755	280.06
572.966	289.06
573.178	305.06
573.389	305.06
573.6	305.06
573.811	279.06
574.023	304.06
574.234	286.06
574.445	288.06
574.656	290.06
574.867	292.06
575.078	285.06
575.289	256.06
575.501	264.06
575.712	292.06
575.923	284.06
576.134	255.06
576.345	277.06
576.556	275.06
576.767	270.06
576.978	274.06
577.188	283.06
577.399	266.06
577.61	276.06
577.821	270.06
578.032	273.06
578.243	304.06
578.454	394.06
578.665	325.06
578.875	290.06
579.086	265.06
579.297	266.06
579.508	265.06
579.718	297.06
579.929	251.06
580.14	266.06
580.35	257.06
580.561	265.06
580.772	260.06
580.982	269.06
581.193	246.06
581.403	266.06
581.614	270.06
581.825	265.06
582.035	265.06
582.246	249.06
582.456	263.06
582.667	270.06
582.877	244.06
583.087	252.06
583.298	262.06
583.508	268.06
583.719	268.06
583.929	264.06
584.139	261.06
584.35	260.06
584.56	252.06
584.77	274.06
584.981	250.06
585.191	240.06
585.401	267.06
585.611	247.06
585.821	264.06
586.032	261.06
586.242	260.06
586.452	248.06
586.662	246.06
586.872	265.06
587.082	243.06
587.292	243.06
587.502	250.06
587.713	246.06
587.923	266.06
588.133	248.06
588.343	224.06
588.553	266.06
588.762	248.06
588.972	242.06
589.182	267.06
589.392	247.06
589.602	240.06
589.812	258.06
590.022	257.06
590.232	248.06
590.441	234.06
590.651	247.06
590.861	252.06
591.071	260.06
591.281	249.06
591.49	230.06
591.7	252.06
591.91	245.06
592.119	267.06
592.329	272.06
592.539	268.06
592.748	277.06
592.958	268.06
593.167	250.06
593.377	276.06
593.587	292.06
593.796	295.06
594.006	284.06
594.215	252.06
594.424	270.06
594.634	279.06
594.843	244.06
595.053	273.06
595.262	250.06
595.472	272.06
595.681	253.06
595.89	243.06
596.1	258.06
596.309	265.06
596.518	246.06
596.727	230.06
596.937	220.06
597.146	239.06
597.355	248.06
597.564	222.06
597.774	244.06
597.983	204.06
598.192	229.06
598.401	245.06
598.61	234.06
598.819	218.06
599.028	227.06
599.237	216.06
599.446	229.06
599.655	229.06
599.864	224.06
600.073	235.06
600.282	217.06
600.491	242.06
600.7	223.06
600.909	214.06
601.118	218.06
601.327	229.06
601.536	227.06
601.745	212.06
601.953	233.06
602.162	215.06
602.371	221.06
602.58	217.06
602.789	218.06
602.997	219.06
603.206	231.06
603.415	225.06
603.623	213.06
603.832	213.06
604.041	217.06
604.249	214.06
604.458	207.06
604.666	204.06
604.875	216.06
605.084	215.06
605.292	204.06
605.501	206.06
605.709	216.06
605.918	214.06
606.126	201.06
606.334	199.06
606.543	222.06
606.751	230.06
606.96	199.06
607.168	218.06
607.376	190.06
607.585	214.06
607.793	207.06
608.001	205.06
608.21	203.06
608.418	207.06
608.626	211.06
608.834	212.06
609.043	198.06
609.251	197.06
609.459	202.06
609.667	216.06
609.875	211.06
610.083	198.06
610.291	220.06
610.499	216.06
610.707	205.06
610.916	198.06
611.124	202.06
611.332	201.06
611.54	205.06
611.748	222.06
611.955	210.06
612.163	209.06
612.371	216.06
612.579	201.06
612.787	204.06
612.995	201.06
613.203	195.06
613.411	188.06
613.618	214.06
613.826	205.06
614.034	203.06
614.242	219.06
614.449	197.06
614.657	198.06
614.865	183.06
615.072	198.06
615.28	195.06
615.488	202.06
615.695	203.06
615.903	195.06
616.111	201.06
616.318	208.06
616.526	190.06
616.733	210.06
616.941	200.06
617.148	205.06
617.356	208.06
617.563	218.06
617.771	199.06
617.978	210.06
618.185	204.06
618.393	209.06
618.6	194.06
618.807	206.06
619.015	190.06
619.222	190.06
619.429	200.06
619.637	196.06
619.844	181.06
620.051	198.06
620.258	186.06
620.466	208.06
620.673	180.06
620.88	193.06
621.087	193.06
621.294	182.06
621.501	192.06
621.708	189.06
621.915	189.06
622.122	202.06
622.329	190.06
622.536	209.06
622.743	192.06
622.95	183.06
623.157	197.06
623.364	202.06
623.571	194.06
623.778	211.06
623.985	204.06
624.192	188.06
624.399	169.06
624.606	197.06
624.812	188.06
625.019	199.06
625.226	186.06
625.433	169.06
625.639	183.06
625.846	186.06
626.053	183.06
626.259	185.06
626.466	186.06
626.673	186.06
626.879	187.06
627.086	193.06
627.293	171.06
627.499	162.06
627.706	172.06
627.912	176.06
628.119	166.06
628.325	157.06
628.532	173.06
628.738	179.06
628.945	190.06
629.151	170.06
629.357	168.06
629.564	170.06
629.77	179.06
629.976	170.06
630.183	173.06
630.389	179.06
630.595	147.06
630.802	168.06
631.008	164.06
631.214	176.06
631.42	171.06
631.627	170.06
631.833	171.06
632.039	162.06
632.245	167.06
632.451	154.06
632.657	174.06
632.863	157.06
633.069	164.06
633.275	172.06
633.481	162.06
633.688	150.06
633.893	168.06
634.099	168.06
634.305	154.06
634.511	166.06
634.717	156.06
634.923	154.06
635.129	156.06
635.335	160.06
635.541	161.06
635.747	163.06
635.952	148.06
636.158	166.06
636.364	154.06
636.57	164.06
636.775	163.06
636.981	184.06
637.187	152.06
637.392	163.06
637.598	165.06
637.804	153.06
638.009	163.06
638.215	169.06
638.421	162.06
638.626	170.06
638.832	153.06
639.037	170.06
639.243	157.06
639.448	161.06
639.654	155.06
639.859	161.06
640.065	157.06
640.27	152.06
640.475	159.06
640.681	148.06
640.886	153.06
641.091	159.06
641.297	166.06
641.502	156.06
641.707	154.06
641.913	140.06
642.118	156.06
642.323	158.06
642.528	153.06
642.733	151.06
642.939	159.06
643.144	142.06
643.349	153.06
643.554	133.06
643.759	136.06
643.964	134.06
644.169	138.06
644.374	153.06
644.579	148.06
644.784	159.06
644.989	144.06
645.194	157.06
645.399	138.06
645.604	140.06
645.809	142.06
646.014	142.06
646.219	153.06
646.423	157.06
646.628	163.06
646.833	155.06
647.038	156.06
647.243	149.06
647.447	138.06
647.652	159.06
647.857	142.06
648.062	165.06
648.266	147.06
648.471	147.06
648.676	160.06
648.88	159.06
649.085	143.06
649.289	157.06
649.494	138.06
649.698	157.06
649.903	156.06
650.107	146.06
650.312	131.06
650.516	143.06
650.721	155.06
650.925	141.06
651.13	134.06
651.334	143.06
651.539	148.06
651.743	135.06
651.947	143.06
652.152	132.06
652.356	146.06
652.56	126.06
652.764	124.06
652.969	130.06
653.173	124.06
653.377	126.06
653.581	123.06
653.785	123.06
653.99	123.06
654.194	134.06
654.398	142.06
654.602	127.06
654.806	114.06
655.01	123.06
655.214	136.06
655.418	121.06
655.622	132.06
655.826	121.06
656.03	125.06
656.234	130.06
656.438	128.06
656.642	130.06
656.846	121.06
657.049	129.06
657.253	132.06
657.457	117.06
657.661	114.06
657.865	98.06
658.068	125.06
658.272	91.06
658.476	97.06
658.68	113.06
658.883	105.06
659.087	104.06
659.291	100.06
659.494	98.06
659.698	98.06
659.901	113.06
660.105	90.06
660.309	94.06
660.512	84.06
660.716	100.06
660.919	85.06
661.123	100.06
661.326	100.06
661.53	89.06
661.733	104.06
661.936	91.06
662.14	77.06
662.343	75.06
662.546	68.06
662.75	83.06
662.953	91.06
663.156	73.06
663.36	103.06
663.563	83.06
663.766	79.06
663.969	94.06
664.173	78.06
664.376	83.06
664.579	76.06
664.782	88.06
664.985	83.06
665.188	69.06
665.391	77.06
665.594	91.06
665.797	89.06
666	92.06
666.203	77.06
666.406	81.06
666.609	73.06
666.812	86.06
667.015	88.06
667.218	78.06
667.421	76.06
667.624	70.06
667.827	74.06
668.03	86.06
668.232	81.06
668.435	87.06
668.638	83.06
668.841	70.06
669.043	87.06
669.246	82.06
669.449	92.06
669.651	72.06
669.854	81.06
670.057	90.06
670.259	88.06
670.462	85.06
670.665	85.06
670.867	81.06
671.07	82.06
671.272	88.06
671.475	89.06
671.677	81.06
671.88	81.06
672.082	75.06
672.284	78.06
672.487	72.06
672.689	88.06
672.892	81.06
