Data from 1977.PennyLincolnUp.Lamp.En5.5.200Scan.071719.P1_HRD10591_16-06-45-864.txt Node
Date: Thu Jul 18 16:06:45 EDT 2019
User: cochatt
Spectrometer: HR+D1059
Trigger mode: 1
Integration Time (sec): 1.000000E-1
Scans to average: 1
Electric dark correction enabled: true
Nonlinearity correction enabled: false
Boxcar width: 0
XAxis mode: Wavelengths
Number of Pixels in Spectrum: 2048
>>>>>Begin Spectral Data<<<<<
223.165	-16.62
223.4	-16.62
223.635	-16.62
223.869	-22.62
224.104	-37.62
224.338	-6.62
224.573	-12.62
224.808	-14.62
225.042	-5.62
225.277	-8.62
225.511	-3.62
225.746	14.38
225.98	11.38
226.215	16.38
226.449	11.38
226.683	25.38
226.918	23.38
227.152	26.38
227.387	26.38
227.621	34.38
227.856	39.38
228.09	41.38
228.324	48.38
228.559	57.38
228.793	83.38
229.027	94.38
229.262	96.38
229.496	106.38
229.73	125.38
229.964	141.38
230.199	107.38
230.433	98.38
230.667	109.38
230.901	114.38
231.136	119.38
231.37	109.38
231.604	106.38
231.838	100.38
232.072	115.38
232.306	125.38
232.541	108.38
232.775	99.38
233.009	112.38
233.243	103.38
233.477	109.38
233.711	93.38
233.945	107.38
234.179	102.38
234.413	115.38
234.647	125.38
234.881	118.38
235.115	119.38
235.349	126.38
235.583	125.38
235.817	109.38
236.051	138.38
236.285	125.38
236.519	121.38
236.753	133.38
236.987	144.38
237.221	159.38
237.455	206.38
237.689	180.38
237.922	122.38
238.156	122.38
238.39	119.38
238.624	118.38
238.858	124.38
239.091	134.38
239.325	125.38
239.559	117.38
239.793	126.38
240.027	117.38
240.26	132.38
240.494	160.38
240.728	144.38
240.961	147.38
241.195	154.38
241.429	127.38
241.662	130.38
241.896	140.38
242.13	127.38
242.363	137.38
242.597	129.38
242.83	140.38
243.064	150.38
243.298	150.38
243.531	138.38
243.765	141.38
243.998	140.38
244.232	141.38
244.465	135.38
244.699	129.38
244.932	157.38
245.166	143.38
245.399	161.38
245.633	146.38
245.866	137.38
246.099	142.38
246.333	160.38
246.566	143.38
246.8	146.38
247.033	149.38
247.266	139.38
247.5	170.38
247.733	167.38
247.966	167.38
248.2	169.38
248.433	162.38
248.666	177.38
248.899	170.38
249.133	180.38
249.366	181.38
249.599	189.38
249.832	174.38
250.066	189.38
250.299	184.38
250.532	199.38
250.765	191.38
250.998	233.38
251.231	225.38
251.465	212.38
251.698	186.38
251.931	182.38
252.164	191.38
252.397	200.38
252.63	192.38
252.863	199.38
253.096	214.38
253.329	226.38
253.562	209.38
253.795	216.38
254.028	209.38
254.261	226.38
254.494	241.38
254.727	234.38
254.96	268.38
255.193	243.38
255.426	232.38
255.659	221.38
255.892	250.38
256.124	225.38
256.357	220.38
256.59	218.38
256.823	215.38
257.056	199.38
257.289	197.38
257.521	203.38
257.754	201.38
257.987	224.38
258.22	205.38
258.452	209.38
258.685	206.38
258.918	208.38
259.151	210.38
259.383	208.38
259.616	219.38
259.849	229.38
260.081	225.38
260.314	234.38
260.547	238.38
260.779	233.38
261.012	246.38
261.244	230.38
261.477	230.38
261.71	214.38
261.942	236.38
262.175	240.38
262.407	218.38
262.64	218.38
262.872	213.38
263.105	233.38
263.337	201.38
263.57	203.38
263.802	233.38
264.035	214.38
264.267	222.38
264.499	225.38
264.732	213.38
264.964	218.38
265.197	206.38
265.429	221.38
265.661	223.38
265.894	213.38
266.126	220.38
266.358	222.38
266.591	217.38
266.823	236.38
267.055	245.38
267.287	247.38
267.52	218.38
267.752	229.38
267.984	225.38
268.216	236.38
268.448	242.38
268.681	253.38
268.913	237.38
269.145	255.38
269.377	281.38
269.609	286.38
269.841	281.38
270.073	271.38
270.306	307.38
270.538	309.38
270.77	319.38
271.002	298.38
271.234	289.38
271.466	285.38
271.698	325.38
271.93	316.38
272.162	321.38
272.394	308.38
272.626	292.38
272.858	286.38
273.09	283.38
273.322	276.38
273.553	269.38
273.785	246.38
274.017	281.38
274.249	263.38
274.481	251.38
274.713	279.38
274.945	277.38
275.176	277.38
275.408	260.38
275.64	274.38
275.872	269.38
276.104	259.38
276.335	283.38
276.567	274.38
276.799	277.38
277.031	321.38
277.262	317.38
277.494	306.38
277.726	317.38
277.957	277.38
278.189	286.38
278.421	275.38
278.652	269.38
278.884	274.38
279.115	282.38
279.347	278.38
279.579	274.38
279.81	266.38
280.042	272.38
280.273	285.38
280.505	274.38
280.736	300.38
280.968	271.38
281.199	293.38
281.431	289.38
281.662	291.38
281.894	288.38
282.125	281.38
282.356	298.38
282.588	315.38
282.819	309.38
283.051	279.38
283.282	275.38
283.513	295.38
283.745	312.38
283.976	283.38
284.207	287.38
284.439	313.38
284.67	293.38
284.901	282.38
285.132	293.38
285.364	291.38
285.595	300.38
285.826	309.38
286.057	303.38
286.288	325.38
286.52	327.38
286.751	283.38
286.982	285.38
287.213	299.38
287.444	300.38
287.675	291.38
287.906	323.38
288.138	336.38
288.369	307.38
288.6	323.38
288.831	319.38
289.062	311.38
289.293	319.38
289.524	312.38
289.755	297.38
289.986	298.38
290.217	307.38
290.448	298.38
290.679	309.38
290.91	318.38
291.141	320.38
291.371	330.38
291.602	312.38
291.833	316.38
292.064	317.38
292.295	310.38
292.526	318.38
292.757	313.38
292.987	322.38
293.218	305.38
293.449	300.38
293.68	299.38
293.91	324.38
294.141	294.38
294.372	324.38
294.603	297.38
294.833	309.38
295.064	315.38
295.295	319.38
295.525	321.38
295.756	306.38
295.987	316.38
296.217	335.38
296.448	330.38
296.679	314.38
296.909	319.38
297.14	326.38
297.37	312.38
297.601	313.38
297.831	339.38
298.062	328.38
298.292	339.38
298.523	331.38
298.753	329.38
298.984	335.38
299.214	350.38
299.445	323.38
299.675	344.38
299.905	347.38
300.136	324.38
300.366	316.38
300.597	330.38
300.827	349.38
301.057	347.38
301.288	358.38
301.518	381.38
301.748	356.38
301.979	348.38
302.209	346.38
302.439	362.38
302.669	347.38
302.9	351.38
303.13	353.38
303.36	364.38
303.59	349.38
303.82	341.38
304.051	373.38
304.281	351.38
304.511	343.38
304.741	354.38
304.971	341.38
305.201	328.38
305.431	369.38
305.661	353.38
305.891	333.38
306.121	373.38
306.352	351.38
306.582	341.38
306.812	350.38
307.042	355.38
307.272	350.38
307.502	358.38
307.731	354.38
307.961	350.38
308.191	359.38
308.421	353.38
308.651	365.38
308.881	364.38
309.111	372.38
309.341	361.38
309.571	351.38
309.8	365.38
310.03	355.38
310.26	387.38
310.49	379.38
310.72	403.38
310.949	405.38
311.179	395.38
311.409	377.38
311.639	392.38
311.868	395.38
312.098	395.38
312.328	399.38
312.557	408.38
312.787	390.38
313.017	392.38
313.246	391.38
313.476	382.38
313.706	392.38
313.935	385.38
314.165	403.38
314.394	404.38
314.624	410.38
314.853	407.38
315.083	393.38
315.312	409.38
315.542	393.38
315.771	391.38
316.001	403.38
316.23	393.38
316.46	407.38
316.689	383.38
316.919	391.38
317.148	402.38
317.377	395.38
317.607	400.38
317.836	393.38
318.065	383.38
318.295	403.38
318.524	388.38
318.753	383.38
318.983	393.38
319.212	377.38
319.441	405.38
319.67	403.38
319.9	387.38
320.129	417.38
320.358	398.38
320.587	378.38
320.816	403.38
321.046	390.38
321.275	412.38
321.504	413.38
321.733	407.38
321.962	409.38
322.191	419.38
322.42	429.38
322.649	457.38
322.878	435.38
323.108	470.38
323.337	461.38
323.566	520.38
323.795	502.38
324.024	517.38
324.253	624.38
324.482	877.38
324.71	1272.38
324.939	1735.38
325.168	1479.38
325.397	802.38
325.626	601.38
325.855	507.38
326.084	513.38
326.313	480.38
326.542	489.38
326.77	533.38
326.999	602.38
327.228	801.38
327.457	1132.38
327.686	1342.38
327.914	904.38
328.143	643.38
328.372	567.38
328.6	556.38
328.829	523.38
329.058	525.38
329.287	553.38
329.515	523.38
329.744	483.38
329.972	495.38
330.201	483.38
330.43	536.38
330.658	538.38
330.887	530.38
331.115	549.38
331.344	517.38
331.572	497.38
331.801	481.38
332.03	494.38
332.258	446.38
332.486	464.38
332.715	471.38
332.943	456.38
333.172	465.38
333.4	487.38
333.629	479.38
333.857	487.38
334.085	517.38
334.314	509.38
334.542	518.38
334.771	554.38
334.999	520.38
335.227	501.38
335.455	478.38
335.684	456.38
335.912	461.38
336.14	459.38
336.369	468.38
336.597	471.38
336.825	468.38
337.053	458.38
337.281	458.38
337.51	436.38
337.738	476.38
337.966	455.38
338.194	443.38
338.422	447.38
338.65	441.38
338.878	429.38
339.106	431.38
339.334	458.38
339.562	438.38
339.79	442.38
340.018	422.38
340.246	450.38
340.474	444.38
340.702	437.38
340.93	439.38
341.158	438.38
341.386	451.38
341.614	457.38
341.842	439.38
342.07	437.38
342.298	422.38
342.526	437.38
342.754	437.38
342.981	422.38
343.209	426.38
343.437	438.38
343.665	449.38
343.893	470.38
344.12	457.38
344.348	479.38
344.576	447.38
344.804	445.38
345.031	443.38
345.259	455.38
345.487	451.38
345.714	444.38
345.942	414.38
346.17	424.38
346.397	413.38
346.625	411.38
346.853	418.38
347.08	430.38
347.308	410.38
347.535	443.38
347.763	429.38
347.99	419.38
348.218	420.38
348.445	423.38
348.673	408.38
348.9	419.38
349.128	421.38
349.355	402.38
349.583	403.38
349.81	406.38
350.037	384.38
350.265	398.38
350.492	395.38
350.72	411.38
350.947	408.38
351.174	428.38
351.402	418.38
351.629	405.38
351.856	412.38
352.083	424.38
352.311	418.38
352.538	423.38
352.765	422.38
352.992	436.38
353.22	410.38
353.447	433.38
353.674	422.38
353.901	398.38
354.128	388.38
354.355	388.38
354.583	390.38
354.81	392.38
355.037	384.38
355.264	398.38
355.491	382.38
355.718	394.38
355.945	391.38
356.172	419.38
356.399	385.38
356.626	400.38
356.853	389.38
357.08	409.38
357.307	383.38
357.534	377.38
357.761	401.38
357.988	378.38
358.215	395.38
358.441	400.38
358.668	397.38
358.895	392.38
359.122	413.38
359.349	389.38
359.576	419.38
359.802	409.38
360.029	435.38
360.256	423.38
360.483	429.38
360.709	417.38
360.936	403.38
361.163	408.38
361.39	409.38
361.616	395.38
361.843	415.38
362.07	415.38
362.296	417.38
362.523	401.38
362.749	398.38
362.976	391.38
363.203	391.38
363.429	397.38
363.656	394.38
363.882	399.38
364.109	395.38
364.335	380.38
364.562	398.38
364.788	393.38
365.015	389.38
365.241	385.38
365.468	391.38
365.694	384.38
365.92	395.38
366.147	395.38
366.373	372.38
366.599	394.38
366.826	389.38
367.052	387.38
367.278	362.38
367.505	397.38
367.731	401.38
367.957	381.38
368.184	380.38
368.41	371.38
368.636	395.38
368.862	420.38
369.089	407.38
369.315	400.38
369.541	378.38
369.767	399.38
369.993	406.38
370.219	389.38
370.445	387.38
370.672	380.38
370.898	398.38
371.124	404.38
371.35	405.38
371.576	394.38
371.802	397.38
372.028	392.38
372.254	382.38
372.48	385.38
372.706	410.38
372.932	383.38
373.158	390.38
373.384	384.38
373.61	398.38
373.835	402.38
374.061	402.38
374.287	403.38
374.513	389.38
374.739	406.38
374.965	390.38
375.191	411.38
375.416	385.38
375.642	393.38
375.868	386.38
376.094	392.38
376.319	390.38
376.545	400.38
376.771	392.38
376.997	391.38
377.222	393.38
377.448	398.38
377.674	390.38
377.899	391.38
378.125	396.38
378.35	396.38
378.576	391.38
378.802	359.38
379.027	389.38
379.253	402.38
379.478	377.38
379.704	373.38
379.929	389.38
380.155	377.38
380.38	373.38
380.606	401.38
380.831	399.38
381.057	383.38
381.282	404.38
381.507	399.38
381.733	387.38
381.958	384.38
382.184	403.38
382.409	381.38
382.634	390.38
382.86	407.38
383.085	410.38
383.31	402.38
383.535	393.38
383.761	387.38
383.986	414.38
384.211	407.38
384.436	405.38
384.662	411.38
384.887	407.38
385.112	420.38
385.337	420.38
385.562	437.38
385.787	430.38
386.013	460.38
386.238	429.38
386.463	444.38
386.688	439.38
386.913	420.38
387.138	417.38
387.363	424.38
387.588	413.38
387.813	422.38
388.038	442.38
388.263	419.38
388.488	413.38
388.713	425.38
388.938	423.38
389.163	406.38
389.387	423.38
389.612	417.38
389.837	417.38
390.062	418.38
390.287	427.38
390.512	418.38
390.736	442.38
390.961	440.38
391.186	445.38
391.411	451.38
391.636	452.38
391.86	433.38
392.085	451.38
392.31	435.38
392.534	446.38
392.759	433.38
392.984	446.38
393.208	426.38
393.433	414.38
393.658	443.38
393.882	439.38
394.107	414.38
394.331	438.38
394.556	423.38
394.78	442.38
395.005	436.38
395.229	429.38
395.454	443.38
395.678	431.38
395.903	459.38
396.127	474.38
396.352	459.38
396.576	459.38
396.801	464.38
397.025	425.38
397.249	447.38
397.474	448.38
397.698	447.38
397.922	489.38
398.147	468.38
398.371	478.38
398.595	485.38
398.82	499.38
399.044	461.38
399.268	518.38
399.492	533.38
399.717	593.38
399.941	599.38
400.165	611.38
400.389	587.38
400.613	555.38
400.837	524.38
401.062	483.38
401.286	497.38
401.51	490.38
401.734	475.38
401.958	504.38
402.182	486.38
402.406	480.38
402.63	512.38
402.854	515.38
403.078	502.38
403.302	502.38
403.526	529.38
403.75	509.38
403.974	521.38
404.198	503.38
404.422	527.38
404.645	502.38
404.869	533.38
405.093	522.38
405.317	577.38
405.541	570.38
405.765	542.38
405.988	519.38
406.212	527.38
406.436	542.38
406.66	536.38
406.883	536.38
407.107	571.38
407.331	612.38
407.555	667.38
407.778	651.38
408.002	606.38
408.226	586.38
408.449	558.38
408.673	548.38
408.896	561.38
409.12	600.38
409.344	595.38
409.567	522.38
409.791	517.38
410.014	497.38
410.238	515.38
410.461	521.38
410.685	490.38
410.908	524.38
411.132	559.38
411.355	572.38
411.578	574.38
411.802	527.38
412.025	489.38
412.249	501.38
412.472	523.38
412.695	555.38
412.919	516.38
413.142	517.38
413.365	499.38
413.589	498.38
413.812	467.38
414.035	459.38
414.258	471.38
414.482	470.38
414.705	479.38
414.928	470.38
415.151	461.38
415.374	462.38
415.597	471.38
415.821	451.38
416.044	451.38
416.267	471.38
416.49	478.38
416.713	455.38
416.936	465.38
417.159	446.38
417.382	466.38
417.605	469.38
417.828	492.38
418.051	494.38
418.274	468.38
418.497	459.38
418.72	457.38
418.943	482.38
419.166	505.38
419.389	527.38
419.611	506.38
419.834	507.38
420.057	522.38
420.28	508.38
420.503	493.38
420.726	485.38
420.948	470.38
421.171	518.38
421.394	554.38
421.617	518.38
421.839	475.38
422.062	478.38
422.285	491.38
422.507	540.38
422.73	606.38
422.953	578.38
423.175	513.38
423.398	488.38
423.621	517.38
423.843	495.38
424.066	507.38
424.288	527.38
424.511	527.38
424.733	583.38
424.956	636.38
425.178	599.38
425.401	600.38
425.623	611.38
425.846	535.38
426.068	514.38
426.291	498.38
426.513	497.38
426.735	516.38
426.958	572.38
427.18	601.38
427.402	686.38
427.625	806.38
427.847	669.38
428.069	581.38
428.292	528.38
428.514	503.38
428.736	489.38
428.958	475.38
429.181	456.38
429.403	473.38
429.625	491.38
429.847	487.38
430.069	550.38
430.292	551.38
430.514	474.38
430.736	465.38
430.958	467.38
431.18	435.38
431.402	456.38
431.624	437.38
431.846	425.38
432.068	468.38
432.29	458.38
432.512	446.38
432.734	453.38
432.956	451.38
433.178	445.38
433.4	463.38
433.622	454.38
433.844	450.38
434.066	456.38
434.287	450.38
434.509	435.38
434.731	457.38
434.953	464.38
435.175	474.38
435.397	497.38
435.618	515.38
435.84	556.38
436.062	613.38
436.284	650.38
436.505	554.38
436.727	501.38
436.949	467.38
437.17	493.38
437.392	474.38
437.614	472.38
437.835	519.38
438.057	571.38
438.278	655.38
438.5	657.38
438.721	714.38
438.943	695.38
439.165	565.38
439.386	513.38
439.608	504.38
439.829	504.38
440.05	509.38
440.272	559.38
440.493	526.38
440.715	490.38
440.936	494.38
441.158	490.38
441.379	479.38
441.6	495.38
441.822	482.38
442.043	517.38
442.264	597.38
442.486	637.38
442.707	558.38
442.928	529.38
443.149	511.38
443.371	552.38
443.592	573.38
443.813	635.38
444.034	696.38
444.255	589.38
444.476	547.38
444.698	500.38
444.919	532.38
445.14	645.38
445.361	576.38
445.582	542.38
445.803	593.38
446.024	673.38
446.245	673.38
446.466	602.38
446.687	550.38
446.908	496.38
447.129	473.38
447.35	451.38
447.571	473.38
447.792	446.38
448.013	439.38
448.234	472.38
448.455	508.38
448.675	619.38
448.896	682.38
449.117	592.38
449.338	566.38
449.559	655.38
449.779	729.38
450	590.38
450.221	500.38
450.442	487.38
450.662	443.38
450.883	431.38
451.104	459.38
451.324	459.38
451.545	442.38
451.766	425.38
451.986	410.38
452.207	419.38
452.428	401.38
452.648	386.38
452.869	398.38
453.089	418.38
453.31	426.38
453.53	414.38
453.751	415.38
453.971	410.38
454.192	430.38
454.412	412.38
454.633	415.38
454.853	403.38
455.073	396.38
455.294	403.38
455.514	475.38
455.734	465.38
455.955	414.38
456.175	401.38
456.395	379.38
456.616	382.38
456.836	383.38
457.056	386.38
457.276	382.38
457.497	399.38
457.717	391.38
457.937	393.38
458.157	409.38
458.377	398.38
458.598	409.38
458.818	464.38
459.038	502.38
459.258	527.38
459.478	468.38
459.698	440.38
459.918	425.38
460.138	456.38
460.358	449.38
460.578	450.38
460.798	462.38
461.018	461.38
461.238	466.38
461.458	469.38
461.678	461.38
461.898	463.38
462.118	455.38
462.338	467.38
462.558	462.38
462.777	472.38
462.997	484.38
463.217	510.38
463.437	517.38
463.657	499.38
463.876	499.38
464.096	499.38
464.316	494.38
464.536	502.38
464.755	481.38
464.975	488.38
465.195	503.38
465.414	547.38
465.634	469.38
465.854	455.38
466.073	435.38
466.293	434.38
466.512	450.38
466.732	422.38
466.951	414.38
467.171	426.38
467.391	412.38
467.61	423.38
467.829	415.38
468.049	431.38
468.268	438.38
468.488	397.38
468.707	407.38
468.927	397.38
469.146	393.38
469.365	404.38
469.585	418.38
469.804	433.38
470.023	419.38
470.243	419.38
470.462	434.38
470.681	441.38
470.901	437.38
471.12	414.38
471.339	445.38
471.558	463.38
471.777	429.38
471.997	430.38
472.216	419.38
472.435	435.38
472.654	427.38
472.873	423.38
473.092	409.38
473.311	397.38
473.53	424.38
473.749	428.38
473.968	454.38
474.187	537.38
474.406	546.38
474.625	491.38
474.844	458.38
475.063	424.38
475.282	431.38
475.501	415.38
475.72	445.38
475.939	428.38
476.158	429.38
476.377	439.38
476.596	426.38
476.814	443.38
477.033	437.38
477.252	450.38
477.471	458.38
477.69	455.38
477.908	464.38
478.127	454.38
478.346	455.38
478.564	481.38
478.783	496.38
479.002	497.38
479.22	488.38
479.439	491.38
479.658	508.38
479.876	515.38
480.095	529.38
480.313	539.38
480.532	542.38
480.751	525.38
480.969	508.38
481.188	551.38
481.406	557.38
481.624	508.38
481.843	508.38
482.061	514.38
482.28	493.38
482.498	492.38
482.717	495.38
482.935	469.38
483.153	494.38
483.372	480.38
483.59	473.38
483.808	511.38
484.027	501.38
484.245	473.38
484.463	498.38
484.681	488.38
484.9	511.38
485.118	509.38
485.336	494.38
485.554	495.38
485.772	502.38
485.99	512.38
486.209	505.38
486.427	491.38
486.645	501.38
486.863	519.38
487.081	534.38
487.299	506.38
487.517	512.38
487.735	502.38
487.953	495.38
488.171	541.38
488.389	503.38
488.607	512.38
488.825	522.38
489.043	509.38
489.261	522.38
489.479	540.38
489.696	501.38
489.914	533.38
490.132	546.38
490.35	537.38
490.568	547.38
490.786	535.38
491.003	553.38
491.221	559.38
491.439	554.38
491.657	566.38
491.874	587.38
492.092	599.38
492.31	583.38
492.527	584.38
492.745	595.38
492.963	587.38
493.18	574.38
493.398	603.38
493.615	592.38
493.833	622.38
494.05	601.38
494.268	581.38
494.485	594.38
494.703	609.38
494.92	596.38
495.138	618.38
495.355	594.38
495.573	605.38
495.79	595.38
496.008	610.38
496.225	590.38
496.442	606.38
496.66	620.38
496.877	610.38
497.094	635.38
497.312	609.38
497.529	639.38
497.746	653.38
497.963	658.38
498.181	686.38
498.398	669.38
498.615	686.38
498.832	707.38
499.049	725.38
499.267	762.38
499.484	797.38
499.701	826.38
499.918	847.38
500.135	892.38
500.352	914.38
500.569	959.38
500.786	966.38
501.003	923.38
501.22	935.38
501.437	862.38
501.654	831.38
501.871	818.38
502.088	773.38
502.305	729.38
502.522	725.38
502.739	693.38
502.956	687.38
503.172	680.38
503.389	665.38
503.606	651.38
503.823	621.38
504.04	623.38
504.256	631.38
504.473	653.38
504.69	623.38
504.907	629.38
505.123	611.38
505.34	596.38
505.557	591.38
505.773	605.38
505.99	585.38
506.207	571.38
506.423	602.38
506.64	586.38
506.856	554.38
507.073	570.38
507.289	577.38
507.506	570.38
507.722	564.38
507.939	579.38
508.155	547.38
508.372	547.38
508.588	547.38
508.805	539.38
509.021	542.38
509.238	557.38
509.454	546.38
509.67	533.38
509.887	553.38
510.103	541.38
510.319	539.38
510.536	602.38
510.752	873.38
510.968	701.38
511.184	562.38
511.401	533.38
511.617	506.38
511.833	527.38
512.049	513.38
512.265	522.38
512.481	518.38
512.698	511.38
512.914	510.38
513.13	500.38
513.346	506.38
513.562	513.38
513.778	507.38
513.994	506.38
514.21	490.38
514.426	529.38
514.642	542.38
514.858	555.38
515.074	581.38
515.29	659.38
515.506	897.38
515.721	740.38
515.937	591.38
516.153	541.38
516.369	545.38
516.585	545.38
516.801	500.38
517.016	541.38
517.232	527.38
517.448	541.38
517.664	562.38
517.879	541.38
518.095	545.38
518.311	556.38
518.527	534.38
518.742	519.38
518.958	527.38
519.173	538.38
519.389	522.38
519.605	522.38
519.82	519.38
520.036	519.38
520.251	551.38
520.467	555.38
520.682	533.38
520.898	581.38
521.113	542.38
521.329	557.38
521.544	621.38
521.76	749.38
521.975	1073.38
522.19	1011.38
522.406	639.38
522.621	553.38
522.836	531.38
523.052	498.38
523.267	478.38
523.482	455.38
523.698	472.38
523.913	471.38
524.128	461.38
524.343	456.38
524.559	445.38
524.774	472.38
524.989	461.38
525.204	460.38
525.419	460.38
525.634	435.38
525.849	423.38
526.064	446.38
526.28	439.38
526.495	419.38
526.71	439.38
526.925	443.38
527.14	422.38
527.355	412.38
527.57	439.38
527.785	430.38
527.999	417.38
528.214	414.38
528.429	445.38
528.644	422.38
528.859	438.38
529.074	414.38
529.289	453.38
529.503	484.38
529.718	465.38
529.933	446.38
530.148	397.38
530.363	421.38
530.577	421.38
530.792	444.38
531.007	428.38
531.221	419.38
531.436	421.38
531.651	417.38
531.865	419.38
532.08	421.38
532.295	414.38
532.509	402.38
532.724	400.38
532.938	408.38
533.153	408.38
533.367	426.38
533.582	413.38
533.796	401.38
534.011	425.38
534.225	398.38
534.44	411.38
534.654	423.38
534.868	403.38
535.083	395.38
535.297	412.38
535.511	396.38
535.726	427.38
535.94	433.38
536.154	408.38
536.369	397.38
536.583	398.38
536.797	389.38
537.011	398.38
537.225	390.38
537.44	404.38
537.654	411.38
537.868	405.38
538.082	381.38
538.296	398.38
538.51	412.38
538.724	409.38
538.938	421.38
539.153	393.38
539.367	403.38
539.581	385.38
539.795	389.38
540.009	374.38
540.222	399.38
540.436	377.38
540.65	396.38
540.864	403.38
541.078	411.38
541.292	385.38
541.506	395.38
541.72	384.38
541.934	393.38
542.147	378.38
542.361	394.38
542.575	393.38
542.789	375.38
543.002	400.38
543.216	395.38
543.43	393.38
543.644	404.38
543.857	405.38
544.071	395.38
544.285	405.38
544.498	381.38
544.712	381.38
544.925	375.38
545.139	392.38
545.352	371.38
545.566	371.38
545.779	377.38
545.993	388.38
546.206	381.38
546.42	400.38
546.633	381.38
546.847	381.38
547.06	397.38
547.274	390.38
547.487	383.38
547.7	377.38
547.914	373.38
548.127	388.38
548.34	387.38
548.554	378.38
548.767	356.38
548.98	375.38
549.193	371.38
549.407	389.38
549.62	373.38
549.833	392.38
550.046	397.38
550.259	393.38
550.473	372.38
550.686	386.38
550.899	357.38
551.112	378.38
551.325	357.38
551.538	377.38
551.751	379.38
551.964	367.38
552.177	375.38
552.39	375.38
552.603	379.38
552.816	380.38
553.029	379.38
553.242	382.38
553.455	379.38
553.667	385.38
553.88	390.38
554.093	389.38
554.306	400.38
554.519	399.38
554.732	367.38
554.944	377.38
555.157	369.38
555.37	381.38
555.583	384.38
555.795	356.38
556.008	352.38
556.221	333.38
556.433	344.38
556.646	355.38
556.859	363.38
557.071	359.38
557.284	341.38
557.496	359.38
557.709	348.38
557.921	338.38
558.134	328.38
558.346	338.38
558.559	331.38
558.771	344.38
558.984	335.38
559.196	335.38
559.409	331.38
559.621	346.38
559.833	319.38
560.046	334.38
560.258	347.38
560.47	330.38
560.683	344.38
560.895	344.38
561.107	316.38
561.32	324.38
561.532	351.38
561.744	338.38
561.956	326.38
562.168	325.38
562.381	345.38
562.593	341.38
562.805	347.38
563.017	349.38
563.229	328.38
563.441	344.38
563.653	356.38
563.865	326.38
564.077	341.38
564.289	352.38
564.501	360.38
564.713	370.38
564.925	339.38
565.137	365.38
565.349	358.38
565.561	380.38
565.773	366.38
565.985	400.38
566.197	399.38
566.408	393.38
566.62	410.38
566.832	437.38
567.044	459.38
567.255	447.38
567.467	450.38
567.679	445.38
567.891	451.38
568.102	462.38
568.314	453.38
568.526	445.38
568.737	407.38
568.949	409.38
569.161	383.38
569.372	374.38
569.584	369.38
569.795	364.38
570.007	356.38
570.218	371.38
570.43	357.38
570.641	337.38
570.853	339.38
571.064	330.38
571.276	344.38
571.487	339.38
571.698	340.38
571.91	318.38
572.121	310.38
572.333	313.38
572.544	308.38
572.755	298.38
572.966	299.38
573.178	314.38
573.389	300.38
573.6	301.38
573.811	300.38
574.023	296.38
574.234	279.38
574.445	289.38
574.656	297.38
574.867	299.38
575.078	306.38
575.289	307.38
575.501	312.38
575.712	291.38
575.923	298.38
576.134	300.38
576.345	301.38
576.556	265.38
576.767	294.38
576.978	285.38
577.188	277.38
577.399	278.38
577.61	285.38
577.821	271.38
578.032	305.38
578.243	302.38
578.454	441.38
578.665	337.38
578.875	285.38
579.086	259.38
579.297	277.38
579.508	275.38
579.718	284.38
579.929	268.38
580.14	243.38
580.35	268.38
580.561	280.38
580.772	268.38
580.982	267.38
581.193	294.38
581.403	281.38
581.614	283.38
581.825	245.38
582.035	280.38
582.246	263.38
582.456	273.38
582.667	269.38
582.877	251.38
583.087	268.38
583.298	248.38
583.508	247.38
583.719	256.38
583.929	276.38
584.139	266.38
584.35	249.38
584.56	272.38
584.77	263.38
584.981	263.38
585.191	252.38
585.401	242.38
585.611	273.38
585.821	267.38
586.032	241.38
586.242	244.38
586.452	276.38
586.662	263.38
586.872	246.38
587.082	255.38
587.292	262.38
587.502	279.38
587.713	257.38
587.923	255.38
588.133	248.38
588.343	267.38
588.553	265.38
588.762	262.38
588.972	273.38
589.182	255.38
589.392	264.38
589.602	264.38
589.812	252.38
590.022	283.38
590.232	245.38
590.441	250.38
590.651	267.38
590.861	245.38
591.071	249.38
591.281	276.38
591.49	258.38
591.7	254.38
591.91	267.38
592.119	253.38
592.329	264.38
592.539	284.38
592.748	278.38
592.958	299.38
593.167	275.38
593.377	269.38
593.587	291.38
593.796	287.38
594.006	282.38
594.215	275.38
594.424	280.38
594.634	268.38
594.843	281.38
595.053	262.38
595.262	273.38
595.472	266.38
595.681	254.38
595.89	249.38
596.1	257.38
596.309	240.38
596.518	256.38
596.727	265.38
596.937	234.38
597.146	226.38
597.355	244.38
597.564	229.38
597.774	260.38
597.983	241.38
598.192	242.38
598.401	232.38
598.61	225.38
598.819	231.38
599.028	226.38
599.237	232.38
599.446	230.38
599.655	227.38
599.864	244.38
600.073	246.38
600.282	248.38
600.491	217.38
600.7	237.38
600.909	232.38
601.118	249.38
601.327	227.38
601.536	225.38
601.745	225.38
601.953	219.38
602.162	234.38
602.371	222.38
602.58	228.38
602.789	228.38
602.997	221.38
603.206	230.38
603.415	226.38
603.623	197.38
603.832	235.38
604.041	226.38
604.249	210.38
604.458	219.38
604.666	215.38
604.875	219.38
605.084	207.38
605.292	228.38
605.501	218.38
605.709	225.38
605.918	211.38
606.126	229.38
606.334	219.38
606.543	221.38
606.751	222.38
606.96	218.38
607.168	201.38
607.376	206.38
607.585	199.38
607.793	200.38
608.001	229.38
608.21	205.38
608.418	204.38
608.626	232.38
608.834	197.38
609.043	209.38
609.251	227.38
609.459	218.38
609.667	203.38
609.875	212.38
610.083	221.38
610.291	218.38
610.499	207.38
610.707	209.38
610.916	224.38
611.124	229.38
611.332	217.38
611.54	230.38
611.748	216.38
611.955	213.38
612.163	211.38
612.371	213.38
612.579	212.38
612.787	195.38
612.995	220.38
613.203	215.38
613.411	221.38
613.618	206.38
613.826	205.38
614.034	186.38
614.242	205.38
614.449	209.38
614.657	219.38
614.865	208.38
615.072	199.38
615.28	203.38
615.488	194.38
615.695	187.38
615.903	215.38
616.111	195.38
616.318	209.38
616.526	215.38
616.733	186.38
616.941	214.38
617.148	210.38
617.356	202.38
617.563	198.38
617.771	206.38
617.978	206.38
618.185	201.38
618.393	213.38
618.6	223.38
618.807	206.38
619.015	208.38
619.222	203.38
619.429	203.38
619.637	201.38
619.844	216.38
620.051	197.38
620.258	189.38
620.466	182.38
620.673	205.38
620.88	181.38
621.087	207.38
621.294	202.38
621.501	206.38
621.708	200.38
621.915	200.38
622.122	201.38
622.329	199.38
622.536	195.38
622.743	213.38
622.95	186.38
623.157	189.38
623.364	178.38
623.571	195.38
623.778	197.38
623.985	187.38
624.192	191.38
624.399	165.38
624.606	189.38
624.812	190.38
625.019	169.38
625.226	201.38
625.433	186.38
625.639	199.38
625.846	182.38
626.053	187.38
626.259	190.38
626.466	187.38
626.673	181.38
626.879	191.38
627.086	181.38
627.293	183.38
627.499	187.38
627.706	187.38
627.912	177.38
628.119	178.38
628.325	173.38
628.532	163.38
628.738	173.38
628.945	174.38
629.151	157.38
629.357	165.38
629.564	164.38
629.77	166.38
629.976	172.38
630.183	181.38
630.389	183.38
630.595	182.38
630.802	159.38
631.008	185.38
631.214	167.38
631.42	177.38
631.627	168.38
631.833	185.38
632.039	145.38
632.245	165.38
632.451	175.38
632.657	171.38
632.863	170.38
633.069	180.38
633.275	181.38
633.481	178.38
633.688	179.38
633.893	181.38
634.099	161.38
634.305	185.38
634.511	172.38
634.717	167.38
634.923	171.38
635.129	155.38
635.335	170.38
635.541	162.38
635.747	159.38
635.952	162.38
636.158	166.38
636.364	155.38
636.57	170.38
636.775	163.38
636.981	174.38
637.187	172.38
637.392	166.38
637.598	167.38
637.804	163.38
638.009	148.38
638.215	163.38
638.421	157.38
638.626	165.38
638.832	160.38
639.037	153.38
639.243	173.38
639.448	164.38
639.654	158.38
639.859	153.38
640.065	161.38
640.27	165.38
640.475	163.38
640.681	162.38
640.886	149.38
641.091	155.38
641.297	163.38
641.502	154.38
641.707	151.38
641.913	159.38
642.118	135.38
642.323	149.38
642.528	148.38
642.733	149.38
642.939	153.38
643.144	153.38
643.349	151.38
643.554	161.38
643.759	168.38
643.964	149.38
644.169	154.38
644.374	156.38
644.579	146.38
644.784	144.38
644.989	157.38
645.194	154.38
645.399	151.38
645.604	155.38
645.809	160.38
646.014	155.38
646.219	164.38
646.423	139.38
646.628	141.38
646.833	150.38
647.038	142.38
647.243	151.38
647.447	156.38
647.652	159.38
647.857	167.38
648.062	160.38
648.266	151.38
648.471	159.38
648.676	156.38
648.88	157.38
649.085	167.38
649.289	153.38
649.494	149.38
649.698	161.38
649.903	170.38
650.107	161.38
650.312	147.38
650.516	158.38
650.721	160.38
650.925	133.38
651.13	139.38
651.334	151.38
651.539	144.38
651.743	133.38
651.947	124.38
652.152	138.38
652.356	141.38
652.56	123.38
652.764	132.38
652.969	149.38
653.173	149.38
653.377	119.38
653.581	126.38
653.785	117.38
653.99	139.38
654.194	128.38
654.398	128.38
654.602	131.38
654.806	137.38
655.01	129.38
655.214	123.38
655.418	133.38
655.622	128.38
655.826	126.38
656.03	107.38
656.234	135.38
656.438	137.38
656.642	126.38
656.846	136.38
657.049	125.38
657.253	119.38
657.457	126.38
657.661	119.38
657.865	105.38
658.068	101.38
658.272	96.38
658.476	104.38
658.68	116.38
658.883	107.38
659.087	97.38
659.291	104.38
659.494	109.38
659.698	85.38
659.901	95.38
660.105	90.38
660.309	110.38
660.512	79.38
660.716	90.38
660.919	87.38
661.123	96.38
661.326	104.38
661.53	89.38
661.733	90.38
661.936	91.38
662.14	93.38
662.343	89.38
662.546	82.38
662.75	93.38
662.953	82.38
663.156	82.38
663.36	75.38
663.563	65.38
663.766	95.38
663.969	69.38
664.173	82.38
664.376	77.38
664.579	94.38
664.782	93.38
664.985	85.38
665.188	81.38
665.391	84.38
665.594	94.38
665.797	94.38
666	88.38
666.203	84.38
666.406	89.38
666.609	87.38
666.812	87.38
667.015	80.38
667.218	96.38
667.421	83.38
667.624	83.38
667.827	87.38
668.03	92.38
668.232	73.38
668.435	79.38
668.638	77.38
668.841	87.38
669.043	83.38
669.246	78.38
669.449	85.38
669.651	85.38
669.854	77.38
670.057	77.38
670.259	95.38
670.462	81.38
670.665	74.38
670.867	67.38
671.07	88.38
671.272	88.38
671.475	87.38
671.677	78.38
671.88	73.38
672.082	85.38
672.284	78.38
672.487	84.38
672.689	83.38
672.892	92.38
