Data from 1977.PennyLincolnUp.Lamp.En5.5.200Scan.071719.P1_HRD10591_16-06-43-863.txt Node
Date: Thu Jul 18 16:06:43 EDT 2019
User: cochatt
Spectrometer: HR+D1059
Trigger mode: 1
Integration Time (sec): 1.000000E-1
Scans to average: 1
Electric dark correction enabled: true
Nonlinearity correction enabled: false
Boxcar width: 0
XAxis mode: Wavelengths
Number of Pixels in Spectrum: 2048
>>>>>Begin Spectral Data<<<<<
223.165	-14.12
223.4	-14.12
223.635	-14.12
223.869	-19.12
224.104	-23.12
224.338	-22.12
224.573	-0.12
224.808	-7.12
225.042	-11.12
225.277	-11.12
225.511	-7.12
225.746	7.88
225.98	8.88
226.215	12.88
226.449	16.88
226.683	16.88
226.918	26.88
227.152	24.88
227.387	29.88
227.621	33.88
227.856	51.88
228.09	44.88
228.324	47.88
228.559	57.88
228.793	56.88
229.027	99.88
229.262	100.88
229.496	105.88
229.73	118.88
229.964	133.88
230.199	125.88
230.433	103.88
230.667	102.88
230.901	122.88
231.136	99.88
231.37	116.88
231.604	103.88
231.838	123.88
232.072	113.88
232.306	107.88
232.541	96.88
232.775	119.88
233.009	111.88
233.243	120.88
233.477	124.88
233.711	119.88
233.945	87.88
234.179	111.88
234.413	109.88
234.647	113.88
234.881	123.88
235.115	111.88
235.349	89.88
235.583	119.88
235.817	128.88
236.051	102.88
236.285	119.88
236.519	116.88
236.753	131.88
236.987	129.88
237.221	162.88
237.455	183.88
237.689	168.88
237.922	141.88
238.156	124.88
238.39	130.88
238.624	126.88
238.858	109.88
239.091	133.88
239.325	124.88
239.559	112.88
239.793	119.88
240.027	134.88
240.26	149.88
240.494	145.88
240.728	146.88
240.961	148.88
241.195	140.88
241.429	129.88
241.662	132.88
241.896	130.88
242.13	131.88
242.363	135.88
242.597	128.88
242.83	140.88
243.064	125.88
243.298	120.88
243.531	131.88
243.765	131.88
243.998	145.88
244.232	133.88
244.465	121.88
244.699	138.88
244.932	149.88
245.166	138.88
245.399	139.88
245.633	155.88
245.866	141.88
246.099	132.88
246.333	137.88
246.566	131.88
246.8	136.88
247.033	151.88
247.266	131.88
247.5	141.88
247.733	178.88
247.966	164.88
248.2	166.88
248.433	163.88
248.666	176.88
248.899	175.88
249.133	184.88
249.366	191.88
249.599	177.88
249.832	175.88
250.066	185.88
250.299	192.88
250.532	183.88
250.765	203.88
250.998	206.88
251.231	215.88
251.465	211.88
251.698	204.88
251.931	202.88
252.164	188.88
252.397	178.88
252.63	195.88
252.863	205.88
253.096	208.88
253.329	207.88
253.562	197.88
253.795	200.88
254.028	215.88
254.261	209.88
254.494	237.88
254.727	239.88
254.96	241.88
255.193	245.88
255.426	234.88
255.659	207.88
255.892	213.88
256.124	229.88
256.357	216.88
256.59	219.88
256.823	200.88
257.056	220.88
257.289	212.88
257.521	201.88
257.754	205.88
257.987	200.88
258.22	202.88
258.452	205.88
258.685	227.88
258.918	207.88
259.151	209.88
259.383	209.88
259.616	229.88
259.849	205.88
260.081	233.88
260.314	245.88
260.547	237.88
260.779	232.88
261.012	241.88
261.244	217.88
261.477	227.88
261.71	218.88
261.942	199.88
262.175	237.88
262.407	235.88
262.64	219.88
262.872	221.88
263.105	193.88
263.337	209.88
263.57	224.88
263.802	231.88
264.035	200.88
264.267	228.88
264.499	217.88
264.732	218.88
264.964	225.88
265.197	236.88
265.429	204.88
265.661	220.88
265.894	197.88
266.126	225.88
266.358	220.88
266.591	234.88
266.823	229.88
267.055	219.88
267.287	218.88
267.52	234.88
267.752	224.88
267.984	233.88
268.216	230.88
268.448	245.88
268.681	247.88
268.913	259.88
269.145	252.88
269.377	271.88
269.609	279.88
269.841	269.88
270.073	292.88
270.306	286.88
270.538	291.88
270.77	306.88
271.002	283.88
271.234	293.88
271.466	290.88
271.698	299.88
271.93	290.88
272.162	318.88
272.394	291.88
272.626	295.88
272.858	293.88
273.09	289.88
273.322	275.88
273.553	281.88
273.785	268.88
274.017	281.88
274.249	261.88
274.481	261.88
274.713	262.88
274.945	284.88
275.176	274.88
275.408	269.88
275.64	267.88
275.872	272.88
276.104	282.88
276.335	270.88
276.567	263.88
276.799	273.88
277.031	314.88
277.262	315.88
277.494	295.88
277.726	300.88
277.957	296.88
278.189	293.88
278.421	295.88
278.652	267.88
278.884	277.88
279.115	284.88
279.347	275.88
279.579	277.88
279.81	277.88
280.042	274.88
280.273	273.88
280.505	276.88
280.736	277.88
280.968	279.88
281.199	271.88
281.431	297.88
281.662	286.88
281.894	292.88
282.125	291.88
282.356	291.88
282.588	314.88
282.819	317.88
283.051	295.88
283.282	274.88
283.513	297.88
283.745	285.88
283.976	290.88
284.207	294.88
284.439	319.88
284.67	296.88
284.901	296.88
285.132	296.88
285.364	299.88
285.595	301.88
285.826	291.88
286.057	304.88
286.288	305.88
286.52	299.88
286.751	295.88
286.982	297.88
287.213	303.88
287.444	291.88
287.675	287.88
287.906	316.88
288.138	307.88
288.369	311.88
288.6	324.88
288.831	306.88
289.062	291.88
289.293	303.88
289.524	317.88
289.755	297.88
289.986	304.88
290.217	308.88
290.448	298.88
290.679	306.88
290.91	312.88
291.141	318.88
291.371	302.88
291.602	307.88
291.833	315.88
292.064	294.88
292.295	295.88
292.526	307.88
292.757	299.88
292.987	305.88
293.218	311.88
293.449	304.88
293.68	293.88
293.91	303.88
294.141	303.88
294.372	327.88
294.603	332.88
294.833	305.88
295.064	314.88
295.295	327.88
295.525	305.88
295.756	315.88
295.987	340.88
296.217	337.88
296.448	328.88
296.679	321.88
296.909	311.88
297.14	330.88
297.37	307.88
297.601	309.88
297.831	319.88
298.062	323.88
298.292	339.88
298.523	330.88
298.753	342.88
298.984	330.88
299.214	321.88
299.445	332.88
299.675	340.88
299.905	329.88
300.136	324.88
300.366	338.88
300.597	314.88
300.827	344.88
301.057	346.88
301.288	342.88
301.518	347.88
301.748	342.88
301.979	335.88
302.209	341.88
302.439	358.88
302.669	359.88
302.9	328.88
303.13	338.88
303.36	352.88
303.59	353.88
303.82	358.88
304.051	354.88
304.281	339.88
304.511	336.88
304.741	339.88
304.971	347.88
305.201	347.88
305.431	341.88
305.661	344.88
305.891	354.88
306.121	355.88
306.352	368.88
306.582	359.88
306.812	318.88
307.042	368.88
307.272	360.88
307.502	369.88
307.731	359.88
307.961	367.88
308.191	356.88
308.421	365.88
308.651	336.88
308.881	371.88
309.111	349.88
309.341	340.88
309.571	364.88
309.8	348.88
310.03	382.88
310.26	369.88
310.49	370.88
310.72	374.88
310.949	382.88
311.179	381.88
311.409	381.88
311.639	382.88
311.868	364.88
312.098	381.88
312.328	398.88
312.557	409.88
312.787	412.88
313.017	408.88
313.246	409.88
313.476	392.88
313.706	392.88
313.935	406.88
314.165	406.88
314.394	389.88
314.624	409.88
314.853	385.88
315.083	413.88
315.312	406.88
315.542	400.88
315.771	394.88
316.001	378.88
316.23	389.88
316.46	380.88
316.689	393.88
316.919	397.88
317.148	392.88
317.377	394.88
317.607	390.88
317.836	391.88
318.065	384.88
318.295	412.88
318.524	377.88
318.753	398.88
318.983	375.88
319.212	405.88
319.441	397.88
319.67	408.88
319.9	379.88
320.129	385.88
320.358	396.88
320.587	412.88
320.816	424.88
321.046	414.88
321.275	407.88
321.504	412.88
321.733	412.88
321.962	413.88
322.191	421.88
322.42	423.88
322.649	428.88
322.878	441.88
323.108	444.88
323.337	474.88
323.566	450.88
323.795	508.88
324.024	526.88
324.253	618.88
324.482	865.88
324.71	1261.88
324.939	1703.88
325.168	1448.88
325.397	804.88
325.626	588.88
325.855	524.88
326.084	478.88
326.313	470.88
326.542	477.88
326.77	516.88
326.999	599.88
327.228	805.88
327.457	1097.88
327.686	1291.88
327.914	897.88
328.143	628.88
328.372	576.88
328.6	542.88
328.829	505.88
329.058	541.88
329.287	532.88
329.515	500.88
329.744	499.88
329.972	503.88
330.201	496.88
330.43	541.88
330.658	537.88
330.887	555.88
331.115	546.88
331.344	498.88
331.572	471.88
331.801	489.88
332.03	482.88
332.258	476.88
332.486	474.88
332.715	476.88
332.943	454.88
333.172	465.88
333.4	468.88
333.629	483.88
333.857	505.88
334.085	501.88
334.314	518.88
334.542	515.88
334.771	514.88
334.999	512.88
335.227	485.88
335.455	464.88
335.684	478.88
335.912	462.88
336.14	463.88
336.369	465.88
336.597	460.88
336.825	485.88
337.053	454.88
337.281	451.88
337.51	436.88
337.738	424.88
337.966	457.88
338.194	454.88
338.422	457.88
338.65	429.88
338.878	442.88
339.106	443.88
339.334	441.88
339.562	448.88
339.79	435.88
340.018	408.88
340.246	443.88
340.474	445.88
340.702	436.88
340.93	431.88
341.158	431.88
341.386	424.88
341.614	439.88
341.842	450.88
342.07	403.88
342.298	436.88
342.526	439.88
342.754	423.88
342.981	420.88
343.209	431.88
343.437	426.88
343.665	441.88
343.893	445.88
344.12	453.88
344.348	446.88
344.576	441.88
344.804	432.88
345.031	450.88
345.259	448.88
345.487	432.88
345.714	423.88
345.942	445.88
346.17	430.88
346.397	442.88
346.625	421.88
346.853	429.88
347.08	398.88
347.308	413.88
347.535	427.88
347.763	414.88
347.99	439.88
348.218	421.88
348.445	409.88
348.673	429.88
348.9	423.88
349.128	396.88
349.355	395.88
349.583	398.88
349.81	407.88
350.037	390.88
350.265	406.88
350.492	380.88
350.72	404.88
350.947	408.88
351.174	393.88
351.402	401.88
351.629	419.88
351.856	406.88
352.083	409.88
352.311	413.88
352.538	409.88
352.765	415.88
352.992	424.88
353.22	401.88
353.447	414.88
353.674	389.88
353.901	388.88
354.128	403.88
354.355	385.88
354.583	398.88
354.81	377.88
355.037	411.88
355.264	399.88
355.491	385.88
355.718	369.88
355.945	377.88
356.172	387.88
356.399	409.88
356.626	376.88
356.853	376.88
357.08	385.88
357.307	392.88
357.534	379.88
357.761	383.88
357.988	406.88
358.215	381.88
358.441	377.88
358.668	374.88
358.895	397.88
359.122	387.88
359.349	407.88
359.576	400.88
359.802	431.88
360.029	418.88
360.256	438.88
360.483	438.88
360.709	397.88
360.936	406.88
361.163	390.88
361.39	383.88
361.616	395.88
361.843	405.88
362.07	390.88
362.296	417.88
362.523	393.88
362.749	408.88
362.976	382.88
363.203	402.88
363.429	397.88
363.656	410.88
363.882	389.88
364.109	392.88
364.335	389.88
364.562	391.88
364.788	380.88
365.015	393.88
365.241	382.88
365.468	391.88
365.694	394.88
365.92	392.88
366.147	410.88
366.373	401.88
366.599	387.88
366.826	405.88
367.052	384.88
367.278	381.88
367.505	403.88
367.731	401.88
367.957	381.88
368.184	389.88
368.41	379.88
368.636	401.88
368.862	401.88
369.089	372.88
369.315	392.88
369.541	376.88
369.767	386.88
369.993	389.88
370.219	387.88
370.445	395.88
370.672	387.88
370.898	387.88
371.124	391.88
371.35	391.88
371.576	383.88
371.802	369.88
372.028	414.88
372.254	379.88
372.48	394.88
372.706	390.88
372.932	389.88
373.158	391.88
373.384	387.88
373.61	383.88
373.835	392.88
374.061	379.88
374.287	402.88
374.513	401.88
374.739	403.88
374.965	413.88
375.191	403.88
375.416	417.88
375.642	395.88
375.868	410.88
376.094	383.88
376.319	379.88
376.545	406.88
376.771	396.88
376.997	388.88
377.222	376.88
377.448	388.88
377.674	392.88
377.899	381.88
378.125	375.88
378.35	386.88
378.576	377.88
378.802	389.88
379.027	377.88
379.253	393.88
379.478	379.88
379.704	384.88
379.929	407.88
380.155	378.88
380.38	370.88
380.606	385.88
380.831	413.88
381.057	377.88
381.282	388.88
381.507	387.88
381.733	391.88
381.958	379.88
382.184	395.88
382.409	395.88
382.634	418.88
382.86	378.88
383.085	390.88
383.31	417.88
383.535	396.88
383.761	399.88
383.986	413.88
384.211	402.88
384.436	422.88
384.662	411.88
384.887	411.88
385.112	402.88
385.337	392.88
385.562	426.88
385.787	434.88
386.013	409.88
386.238	421.88
386.463	419.88
386.688	430.88
386.913	416.88
387.138	413.88
387.363	417.88
387.588	441.88
387.813	428.88
388.038	439.88
388.263	406.88
388.488	430.88
388.713	437.88
388.938	417.88
389.163	431.88
389.387	424.88
389.612	436.88
389.837	431.88
390.062	429.88
390.287	427.88
390.512	416.88
390.736	420.88
390.961	437.88
391.186	435.88
391.411	443.88
391.636	436.88
391.86	435.88
392.085	440.88
392.31	427.88
392.534	450.88
392.759	433.88
392.984	425.88
393.208	440.88
393.433	443.88
393.658	427.88
393.882	407.88
394.107	421.88
394.331	433.88
394.556	411.88
394.78	433.88
395.005	439.88
395.229	451.88
395.454	468.88
395.678	440.88
395.903	461.88
396.127	479.88
396.352	471.88
396.576	441.88
396.801	427.88
397.025	442.88
397.249	449.88
397.474	461.88
397.698	451.88
397.922	455.88
398.147	466.88
398.371	469.88
398.595	485.88
398.82	479.88
399.044	491.88
399.268	515.88
399.492	553.88
399.717	592.88
399.941	604.88
400.165	600.88
400.389	618.88
400.613	541.88
400.837	522.88
401.062	495.88
401.286	491.88
401.51	488.88
401.734	484.88
401.958	472.88
402.182	479.88
402.406	514.88
402.63	513.88
402.854	504.88
403.078	495.88
403.302	512.88
403.526	504.88
403.75	508.88
403.974	498.88
404.198	481.88
404.422	506.88
404.645	500.88
404.869	515.88
405.093	528.88
405.317	561.88
405.541	577.88
405.765	541.88
405.988	525.88
406.212	521.88
406.436	532.88
406.66	545.88
406.883	561.88
407.107	563.88
407.331	615.88
407.555	669.88
407.778	647.88
408.002	578.88
408.226	547.88
408.449	523.88
408.673	560.88
408.896	579.88
409.12	577.88
409.344	551.88
409.567	525.88
409.791	499.88
410.014	509.88
410.238	492.88
410.461	492.88
410.685	516.88
410.908	525.88
411.132	549.88
411.355	575.88
411.578	527.88
411.802	502.88
412.025	488.88
412.249	495.88
412.472	515.88
412.695	514.88
412.919	537.88
413.142	523.88
413.365	503.88
413.589	482.88
413.812	462.88
414.035	459.88
414.258	475.88
414.482	469.88
414.705	469.88
414.928	480.88
415.151	456.88
415.374	480.88
415.597	448.88
415.821	445.88
416.044	471.88
416.267	459.88
416.49	448.88
416.713	487.88
416.936	470.88
417.159	451.88
417.382	448.88
417.605	475.88
417.828	468.88
418.051	485.88
418.274	490.88
418.497	465.88
418.72	457.88
418.943	446.88
419.166	496.88
419.389	501.88
419.611	517.88
419.834	500.88
420.057	477.88
420.28	484.88
420.503	485.88
420.726	483.88
420.948	488.88
421.171	522.88
421.394	565.88
421.617	495.88
421.839	482.88
422.062	486.88
422.285	474.88
422.507	540.88
422.73	626.88
422.953	594.88
423.175	503.88
423.398	489.88
423.621	512.88
423.843	528.88
424.066	532.88
424.288	525.88
424.511	519.88
424.733	583.88
424.956	653.88
425.178	602.88
425.401	617.88
425.623	617.88
425.846	540.88
426.068	498.88
426.291	515.88
426.513	499.88
426.735	517.88
426.958	531.88
427.18	608.88
427.402	725.88
427.625	789.88
427.847	681.88
428.069	587.88
428.292	534.88
428.514	483.88
428.736	476.88
428.958	481.88
429.181	459.88
429.403	466.88
429.625	480.88
429.847	490.88
430.069	563.88
430.292	539.88
430.514	486.88
430.736	478.88
430.958	459.88
431.18	452.88
431.402	445.88
431.624	426.88
431.846	434.88
432.068	421.88
432.29	454.88
432.512	441.88
432.734	435.88
432.956	452.88
433.178	449.88
433.4	467.88
433.622	456.88
433.844	454.88
434.066	453.88
434.287	445.88
434.509	460.88
434.731	466.88
434.953	450.88
435.175	501.88
435.397	486.88
435.618	515.88
435.84	556.88
436.062	591.88
436.284	660.88
436.505	546.88
436.727	481.88
436.949	472.88
437.17	490.88
437.392	482.88
437.614	481.88
437.835	509.88
438.057	584.88
438.278	657.88
438.5	650.88
438.721	717.88
438.943	692.88
439.165	554.88
439.386	488.88
439.608	482.88
439.829	468.88
440.05	509.88
440.272	535.88
440.493	511.88
440.715	502.88
440.936	479.88
441.158	464.88
441.379	489.88
441.6	481.88
441.822	497.88
442.043	541.88
442.264	579.88
442.486	633.88
442.707	560.88
442.928	519.88
443.149	531.88
443.371	541.88
443.592	589.88
443.813	653.88
444.034	715.88
444.255	589.88
444.476	549.88
444.698	518.88
444.919	517.88
445.14	600.88
445.361	552.88
445.582	541.88
445.803	588.88
446.024	651.88
446.245	653.88
446.466	625.88
446.687	540.88
446.908	493.88
447.129	508.88
447.35	456.88
447.571	446.88
447.792	455.88
448.013	457.88
448.234	456.88
448.455	505.88
448.675	602.88
448.896	715.88
449.117	593.88
449.338	535.88
449.559	667.88
449.779	747.88
450	602.88
450.221	494.88
450.442	471.88
450.662	457.88
450.883	445.88
451.104	456.88
451.324	427.88
451.545	448.88
451.766	421.88
451.986	423.88
452.207	401.88
452.428	416.88
452.648	407.88
452.869	415.88
453.089	411.88
453.31	421.88
453.53	419.88
453.751	414.88
453.971	416.88
454.192	421.88
454.412	404.88
454.633	379.88
454.853	413.88
455.073	423.88
455.294	435.88
455.514	482.88
455.734	453.88
455.955	415.88
456.175	395.88
456.395	379.88
456.616	385.88
456.836	390.88
457.056	383.88
457.276	371.88
457.497	372.88
457.717	377.88
457.937	397.88
458.157	389.88
458.377	409.88
458.598	425.88
458.818	476.88
459.038	509.88
459.258	535.88
459.478	451.88
459.698	445.88
459.918	432.88
460.138	447.88
460.358	452.88
460.578	435.88
460.798	473.88
461.018	454.88
461.238	445.88
461.458	437.88
461.678	448.88
461.898	469.88
462.118	432.88
462.338	467.88
462.558	460.88
462.777	463.88
462.997	505.88
463.217	506.88
463.437	525.88
463.657	484.88
463.876	499.88
464.096	500.88
464.316	483.88
464.536	484.88
464.755	483.88
464.975	473.88
465.195	497.88
465.414	532.88
465.634	482.88
465.854	456.88
466.073	443.88
466.293	424.88
466.512	411.88
466.732	423.88
466.951	428.88
467.171	409.88
467.391	427.88
467.61	417.88
467.829	423.88
468.049	418.88
468.268	429.88
468.488	416.88
468.707	392.88
468.927	400.88
469.146	398.88
469.365	421.88
469.585	403.88
469.804	422.88
470.023	414.88
470.243	426.88
470.462	436.88
470.681	453.88
470.901	417.88
471.12	415.88
471.339	424.88
471.558	435.88
471.777	431.88
471.997	418.88
472.216	403.88
472.435	447.88
472.654	416.88
472.873	425.88
473.092	424.88
473.311	433.88
473.53	412.88
473.749	407.88
473.968	465.88
474.187	545.88
474.406	543.88
474.625	459.88
474.844	445.88
475.063	423.88
475.282	425.88
475.501	423.88
475.72	425.88
475.939	447.88
476.158	406.88
476.377	445.88
476.596	425.88
476.814	440.88
477.033	434.88
477.252	443.88
477.471	438.88
477.69	474.88
477.908	458.88
478.127	451.88
478.346	460.88
478.564	468.88
478.783	493.88
479.002	481.88
479.22	476.88
479.439	489.88
479.658	511.88
479.876	494.88
480.095	506.88
480.313	539.88
480.532	537.88
480.751	514.88
480.969	533.88
481.188	563.88
481.406	563.88
481.624	520.88
481.843	488.88
482.061	493.88
482.28	488.88
482.498	476.88
482.717	480.88
482.935	489.88
483.153	476.88
483.372	517.88
483.59	480.88
483.808	499.88
484.027	495.88
484.245	490.88
484.463	497.88
484.681	505.88
484.9	482.88
485.118	513.88
485.336	490.88
485.554	513.88
485.772	497.88
485.99	472.88
486.209	505.88
486.427	516.88
486.645	524.88
486.863	539.88
487.081	529.88
487.299	513.88
487.517	520.88
487.735	507.88
487.953	537.88
488.171	520.88
488.389	514.88
488.607	521.88
488.825	512.88
489.043	515.88
489.261	507.88
489.479	510.88
489.696	531.88
489.914	540.88
490.132	526.88
490.35	547.88
490.568	535.88
490.786	521.88
491.003	566.88
491.221	563.88
491.439	560.88
491.657	581.88
491.874	564.88
492.092	571.88
492.31	568.88
492.527	569.88
492.745	592.88
492.963	595.88
493.18	602.88
493.398	581.88
493.615	590.88
493.833	597.88
494.05	592.88
494.268	586.88
494.485	595.88
494.703	588.88
494.92	604.88
495.138	599.88
495.355	607.88
495.573	591.88
495.79	563.88
496.008	597.88
496.225	629.88
496.442	618.88
496.66	606.88
496.877	618.88
497.094	603.88
497.312	612.88
497.529	618.88
497.746	645.88
497.963	662.88
498.181	642.88
498.398	678.88
498.615	703.88
498.832	715.88
499.049	729.88
499.267	735.88
499.484	765.88
499.701	828.88
499.918	840.88
500.135	889.88
500.352	953.88
500.569	965.88
500.786	947.88
501.003	916.88
501.22	932.88
501.437	830.88
501.654	856.88
501.871	823.88
502.088	800.88
502.305	760.88
502.522	738.88
502.739	679.88
502.956	680.88
503.172	663.88
503.389	645.88
503.606	669.88
503.823	628.88
504.04	620.88
504.256	643.88
504.473	635.88
504.69	638.88
504.907	627.88
505.123	605.88
505.34	609.88
505.557	592.88
505.773	587.88
505.99	571.88
506.207	584.88
506.423	572.88
506.64	584.88
506.856	561.88
507.073	564.88
507.289	570.88
507.506	581.88
507.722	561.88
507.939	543.88
508.155	541.88
508.372	541.88
508.588	539.88
508.805	529.88
509.021	523.88
509.238	554.88
509.454	560.88
509.67	560.88
509.887	526.88
510.103	523.88
510.319	533.88
510.536	602.88
510.752	887.88
510.968	715.88
511.184	539.88
511.401	531.88
511.617	526.88
511.833	522.88
512.049	497.88
512.265	515.88
512.481	521.88
512.698	527.88
512.914	525.88
513.13	503.88
513.346	491.88
513.562	509.88
513.778	491.88
513.994	499.88
514.21	526.88
514.426	522.88
514.642	539.88
514.858	547.88
515.074	597.88
515.29	663.88
515.506	905.88
515.721	756.88
515.937	585.88
516.153	535.88
516.369	540.88
516.585	539.88
516.801	531.88
517.016	541.88
517.232	551.88
517.448	555.88
517.664	568.88
517.879	545.88
518.095	531.88
518.311	554.88
518.527	555.88
518.742	547.88
518.958	549.88
519.173	508.88
519.389	513.88
519.605	510.88
519.82	499.88
520.036	509.88
520.251	522.88
520.467	548.88
520.682	512.88
520.898	544.88
521.113	560.88
521.329	579.88
521.544	601.88
521.76	723.88
521.975	1100.88
522.19	1036.88
522.406	638.88
522.621	538.88
522.836	520.88
523.052	475.88
523.267	497.88
523.482	476.88
523.698	479.88
523.913	483.88
524.128	446.88
524.343	448.88
524.559	449.88
524.774	451.88
524.989	457.88
525.204	457.88
525.419	430.88
525.634	427.88
525.849	461.88
526.064	435.88
526.28	435.88
526.495	426.88
526.71	440.88
526.925	432.88
527.14	437.88
527.355	422.88
527.57	419.88
527.785	427.88
527.999	405.88
528.214	430.88
528.429	456.88
528.644	431.88
528.859	416.88
529.074	435.88
529.289	419.88
529.503	460.88
529.718	465.88
529.933	455.88
530.148	440.88
530.363	442.88
530.577	411.88
530.792	421.88
531.007	416.88
531.221	417.88
531.436	428.88
531.651	416.88
531.865	408.88
532.08	417.88
532.295	424.88
532.509	413.88
532.724	411.88
532.938	405.88
533.153	417.88
533.367	416.88
533.582	412.88
533.796	401.88
534.011	433.88
534.225	399.88
534.44	411.88
534.654	414.88
534.868	418.88
535.083	398.88
535.297	404.88
535.511	424.88
535.726	405.88
535.94	418.88
536.154	388.88
536.369	404.88
536.583	380.88
536.797	403.88
537.011	379.88
537.225	407.88
537.44	415.88
537.654	410.88
537.868	388.88
538.082	405.88
538.296	391.88
538.51	414.88
538.724	411.88
538.938	383.88
539.153	386.88
539.367	381.88
539.581	387.88
539.795	404.88
540.009	383.88
540.222	409.88
540.436	383.88
540.65	407.88
540.864	386.88
541.078	391.88
541.292	380.88
541.506	387.88
541.72	395.88
541.934	401.88
542.147	401.88
542.361	411.88
542.575	388.88
542.789	379.88
543.002	377.88
543.216	385.88
543.43	408.88
543.644	383.88
543.857	398.88
544.071	382.88
544.285	395.88
544.498	398.88
544.712	371.88
544.925	380.88
545.139	383.88
545.352	382.88
545.566	384.88
545.779	373.88
545.993	362.88
546.206	405.88
546.42	379.88
546.633	394.88
546.847	387.88
547.06	382.88
547.274	373.88
547.487	372.88
547.7	365.88
547.914	391.88
548.127	387.88
548.34	361.88
548.554	386.88
548.767	397.88
548.98	390.88
549.193	375.88
549.407	375.88
549.62	395.88
549.833	381.88
550.046	395.88
550.259	372.88
550.473	371.88
550.686	377.88
550.899	376.88
551.112	373.88
551.325	366.88
551.538	384.88
551.751	365.88
551.964	352.88
552.177	369.88
552.39	373.88
552.603	388.88
552.816	376.88
553.029	381.88
553.242	379.88
553.455	395.88
553.667	398.88
553.88	383.88
554.093	380.88
554.306	377.88
554.519	372.88
554.732	372.88
554.944	373.88
555.157	374.88
555.37	360.88
555.583	349.88
555.795	360.88
556.008	348.88
556.221	345.88
556.433	350.88
556.646	357.88
556.859	333.88
557.071	342.88
557.284	343.88
557.496	340.88
557.709	339.88
557.921	360.88
558.134	343.88
558.346	341.88
558.559	332.88
558.771	349.88
558.984	364.88
559.196	366.88
559.409	347.88
559.621	340.88
559.833	327.88
560.046	326.88
560.258	340.88
560.47	340.88
560.683	329.88
560.895	362.88
561.107	324.88
561.32	337.88
561.532	337.88
561.744	329.88
561.956	325.88
562.168	333.88
562.381	333.88
562.593	332.88
562.805	337.88
563.017	336.88
563.229	351.88
563.441	344.88
563.653	337.88
563.865	332.88
564.077	334.88
564.289	344.88
564.501	330.88
564.713	355.88
564.925	381.88
565.137	365.88
565.349	388.88
565.561	367.88
565.773	371.88
565.985	411.88
566.197	389.88
566.408	411.88
566.62	405.88
566.832	405.88
567.044	435.88
567.255	412.88
567.467	453.88
567.679	435.88
567.891	463.88
568.102	451.88
568.314	450.88
568.526	438.88
568.737	404.88
568.949	399.88
569.161	392.88
569.372	380.88
569.584	351.88
569.795	353.88
570.007	351.88
570.218	368.88
570.43	373.88
570.641	348.88
570.853	349.88
571.064	323.88
571.276	315.88
571.487	312.88
571.698	345.88
571.91	338.88
572.121	311.88
572.333	325.88
572.544	313.88
572.755	303.88
572.966	317.88
573.178	296.88
573.389	290.88
573.6	296.88
573.811	294.88
574.023	291.88
574.234	285.88
574.445	288.88
574.656	297.88
574.867	307.88
575.078	306.88
575.289	299.88
575.501	290.88
575.712	281.88
575.923	297.88
576.134	295.88
576.345	294.88
576.556	293.88
576.767	289.88
576.978	277.88
577.188	288.88
577.399	258.88
577.61	284.88
577.821	271.88
578.032	267.88
578.243	265.88
578.454	425.88
578.665	344.88
578.875	289.88
579.086	271.88
579.297	288.88
579.508	275.88
579.718	279.88
579.929	253.88
580.14	264.88
580.35	270.88
580.561	265.88
580.772	265.88
580.982	269.88
581.193	260.88
581.403	272.88
581.614	282.88
581.825	251.88
582.035	259.88
582.246	248.88
582.456	261.88
582.667	270.88
582.877	269.88
583.087	261.88
583.298	249.88
583.508	271.88
583.719	260.88
583.929	275.88
584.139	257.88
584.35	263.88
584.56	273.88
584.77	264.88
584.981	267.88
585.191	255.88
585.401	252.88
585.611	251.88
585.821	261.88
586.032	249.88
586.242	244.88
586.452	244.88
586.662	261.88
586.872	265.88
587.082	252.88
587.292	244.88
587.502	249.88
587.713	261.88
587.923	238.88
588.133	260.88
588.343	257.88
588.553	256.88
588.762	240.88
588.972	249.88
589.182	256.88
589.392	252.88
589.602	261.88
589.812	263.88
590.022	258.88
590.232	249.88
590.441	274.88
590.651	258.88
590.861	252.88
591.071	244.88
591.281	273.88
591.49	253.88
591.7	259.88
591.91	267.88
592.119	259.88
592.329	248.88
592.539	260.88
592.748	265.88
592.958	270.88
593.167	290.88
593.377	279.88
593.587	288.88
593.796	295.88
594.006	280.88
594.215	281.88
594.424	264.88
594.634	287.88
594.843	271.88
595.053	264.88
595.262	283.88
595.472	262.88
595.681	262.88
595.89	264.88
596.1	265.88
596.309	250.88
596.518	258.88
596.727	252.88
596.937	243.88
597.146	254.88
597.355	252.88
597.564	248.88
597.774	226.88
597.983	247.88
598.192	227.88
598.401	241.88
598.61	225.88
598.819	224.88
599.028	235.88
599.237	227.88
599.446	236.88
599.655	218.88
599.864	245.88
600.073	229.88
600.282	225.88
600.491	215.88
600.7	207.88
600.909	224.88
601.118	231.88
601.327	228.88
601.536	238.88
601.745	219.88
601.953	223.88
602.162	220.88
602.371	219.88
602.58	227.88
602.789	224.88
602.997	239.88
603.206	214.88
603.415	226.88
603.623	200.88
603.832	222.88
604.041	205.88
604.249	200.88
604.458	209.88
604.666	193.88
604.875	208.88
605.084	200.88
605.292	218.88
605.501	216.88
605.709	202.88
605.918	205.88
606.126	211.88
606.334	210.88
606.543	212.88
606.751	203.88
606.96	202.88
607.168	204.88
607.376	218.88
607.585	217.88
607.793	204.88
608.001	227.88
608.21	233.88
608.418	218.88
608.626	220.88
608.834	220.88
609.043	205.88
609.251	209.88
609.459	207.88
609.667	203.88
609.875	196.88
610.083	217.88
610.291	214.88
610.499	203.88
610.707	215.88
610.916	212.88
611.124	196.88
611.332	205.88
611.54	209.88
611.748	211.88
611.955	213.88
612.163	202.88
612.371	211.88
612.579	209.88
612.787	204.88
612.995	212.88
613.203	210.88
613.411	217.88
613.618	188.88
613.826	183.88
614.034	196.88
614.242	195.88
614.449	215.88
614.657	216.88
614.865	199.88
615.072	207.88
615.28	210.88
615.488	196.88
615.695	223.88
615.903	207.88
616.111	202.88
616.318	211.88
616.526	215.88
616.733	209.88
616.941	192.88
617.148	197.88
617.356	213.88
617.563	203.88
617.771	204.88
617.978	198.88
618.185	208.88
618.393	186.88
618.6	209.88
618.807	199.88
619.015	194.88
619.222	209.88
619.429	201.88
619.637	199.88
619.844	203.88
620.051	189.88
620.258	192.88
620.466	200.88
620.673	191.88
620.88	187.88
621.087	169.88
621.294	194.88
621.501	193.88
621.708	192.88
621.915	208.88
622.122	205.88
622.329	187.88
622.536	185.88
622.743	188.88
622.95	187.88
623.157	187.88
623.364	189.88
623.571	183.88
623.778	187.88
623.985	181.88
624.192	173.88
624.399	191.88
624.606	183.88
624.812	191.88
625.019	193.88
625.226	196.88
625.433	190.88
625.639	197.88
625.846	171.88
626.053	187.88
626.259	175.88
626.466	173.88
626.673	185.88
626.879	181.88
627.086	183.88
627.293	191.88
627.499	179.88
627.706	170.88
627.912	189.88
628.119	171.88
628.325	177.88
628.532	175.88
628.738	186.88
628.945	188.88
629.151	173.88
629.357	179.88
629.564	169.88
629.77	171.88
629.976	188.88
630.183	182.88
630.389	185.88
630.595	185.88
630.802	179.88
631.008	185.88
631.214	177.88
631.42	175.88
631.627	171.88
631.833	145.88
632.039	162.88
632.245	173.88
632.451	187.88
632.657	164.88
632.863	168.88
633.069	168.88
633.275	161.88
633.481	159.88
633.688	159.88
633.893	144.88
634.099	168.88
634.305	162.88
634.511	173.88
634.717	167.88
634.923	159.88
635.129	153.88
635.335	141.88
635.541	159.88
635.747	152.88
635.952	154.88
636.158	172.88
636.364	169.88
636.57	188.88
636.775	161.88
636.981	170.88
637.187	159.88
637.392	153.88
637.598	155.88
637.804	150.88
638.009	175.88
638.215	180.88
638.421	150.88
638.626	157.88
638.832	153.88
639.037	144.88
639.243	170.88
639.448	165.88
639.654	165.88
639.859	165.88
640.065	148.88
640.27	167.88
640.475	153.88
640.681	155.88
640.886	170.88
641.091	152.88
641.297	147.88
641.502	146.88
641.707	148.88
641.913	152.88
642.118	154.88
642.323	147.88
642.528	150.88
642.733	137.88
642.939	149.88
643.144	160.88
643.349	157.88
643.554	140.88
643.759	142.88
643.964	163.88
644.169	156.88
644.374	146.88
644.579	142.88
644.784	159.88
644.989	139.88
645.194	155.88
645.399	142.88
645.604	136.88
645.809	135.88
646.014	154.88
646.219	140.88
646.423	144.88
646.628	159.88
646.833	147.88
647.038	148.88
647.243	151.88
647.447	155.88
647.652	147.88
647.857	141.88
648.062	162.88
648.266	150.88
648.471	151.88
648.676	162.88
648.88	168.88
649.085	164.88
649.289	150.88
649.494	153.88
649.698	175.88
649.903	165.88
650.107	162.88
650.312	154.88
650.516	153.88
650.721	148.88
650.925	142.88
651.13	153.88
651.334	129.88
651.539	141.88
651.743	136.88
651.947	127.88
652.152	142.88
652.356	135.88
652.56	137.88
652.764	142.88
652.969	127.88
653.173	129.88
653.377	128.88
653.581	148.88
653.785	141.88
653.99	137.88
654.194	146.88
654.398	127.88
654.602	130.88
654.806	127.88
655.01	117.88
655.214	123.88
655.418	130.88
655.622	117.88
655.826	134.88
656.03	117.88
656.234	128.88
656.438	118.88
656.642	130.88
656.846	119.88
657.049	116.88
657.253	111.88
657.457	105.88
657.661	113.88
657.865	102.88
658.068	97.88
658.272	108.88
658.476	99.88
658.68	93.88
658.883	104.88
659.087	111.88
659.291	98.88
659.494	99.88
659.698	82.88
659.901	95.88
660.105	96.88
660.309	88.88
660.512	78.88
660.716	85.88
660.919	95.88
661.123	94.88
661.326	88.88
661.53	88.88
661.733	87.88
661.936	104.88
662.14	98.88
662.343	83.88
662.546	94.88
662.75	81.88
662.953	88.88
663.156	82.88
663.36	82.88
663.563	95.88
663.766	66.88
663.969	91.88
664.173	76.88
664.376	83.88
664.579	88.88
664.782	77.88
664.985	83.88
665.188	74.88
665.391	85.88
665.594	85.88
665.797	86.88
666	75.88
666.203	84.88
666.406	63.88
666.609	75.88
666.812	84.88
667.015	88.88
667.218	82.88
667.421	73.88
667.624	79.88
667.827	88.88
668.03	73.88
668.232	84.88
668.435	82.88
668.638	81.88
668.841	86.88
669.043	84.88
669.246	92.88
669.449	79.88
669.651	86.88
669.854	82.88
670.057	77.88
670.259	83.88
670.462	83.88
670.665	68.88
670.867	67.88
671.07	91.88
671.272	73.88
671.475	84.88
671.677	71.88
671.88	66.88
672.082	67.88
672.284	84.88
672.487	79.88
672.689	86.88
672.892	72.88
