Data from 1977.PennyLincolnUp.Lamp.En5.5.200Scan.071719.P1_HRD10591_16-07-57-865.txt Node
Date: Thu Jul 18 16:07:57 EDT 2019
User: cochatt
Spectrometer: HR+D1059
Trigger mode: 1
Integration Time (sec): 1.000000E-1
Scans to average: 1
Electric dark correction enabled: true
Nonlinearity correction enabled: false
Boxcar width: 0
XAxis mode: Wavelengths
Number of Pixels in Spectrum: 2048
>>>>>Begin Spectral Data<<<<<
223.165	-9.94
223.4	-9.94
223.635	-9.94
223.869	-17.94
224.104	-14.94
224.338	-11.94
224.573	-32.94
224.808	-8.94
225.042	-1.94
225.277	-12.94
225.511	-5.94
225.746	0.06
225.98	2.06
226.215	17.06
226.449	28.06
226.683	24.06
226.918	8.06
227.152	38.06
227.387	33.06
227.621	30.06
227.856	40.06
228.09	50.06
228.324	46.06
228.559	54.06
228.793	59.06
229.027	99.06
229.262	97.06
229.496	104.06
229.73	130.06
229.964	140.06
230.199	119.06
230.433	108.06
230.667	114.06
230.901	112.06
231.136	115.06
231.37	114.06
231.604	100.06
231.838	110.06
232.072	120.06
232.306	118.06
232.541	111.06
232.775	103.06
233.009	102.06
233.243	112.06
233.477	112.06
233.711	119.06
233.945	105.06
234.179	105.06
234.413	136.06
234.647	122.06
234.881	122.06
235.115	113.06
235.349	120.06
235.583	121.06
235.817	120.06
236.051	139.06
236.285	127.06
236.519	120.06
236.753	124.06
236.987	112.06
237.221	175.06
237.455	208.06
237.689	158.06
237.922	147.06
238.156	129.06
238.39	128.06
238.624	129.06
238.858	119.06
239.091	121.06
239.325	122.06
239.559	113.06
239.793	118.06
240.027	120.06
240.26	129.06
240.494	140.06
240.728	142.06
240.961	146.06
241.195	148.06
241.429	142.06
241.662	136.06
241.896	131.06
242.13	138.06
242.363	142.06
242.597	131.06
242.83	144.06
243.064	132.06
243.298	137.06
243.531	128.06
243.765	139.06
243.998	140.06
244.232	148.06
244.465	152.06
244.699	137.06
244.932	147.06
245.166	126.06
245.399	144.06
245.633	134.06
245.866	135.06
246.099	124.06
246.333	137.06
246.566	151.06
246.8	145.06
247.033	151.06
247.266	158.06
247.5	166.06
247.733	155.06
247.966	171.06
248.2	157.06
248.433	171.06
248.666	187.06
248.899	171.06
249.133	176.06
249.366	198.06
249.599	187.06
249.832	192.06
250.066	178.06
250.299	174.06
250.532	195.06
250.765	194.06
250.998	211.06
251.231	218.06
251.465	215.06
251.698	193.06
251.931	200.06
252.164	180.06
252.397	209.06
252.63	209.06
252.863	179.06
253.096	202.06
253.329	216.06
253.562	199.06
253.795	226.06
254.028	211.06
254.261	220.06
254.494	220.06
254.727	235.06
254.96	263.06
255.193	267.06
255.426	240.06
255.659	224.06
255.892	222.06
256.124	240.06
256.357	229.06
256.59	226.06
256.823	201.06
257.056	199.06
257.289	218.06
257.521	197.06
257.754	202.06
257.987	222.06
258.22	204.06
258.452	201.06
258.685	199.06
258.918	223.06
259.151	225.06
259.383	222.06
259.616	215.06
259.849	238.06
260.081	226.06
260.314	261.06
260.547	262.06
260.779	233.06
261.012	226.06
261.244	227.06
261.477	216.06
261.71	211.06
261.942	209.06
262.175	220.06
262.407	225.06
262.64	215.06
262.872	190.06
263.105	215.06
263.337	218.06
263.57	202.06
263.802	203.06
264.035	219.06
264.267	211.06
264.499	213.06
264.732	213.06
264.964	207.06
265.197	217.06
265.429	223.06
265.661	225.06
265.894	215.06
266.126	235.06
266.358	223.06
266.591	239.06
266.823	240.06
267.055	230.06
267.287	223.06
267.52	233.06
267.752	234.06
267.984	245.06
268.216	243.06
268.448	251.06
268.681	246.06
268.913	254.06
269.145	276.06
269.377	277.06
269.609	275.06
269.841	286.06
270.073	286.06
270.306	293.06
270.538	323.06
270.77	299.06
271.002	315.06
271.234	312.06
271.466	306.06
271.698	308.06
271.93	317.06
272.162	330.06
272.394	324.06
272.626	293.06
272.858	302.06
273.09	286.06
273.322	301.06
273.553	268.06
273.785	264.06
274.017	261.06
274.249	276.06
274.481	276.06
274.713	290.06
274.945	282.06
275.176	287.06
275.408	273.06
275.64	281.06
275.872	268.06
276.104	270.06
276.335	264.06
276.567	293.06
276.799	292.06
277.031	336.06
277.262	324.06
277.494	325.06
277.726	313.06
277.957	287.06
278.189	295.06
278.421	287.06
278.652	281.06
278.884	269.06
279.115	294.06
279.347	288.06
279.579	284.06
279.81	277.06
280.042	283.06
280.273	273.06
280.505	293.06
280.736	297.06
280.968	285.06
281.199	294.06
281.431	281.06
281.662	278.06
281.894	290.06
282.125	307.06
282.356	310.06
282.588	321.06
282.819	297.06
283.051	307.06
283.282	294.06
283.513	320.06
283.745	308.06
283.976	298.06
284.207	300.06
284.439	302.06
284.67	307.06
284.901	306.06
285.132	290.06
285.364	285.06
285.595	299.06
285.826	298.06
286.057	312.06
286.288	292.06
286.52	293.06
286.751	307.06
286.982	294.06
287.213	296.06
287.444	299.06
287.675	312.06
287.906	322.06
288.138	325.06
288.369	339.06
288.6	331.06
288.831	334.06
289.062	325.06
289.293	331.06
289.524	317.06
289.755	305.06
289.986	315.06
290.217	321.06
290.448	321.06
290.679	321.06
290.91	310.06
291.141	297.06
291.371	329.06
291.602	320.06
291.833	313.06
292.064	310.06
292.295	316.06
292.526	306.06
292.757	311.06
292.987	318.06
293.218	296.06
293.449	318.06
293.68	322.06
293.91	307.06
294.141	308.06
294.372	306.06
294.603	301.06
294.833	318.06
295.064	308.06
295.295	314.06
295.525	315.06
295.756	342.06
295.987	326.06
296.217	336.06
296.448	360.06
296.679	338.06
296.909	322.06
297.14	320.06
297.37	327.06
297.601	325.06
297.831	329.06
298.062	329.06
298.292	319.06
298.523	342.06
298.753	332.06
298.984	341.06
299.214	338.06
299.445	329.06
299.675	339.06
299.905	350.06
300.136	329.06
300.366	334.06
300.597	344.06
300.827	347.06
301.057	372.06
301.288	346.06
301.518	342.06
301.748	359.06
301.979	367.06
302.209	349.06
302.439	370.06
302.669	352.06
302.9	363.06
303.13	362.06
303.36	358.06
303.59	363.06
303.82	361.06
304.051	384.06
304.281	374.06
304.511	359.06
304.741	374.06
304.971	352.06
305.201	359.06
305.431	342.06
305.661	359.06
305.891	368.06
306.121	346.06
306.352	357.06
306.582	372.06
306.812	359.06
307.042	380.06
307.272	352.06
307.502	354.06
307.731	361.06
307.961	353.06
308.191	354.06
308.421	353.06
308.651	378.06
308.881	360.06
309.111	372.06
309.341	360.06
309.571	377.06
309.8	391.06
310.03	397.06
310.26	391.06
310.49	404.06
310.72	388.06
310.949	392.06
311.179	410.06
311.409	411.06
311.639	389.06
311.868	392.06
312.098	398.06
312.328	405.06
312.557	406.06
312.787	418.06
313.017	432.06
313.246	379.06
313.476	415.06
313.706	408.06
313.935	404.06
314.165	404.06
314.394	399.06
314.624	426.06
314.853	392.06
315.083	393.06
315.312	394.06
315.542	393.06
315.771	401.06
316.001	389.06
316.23	404.06
316.46	384.06
316.689	384.06
316.919	424.06
317.148	404.06
317.377	411.06
317.607	414.06
317.836	402.06
318.065	414.06
318.295	416.06
318.524	400.06
318.753	388.06
318.983	416.06
319.212	400.06
319.441	384.06
319.67	406.06
319.9	386.06
320.129	389.06
320.358	390.06
320.587	405.06
320.816	427.06
321.046	417.06
321.275	410.06
321.504	422.06
321.733	412.06
321.962	422.06
322.191	455.06
322.42	436.06
322.649	447.06
322.878	470.06
323.108	472.06
323.337	481.06
323.566	491.06
323.795	499.06
324.024	555.06
324.253	650.06
324.482	879.06
324.71	1370.06
324.939	1920.06
325.168	1608.06
325.397	882.06
325.626	603.06
325.855	528.06
326.084	532.06
326.313	498.06
326.542	489.06
326.77	542.06
326.999	628.06
327.228	806.06
327.457	1202.06
327.686	1400.06
327.914	952.06
328.143	666.06
328.372	564.06
328.6	554.06
328.829	534.06
329.058	546.06
329.287	539.06
329.515	514.06
329.744	512.06
329.972	503.06
330.201	508.06
330.43	548.06
330.658	551.06
330.887	569.06
331.115	547.06
331.344	504.06
331.572	516.06
331.801	490.06
332.03	520.06
332.258	479.06
332.486	489.06
332.715	507.06
332.943	473.06
333.172	476.06
333.4	491.06
333.629	492.06
333.857	527.06
334.085	521.06
334.314	524.06
334.542	543.06
334.771	564.06
334.999	519.06
335.227	478.06
335.455	485.06
335.684	487.06
335.912	475.06
336.14	458.06
336.369	491.06
336.597	490.06
336.825	479.06
337.053	463.06
337.281	473.06
337.51	471.06
337.738	476.06
337.966	479.06
338.194	449.06
338.422	453.06
338.65	452.06
338.878	440.06
339.106	463.06
339.334	425.06
339.562	444.06
339.79	447.06
340.018	446.06
340.246	452.06
340.474	458.06
340.702	443.06
340.93	448.06
341.158	437.06
341.386	451.06
341.614	449.06
341.842	440.06
342.07	440.06
342.298	460.06
342.526	440.06
342.754	419.06
342.981	430.06
343.209	425.06
343.437	424.06
343.665	445.06
343.893	473.06
344.12	459.06
344.348	476.06
344.576	461.06
344.804	447.06
345.031	432.06
345.259	461.06
345.487	435.06
345.714	445.06
345.942	438.06
346.17	415.06
346.397	420.06
346.625	431.06
346.853	424.06
347.08	418.06
347.308	430.06
347.535	422.06
347.763	410.06
347.99	414.06
348.218	406.06
348.445	428.06
348.673	437.06
348.9	427.06
349.128	428.06
349.355	431.06
349.583	424.06
349.81	431.06
350.037	407.06
350.265	426.06
350.492	404.06
350.72	403.06
350.947	407.06
351.174	416.06
351.402	434.06
351.629	424.06
351.856	410.06
352.083	410.06
352.311	437.06
352.538	430.06
352.765	431.06
352.992	441.06
353.22	427.06
353.447	417.06
353.674	404.06
353.901	422.06
354.128	412.06
354.355	403.06
354.583	404.06
354.81	404.06
355.037	416.06
355.264	398.06
355.491	386.06
355.718	390.06
355.945	380.06
356.172	385.06
356.399	389.06
356.626	400.06
356.853	405.06
357.08	397.06
357.307	410.06
357.534	389.06
357.761	387.06
357.988	379.06
358.215	390.06
358.441	382.06
358.668	397.06
358.895	420.06
359.122	400.06
359.349	403.06
359.576	428.06
359.802	425.06
360.029	441.06
360.256	444.06
360.483	435.06
360.709	419.06
360.936	418.06
361.163	407.06
361.39	400.06
361.616	429.06
361.843	402.06
362.07	416.06
362.296	412.06
362.523	401.06
362.749	410.06
362.976	367.06
363.203	409.06
363.429	379.06
363.656	392.06
363.882	382.06
364.109	404.06
364.335	382.06
364.562	374.06
364.788	402.06
365.015	398.06
365.241	392.06
365.468	419.06
365.694	399.06
365.92	390.06
366.147	402.06
366.373	401.06
366.599	379.06
366.826	374.06
367.052	387.06
367.278	368.06
367.505	376.06
367.731	385.06
367.957	391.06
368.184	381.06
368.41	395.06
368.636	400.06
368.862	411.06
369.089	407.06
369.315	372.06
369.541	393.06
369.767	408.06
369.993	402.06
370.219	416.06
370.445	402.06
370.672	396.06
370.898	402.06
371.124	397.06
371.35	405.06
371.576	406.06
371.802	406.06
372.028	388.06
372.254	397.06
372.48	396.06
372.706	402.06
372.932	408.06
373.158	398.06
373.384	412.06
373.61	420.06
373.835	400.06
374.061	409.06
374.287	413.06
374.513	423.06
374.739	426.06
374.965	431.06
375.191	382.06
375.416	405.06
375.642	417.06
375.868	390.06
376.094	408.06
376.319	386.06
376.545	391.06
376.771	398.06
376.997	396.06
377.222	389.06
377.448	366.06
377.674	402.06
377.899	388.06
378.125	380.06
378.35	382.06
378.576	372.06
378.802	389.06
379.027	386.06
379.253	400.06
379.478	382.06
379.704	394.06
379.929	401.06
380.155	387.06
380.38	392.06
380.606	390.06
380.831	367.06
381.057	392.06
381.282	391.06
381.507	391.06
381.733	409.06
381.958	390.06
382.184	387.06
382.409	378.06
382.634	399.06
382.86	400.06
383.085	417.06
383.31	419.06
383.535	406.06
383.761	414.06
383.986	435.06
384.211	425.06
384.436	419.06
384.662	421.06
384.887	435.06
385.112	414.06
385.337	418.06
385.562	439.06
385.787	438.06
386.013	433.06
386.238	447.06
386.463	448.06
386.688	428.06
386.913	433.06
387.138	438.06
387.363	440.06
387.588	424.06
387.813	427.06
388.038	446.06
388.263	446.06
388.488	440.06
388.713	445.06
388.938	454.06
389.163	455.06
389.387	435.06
389.612	438.06
389.837	416.06
390.062	437.06
390.287	428.06
390.512	446.06
390.736	422.06
390.961	436.06
391.186	414.06
391.411	453.06
391.636	433.06
391.86	448.06
392.085	462.06
392.31	432.06
392.534	448.06
392.759	446.06
392.984	456.06
393.208	435.06
393.433	450.06
393.658	429.06
393.882	435.06
394.107	427.06
394.331	434.06
394.556	429.06
394.78	422.06
395.005	444.06
395.229	420.06
395.454	446.06
395.678	472.06
395.903	469.06
396.127	479.06
396.352	476.06
396.576	460.06
396.801	451.06
397.025	442.06
397.249	460.06
397.474	462.06
397.698	463.06
397.922	479.06
398.147	472.06
398.371	484.06
398.595	476.06
398.82	458.06
399.044	489.06
399.268	516.06
399.492	560.06
399.717	595.06
399.941	600.06
400.165	628.06
400.389	631.06
400.613	580.06
400.837	500.06
401.062	494.06
401.286	499.06
401.51	512.06
401.734	496.06
401.958	500.06
402.182	492.06
402.406	516.06
402.63	496.06
402.854	504.06
403.078	509.06
403.302	505.06
403.526	526.06
403.75	518.06
403.974	502.06
404.198	512.06
404.422	521.06
404.645	528.06
404.869	528.06
405.093	543.06
405.317	592.06
405.541	607.06
405.765	573.06
405.988	548.06
406.212	532.06
406.436	565.06
406.66	561.06
406.883	559.06
407.107	586.06
407.331	608.06
407.555	642.06
407.778	678.06
408.002	616.06
408.226	583.06
408.449	575.06
408.673	547.06
408.896	587.06
409.12	625.06
409.344	590.06
409.567	530.06
409.791	526.06
410.014	521.06
410.238	506.06
410.461	523.06
410.685	498.06
410.908	536.06
411.132	563.06
411.355	579.06
411.578	560.06
411.802	505.06
412.025	491.06
412.249	522.06
412.472	530.06
412.695	558.06
412.919	549.06
413.142	501.06
413.365	503.06
413.589	479.06
413.812	492.06
414.035	482.06
414.258	471.06
414.482	462.06
414.705	481.06
414.928	481.06
415.151	498.06
415.374	464.06
415.597	457.06
415.821	461.06
416.044	473.06
416.267	482.06
416.49	486.06
416.713	468.06
416.936	485.06
417.159	468.06
417.382	460.06
417.605	499.06
417.828	493.06
418.051	498.06
418.274	486.06
418.497	471.06
418.72	468.06
418.943	486.06
419.166	500.06
419.389	514.06
419.611	514.06
419.834	509.06
420.057	510.06
420.28	510.06
420.503	479.06
420.726	505.06
420.948	508.06
421.171	555.06
421.394	545.06
421.617	507.06
421.839	494.06
422.062	524.06
422.285	491.06
422.507	560.06
422.73	601.06
422.953	607.06
423.175	523.06
423.398	521.06
423.621	517.06
423.843	522.06
424.066	520.06
424.288	539.06
424.511	546.06
424.733	584.06
424.956	650.06
425.178	630.06
425.401	609.06
425.623	638.06
425.846	569.06
426.068	532.06
426.291	518.06
426.513	521.06
426.735	532.06
426.958	572.06
427.18	628.06
427.402	754.06
427.625	807.06
427.847	690.06
428.069	594.06
428.292	539.06
428.514	523.06
428.736	482.06
428.958	484.06
429.181	472.06
429.403	468.06
429.625	509.06
429.847	513.06
430.069	558.06
430.292	567.06
430.514	479.06
430.736	467.06
430.958	452.06
431.18	458.06
431.402	457.06
431.624	437.06
431.846	442.06
432.068	446.06
432.29	460.06
432.512	456.06
432.734	475.06
432.956	440.06
433.178	463.06
433.4	452.06
433.622	453.06
433.844	465.06
434.066	450.06
434.287	457.06
434.509	498.06
434.731	468.06
434.953	460.06
435.175	488.06
435.397	500.06
435.618	508.06
435.84	552.06
436.062	618.06
436.284	677.06
436.505	571.06
436.727	521.06
436.949	495.06
437.17	459.06
437.392	466.06
437.614	474.06
437.835	512.06
438.057	582.06
438.278	654.06
438.5	679.06
438.721	747.06
438.943	709.06
439.165	553.06
439.386	544.06
439.608	531.06
439.829	519.06
440.05	542.06
440.272	596.06
440.493	547.06
440.715	502.06
440.936	495.06
441.158	500.06
441.379	478.06
441.6	494.06
441.822	500.06
442.043	543.06
442.264	615.06
442.486	646.06
442.707	566.06
442.928	543.06
443.149	530.06
443.371	538.06
443.592	578.06
443.813	675.06
444.034	707.06
444.255	612.06
444.476	554.06
444.698	538.06
444.919	530.06
445.14	658.06
445.361	585.06
445.582	547.06
445.803	598.06
446.024	688.06
446.245	675.06
446.466	614.06
446.687	560.06
446.908	519.06
447.129	482.06
447.35	461.06
447.571	456.06
447.792	461.06
448.013	474.06
448.234	477.06
448.455	539.06
448.675	627.06
448.896	714.06
449.117	609.06
449.338	561.06
449.559	683.06
449.779	759.06
450	609.06
450.221	516.06
450.442	467.06
450.662	458.06
450.883	467.06
451.104	454.06
451.324	476.06
451.545	433.06
451.766	438.06
451.986	417.06
452.207	423.06
452.428	428.06
452.648	403.06
452.869	427.06
453.089	433.06
453.31	416.06
453.53	426.06
453.751	392.06
453.971	419.06
454.192	421.06
454.412	432.06
454.633	424.06
454.853	415.06
455.073	420.06
455.294	433.06
455.514	486.06
455.734	475.06
455.955	420.06
456.175	420.06
456.395	406.06
456.616	398.06
456.836	401.06
457.056	388.06
457.276	391.06
457.497	382.06
457.717	383.06
457.937	391.06
458.157	428.06
458.377	419.06
458.598	436.06
458.818	470.06
459.038	547.06
459.258	566.06
459.478	458.06
459.698	441.06
459.918	463.06
460.138	441.06
460.358	425.06
460.578	469.06
460.798	460.06
461.018	467.06
461.238	447.06
461.458	467.06
461.678	482.06
461.898	457.06
462.118	459.06
462.338	470.06
462.558	472.06
462.777	485.06
462.997	493.06
463.217	513.06
463.437	531.06
463.657	505.06
463.876	500.06
464.096	514.06
464.316	499.06
464.536	494.06
464.755	505.06
464.975	500.06
465.195	496.06
465.414	519.06
465.634	495.06
465.854	460.06
466.073	467.06
466.293	454.06
466.512	430.06
466.732	430.06
466.951	432.06
467.171	433.06
467.391	418.06
467.61	438.06
467.829	439.06
468.049	428.06
468.268	430.06
468.488	415.06
468.707	409.06
468.927	423.06
469.146	412.06
469.365	426.06
469.585	408.06
469.804	432.06
470.023	448.06
470.243	428.06
470.462	427.06
470.681	442.06
470.901	420.06
471.12	395.06
471.339	433.06
471.558	445.06
471.777	411.06
471.997	423.06
472.216	421.06
472.435	449.06
472.654	455.06
472.873	434.06
473.092	417.06
473.311	416.06
473.53	433.06
473.749	454.06
473.968	460.06
474.187	547.06
474.406	561.06
474.625	502.06
474.844	448.06
475.063	428.06
475.282	428.06
475.501	435.06
475.72	429.06
475.939	426.06
476.158	432.06
476.377	446.06
476.596	438.06
476.814	441.06
477.033	448.06
477.252	448.06
477.471	451.06
477.69	468.06
477.908	462.06
478.127	474.06
478.346	488.06
478.564	481.06
478.783	485.06
479.002	493.06
479.22	494.06
479.439	498.06
479.658	512.06
479.876	517.06
480.095	522.06
480.313	532.06
480.532	543.06
480.751	543.06
480.969	522.06
481.188	583.06
481.406	581.06
481.624	535.06
481.843	516.06
482.061	527.06
482.28	506.06
482.498	498.06
482.717	505.06
482.935	489.06
483.153	490.06
483.372	499.06
483.59	522.06
483.808	508.06
484.027	488.06
484.245	501.06
484.463	487.06
484.681	501.06
484.9	502.06
485.118	494.06
485.336	503.06
485.554	497.06
485.772	510.06
485.99	488.06
486.209	498.06
486.427	514.06
486.645	523.06
486.863	550.06
487.081	553.06
487.299	526.06
487.517	538.06
487.735	522.06
487.953	522.06
488.171	523.06
488.389	524.06
488.607	534.06
488.825	516.06
489.043	510.06
489.261	519.06
489.479	545.06
489.696	540.06
489.914	513.06
490.132	528.06
490.35	564.06
490.568	529.06
490.786	544.06
491.003	550.06
491.221	566.06
491.439	563.06
491.657	585.06
491.874	577.06
492.092	602.06
492.31	593.06
492.527	603.06
492.745	596.06
492.963	592.06
493.18	604.06
493.398	612.06
493.615	598.06
493.833	627.06
494.05	630.06
494.268	608.06
494.485	619.06
494.703	614.06
494.92	601.06
495.138	622.06
495.355	615.06
495.573	610.06
495.79	620.06
496.008	628.06
496.225	625.06
496.442	622.06
496.66	623.06
496.877	640.06
497.094	631.06
497.312	646.06
497.529	642.06
497.746	655.06
497.963	660.06
498.181	677.06
498.398	710.06
498.615	712.06
498.832	715.06
499.049	736.06
499.267	798.06
499.484	806.06
499.701	818.06
499.918	855.06
500.135	898.06
500.352	952.06
500.569	983.06
500.786	968.06
501.003	959.06
501.22	910.06
501.437	892.06
501.654	818.06
501.871	807.06
502.088	788.06
502.305	750.06
502.522	746.06
502.739	730.06
502.956	695.06
503.172	694.06
503.389	656.06
503.606	670.06
503.823	632.06
504.04	638.06
504.256	642.06
504.473	624.06
504.69	673.06
504.907	644.06
505.123	604.06
505.34	614.06
505.557	594.06
505.773	576.06
505.99	614.06
506.207	602.06
506.423	594.06
506.64	591.06
506.856	602.06
507.073	593.06
507.289	562.06
507.506	588.06
507.722	565.06
507.939	580.06
508.155	587.06
508.372	564.06
508.588	546.06
508.805	539.06
509.021	548.06
509.238	574.06
509.454	593.06
509.67	550.06
509.887	540.06
510.103	548.06
510.319	570.06
510.536	612.06
510.752	904.06
510.968	732.06
511.184	552.06
511.401	523.06
511.617	537.06
511.833	518.06
512.049	541.06
512.265	511.06
512.481	503.06
512.698	513.06
512.914	506.06
513.13	526.06
513.346	484.06
513.562	514.06
513.778	539.06
513.994	512.06
514.21	526.06
514.426	536.06
514.642	545.06
514.858	567.06
515.074	630.06
515.29	676.06
515.506	914.06
515.721	750.06
515.937	588.06
516.153	552.06
516.369	544.06
516.585	535.06
516.801	511.06
517.016	554.06
517.232	551.06
517.448	556.06
517.664	550.06
517.879	572.06
518.095	562.06
518.311	567.06
518.527	562.06
518.742	519.06
518.958	528.06
519.173	520.06
519.389	532.06
519.605	513.06
519.82	545.06
520.036	560.06
520.251	546.06
520.467	560.06
520.682	554.06
520.898	525.06
521.113	540.06
521.329	575.06
521.544	604.06
521.76	748.06
521.975	1122.06
522.19	1066.06
522.406	672.06
522.621	540.06
522.836	512.06
523.052	487.06
523.267	459.06
523.482	482.06
523.698	480.06
523.913	481.06
524.128	487.06
524.343	461.06
524.559	449.06
524.774	446.06
524.989	461.06
525.204	444.06
525.419	471.06
525.634	441.06
525.849	450.06
526.064	448.06
526.28	448.06
526.495	447.06
526.71	443.06
526.925	450.06
527.14	449.06
527.355	438.06
527.57	442.06
527.785	451.06
527.999	424.06
528.214	427.06
528.429	432.06
528.644	455.06
528.859	434.06
529.074	436.06
529.289	462.06
529.503	496.06
529.718	470.06
529.933	427.06
530.148	451.06
530.363	424.06
530.577	420.06
530.792	435.06
531.007	438.06
531.221	426.06
531.436	395.06
531.651	424.06
531.865	417.06
532.08	437.06
532.295	404.06
532.509	418.06
532.724	387.06
532.938	412.06
533.153	414.06
533.367	441.06
533.582	393.06
533.796	390.06
534.011	411.06
534.225	414.06
534.44	428.06
534.654	414.06
534.868	395.06
535.083	414.06
535.297	414.06
535.511	405.06
535.726	437.06
535.94	420.06
536.154	406.06
536.369	414.06
536.583	420.06
536.797	417.06
537.011	402.06
537.225	402.06
537.44	400.06
537.654	398.06
537.868	394.06
538.082	393.06
538.296	418.06
538.51	398.06
538.724	410.06
538.938	405.06
539.153	400.06
539.367	416.06
539.581	403.06
539.795	370.06
540.009	395.06
540.222	396.06
540.436	381.06
540.65	393.06
540.864	406.06
541.078	399.06
541.292	392.06
541.506	417.06
541.72	392.06
541.934	389.06
542.147	409.06
542.361	407.06
542.575	388.06
542.789	393.06
543.002	397.06
543.216	401.06
543.43	415.06
543.644	378.06
543.857	408.06
544.071	386.06
544.285	385.06
544.498	395.06
544.712	387.06
544.925	395.06
545.139	386.06
545.352	390.06
545.566	375.06
545.779	391.06
545.993	397.06
546.206	380.06
546.42	373.06
546.633	385.06
546.847	398.06
547.06	378.06
547.274	387.06
547.487	379.06
547.7	378.06
547.914	377.06
548.127	396.06
548.34	361.06
548.554	378.06
548.767	405.06
548.98	373.06
549.193	371.06
549.407	391.06
549.62	402.06
549.833	402.06
550.046	385.06
550.259	384.06
550.473	379.06
550.686	396.06
550.899	384.06
551.112	385.06
551.325	367.06
551.538	375.06
551.751	359.06
551.964	369.06
552.177	392.06
552.39	364.06
552.603	405.06
552.816	391.06
553.029	381.06
553.242	401.06
553.455	379.06
553.667	405.06
553.88	422.06
554.093	409.06
554.306	425.06
554.519	388.06
554.732	363.06
554.944	384.06
555.157	363.06
555.37	362.06
555.583	356.06
555.795	390.06
556.008	360.06
556.221	358.06
556.433	356.06
556.646	351.06
556.859	363.06
557.071	348.06
557.284	338.06
557.496	337.06
557.709	347.06
557.921	353.06
558.134	355.06
558.346	333.06
558.559	352.06
558.771	346.06
558.984	328.06
559.196	340.06
559.409	332.06
559.621	326.06
559.833	340.06
560.046	322.06
560.258	338.06
560.47	339.06
560.683	332.06
560.895	323.06
561.107	340.06
561.32	339.06
561.532	346.06
561.744	336.06
561.956	333.06
562.168	355.06
562.381	341.06
562.593	364.06
562.805	357.06
563.017	343.06
563.229	339.06
563.441	359.06
563.653	355.06
563.865	342.06
564.077	353.06
564.289	342.06
564.501	359.06
564.713	357.06
564.925	375.06
565.137	372.06
565.349	381.06
565.561	370.06
565.773	371.06
565.985	375.06
566.197	387.06
566.408	428.06
566.62	408.06
566.832	424.06
567.044	406.06
567.255	436.06
567.467	446.06
567.679	461.06
567.891	486.06
568.102	475.06
568.314	460.06
568.526	447.06
568.737	446.06
568.949	391.06
569.161	401.06
569.372	375.06
569.584	378.06
569.795	343.06
570.007	352.06
570.218	373.06
570.43	378.06
570.641	363.06
570.853	352.06
571.064	342.06
571.276	324.06
571.487	340.06
571.698	328.06
571.91	322.06
572.121	333.06
572.333	314.06
572.544	297.06
572.755	310.06
572.966	314.06
573.178	298.06
573.389	310.06
573.6	298.06
573.811	323.06
574.023	317.06
574.234	296.06
574.445	318.06
574.656	289.06
574.867	296.06
575.078	299.06
575.289	299.06
575.501	302.06
575.712	307.06
575.923	303.06
576.134	302.06
576.345	283.06
576.556	277.06
576.767	276.06
576.978	293.06
577.188	286.06
577.399	276.06
577.61	270.06
577.821	286.06
578.032	291.06
578.243	290.06
578.454	440.06
578.665	329.06
578.875	295.06
579.086	270.06
579.297	265.06
579.508	265.06
579.718	255.06
579.929	273.06
580.14	264.06
580.35	250.06
580.561	254.06
580.772	254.06
580.982	257.06
581.193	264.06
581.403	280.06
581.614	274.06
581.825	266.06
582.035	250.06
582.246	272.06
582.456	270.06
582.667	262.06
582.877	268.06
583.087	269.06
583.298	272.06
583.508	268.06
583.719	258.06
583.929	259.06
584.139	274.06
584.35	249.06
584.56	266.06
584.77	272.06
584.981	291.06
585.191	277.06
585.401	254.06
585.611	261.06
585.821	254.06
586.032	239.06
586.242	247.06
586.452	265.06
586.662	246.06
586.872	260.06
587.082	264.06
587.292	263.06
587.502	262.06
587.713	274.06
587.923	258.06
588.133	257.06
588.343	248.06
588.553	264.06
588.762	245.06
588.972	259.06
589.182	266.06
589.392	261.06
589.602	255.06
589.812	268.06
590.022	263.06
590.232	266.06
590.441	266.06
590.651	246.06
590.861	249.06
591.071	274.06
591.281	266.06
591.49	258.06
591.7	278.06
591.91	279.06
592.119	245.06
592.329	258.06
592.539	272.06
592.748	283.06
592.958	282.06
593.167	271.06
593.377	271.06
593.587	300.06
593.796	272.06
594.006	300.06
594.215	287.06
594.424	276.06
594.634	297.06
594.843	285.06
595.053	270.06
595.262	269.06
595.472	258.06
595.681	272.06
595.89	262.06
596.1	272.06
596.309	278.06
596.518	250.06
596.727	241.06
596.937	247.06
597.146	242.06
597.355	259.06
597.564	240.06
597.774	242.06
597.983	249.06
598.192	238.06
598.401	236.06
598.61	252.06
598.819	240.06
599.028	227.06
599.237	211.06
599.446	223.06
599.655	227.06
599.864	225.06
600.073	240.06
600.282	218.06
600.491	221.06
600.7	213.06
600.909	219.06
601.118	234.06
601.327	230.06
601.536	251.06
601.745	214.06
601.953	233.06
602.162	231.06
602.371	228.06
602.58	232.06
602.789	221.06
602.997	199.06
603.206	225.06
603.415	227.06
603.623	224.06
603.832	209.06
604.041	214.06
604.249	208.06
604.458	224.06
604.666	212.06
604.875	220.06
605.084	232.06
605.292	226.06
605.501	196.06
605.709	226.06
605.918	218.06
606.126	206.06
606.334	206.06
606.543	223.06
606.751	200.06
606.96	213.06
607.168	201.06
607.376	209.06
607.585	202.06
607.793	207.06
608.001	236.06
608.21	216.06
608.418	209.06
608.626	200.06
608.834	202.06
609.043	195.06
609.251	202.06
609.459	200.06
609.667	218.06
609.875	218.06
610.083	215.06
610.291	220.06
610.499	224.06
610.707	214.06
610.916	201.06
611.124	217.06
611.332	235.06
611.54	226.06
611.748	208.06
611.955	218.06
612.163	223.06
612.371	214.06
612.579	204.06
612.787	214.06
612.995	212.06
613.203	213.06
613.411	214.06
613.618	209.06
613.826	219.06
614.034	212.06
614.242	205.06
614.449	206.06
614.657	207.06
614.865	193.06
615.072	195.06
615.28	208.06
615.488	219.06
615.695	204.06
615.903	207.06
616.111	199.06
616.318	210.06
616.526	190.06
616.733	209.06
616.941	203.06
617.148	223.06
617.356	208.06
617.563	207.06
617.771	206.06
617.978	206.06
618.185	189.06
618.393	195.06
618.6	200.06
618.807	203.06
619.015	214.06
619.222	210.06
619.429	208.06
619.637	197.06
619.844	218.06
620.051	198.06
620.258	195.06
620.466	190.06
620.673	180.06
620.88	178.06
621.087	194.06
621.294	192.06
621.501	191.06
621.708	206.06
621.915	201.06
622.122	196.06
622.329	195.06
622.536	219.06
622.743	198.06
622.95	197.06
623.157	180.06
623.364	181.06
623.571	192.06
623.778	188.06
623.985	182.06
624.192	187.06
624.399	192.06
624.606	183.06
624.812	202.06
625.019	183.06
625.226	187.06
625.433	190.06
625.639	171.06
625.846	182.06
626.053	190.06
626.259	187.06
626.466	192.06
626.673	180.06
626.879	186.06
627.086	190.06
627.293	179.06
627.499	187.06
627.706	195.06
627.912	192.06
628.119	180.06
628.325	182.06
628.532	174.06
628.738	170.06
628.945	165.06
629.151	180.06
629.357	177.06
629.564	189.06
629.77	166.06
629.976	168.06
630.183	165.06
630.389	164.06
630.595	163.06
630.802	179.06
631.008	167.06
631.214	153.06
631.42	155.06
631.627	175.06
631.833	158.06
632.039	161.06
632.245	163.06
632.451	178.06
632.657	162.06
632.863	182.06
633.069	159.06
633.275	178.06
633.481	157.06
633.688	166.06
633.893	162.06
634.099	152.06
634.305	163.06
634.511	166.06
634.717	170.06
634.923	147.06
635.129	164.06
635.335	167.06
635.541	177.06
635.747	157.06
635.952	172.06
636.158	153.06
636.364	171.06
636.57	165.06
636.775	172.06
636.981	174.06
637.187	179.06
637.392	150.06
637.598	157.06
637.804	168.06
638.009	169.06
638.215	162.06
638.421	156.06
638.626	164.06
638.832	152.06
639.037	150.06
639.243	154.06
639.448	171.06
639.654	143.06
639.859	136.06
640.065	135.06
640.27	165.06
640.475	160.06
640.681	159.06
640.886	176.06
641.091	164.06
641.297	156.06
641.502	151.06
641.707	148.06
641.913	143.06
642.118	157.06
642.323	144.06
642.528	174.06
642.733	138.06
642.939	138.06
643.144	143.06
643.349	148.06
643.554	151.06
643.759	153.06
643.964	152.06
644.169	142.06
644.374	143.06
644.579	166.06
644.784	146.06
644.989	148.06
645.194	146.06
645.399	167.06
645.604	144.06
645.809	144.06
646.014	153.06
646.219	139.06
646.423	146.06
646.628	162.06
646.833	153.06
647.038	147.06
647.243	132.06
647.447	155.06
647.652	176.06
647.857	156.06
648.062	148.06
648.266	161.06
648.471	134.06
648.676	142.06
648.88	163.06
649.085	156.06
649.289	166.06
649.494	142.06
649.698	174.06
649.903	172.06
650.107	150.06
650.312	140.06
650.516	151.06
650.721	145.06
650.925	138.06
651.13	148.06
651.334	141.06
651.539	130.06
651.743	129.06
651.947	138.06
652.152	132.06
652.356	134.06
652.56	139.06
652.764	128.06
652.969	132.06
653.173	135.06
653.377	135.06
653.581	123.06
653.785	123.06
653.99	112.06
654.194	126.06
654.398	128.06
654.602	136.06
654.806	125.06
655.01	132.06
655.214	127.06
655.418	128.06
655.622	120.06
655.826	135.06
656.03	129.06
656.234	129.06
656.438	111.06
656.642	126.06
656.846	123.06
657.049	130.06
657.253	133.06
657.457	116.06
657.661	122.06
657.865	103.06
658.068	104.06
658.272	113.06
658.476	112.06
658.68	103.06
658.883	102.06
659.087	115.06
659.291	105.06
659.494	100.06
659.698	94.06
659.901	89.06
660.105	99.06
660.309	89.06
660.512	89.06
660.716	111.06
660.919	99.06
661.123	94.06
661.326	87.06
661.53	91.06
661.733	89.06
661.936	82.06
662.14	74.06
662.343	84.06
662.546	81.06
662.75	85.06
662.953	81.06
663.156	86.06
663.36	88.06
663.563	79.06
663.766	72.06
663.969	87.06
664.173	86.06
664.376	87.06
664.579	86.06
664.782	85.06
664.985	84.06
665.188	69.06
665.391	81.06
665.594	70.06
665.797	85.06
666	78.06
666.203	92.06
666.406	74.06
666.609	81.06
666.812	85.06
667.015	94.06
667.218	74.06
667.421	76.06
667.624	80.06
667.827	89.06
668.03	70.06
668.232	73.06
668.435	68.06
668.638	70.06
668.841	72.06
669.043	86.06
669.246	94.06
669.449	86.06
669.651	73.06
669.854	78.06
670.057	82.06
670.259	81.06
670.462	79.06
670.665	68.06
670.867	82.06
671.07	82.06
671.272	72.06
671.475	84.06
671.677	76.06
671.88	68.06
672.082	68.06
672.284	75.06
672.487	64.06
672.689	84.06
672.892	85.06
