Data from 1977.PennyLincolnUp.Lamp.En5.5.200Scan.071719.P1_HRD10591_16-05-36-863.txt Node
Date: Thu Jul 18 16:05:36 EDT 2019
User: cochatt
Spectrometer: HR+D1059
Trigger mode: 1
Integration Time (sec): 1.000000E-1
Scans to average: 1
Electric dark correction enabled: true
Nonlinearity correction enabled: false
Boxcar width: 0
XAxis mode: Wavelengths
Number of Pixels in Spectrum: 2048
>>>>>Begin Spectral Data<<<<<
223.165	-3.31
223.4	-3.31
223.635	-3.31
223.869	-21.31
224.104	-31.31
224.338	-13.31
224.573	-8.31
224.808	-4.31
225.042	-7.31
225.277	-12.31
225.511	-14.31
225.746	13.69
225.98	10.69
226.215	10.69
226.449	10.69
226.683	28.69
226.918	17.69
227.152	23.69
227.387	46.69
227.621	43.69
227.856	54.69
228.09	43.69
228.324	38.69
228.559	43.69
228.793	76.69
229.027	89.69
229.262	110.69
229.496	105.69
229.73	118.69
229.964	125.69
230.199	121.69
230.433	107.69
230.667	114.69
230.901	103.69
231.136	97.69
231.37	89.69
231.604	109.69
231.838	106.69
232.072	106.69
232.306	113.69
232.541	97.69
232.775	120.69
233.009	102.69
233.243	102.69
233.477	106.69
233.711	121.69
233.945	106.69
234.179	124.69
234.413	118.69
234.647	94.69
234.881	109.69
235.115	110.69
235.349	107.69
235.583	116.69
235.817	110.69
236.051	129.69
236.285	116.69
236.519	117.69
236.753	115.69
236.987	135.69
237.221	162.69
237.455	170.69
237.689	148.69
237.922	121.69
238.156	111.69
238.39	141.69
238.624	121.69
238.858	108.69
239.091	121.69
239.325	113.69
239.559	126.69
239.793	122.69
240.027	133.69
240.26	147.69
240.494	154.69
240.728	140.69
240.961	136.69
241.195	133.69
241.429	126.69
241.662	134.69
241.896	122.69
242.13	127.69
242.363	133.69
242.597	145.69
242.83	145.69
243.064	140.69
243.298	132.69
243.531	122.69
243.765	136.69
243.998	149.69
244.232	131.69
244.465	129.69
244.699	143.69
244.932	149.69
245.166	132.69
245.399	134.69
245.633	149.69
245.866	122.69
246.099	145.69
246.333	142.69
246.566	133.69
246.8	151.69
247.033	149.69
247.266	141.69
247.5	149.69
247.733	151.69
247.966	149.69
248.2	168.69
248.433	162.69
248.666	159.69
248.899	159.69
249.133	178.69
249.366	199.69
249.599	186.69
249.832	162.69
250.066	155.69
250.299	181.69
250.532	174.69
250.765	183.69
250.998	207.69
251.231	198.69
251.465	212.69
251.698	196.69
251.931	185.69
252.164	200.69
252.397	181.69
252.63	167.69
252.863	198.69
253.096	219.69
253.329	212.69
253.562	207.69
253.795	211.69
254.028	191.69
254.261	219.69
254.494	221.69
254.727	225.69
254.96	257.69
255.193	234.69
255.426	227.69
255.659	202.69
255.892	200.69
256.124	212.69
256.357	206.69
256.59	213.69
256.823	203.69
257.056	205.69
257.289	200.69
257.521	203.69
257.754	218.69
257.987	195.69
258.22	208.69
258.452	195.69
258.685	208.69
258.918	213.69
259.151	206.69
259.383	189.69
259.616	221.69
259.849	219.69
260.081	214.69
260.314	229.69
260.547	236.69
260.779	244.69
261.012	222.69
261.244	234.69
261.477	217.69
261.71	220.69
261.942	226.69
262.175	213.69
262.407	222.69
262.64	212.69
262.872	227.69
263.105	209.69
263.337	211.69
263.57	211.69
263.802	205.69
264.035	198.69
264.267	221.69
264.499	207.69
264.732	223.69
264.964	215.69
265.197	213.69
265.429	222.69
265.661	220.69
265.894	222.69
266.126	217.69
266.358	215.69
266.591	225.69
266.823	218.69
267.055	230.69
267.287	221.69
267.52	210.69
267.752	224.69
267.984	220.69
268.216	224.69
268.448	232.69
268.681	247.69
268.913	219.69
269.145	248.69
269.377	280.69
269.609	254.69
269.841	254.69
270.073	260.69
270.306	284.69
270.538	297.69
270.77	291.69
271.002	277.69
271.234	286.69
271.466	289.69
271.698	289.69
271.93	298.69
272.162	295.69
272.394	293.69
272.626	291.69
272.858	268.69
273.09	263.69
273.322	270.69
273.553	258.69
273.785	265.69
274.017	238.69
274.249	273.69
274.481	259.69
274.713	265.69
274.945	263.69
275.176	274.69
275.408	259.69
275.64	260.69
275.872	274.69
276.104	270.69
276.335	261.69
276.567	263.69
276.799	281.69
277.031	293.69
277.262	300.69
277.494	289.69
277.726	302.69
277.957	271.69
278.189	259.69
278.421	269.69
278.652	268.69
278.884	268.69
279.115	276.69
279.347	280.69
279.579	268.69
279.81	275.69
280.042	289.69
280.273	288.69
280.505	280.69
280.736	283.69
280.968	264.69
281.199	271.69
281.431	278.69
281.662	281.69
281.894	275.69
282.125	284.69
282.356	293.69
282.588	280.69
282.819	311.69
283.051	300.69
283.282	291.69
283.513	277.69
283.745	277.69
283.976	294.69
284.207	287.69
284.439	283.69
284.67	287.69
284.901	295.69
285.132	289.69
285.364	277.69
285.595	293.69
285.826	299.69
286.057	297.69
286.288	301.69
286.52	294.69
286.751	286.69
286.982	269.69
287.213	285.69
287.444	281.69
287.675	291.69
287.906	300.69
288.138	322.69
288.369	314.69
288.6	295.69
288.831	313.69
289.062	294.69
289.293	297.69
289.524	319.69
289.755	317.69
289.986	322.69
290.217	281.69
290.448	303.69
290.679	319.69
290.91	305.69
291.141	300.69
291.371	301.69
291.602	290.69
291.833	317.69
292.064	315.69
292.295	295.69
292.526	305.69
292.757	301.69
292.987	292.69
293.218	298.69
293.449	303.69
293.68	305.69
293.91	304.69
294.141	303.69
294.372	321.69
294.603	313.69
294.833	299.69
295.064	322.69
295.295	289.69
295.525	309.69
295.756	317.69
295.987	308.69
296.217	311.69
296.448	312.69
296.679	319.69
296.909	310.69
297.14	311.69
297.37	307.69
297.601	305.69
297.831	305.69
298.062	296.69
298.292	305.69
298.523	324.69
298.753	317.69
298.984	335.69
299.214	330.69
299.445	339.69
299.675	307.69
299.905	335.69
300.136	341.69
300.366	329.69
300.597	340.69
300.827	338.69
301.057	343.69
301.288	338.69
301.518	325.69
301.748	321.69
301.979	337.69
302.209	336.69
302.439	342.69
302.669	345.69
302.9	349.69
303.13	358.69
303.36	331.69
303.59	348.69
303.82	343.69
304.051	360.69
304.281	353.69
304.511	357.69
304.741	342.69
304.971	341.69
305.201	342.69
305.431	345.69
305.661	343.69
305.891	339.69
306.121	348.69
306.352	354.69
306.582	355.69
306.812	349.69
307.042	334.69
307.272	364.69
307.502	361.69
307.731	328.69
307.961	327.69
308.191	354.69
308.421	363.69
308.651	345.69
308.881	343.69
309.111	347.69
309.341	362.69
309.571	363.69
309.8	372.69
310.03	381.69
310.26	378.69
310.49	368.69
310.72	366.69
310.949	377.69
311.179	367.69
311.409	369.69
311.639	370.69
311.868	377.69
312.098	379.69
312.328	388.69
312.557	405.69
312.787	388.69
313.017	386.69
313.246	371.69
313.476	382.69
313.706	374.69
313.935	398.69
314.165	378.69
314.394	389.69
314.624	402.69
314.853	375.69
315.083	393.69
315.312	388.69
315.542	378.69
315.771	377.69
316.001	375.69
316.23	372.69
316.46	380.69
316.689	373.69
316.919	375.69
317.148	388.69
317.377	385.69
317.607	369.69
317.836	378.69
318.065	379.69
318.295	385.69
318.524	375.69
318.753	366.69
318.983	376.69
319.212	387.69
319.441	387.69
319.67	383.69
319.9	381.69
320.129	385.69
320.358	398.69
320.587	403.69
320.816	400.69
321.046	393.69
321.275	409.69
321.504	390.69
321.733	411.69
321.962	401.69
322.191	417.69
322.42	415.69
322.649	422.69
322.878	406.69
323.108	423.69
323.337	471.69
323.566	441.69
323.795	481.69
324.024	501.69
324.253	588.69
324.482	777.69
324.71	1081.69
324.939	1475.69
325.168	1275.69
325.397	707.69
325.626	533.69
325.855	487.69
326.084	476.69
326.313	457.69
326.542	442.69
326.77	480.69
326.999	551.69
327.228	699.69
327.457	996.69
327.686	1115.69
327.914	760.69
328.143	569.69
328.372	510.69
328.6	502.69
328.829	492.69
329.058	514.69
329.287	501.69
329.515	458.69
329.744	463.69
329.972	459.69
330.201	492.69
330.43	492.69
330.658	510.69
330.887	510.69
331.115	508.69
331.344	491.69
331.572	483.69
331.801	449.69
332.03	457.69
332.258	455.69
332.486	462.69
332.715	449.69
332.943	460.69
333.172	474.69
333.4	471.69
333.629	474.69
333.857	478.69
334.085	497.69
334.314	487.69
334.542	503.69
334.771	498.69
334.999	495.69
335.227	457.69
335.455	458.69
335.684	477.69
335.912	462.69
336.14	450.69
336.369	459.69
336.597	460.69
336.825	457.69
337.053	451.69
337.281	474.69
337.51	422.69
337.738	454.69
337.966	452.69
338.194	453.69
338.422	442.69
338.65	451.69
338.878	443.69
339.106	428.69
339.334	428.69
339.562	445.69
339.79	430.69
340.018	417.69
340.246	432.69
340.474	436.69
340.702	432.69
340.93	420.69
341.158	411.69
341.386	412.69
341.614	423.69
341.842	429.69
342.07	424.69
342.298	433.69
342.526	413.69
342.754	424.69
342.981	415.69
343.209	428.69
343.437	426.69
343.665	446.69
343.893	446.69
344.12	443.69
344.348	453.69
344.576	445.69
344.804	423.69
345.031	429.69
345.259	457.69
345.487	448.69
345.714	423.69
345.942	417.69
346.17	423.69
346.397	411.69
346.625	408.69
346.853	420.69
347.08	393.69
347.308	397.69
347.535	415.69
347.763	408.69
347.99	415.69
348.218	415.69
348.445	424.69
348.673	384.69
348.9	399.69
349.128	405.69
349.355	404.69
349.583	390.69
349.81	423.69
350.037	376.69
350.265	402.69
350.492	383.69
350.72	410.69
350.947	397.69
351.174	396.69
351.402	407.69
351.629	412.69
351.856	411.69
352.083	406.69
352.311	403.69
352.538	420.69
352.765	407.69
352.992	390.69
353.22	382.69
353.447	390.69
353.674	417.69
353.901	398.69
354.128	380.69
354.355	379.69
354.583	385.69
354.81	400.69
355.037	390.69
355.264	379.69
355.491	381.69
355.718	393.69
355.945	380.69
356.172	393.69
356.399	382.69
356.626	377.69
356.853	374.69
357.08	373.69
357.307	390.69
357.534	361.69
357.761	395.69
357.988	364.69
358.215	373.69
358.441	376.69
358.668	390.69
358.895	378.69
359.122	401.69
359.349	394.69
359.576	390.69
359.802	405.69
360.029	401.69
360.256	433.69
360.483	411.69
360.709	389.69
360.936	387.69
361.163	399.69
361.39	403.69
361.616	397.69
361.843	404.69
362.07	403.69
362.296	393.69
362.523	374.69
362.749	393.69
362.976	386.69
363.203	396.69
363.429	382.69
363.656	392.69
363.882	377.69
364.109	371.69
364.335	384.69
364.562	374.69
364.788	373.69
365.015	361.69
365.241	387.69
365.468	387.69
365.694	376.69
365.92	374.69
366.147	366.69
366.373	381.69
366.599	385.69
366.826	377.69
367.052	374.69
367.278	381.69
367.505	353.69
367.731	379.69
367.957	373.69
368.184	385.69
368.41	384.69
368.636	386.69
368.862	382.69
369.089	399.69
369.315	386.69
369.541	397.69
369.767	374.69
369.993	379.69
370.219	382.69
370.445	398.69
370.672	378.69
370.898	390.69
371.124	394.69
371.35	384.69
371.576	393.69
371.802	376.69
372.028	390.69
372.254	387.69
372.48	403.69
372.706	397.69
372.932	406.69
373.158	387.69
373.384	387.69
373.61	381.69
373.835	380.69
374.061	390.69
374.287	392.69
374.513	419.69
374.739	392.69
374.965	396.69
375.191	396.69
375.416	391.69
375.642	388.69
375.868	382.69
376.094	394.69
376.319	377.69
376.545	399.69
376.771	382.69
376.997	375.69
377.222	387.69
377.448	382.69
377.674	367.69
377.899	369.69
378.125	377.69
378.35	390.69
378.576	373.69
378.802	361.69
379.027	355.69
379.253	369.69
379.478	366.69
379.704	379.69
379.929	373.69
380.155	373.69
380.38	379.69
380.606	369.69
380.831	367.69
381.057	393.69
381.282	393.69
381.507	371.69
381.733	374.69
381.958	372.69
382.184	387.69
382.409	388.69
382.634	397.69
382.86	399.69
383.085	392.69
383.31	394.69
383.535	407.69
383.761	407.69
383.986	399.69
384.211	417.69
384.436	399.69
384.662	422.69
384.887	419.69
385.112	419.69
385.337	412.69
385.562	406.69
385.787	434.69
386.013	407.69
386.238	427.69
386.463	430.69
386.688	449.69
386.913	430.69
387.138	417.69
387.363	418.69
387.588	428.69
387.813	426.69
388.038	429.69
388.263	406.69
388.488	430.69
388.713	433.69
388.938	425.69
389.163	407.69
389.387	445.69
389.612	423.69
389.837	422.69
390.062	415.69
390.287	422.69
390.512	415.69
390.736	425.69
390.961	421.69
391.186	409.69
391.411	423.69
391.636	433.69
391.86	429.69
392.085	435.69
392.31	440.69
392.534	447.69
392.759	435.69
392.984	416.69
393.208	417.69
393.433	422.69
393.658	447.69
393.882	436.69
394.107	436.69
394.331	422.69
394.556	414.69
394.78	418.69
395.005	437.69
395.229	426.69
395.454	429.69
395.678	426.69
395.903	446.69
396.127	448.69
396.352	462.69
396.576	460.69
396.801	454.69
397.025	469.69
397.249	433.69
397.474	448.69
397.698	438.69
397.922	449.69
398.147	461.69
398.371	460.69
398.595	471.69
398.82	480.69
399.044	492.69
399.268	507.69
399.492	545.69
399.717	568.69
399.941	575.69
400.165	574.69
400.389	604.69
400.613	541.69
400.837	505.69
401.062	493.69
401.286	494.69
401.51	483.69
401.734	468.69
401.958	478.69
402.182	479.69
402.406	491.69
402.63	494.69
402.854	493.69
403.078	502.69
403.302	491.69
403.526	490.69
403.75	514.69
403.974	512.69
404.198	515.69
404.422	506.69
404.645	513.69
404.869	505.69
405.093	555.69
405.317	557.69
405.541	577.69
405.765	537.69
405.988	513.69
406.212	525.69
406.436	521.69
406.66	549.69
406.883	540.69
407.107	558.69
407.331	583.69
407.555	631.69
407.778	645.69
408.002	579.69
408.226	560.69
408.449	534.69
408.673	568.69
408.896	569.69
409.12	578.69
409.344	577.69
409.567	517.69
409.791	506.69
410.014	491.69
410.238	485.69
410.461	501.69
410.685	489.69
410.908	517.69
411.132	514.69
411.355	541.69
411.578	541.69
411.802	493.69
412.025	469.69
412.249	522.69
412.472	507.69
412.695	513.69
412.919	493.69
413.142	475.69
413.365	483.69
413.589	487.69
413.812	469.69
414.035	456.69
414.258	487.69
414.482	456.69
414.705	460.69
414.928	481.69
415.151	441.69
415.374	470.69
415.597	443.69
415.821	435.69
416.044	461.69
416.267	461.69
416.49	472.69
416.713	444.69
416.936	476.69
417.159	454.69
417.382	462.69
417.605	442.69
417.828	454.69
418.051	454.69
418.274	463.69
418.497	463.69
418.72	455.69
418.943	463.69
419.166	462.69
419.389	493.69
419.611	484.69
419.834	480.69
420.057	490.69
420.28	475.69
420.503	456.69
420.726	459.69
420.948	494.69
421.171	503.69
421.394	547.69
421.617	482.69
421.839	464.69
422.062	479.69
422.285	476.69
422.507	538.69
422.73	572.69
422.953	552.69
423.175	525.69
423.398	471.69
423.621	472.69
423.843	504.69
424.066	486.69
424.288	483.69
424.511	501.69
424.733	554.69
424.956	601.69
425.178	581.69
425.401	579.69
425.623	596.69
425.846	518.69
426.068	481.69
426.291	513.69
426.513	489.69
426.735	497.69
426.958	517.69
427.18	582.69
427.402	682.69
427.625	734.69
427.847	620.69
428.069	562.69
428.292	491.69
428.514	469.69
428.736	452.69
428.958	455.69
429.181	448.69
429.403	459.69
429.625	479.69
429.847	492.69
430.069	525.69
430.292	533.69
430.514	468.69
430.736	453.69
430.958	429.69
431.18	434.69
431.402	427.69
431.624	423.69
431.846	444.69
432.068	435.69
432.29	432.69
432.512	423.69
432.734	446.69
432.956	423.69
433.178	437.69
433.4	436.69
433.622	443.69
433.844	427.69
434.066	433.69
434.287	441.69
434.509	466.69
434.731	452.69
434.953	470.69
435.175	480.69
435.397	493.69
435.618	500.69
435.84	517.69
436.062	574.69
436.284	631.69
436.505	529.69
436.727	503.69
436.949	477.69
437.17	449.69
437.392	442.69
437.614	457.69
437.835	473.69
438.057	553.69
438.278	607.69
438.5	599.69
438.721	697.69
438.943	665.69
439.165	519.69
439.386	503.69
439.608	486.69
439.829	469.69
440.05	497.69
440.272	529.69
440.493	494.69
440.715	470.69
440.936	483.69
441.158	458.69
441.379	441.69
441.6	489.69
441.822	463.69
442.043	511.69
442.264	571.69
442.486	596.69
442.707	533.69
442.928	501.69
443.149	505.69
443.371	512.69
443.592	539.69
443.813	585.69
444.034	671.69
444.255	563.69
444.476	519.69
444.698	523.69
444.919	523.69
445.14	612.69
445.361	570.69
445.582	512.69
445.803	528.69
446.024	630.69
446.245	637.69
446.466	585.69
446.687	517.69
446.908	485.69
447.129	450.69
447.35	446.69
447.571	443.69
447.792	433.69
448.013	447.69
448.234	442.69
448.455	489.69
448.675	573.69
448.896	649.69
449.117	568.69
449.338	544.69
449.559	603.69
449.779	707.69
450	557.69
450.221	468.69
450.442	462.69
450.662	433.69
450.883	425.69
451.104	430.69
451.324	447.69
451.545	407.69
451.766	413.69
451.986	401.69
452.207	417.69
452.428	398.69
452.648	399.69
452.869	401.69
453.089	405.69
453.31	416.69
453.53	412.69
453.751	399.69
453.971	401.69
454.192	398.69
454.412	387.69
454.633	399.69
454.853	401.69
455.073	369.69
455.294	436.69
455.514	455.69
455.734	435.69
455.955	397.69
456.175	394.69
456.395	386.69
456.616	383.69
456.836	372.69
457.056	361.69
457.276	362.69
457.497	392.69
457.717	400.69
457.937	386.69
458.157	384.69
458.377	396.69
458.598	401.69
458.818	448.69
459.038	491.69
459.258	492.69
459.478	448.69
459.698	429.69
459.918	425.69
460.138	434.69
460.358	439.69
460.578	455.69
460.798	453.69
461.018	447.69
461.238	438.69
461.458	461.69
461.678	462.69
461.898	467.69
462.118	453.69
462.338	463.69
462.558	473.69
462.777	478.69
462.997	486.69
463.217	489.69
463.437	525.69
463.657	497.69
463.876	485.69
464.096	492.69
464.316	486.69
464.536	472.69
464.755	472.69
464.975	463.69
465.195	527.69
465.414	510.69
465.634	483.69
465.854	454.69
466.073	429.69
466.293	443.69
466.512	400.69
466.732	414.69
466.951	413.69
467.171	400.69
467.391	431.69
467.61	407.69
467.829	414.69
468.049	441.69
468.268	424.69
468.488	411.69
468.707	397.69
468.927	391.69
469.146	407.69
469.365	410.69
469.585	403.69
469.804	407.69
470.023	418.69
470.243	418.69
470.462	431.69
470.681	427.69
470.901	411.69
471.12	428.69
471.339	406.69
471.558	409.69
471.777	415.69
471.997	402.69
472.216	391.69
472.435	419.69
472.654	401.69
472.873	402.69
473.092	403.69
473.311	406.69
473.53	405.69
473.749	425.69
473.968	448.69
474.187	511.69
474.406	515.69
474.625	437.69
474.844	417.69
475.063	422.69
475.282	398.69
475.501	419.69
475.72	421.69
475.939	446.69
476.158	416.69
476.377	430.69
476.596	414.69
476.814	434.69
477.033	423.69
477.252	435.69
477.471	450.69
477.69	460.69
477.908	457.69
478.127	446.69
478.346	453.69
478.564	466.69
478.783	468.69
479.002	481.69
479.22	476.69
479.439	478.69
479.658	471.69
479.876	503.69
480.095	492.69
480.313	523.69
480.532	517.69
480.751	513.69
480.969	527.69
481.188	546.69
481.406	549.69
481.624	517.69
481.843	474.69
482.061	475.69
482.28	455.69
482.498	482.69
482.717	478.69
482.935	461.69
483.153	491.69
483.372	466.69
483.59	465.69
483.808	467.69
484.027	457.69
484.245	477.69
484.463	488.69
484.681	483.69
484.9	483.69
485.118	484.69
485.336	473.69
485.554	494.69
485.772	496.69
485.99	488.69
486.209	483.69
486.427	463.69
486.645	493.69
486.863	483.69
487.081	516.69
487.299	490.69
487.517	518.69
487.735	501.69
487.953	504.69
488.171	509.69
488.389	497.69
488.607	490.69
488.825	513.69
489.043	513.69
489.261	523.69
489.479	502.69
489.696	503.69
489.914	520.69
490.132	543.69
490.35	503.69
490.568	511.69
490.786	523.69
491.003	559.69
491.221	532.69
491.439	535.69
491.657	542.69
491.874	554.69
492.092	569.69
492.31	557.69
492.527	529.69
492.745	553.69
492.963	585.69
493.18	579.69
493.398	574.69
493.615	574.69
493.833	563.69
494.05	585.69
494.268	602.69
494.485	571.69
494.703	583.69
494.92	597.69
495.138	583.69
495.355	572.69
495.573	598.69
495.79	595.69
496.008	592.69
496.225	570.69
496.442	577.69
496.66	579.69
496.877	597.69
497.094	609.69
497.312	607.69
497.529	622.69
497.746	628.69
497.963	622.69
498.181	649.69
498.398	663.69
498.615	674.69
498.832	716.69
499.049	705.69
499.267	741.69
499.484	804.69
499.701	799.69
499.918	827.69
500.135	877.69
500.352	921.69
500.569	931.69
500.786	945.69
501.003	901.69
501.22	906.69
501.437	869.69
501.654	806.69
501.871	803.69
502.088	765.69
502.305	709.69
502.522	691.69
502.739	682.69
502.956	665.69
503.172	648.69
503.389	654.69
503.606	634.69
503.823	628.69
504.04	638.69
504.256	640.69
504.473	595.69
504.69	636.69
504.907	618.69
505.123	604.69
505.34	577.69
505.557	572.69
505.773	555.69
505.99	550.69
506.207	566.69
506.423	560.69
506.64	563.69
506.856	545.69
507.073	519.69
507.289	535.69
507.506	533.69
507.722	524.69
507.939	541.69
508.155	527.69
508.372	497.69
508.588	545.69
508.805	524.69
509.021	537.69
509.238	534.69
509.454	515.69
509.67	512.69
509.887	517.69
510.103	523.69
510.319	500.69
510.536	575.69
510.752	811.69
510.968	657.69
511.184	505.69
511.401	485.69
511.617	477.69
511.833	502.69
512.049	493.69
512.265	484.69
512.481	493.69
512.698	491.69
512.914	495.69
513.13	499.69
513.346	489.69
513.562	490.69
513.778	489.69
513.994	498.69
514.21	493.69
514.426	509.69
514.642	515.69
514.858	515.69
515.074	575.69
515.29	617.69
515.506	779.69
515.721	695.69
515.937	566.69
516.153	540.69
516.369	527.69
516.585	519.69
516.801	514.69
517.016	495.69
517.232	533.69
517.448	530.69
517.664	519.69
517.879	539.69
518.095	548.69
518.311	525.69
518.527	533.69
518.742	519.69
518.958	531.69
519.173	519.69
519.389	505.69
519.605	499.69
519.82	497.69
520.036	491.69
520.251	510.69
520.467	531.69
520.682	511.69
520.898	504.69
521.113	525.69
521.329	531.69
521.544	571.69
521.76	648.69
521.975	939.69
522.19	905.69
522.406	612.69
522.621	495.69
522.836	485.69
523.052	467.69
523.267	464.69
523.482	438.69
523.698	427.69
523.913	440.69
524.128	425.69
524.343	439.69
524.559	423.69
524.774	435.69
524.989	432.69
525.204	427.69
525.419	438.69
525.634	413.69
525.849	425.69
526.064	422.69
526.28	407.69
526.495	422.69
526.71	431.69
526.925	396.69
527.14	405.69
527.355	417.69
527.57	415.69
527.785	426.69
527.999	429.69
528.214	400.69
528.429	407.69
528.644	411.69
528.859	422.69
529.074	399.69
529.289	421.69
529.503	459.69
529.718	449.69
529.933	428.69
530.148	419.69
530.363	411.69
530.577	406.69
530.792	417.69
531.007	397.69
531.221	415.69
531.436	404.69
531.651	400.69
531.865	403.69
532.08	397.69
532.295	423.69
532.509	385.69
532.724	419.69
532.938	423.69
533.153	407.69
533.367	411.69
533.582	407.69
533.796	388.69
534.011	401.69
534.225	382.69
534.44	397.69
534.654	419.69
534.868	379.69
535.083	375.69
535.297	403.69
535.511	402.69
535.726	408.69
535.94	387.69
536.154	414.69
536.369	387.69
536.583	373.69
536.797	386.69
537.011	383.69
537.225	373.69
537.44	373.69
537.654	388.69
537.868	378.69
538.082	376.69
538.296	397.69
538.51	391.69
538.724	404.69
538.938	381.69
539.153	361.69
539.367	398.69
539.581	369.69
539.795	381.69
540.009	380.69
540.222	376.69
540.436	377.69
540.65	385.69
540.864	350.69
541.078	385.69
541.292	376.69
541.506	380.69
541.72	374.69
541.934	410.69
542.147	373.69
542.361	399.69
542.575	393.69
542.789	381.69
543.002	366.69
543.216	377.69
543.43	381.69
543.644	377.69
543.857	413.69
544.071	384.69
544.285	389.69
544.498	370.69
544.712	392.69
544.925	371.69
545.139	373.69
545.352	372.69
545.566	369.69
545.779	377.69
545.993	399.69
546.206	379.69
546.42	394.69
546.633	374.69
546.847	375.69
547.06	367.69
547.274	369.69
547.487	384.69
547.7	389.69
547.914	384.69
548.127	380.69
548.34	395.69
548.554	400.69
548.767	363.69
548.98	391.69
549.193	380.69
549.407	370.69
549.62	357.69
549.833	373.69
550.046	372.69
550.259	360.69
550.473	359.69
550.686	362.69
550.899	372.69
551.112	345.69
551.325	375.69
551.538	348.69
551.751	374.69
551.964	363.69
552.177	373.69
552.39	369.69
552.603	381.69
552.816	377.69
553.029	364.69
553.242	398.69
553.455	381.69
553.667	407.69
553.88	398.69
554.093	370.69
554.306	377.69
554.519	358.69
554.732	375.69
554.944	368.69
555.157	370.69
555.37	353.69
555.583	358.69
555.795	366.69
556.008	336.69
556.221	364.69
556.433	333.69
556.646	349.69
556.859	350.69
557.071	356.69
557.284	338.69
557.496	332.69
557.709	335.69
557.921	325.69
558.134	340.69
558.346	322.69
558.559	322.69
558.771	323.69
558.984	342.69
559.196	334.69
559.409	327.69
559.621	354.69
559.833	332.69
560.046	326.69
560.258	322.69
560.47	334.69
560.683	313.69
560.895	324.69
561.107	334.69
561.32	306.69
561.532	328.69
561.744	331.69
561.956	332.69
562.168	324.69
562.381	336.69
562.593	331.69
562.805	321.69
563.017	335.69
563.229	326.69
563.441	338.69
563.653	325.69
563.865	333.69
564.077	332.69
564.289	327.69
564.501	362.69
564.713	340.69
564.925	327.69
565.137	331.69
565.349	371.69
565.561	372.69
565.773	374.69
565.985	391.69
566.197	366.69
566.408	421.69
566.62	421.69
566.832	409.69
567.044	432.69
567.255	427.69
567.467	442.69
567.679	433.69
567.891	448.69
568.102	459.69
568.314	465.69
568.526	398.69
568.737	414.69
568.949	381.69
569.161	374.69
569.372	367.69
569.584	344.69
569.795	339.69
570.007	346.69
570.218	357.69
570.43	364.69
570.641	343.69
570.853	338.69
571.064	321.69
571.276	347.69
571.487	340.69
571.698	338.69
571.91	337.69
572.121	310.69
572.333	307.69
572.544	305.69
572.755	290.69
572.966	302.69
573.178	302.69
573.389	300.69
573.6	287.69
573.811	294.69
574.023	293.69
574.234	289.69
574.445	294.69
574.656	305.69
574.867	325.69
575.078	276.69
575.289	276.69
575.501	287.69
575.712	283.69
575.923	278.69
576.134	292.69
576.345	284.69
576.556	279.69
576.767	276.69
576.978	276.69
577.188	278.69
577.399	283.69
577.61	279.69
577.821	291.69
578.032	293.69
578.243	286.69
578.454	403.69
578.665	318.69
578.875	267.69
579.086	276.69
579.297	263.69
579.508	271.69
579.718	268.69
579.929	262.69
580.14	255.69
580.35	275.69
580.561	280.69
580.772	260.69
580.982	278.69
581.193	263.69
581.403	273.69
581.614	257.69
581.825	263.69
582.035	258.69
582.246	265.69
582.456	260.69
582.667	265.69
582.877	248.69
583.087	257.69
583.298	263.69
583.508	260.69
583.719	263.69
583.929	258.69
584.139	253.69
584.35	260.69
584.56	267.69
584.77	260.69
584.981	233.69
585.191	249.69
585.401	259.69
585.611	267.69
585.821	251.69
586.032	250.69
586.242	261.69
586.452	246.69
586.662	255.69
586.872	246.69
587.082	252.69
587.292	262.69
587.502	238.69
587.713	253.69
587.923	249.69
588.133	250.69
588.343	248.69
588.553	270.69
588.762	261.69
588.972	251.69
589.182	262.69
589.392	266.69
589.602	249.69
589.812	261.69
590.022	263.69
590.232	246.69
590.441	241.69
590.651	266.69
590.861	250.69
591.071	248.69
591.281	265.69
591.49	250.69
591.7	262.69
591.91	263.69
592.119	265.69
592.329	262.69
592.539	288.69
592.748	259.69
592.958	280.69
593.167	274.69
593.377	290.69
593.587	301.69
593.796	276.69
594.006	265.69
594.215	276.69
594.424	281.69
594.634	283.69
594.843	259.69
595.053	248.69
595.262	268.69
595.472	259.69
595.681	263.69
595.89	274.69
596.1	248.69
596.309	239.69
596.518	228.69
596.727	238.69
596.937	233.69
597.146	229.69
597.355	248.69
597.564	243.69
597.774	241.69
597.983	232.69
598.192	241.69
598.401	237.69
598.61	220.69
598.819	230.69
599.028	226.69
599.237	208.69
599.446	238.69
599.655	230.69
599.864	225.69
600.073	226.69
600.282	216.69
600.491	211.69
600.7	216.69
600.909	205.69
601.118	226.69
601.327	237.69
601.536	231.69
601.745	234.69
601.953	234.69
602.162	219.69
602.371	212.69
602.58	222.69
602.789	220.69
602.997	214.69
603.206	216.69
603.415	217.69
603.623	213.69
603.832	212.69
604.041	212.69
604.249	202.69
604.458	225.69
604.666	209.69
604.875	214.69
605.084	208.69
605.292	220.69
605.501	203.69
605.709	204.69
605.918	213.69
606.126	223.69
606.334	226.69
606.543	228.69
606.751	215.69
606.96	218.69
607.168	207.69
607.376	209.69
607.585	206.69
607.793	208.69
608.001	213.69
608.21	206.69
608.418	215.69
608.626	210.69
608.834	214.69
609.043	199.69
609.251	217.69
609.459	213.69
609.667	214.69
609.875	217.69
610.083	208.69
610.291	206.69
610.499	206.69
610.707	216.69
610.916	223.69
611.124	219.69
611.332	214.69
611.54	204.69
611.748	199.69
611.955	209.69
612.163	190.69
612.371	191.69
612.579	203.69
612.787	205.69
612.995	195.69
613.203	213.69
613.411	204.69
613.618	216.69
613.826	215.69
614.034	199.69
614.242	192.69
614.449	204.69
614.657	198.69
614.865	202.69
615.072	221.69
615.28	209.69
615.488	207.69
615.695	204.69
615.903	197.69
616.111	215.69
616.318	195.69
616.526	206.69
616.733	211.69
616.941	199.69
617.148	204.69
617.356	194.69
617.563	200.69
617.771	191.69
617.978	209.69
618.185	214.69
618.393	207.69
618.6	203.69
618.807	200.69
619.015	197.69
619.222	187.69
619.429	193.69
619.637	208.69
619.844	202.69
620.051	196.69
620.258	207.69
620.466	202.69
620.673	188.69
620.88	191.69
621.087	198.69
621.294	197.69
621.501	193.69
621.708	196.69
621.915	200.69
622.122	184.69
622.329	180.69
622.536	185.69
622.743	188.69
622.95	198.69
623.157	170.69
623.364	206.69
623.571	187.69
623.778	175.69
623.985	184.69
624.192	185.69
624.399	197.69
624.606	175.69
624.812	188.69
625.019	187.69
625.226	188.69
625.433	196.69
625.639	166.69
625.846	166.69
626.053	181.69
626.259	181.69
626.466	183.69
626.673	181.69
626.879	186.69
627.086	168.69
627.293	172.69
627.499	175.69
627.706	178.69
627.912	175.69
628.119	192.69
628.325	183.69
628.532	168.69
628.738	187.69
628.945	177.69
629.151	182.69
629.357	177.69
629.564	162.69
629.77	157.69
629.976	171.69
630.183	191.69
630.389	179.69
630.595	179.69
630.802	170.69
631.008	159.69
631.214	165.69
631.42	165.69
631.627	181.69
631.833	180.69
632.039	169.69
632.245	159.69
632.451	171.69
632.657	170.69
632.863	153.69
633.069	159.69
633.275	176.69
633.481	171.69
633.688	179.69
633.893	173.69
634.099	168.69
634.305	173.69
634.511	168.69
634.717	158.69
634.923	149.69
635.129	168.69
635.335	154.69
635.541	161.69
635.747	153.69
635.952	160.69
636.158	153.69
636.364	168.69
636.57	174.69
636.775	166.69
636.981	155.69
637.187	151.69
637.392	159.69
637.598	169.69
637.804	175.69
638.009	150.69
638.215	168.69
638.421	145.69
638.626	163.69
638.832	161.69
639.037	161.69
639.243	153.69
639.448	165.69
639.654	163.69
639.859	159.69
640.065	158.69
640.27	164.69
640.475	151.69
640.681	159.69
640.886	150.69
641.091	154.69
641.297	157.69
641.502	137.69
641.707	143.69
641.913	138.69
642.118	142.69
642.323	143.69
642.528	150.69
642.733	151.69
642.939	169.69
643.144	135.69
643.349	166.69
643.554	177.69
643.759	154.69
643.964	151.69
644.169	138.69
644.374	151.69
644.579	155.69
644.784	158.69
644.989	132.69
645.194	137.69
645.399	150.69
645.604	149.69
645.809	147.69
646.014	136.69
646.219	154.69
646.423	156.69
646.628	158.69
646.833	150.69
647.038	147.69
647.243	159.69
647.447	147.69
647.652	149.69
647.857	160.69
648.062	146.69
648.266	150.69
648.471	180.69
648.676	159.69
648.88	159.69
649.085	137.69
649.289	146.69
649.494	166.69
649.698	169.69
649.903	152.69
650.107	157.69
650.312	156.69
650.516	141.69
650.721	142.69
650.925	138.69
651.13	129.69
651.334	141.69
651.539	145.69
651.743	157.69
651.947	149.69
652.152	151.69
652.356	145.69
652.56	142.69
652.764	130.69
652.969	125.69
653.173	129.69
653.377	118.69
653.581	137.69
653.785	136.69
653.99	125.69
654.194	153.69
654.398	128.69
654.602	134.69
654.806	145.69
655.01	128.69
655.214	129.69
655.418	118.69
655.622	126.69
655.826	125.69
656.03	116.69
656.234	130.69
656.438	131.69
656.642	133.69
656.846	124.69
657.049	124.69
657.253	123.69
657.457	129.69
657.661	119.69
657.865	105.69
658.068	110.69
658.272	101.69
658.476	99.69
658.68	94.69
658.883	97.69
659.087	109.69
659.291	101.69
659.494	100.69
659.698	88.69
659.901	93.69
660.105	105.69
660.309	91.69
660.512	96.69
660.716	91.69
660.919	86.69
661.123	95.69
661.326	97.69
661.53	93.69
661.733	79.69
661.936	106.69
662.14	98.69
662.343	85.69
662.546	95.69
662.75	86.69
662.953	90.69
663.156	87.69
663.36	86.69
663.563	84.69
663.766	91.69
663.969	75.69
664.173	90.69
664.376	84.69
664.579	74.69
664.782	80.69
664.985	82.69
665.188	90.69
665.391	78.69
665.594	76.69
665.797	70.69
666	82.69
666.203	66.69
666.406	75.69
666.609	79.69
666.812	83.69
667.015	86.69
667.218	85.69
667.421	89.69
667.624	79.69
667.827	87.69
668.03	75.69
668.232	73.69
668.435	89.69
668.638	88.69
668.841	95.69
669.043	92.69
669.246	69.69
669.449	78.69
669.651	91.69
669.854	84.69
670.057	80.69
670.259	75.69
670.462	84.69
670.665	86.69
670.867	75.69
671.07	91.69
671.272	70.69
671.475	78.69
671.677	84.69
671.88	81.69
672.082	80.69
672.284	86.69
672.487	86.69
672.689	87.69
672.892	95.69
