Data from 1977.PennyLincolnUp.Lamp.En5.5.200Scan.071719.P1_HRD10591_16-06-05-864.txt Node
Date: Thu Jul 18 16:06:05 EDT 2019
User: cochatt
Spectrometer: HR+D1059
Trigger mode: 1
Integration Time (sec): 1.000000E-1
Scans to average: 1
Electric dark correction enabled: true
Nonlinearity correction enabled: false
Boxcar width: 0
XAxis mode: Wavelengths
Number of Pixels in Spectrum: 2048
>>>>>Begin Spectral Data<<<<<
223.165	-18.31
223.4	-18.31
223.635	-18.31
223.869	-8.31
224.104	-14.31
224.338	-14.31
224.573	-28.31
224.808	-8.31
225.042	-9.31
225.277	-4.31
225.511	-6.31
225.746	-9.31
225.98	1.69
226.215	10.69
226.449	17.69
226.683	27.69
226.918	26.69
227.152	36.69
227.387	41.69
227.621	28.69
227.856	38.69
228.09	46.69
228.324	42.69
228.559	50.69
228.793	70.69
229.027	92.69
229.262	105.69
229.496	107.69
229.73	122.69
229.964	131.69
230.199	134.69
230.433	100.69
230.667	106.69
230.901	107.69
231.136	102.69
231.37	105.69
231.604	94.69
231.838	111.69
232.072	120.69
232.306	127.69
232.541	123.69
232.775	110.69
233.009	117.69
233.243	121.69
233.477	122.69
233.711	116.69
233.945	105.69
234.179	113.69
234.413	125.69
234.647	119.69
234.881	114.69
235.115	113.69
235.349	106.69
235.583	119.69
235.817	112.69
236.051	130.69
236.285	130.69
236.519	146.69
236.753	133.69
236.987	121.69
237.221	144.69
237.455	203.69
237.689	171.69
237.922	164.69
238.156	119.69
238.39	133.69
238.624	125.69
238.858	129.69
239.091	136.69
239.325	109.69
239.559	117.69
239.793	122.69
240.027	127.69
240.26	135.69
240.494	145.69
240.728	129.69
240.961	141.69
241.195	141.69
241.429	136.69
241.662	136.69
241.896	125.69
242.13	116.69
242.363	159.69
242.597	128.69
242.83	137.69
243.064	146.69
243.298	143.69
243.531	135.69
243.765	151.69
243.998	127.69
244.232	142.69
244.465	150.69
244.699	160.69
244.932	143.69
245.166	132.69
245.399	138.69
245.633	139.69
245.866	157.69
246.099	150.69
246.333	143.69
246.566	154.69
246.8	149.69
247.033	146.69
247.266	158.69
247.5	157.69
247.733	177.69
247.966	162.69
248.2	172.69
248.433	168.69
248.666	162.69
248.899	177.69
249.133	191.69
249.366	203.69
249.599	181.69
249.832	165.69
250.066	163.69
250.299	174.69
250.532	178.69
250.765	179.69
250.998	191.69
251.231	203.69
251.465	199.69
251.698	181.69
251.931	195.69
252.164	191.69
252.397	192.69
252.63	173.69
252.863	200.69
253.096	188.69
253.329	196.69
253.562	199.69
253.795	199.69
254.028	190.69
254.261	223.69
254.494	210.69
254.727	242.69
254.96	264.69
255.193	265.69
255.426	243.69
255.659	212.69
255.892	202.69
256.124	220.69
256.357	214.69
256.59	220.69
256.823	210.69
257.056	213.69
257.289	212.69
257.521	204.69
257.754	213.69
257.987	198.69
258.22	199.69
258.452	199.69
258.685	210.69
258.918	200.69
259.151	215.69
259.383	237.69
259.616	227.69
259.849	221.69
260.081	208.69
260.314	233.69
260.547	232.69
260.779	225.69
261.012	218.69
261.244	225.69
261.477	231.69
261.71	207.69
261.942	218.69
262.175	239.69
262.407	210.69
262.64	204.69
262.872	220.69
263.105	224.69
263.337	213.69
263.57	213.69
263.802	219.69
264.035	235.69
264.267	218.69
264.499	232.69
264.732	213.69
264.964	221.69
265.197	228.69
265.429	224.69
265.661	229.69
265.894	230.69
266.126	240.69
266.358	223.69
266.591	225.69
266.823	222.69
267.055	234.69
267.287	228.69
267.52	230.69
267.752	243.69
267.984	235.69
268.216	245.69
268.448	242.69
268.681	244.69
268.913	258.69
269.145	251.69
269.377	277.69
269.609	266.69
269.841	264.69
270.073	276.69
270.306	283.69
270.538	306.69
270.77	323.69
271.002	298.69
271.234	288.69
271.466	301.69
271.698	307.69
271.93	305.69
272.162	296.69
272.394	305.69
272.626	310.69
272.858	281.69
273.09	286.69
273.322	280.69
273.553	259.69
273.785	259.69
274.017	265.69
274.249	270.69
274.481	277.69
274.713	278.69
274.945	262.69
275.176	267.69
275.408	271.69
275.64	264.69
275.872	289.69
276.104	279.69
276.335	279.69
276.567	281.69
276.799	284.69
277.031	302.69
277.262	313.69
277.494	305.69
277.726	316.69
277.957	291.69
278.189	289.69
278.421	266.69
278.652	279.69
278.884	270.69
279.115	277.69
279.347	266.69
279.579	281.69
279.81	280.69
280.042	291.69
280.273	289.69
280.505	258.69
280.736	269.69
280.968	274.69
281.199	276.69
281.431	287.69
281.662	272.69
281.894	288.69
282.125	277.69
282.356	282.69
282.588	308.69
282.819	300.69
283.051	293.69
283.282	285.69
283.513	280.69
283.745	296.69
283.976	291.69
284.207	307.69
284.439	314.69
284.67	291.69
284.901	315.69
285.132	297.69
285.364	310.69
285.595	300.69
285.826	296.69
286.057	301.69
286.288	289.69
286.52	292.69
286.751	297.69
286.982	311.69
287.213	311.69
287.444	297.69
287.675	313.69
287.906	315.69
288.138	318.69
288.369	312.69
288.6	305.69
288.831	308.69
289.062	309.69
289.293	301.69
289.524	323.69
289.755	303.69
289.986	303.69
290.217	304.69
290.448	306.69
290.679	315.69
290.91	307.69
291.141	309.69
291.371	308.69
291.602	302.69
291.833	318.69
292.064	313.69
292.295	311.69
292.526	311.69
292.757	308.69
292.987	308.69
293.218	301.69
293.449	326.69
293.68	300.69
293.91	302.69
294.141	306.69
294.372	310.69
294.603	303.69
294.833	329.69
295.064	297.69
295.295	311.69
295.525	307.69
295.756	305.69
295.987	330.69
296.217	339.69
296.448	333.69
296.679	330.69
296.909	332.69
297.14	310.69
297.37	321.69
297.601	310.69
297.831	309.69
298.062	341.69
298.292	342.69
298.523	340.69
298.753	333.69
298.984	328.69
299.214	322.69
299.445	328.69
299.675	361.69
299.905	340.69
300.136	337.69
300.366	343.69
300.597	320.69
300.827	346.69
301.057	353.69
301.288	341.69
301.518	337.69
301.748	331.69
301.979	345.69
302.209	363.69
302.439	350.69
302.669	358.69
302.9	351.69
303.13	370.69
303.36	349.69
303.59	373.69
303.82	350.69
304.051	349.69
304.281	333.69
304.511	343.69
304.741	355.69
304.971	349.69
305.201	336.69
305.431	345.69
305.661	354.69
305.891	338.69
306.121	338.69
306.352	357.69
306.582	369.69
306.812	362.69
307.042	351.69
307.272	361.69
307.502	346.69
307.731	363.69
307.961	367.69
308.191	350.69
308.421	349.69
308.651	350.69
308.881	348.69
309.111	361.69
309.341	351.69
309.571	360.69
309.8	374.69
310.03	377.69
310.26	379.69
310.49	377.69
310.72	395.69
310.949	395.69
311.179	406.69
311.409	381.69
311.639	376.69
311.868	393.69
312.098	397.69
312.328	384.69
312.557	388.69
312.787	402.69
313.017	398.69
313.246	401.69
313.476	378.69
313.706	392.69
313.935	380.69
314.165	387.69
314.394	396.69
314.624	390.69
314.853	398.69
315.083	411.69
315.312	404.69
315.542	401.69
315.771	383.69
316.001	383.69
316.23	380.69
316.46	381.69
316.689	381.69
316.919	369.69
317.148	399.69
317.377	402.69
317.607	391.69
317.836	383.69
318.065	389.69
318.295	408.69
318.524	374.69
318.753	368.69
318.983	386.69
319.212	388.69
319.441	401.69
319.67	420.69
319.9	388.69
320.129	394.69
320.358	379.69
320.587	379.69
320.816	417.69
321.046	408.69
321.275	399.69
321.504	413.69
321.733	400.69
321.962	407.69
322.191	417.69
322.42	420.69
322.649	431.69
322.878	426.69
323.108	418.69
323.337	449.69
323.566	464.69
323.795	501.69
324.024	515.69
324.253	618.69
324.482	816.69
324.71	1231.69
324.939	1685.69
325.168	1451.69
325.397	757.69
325.626	565.69
325.855	517.69
326.084	492.69
326.313	491.69
326.542	509.69
326.77	542.69
326.999	601.69
327.228	765.69
327.457	1086.69
327.686	1266.69
327.914	869.69
328.143	617.69
328.372	541.69
328.6	530.69
328.829	520.69
329.058	537.69
329.287	553.69
329.515	469.69
329.744	471.69
329.972	486.69
330.201	486.69
330.43	520.69
330.658	535.69
330.887	527.69
331.115	533.69
331.344	491.69
331.572	490.69
331.801	474.69
332.03	492.69
332.258	473.69
332.486	467.69
332.715	464.69
332.943	475.69
333.172	479.69
333.4	469.69
333.629	483.69
333.857	482.69
334.085	517.69
334.314	501.69
334.542	515.69
334.771	517.69
334.999	494.69
335.227	490.69
335.455	473.69
335.684	484.69
335.912	454.69
336.14	444.69
336.369	454.69
336.597	454.69
336.825	449.69
337.053	463.69
337.281	453.69
337.51	464.69
337.738	470.69
337.966	461.69
338.194	476.69
338.422	429.69
338.65	447.69
338.878	437.69
339.106	447.69
339.334	443.69
339.562	454.69
339.79	433.69
340.018	440.69
340.246	443.69
340.474	440.69
340.702	444.69
340.93	441.69
341.158	442.69
341.386	431.69
341.614	427.69
341.842	436.69
342.07	435.69
342.298	422.69
342.526	420.69
342.754	426.69
342.981	415.69
343.209	421.69
343.437	429.69
343.665	442.69
343.893	455.69
344.12	464.69
344.348	475.69
344.576	451.69
344.804	445.69
345.031	449.69
345.259	481.69
345.487	438.69
345.714	425.69
345.942	414.69
346.17	413.69
346.397	405.69
346.625	417.69
346.853	415.69
347.08	399.69
347.308	406.69
347.535	431.69
347.763	397.69
347.99	410.69
348.218	415.69
348.445	428.69
348.673	412.69
348.9	427.69
349.128	422.69
349.355	409.69
349.583	405.69
349.81	406.69
350.037	390.69
350.265	406.69
350.492	386.69
350.72	387.69
350.947	389.69
351.174	411.69
351.402	432.69
351.629	415.69
351.856	413.69
352.083	421.69
352.311	431.69
352.538	409.69
352.765	417.69
352.992	420.69
353.22	417.69
353.447	413.69
353.674	398.69
353.901	396.69
354.128	396.69
354.355	396.69
354.583	394.69
354.81	388.69
355.037	399.69
355.264	381.69
355.491	391.69
355.718	385.69
355.945	383.69
356.172	386.69
356.399	382.69
356.626	385.69
356.853	377.69
357.08	387.69
357.307	377.69
357.534	399.69
357.761	404.69
357.988	407.69
358.215	398.69
358.441	370.69
358.668	370.69
358.895	388.69
359.122	407.69
359.349	392.69
359.576	416.69
359.802	410.69
360.029	410.69
360.256	411.69
360.483	424.69
360.709	404.69
360.936	411.69
361.163	389.69
361.39	405.69
361.616	426.69
361.843	427.69
362.07	411.69
362.296	405.69
362.523	387.69
362.749	411.69
362.976	391.69
363.203	389.69
363.429	393.69
363.656	385.69
363.882	397.69
364.109	390.69
364.335	409.69
364.562	386.69
364.788	392.69
365.015	389.69
365.241	395.69
365.468	381.69
365.694	400.69
365.92	377.69
366.147	400.69
366.373	369.69
366.599	397.69
366.826	403.69
367.052	397.69
367.278	380.69
367.505	383.69
367.731	398.69
367.957	384.69
368.184	391.69
368.41	400.69
368.636	381.69
368.862	407.69
369.089	417.69
369.315	380.69
369.541	397.69
369.767	380.69
369.993	395.69
370.219	379.69
370.445	383.69
370.672	380.69
370.898	382.69
371.124	399.69
371.35	386.69
371.576	375.69
371.802	398.69
372.028	391.69
372.254	381.69
372.48	378.69
372.706	390.69
372.932	391.69
373.158	395.69
373.384	397.69
373.61	400.69
373.835	386.69
374.061	395.69
374.287	395.69
374.513	403.69
374.739	406.69
374.965	400.69
375.191	415.69
375.416	407.69
375.642	409.69
375.868	392.69
376.094	398.69
376.319	391.69
376.545	382.69
376.771	397.69
376.997	388.69
377.222	384.69
377.448	391.69
377.674	375.69
377.899	384.69
378.125	393.69
378.35	378.69
378.576	387.69
378.802	374.69
379.027	389.69
379.253	390.69
379.478	389.69
379.704	406.69
379.929	394.69
380.155	384.69
380.38	381.69
380.606	403.69
380.831	391.69
381.057	386.69
381.282	376.69
381.507	395.69
381.733	398.69
381.958	385.69
382.184	396.69
382.409	399.69
382.634	404.69
382.86	393.69
383.085	389.69
383.31	390.69
383.535	400.69
383.761	389.69
383.986	419.69
384.211	420.69
384.436	404.69
384.662	423.69
384.887	411.69
385.112	399.69
385.337	413.69
385.562	402.69
385.787	423.69
386.013	431.69
386.238	428.69
386.463	430.69
386.688	439.69
386.913	425.69
387.138	430.69
387.363	429.69
387.588	424.69
387.813	415.69
388.038	428.69
388.263	434.69
388.488	424.69
388.713	437.69
388.938	426.69
389.163	425.69
389.387	422.69
389.612	430.69
389.837	438.69
390.062	443.69
390.287	416.69
390.512	437.69
390.736	425.69
390.961	411.69
391.186	430.69
391.411	426.69
391.636	426.69
391.86	434.69
392.085	457.69
392.31	457.69
392.534	423.69
392.759	449.69
392.984	425.69
393.208	427.69
393.433	427.69
393.658	429.69
393.882	428.69
394.107	420.69
394.331	445.69
394.556	443.69
394.78	441.69
395.005	439.69
395.229	455.69
395.454	469.69
395.678	455.69
395.903	468.69
396.127	471.69
396.352	477.69
396.576	457.69
396.801	453.69
397.025	434.69
397.249	453.69
397.474	455.69
397.698	451.69
397.922	452.69
398.147	468.69
398.371	478.69
398.595	467.69
398.82	487.69
399.044	479.69
399.268	495.69
399.492	557.69
399.717	580.69
399.941	609.69
400.165	606.69
400.389	577.69
400.613	554.69
400.837	531.69
401.062	474.69
401.286	499.69
401.51	499.69
401.734	514.69
401.958	491.69
402.182	501.69
402.406	521.69
402.63	503.69
402.854	489.69
403.078	501.69
403.302	485.69
403.526	510.69
403.75	499.69
403.974	491.69
404.198	513.69
404.422	522.69
404.645	499.69
404.869	497.69
405.093	549.69
405.317	584.69
405.541	597.69
405.765	540.69
405.988	524.69
406.212	549.69
406.436	541.69
406.66	538.69
406.883	551.69
407.107	567.69
407.331	598.69
407.555	650.69
407.778	615.69
408.002	595.69
408.226	558.69
408.449	551.69
408.673	549.69
408.896	581.69
409.12	607.69
409.344	586.69
409.567	517.69
409.791	515.69
410.014	515.69
410.238	502.69
410.461	497.69
410.685	517.69
410.908	527.69
411.132	531.69
411.355	540.69
411.578	551.69
411.802	507.69
412.025	510.69
412.249	499.69
412.472	515.69
412.695	539.69
412.919	511.69
413.142	518.69
413.365	490.69
413.589	486.69
413.812	473.69
414.035	449.69
414.258	459.69
414.482	469.69
414.705	471.69
414.928	459.69
415.151	457.69
415.374	470.69
415.597	487.69
415.821	466.69
416.044	462.69
416.267	472.69
416.49	470.69
416.713	458.69
416.936	466.69
417.159	454.69
417.382	472.69
417.605	461.69
417.828	458.69
418.051	485.69
418.274	478.69
418.497	458.69
418.72	452.69
418.943	447.69
419.166	495.69
419.389	496.69
419.611	482.69
419.834	494.69
420.057	495.69
420.28	473.69
420.503	475.69
420.726	484.69
420.948	503.69
421.171	522.69
421.394	547.69
421.617	482.69
421.839	485.69
422.062	472.69
422.285	488.69
422.507	551.69
422.73	585.69
422.953	575.69
423.175	526.69
423.398	498.69
423.621	482.69
423.843	525.69
424.066	513.69
424.288	533.69
424.511	525.69
424.733	570.69
424.956	611.69
425.178	608.69
425.401	580.69
425.623	615.69
425.846	531.69
426.068	510.69
426.291	521.69
426.513	503.69
426.735	506.69
426.958	545.69
427.18	605.69
427.402	705.69
427.625	773.69
427.847	660.69
428.069	581.69
428.292	542.69
428.514	492.69
428.736	478.69
428.958	482.69
429.181	469.69
429.403	470.69
429.625	461.69
429.847	494.69
430.069	537.69
430.292	530.69
430.514	490.69
430.736	461.69
430.958	464.69
431.18	438.69
431.402	461.69
431.624	444.69
431.846	437.69
432.068	438.69
432.29	441.69
432.512	438.69
432.734	462.69
432.956	458.69
433.178	468.69
433.4	451.69
433.622	450.69
433.844	462.69
434.066	442.69
434.287	434.69
434.509	443.69
434.731	452.69
434.953	479.69
435.175	469.69
435.397	493.69
435.618	495.69
435.84	559.69
436.062	606.69
436.284	650.69
436.505	523.69
436.727	504.69
436.949	499.69
437.17	476.69
437.392	459.69
437.614	471.69
437.835	512.69
438.057	555.69
438.278	658.69
438.5	667.69
438.721	695.69
438.943	683.69
439.165	524.69
439.386	493.69
439.608	521.69
439.829	499.69
440.05	507.69
440.272	563.69
440.493	521.69
440.715	492.69
440.936	471.69
441.158	479.69
441.379	459.69
441.6	474.69
441.822	487.69
442.043	540.69
442.264	598.69
442.486	612.69
442.707	534.69
442.928	502.69
443.149	519.69
443.371	528.69
443.592	571.69
443.813	645.69
444.034	678.69
444.255	579.69
444.476	543.69
444.698	502.69
444.919	526.69
445.14	605.69
445.361	561.69
445.582	524.69
445.803	563.69
446.024	654.69
446.245	673.69
446.466	602.69
446.687	523.69
446.908	492.69
447.129	475.69
447.35	480.69
447.571	460.69
447.792	455.69
448.013	468.69
448.234	457.69
448.455	523.69
448.675	618.69
448.896	677.69
449.117	589.69
449.338	561.69
449.559	649.69
449.779	717.69
450	578.69
450.221	491.69
450.442	465.69
450.662	437.69
450.883	442.69
451.104	455.69
451.324	444.69
451.545	417.69
451.766	415.69
451.986	413.69
452.207	413.69
452.428	391.69
452.648	416.69
452.869	427.69
453.089	412.69
453.31	433.69
453.53	406.69
453.751	414.69
453.971	419.69
454.192	424.69
454.412	409.69
454.633	405.69
454.853	410.69
455.073	393.69
455.294	435.69
455.514	474.69
455.734	469.69
455.955	385.69
456.175	402.69
456.395	387.69
456.616	395.69
456.836	393.69
457.056	383.69
457.276	376.69
457.497	391.69
457.717	383.69
457.937	379.69
458.157	396.69
458.377	395.69
458.598	408.69
458.818	448.69
459.038	503.69
459.258	514.69
459.478	464.69
459.698	461.69
459.918	462.69
460.138	458.69
460.358	455.69
460.578	455.69
460.798	452.69
461.018	459.69
461.238	451.69
461.458	444.69
461.678	438.69
461.898	456.69
462.118	437.69
462.338	461.69
462.558	473.69
462.777	489.69
462.997	504.69
463.217	531.69
463.437	537.69
463.657	486.69
463.876	486.69
464.096	488.69
464.316	489.69
464.536	506.69
464.755	477.69
464.975	492.69
465.195	498.69
465.414	524.69
465.634	471.69
465.854	470.69
466.073	439.69
466.293	425.69
466.512	443.69
466.732	422.69
466.951	435.69
467.171	418.69
467.391	442.69
467.61	448.69
467.829	430.69
468.049	402.69
468.268	410.69
468.488	413.69
468.707	410.69
468.927	414.69
469.146	417.69
469.365	420.69
469.585	408.69
469.804	430.69
470.023	426.69
470.243	442.69
470.462	428.69
470.681	430.69
470.901	433.69
471.12	423.69
471.339	417.69
471.558	442.69
471.777	429.69
471.997	393.69
472.216	422.69
472.435	441.69
472.654	434.69
472.873	413.69
473.092	409.69
473.311	416.69
473.53	409.69
473.749	453.69
473.968	462.69
474.187	540.69
474.406	551.69
474.625	472.69
474.844	413.69
475.063	445.69
475.282	438.69
475.501	427.69
475.72	421.69
475.939	444.69
476.158	422.69
476.377	434.69
476.596	412.69
476.814	410.69
477.033	435.69
477.252	451.69
477.471	452.69
477.69	445.69
477.908	453.69
478.127	466.69
478.346	445.69
478.564	463.69
478.783	469.69
479.002	483.69
479.22	489.69
479.439	479.69
479.658	509.69
479.876	499.69
480.095	494.69
480.313	517.69
480.532	499.69
480.751	525.69
480.969	519.69
481.188	551.69
481.406	561.69
481.624	517.69
481.843	515.69
482.061	505.69
482.28	497.69
482.498	474.69
482.717	502.69
482.935	478.69
483.153	490.69
483.372	478.69
483.59	484.69
483.808	505.69
484.027	481.69
484.245	489.69
484.463	494.69
484.681	493.69
484.9	512.69
485.118	489.69
485.336	503.69
485.554	519.69
485.772	513.69
485.99	472.69
486.209	526.69
486.427	510.69
486.645	510.69
486.863	499.69
487.081	516.69
487.299	515.69
487.517	513.69
487.735	512.69
487.953	510.69
488.171	503.69
488.389	526.69
488.607	510.69
488.825	516.69
489.043	543.69
489.261	515.69
489.479	548.69
489.696	521.69
489.914	530.69
490.132	520.69
490.35	527.69
490.568	527.69
490.786	526.69
491.003	545.69
491.221	576.69
491.439	578.69
491.657	554.69
491.874	555.69
492.092	548.69
492.31	580.69
492.527	583.69
492.745	570.69
492.963	581.69
493.18	593.69
493.398	595.69
493.615	587.69
493.833	581.69
494.05	589.69
494.268	596.69
494.485	567.69
494.703	594.69
494.92	601.69
495.138	584.69
495.355	615.69
495.573	615.69
495.79	606.69
496.008	598.69
496.225	593.69
496.442	586.69
496.66	612.69
496.877	622.69
497.094	598.69
497.312	622.69
497.529	612.69
497.746	640.69
497.963	643.69
498.181	649.69
498.398	671.69
498.615	697.69
498.832	711.69
499.049	715.69
499.267	758.69
499.484	761.69
499.701	844.69
499.918	838.69
500.135	899.69
500.352	925.69
500.569	926.69
500.786	981.69
501.003	921.69
501.22	901.69
501.437	889.69
501.654	833.69
501.871	834.69
502.088	798.69
502.305	735.69
502.522	729.69
502.739	706.69
502.956	667.69
503.172	679.69
503.389	669.69
503.606	640.69
503.823	659.69
504.04	620.69
504.256	645.69
504.473	629.69
504.69	601.69
504.907	614.69
505.123	598.69
505.34	607.69
505.557	586.69
505.773	559.69
505.99	581.69
506.207	591.69
506.423	540.69
506.64	582.69
506.856	590.69
507.073	562.69
507.289	539.69
507.506	559.69
507.722	574.69
507.939	556.69
508.155	553.69
508.372	535.69
508.588	553.69
508.805	508.69
509.021	531.69
509.238	542.69
509.454	542.69
509.67	538.69
509.887	533.69
510.103	537.69
510.319	541.69
510.536	597.69
510.752	844.69
510.968	715.69
511.184	555.69
511.401	528.69
511.617	516.69
511.833	521.69
512.049	506.69
512.265	513.69
512.481	511.69
512.698	478.69
512.914	518.69
513.13	503.69
513.346	494.69
513.562	501.69
513.778	502.69
513.994	537.69
514.21	503.69
514.426	518.69
514.642	546.69
514.858	551.69
515.074	554.69
515.29	651.69
515.506	874.69
515.721	729.69
515.937	568.69
516.153	575.69
516.369	530.69
516.585	541.69
516.801	519.69
517.016	529.69
517.232	538.69
517.448	551.69
517.664	562.69
517.879	557.69
518.095	537.69
518.311	547.69
518.527	547.69
518.742	537.69
518.958	540.69
519.173	515.69
519.389	497.69
519.605	510.69
519.82	500.69
520.036	514.69
520.251	520.69
520.467	534.69
520.682	535.69
520.898	525.69
521.113	553.69
521.329	545.69
521.544	612.69
521.76	691.69
521.975	1060.69
522.19	1025.69
522.406	643.69
522.621	535.69
522.836	485.69
523.052	490.69
523.267	480.69
523.482	472.69
523.698	466.69
523.913	477.69
524.128	460.69
524.343	440.69
524.559	442.69
524.774	455.69
524.989	441.69
525.204	453.69
525.419	442.69
525.634	449.69
525.849	423.69
526.064	428.69
526.28	415.69
526.495	444.69
526.71	434.69
526.925	429.69
527.14	437.69
527.355	458.69
527.57	415.69
527.785	446.69
527.999	432.69
528.214	425.69
528.429	433.69
528.644	440.69
528.859	423.69
529.074	438.69
529.289	423.69
529.503	490.69
529.718	466.69
529.933	439.69
530.148	446.69
530.363	426.69
530.577	417.69
530.792	407.69
531.007	427.69
531.221	428.69
531.436	419.69
531.651	419.69
531.865	423.69
532.08	419.69
532.295	414.69
532.509	395.69
532.724	401.69
532.938	414.69
533.153	413.69
533.367	406.69
533.582	419.69
533.796	419.69
534.011	411.69
534.225	416.69
534.44	390.69
534.654	423.69
534.868	412.69
535.083	404.69
535.297	379.69
535.511	406.69
535.726	405.69
535.94	404.69
536.154	403.69
536.369	415.69
536.583	397.69
536.797	406.69
537.011	400.69
537.225	384.69
537.44	396.69
537.654	410.69
537.868	401.69
538.082	400.69
538.296	394.69
538.51	388.69
538.724	394.69
538.938	397.69
539.153	389.69
539.367	403.69
539.581	406.69
539.795	387.69
540.009	389.69
540.222	387.69
540.436	392.69
540.65	379.69
540.864	390.69
541.078	389.69
541.292	391.69
541.506	400.69
541.72	398.69
541.934	388.69
542.147	396.69
542.361	372.69
542.575	372.69
542.789	369.69
543.002	402.69
543.216	397.69
543.43	405.69
543.644	384.69
543.857	357.69
544.071	385.69
544.285	395.69
544.498	372.69
544.712	407.69
544.925	395.69
545.139	391.69
545.352	382.69
545.566	387.69
545.779	381.69
545.993	393.69
546.206	386.69
546.42	400.69
546.633	391.69
546.847	384.69
547.06	383.69
547.274	365.69
547.487	373.69
547.7	377.69
547.914	395.69
548.127	375.69
548.34	376.69
548.554	378.69
548.767	372.69
548.98	378.69
549.193	387.69
549.407	369.69
549.62	364.69
549.833	387.69
550.046	380.69
550.259	382.69
550.473	389.69
550.686	375.69
550.899	357.69
551.112	377.69
551.325	366.69
551.538	377.69
551.751	385.69
551.964	374.69
552.177	376.69
552.39	387.69
552.603	391.69
552.816	370.69
553.029	380.69
553.242	386.69
553.455	390.69
553.667	403.69
553.88	386.69
554.093	385.69
554.306	386.69
554.519	389.69
554.732	382.69
554.944	369.69
555.157	358.69
555.37	376.69
555.583	357.69
555.795	357.69
556.008	369.69
556.221	360.69
556.433	344.69
556.646	344.69
556.859	365.69
557.071	334.69
557.284	354.69
557.496	359.69
557.709	339.69
557.921	331.69
558.134	316.69
558.346	337.69
558.559	346.69
558.771	337.69
558.984	336.69
559.196	334.69
559.409	322.69
559.621	350.69
559.833	338.69
560.046	338.69
560.258	335.69
560.47	339.69
560.683	324.69
560.895	350.69
561.107	331.69
561.32	323.69
561.532	323.69
561.744	341.69
561.956	327.69
562.168	342.69
562.381	322.69
562.593	350.69
562.805	334.69
563.017	336.69
563.229	332.69
563.441	335.69
563.653	354.69
563.865	342.69
564.077	334.69
564.289	345.69
564.501	353.69
564.713	352.69
564.925	342.69
565.137	358.69
565.349	368.69
565.561	361.69
565.773	365.69
565.985	377.69
566.197	391.69
566.408	409.69
566.62	419.69
566.832	431.69
567.044	458.69
567.255	451.69
567.467	437.69
567.679	443.69
567.891	468.69
568.102	441.69
568.314	453.69
568.526	423.69
568.737	423.69
568.949	410.69
569.161	379.69
569.372	387.69
569.584	357.69
569.795	362.69
570.007	345.69
570.218	362.69
570.43	363.69
570.641	355.69
570.853	326.69
571.064	350.69
571.276	329.69
571.487	311.69
571.698	338.69
571.91	322.69
572.121	313.69
572.333	317.69
572.544	301.69
572.755	310.69
572.966	276.69
573.178	308.69
573.389	296.69
573.6	301.69
573.811	296.69
574.023	299.69
574.234	305.69
574.445	273.69
574.656	296.69
574.867	294.69
575.078	283.69
575.289	286.69
575.501	268.69
575.712	279.69
575.923	298.69
576.134	291.69
576.345	303.69
576.556	313.69
576.767	306.69
576.978	277.69
577.188	283.69
577.399	296.69
577.61	291.69
577.821	292.69
578.032	285.69
578.243	288.69
578.454	425.69
578.665	333.69
578.875	292.69
579.086	272.69
579.297	261.69
579.508	278.69
579.718	275.69
579.929	255.69
580.14	248.69
580.35	268.69
580.561	285.69
580.772	268.69
580.982	260.69
581.193	254.69
581.403	276.69
581.614	276.69
581.825	264.69
582.035	265.69
582.246	265.69
582.456	262.69
582.667	253.69
582.877	267.69
583.087	259.69
583.298	259.69
583.508	252.69
583.719	260.69
583.929	277.69
584.139	261.69
584.35	275.69
584.56	256.69
584.77	262.69
584.981	258.69
585.191	252.69
585.401	257.69
585.611	283.69
585.821	267.69
586.032	276.69
586.242	270.69
586.452	267.69
586.662	249.69
586.872	261.69
587.082	262.69
587.292	259.69
587.502	259.69
587.713	257.69
587.923	271.69
588.133	250.69
588.343	250.69
588.553	267.69
588.762	247.69
588.972	248.69
589.182	245.69
589.392	265.69
589.602	247.69
589.812	265.69
590.022	267.69
590.232	269.69
590.441	255.69
590.651	246.69
590.861	248.69
591.071	268.69
591.281	262.69
591.49	250.69
591.7	254.69
591.91	272.69
592.119	259.69
592.329	272.69
592.539	263.69
592.748	277.69
592.958	281.69
593.167	285.69
593.377	274.69
593.587	298.69
593.796	278.69
594.006	292.69
594.215	265.69
594.424	289.69
594.634	277.69
594.843	277.69
595.053	277.69
595.262	247.69
595.472	245.69
595.681	256.69
595.89	238.69
596.1	255.69
596.309	245.69
596.518	254.69
596.727	247.69
596.937	229.69
597.146	246.69
597.355	234.69
597.564	217.69
597.774	228.69
597.983	230.69
598.192	244.69
598.401	227.69
598.61	237.69
598.819	245.69
599.028	240.69
599.237	225.69
599.446	236.69
599.655	226.69
599.864	214.69
600.073	254.69
600.282	237.69
600.491	233.69
600.7	228.69
600.909	226.69
601.118	221.69
601.327	227.69
601.536	222.69
601.745	210.69
601.953	217.69
602.162	228.69
602.371	215.69
602.58	199.69
602.789	228.69
602.997	222.69
603.206	214.69
603.415	227.69
603.623	208.69
603.832	205.69
604.041	214.69
604.249	229.69
604.458	232.69
604.666	211.69
604.875	220.69
605.084	212.69
605.292	211.69
605.501	215.69
605.709	214.69
605.918	230.69
606.126	210.69
606.334	206.69
606.543	213.69
606.751	210.69
606.96	228.69
607.168	211.69
607.376	210.69
607.585	202.69
607.793	206.69
608.001	214.69
608.21	218.69
608.418	214.69
608.626	210.69
608.834	203.69
609.043	204.69
609.251	216.69
609.459	207.69
609.667	216.69
609.875	194.69
610.083	225.69
610.291	212.69
610.499	210.69
610.707	202.69
610.916	213.69
611.124	220.69
611.332	237.69
611.54	204.69
611.748	212.69
611.955	199.69
612.163	203.69
612.371	210.69
612.579	221.69
612.787	205.69
612.995	197.69
613.203	220.69
613.411	220.69
613.618	199.69
613.826	201.69
614.034	194.69
614.242	197.69
614.449	197.69
614.657	216.69
614.865	222.69
615.072	206.69
615.28	201.69
615.488	209.69
615.695	211.69
615.903	206.69
616.111	200.69
616.318	230.69
616.526	201.69
616.733	195.69
616.941	190.69
617.148	204.69
617.356	221.69
617.563	206.69
617.771	212.69
617.978	203.69
618.185	193.69
618.393	215.69
618.6	210.69
618.807	215.69
619.015	200.69
619.222	204.69
619.429	184.69
619.637	185.69
619.844	191.69
620.051	177.69
620.258	187.69
620.466	177.69
620.673	193.69
620.88	182.69
621.087	196.69
621.294	185.69
621.501	193.69
621.708	202.69
621.915	173.69
622.122	188.69
622.329	183.69
622.536	214.69
622.743	187.69
622.95	193.69
623.157	192.69
623.364	204.69
623.571	188.69
623.778	198.69
623.985	175.69
624.192	185.69
624.399	180.69
624.606	204.69
624.812	189.69
625.019	184.69
625.226	182.69
625.433	201.69
625.639	191.69
625.846	185.69
626.053	196.69
626.259	186.69
626.466	197.69
626.673	175.69
626.879	179.69
627.086	167.69
627.293	179.69
627.499	167.69
627.706	173.69
627.912	181.69
628.119	182.69
628.325	164.69
628.532	179.69
628.738	177.69
628.945	186.69
629.151	189.69
629.357	177.69
629.564	164.69
629.77	161.69
629.976	167.69
630.183	185.69
630.389	172.69
630.595	165.69
630.802	188.69
631.008	175.69
631.214	181.69
631.42	152.69
631.627	175.69
631.833	177.69
632.039	167.69
632.245	164.69
632.451	171.69
632.657	167.69
632.863	173.69
633.069	168.69
633.275	179.69
633.481	172.69
633.688	154.69
633.893	166.69
634.099	169.69
634.305	157.69
634.511	162.69
634.717	153.69
634.923	145.69
635.129	154.69
635.335	149.69
635.541	166.69
635.747	164.69
635.952	156.69
636.158	161.69
636.364	165.69
636.57	162.69
636.775	178.69
636.981	156.69
637.187	158.69
637.392	152.69
637.598	156.69
637.804	170.69
638.009	191.69
638.215	179.69
638.421	158.69
638.626	156.69
638.832	154.69
639.037	170.69
639.243	168.69
639.448	143.69
639.654	177.69
639.859	163.69
640.065	165.69
640.27	159.69
640.475	156.69
640.681	155.69
640.886	156.69
641.091	157.69
641.297	156.69
641.502	166.69
641.707	170.69
641.913	162.69
642.118	168.69
642.323	156.69
642.528	152.69
642.733	156.69
642.939	151.69
643.144	158.69
643.349	149.69
643.554	159.69
643.759	135.69
643.964	158.69
644.169	147.69
644.374	142.69
644.579	151.69
644.784	161.69
644.989	161.69
645.194	161.69
645.399	157.69
645.604	163.69
645.809	142.69
646.014	143.69
646.219	151.69
646.423	153.69
646.628	152.69
646.833	151.69
647.038	134.69
647.243	137.69
647.447	159.69
647.652	165.69
647.857	156.69
648.062	150.69
648.266	155.69
648.471	152.69
648.676	152.69
648.88	144.69
649.085	144.69
649.289	162.69
649.494	151.69
649.698	152.69
649.903	164.69
650.107	157.69
650.312	162.69
650.516	154.69
650.721	146.69
650.925	129.69
651.13	147.69
651.334	153.69
651.539	148.69
651.743	143.69
651.947	142.69
652.152	143.69
652.356	139.69
652.56	141.69
652.764	127.69
652.969	130.69
653.173	125.69
653.377	129.69
653.581	125.69
653.785	134.69
653.99	123.69
654.194	145.69
654.398	124.69
654.602	133.69
654.806	135.69
655.01	146.69
655.214	137.69
655.418	125.69
655.622	122.69
655.826	148.69
656.03	104.69
656.234	141.69
656.438	119.69
656.642	131.69
656.846	138.69
657.049	131.69
657.253	134.69
657.457	113.69
657.661	110.69
657.865	115.69
658.068	115.69
658.272	102.69
658.476	110.69
658.68	115.69
658.883	102.69
659.087	86.69
659.291	98.69
659.494	99.69
659.698	98.69
659.901	86.69
660.105	97.69
660.309	91.69
660.512	99.69
660.716	103.69
660.919	93.69
661.123	87.69
661.326	89.69
661.53	95.69
661.733	94.69
661.936	98.69
662.14	78.69
662.343	94.69
662.546	85.69
662.75	89.69
662.953	80.69
663.156	85.69
663.36	94.69
663.563	82.69
663.766	88.69
663.969	90.69
664.173	94.69
664.376	89.69
664.579	97.69
664.782	80.69
664.985	87.69
665.188	95.69
665.391	84.69
665.594	70.69
665.797	90.69
666	70.69
666.203	80.69
666.406	87.69
666.609	69.69
666.812	77.69
667.015	77.69
667.218	82.69
667.421	77.69
667.624	89.69
667.827	80.69
668.03	80.69
668.232	75.69
668.435	71.69
668.638	78.69
668.841	92.69
669.043	85.69
669.246	85.69
669.449	91.69
669.651	82.69
669.854	93.69
670.057	93.69
670.259	76.69
670.462	84.69
670.665	90.69
670.867	79.69
671.07	81.69
671.272	78.69
671.475	77.69
671.677	87.69
671.88	82.69
672.082	71.69
672.284	74.69
672.487	92.69
672.689	86.69
672.892	79.69
