Data from 1977.PennyLincolnUp.Lamp.En5.5.200Scan.071719.P1_HRD10591_16-07-20-864.txt Node
Date: Thu Jul 18 16:07:20 EDT 2019
User: cochatt
Spectrometer: HR+D1059
Trigger mode: 1
Integration Time (sec): 1.000000E-1
Scans to average: 1
Electric dark correction enabled: true
Nonlinearity correction enabled: false
Boxcar width: 0
XAxis mode: Wavelengths
Number of Pixels in Spectrum: 2048
>>>>>Begin Spectral Data<<<<<
223.165	-33.62
223.4	-33.62
223.635	-33.62
223.869	-22.62
224.104	-4.62
224.338	-7.62
224.573	-16.62
224.808	-23.62
225.042	-18.62
225.277	5.38
225.511	-16.62
225.746	8.38
225.98	10.38
226.215	14.38
226.449	19.38
226.683	25.38
226.918	25.38
227.152	35.38
227.387	32.38
227.621	22.38
227.856	43.38
228.09	46.38
228.324	50.38
228.559	51.38
228.793	73.38
229.027	87.38
229.262	112.38
229.496	114.38
229.73	138.38
229.964	140.38
230.199	116.38
230.433	112.38
230.667	101.38
230.901	112.38
231.136	100.38
231.37	119.38
231.604	118.38
231.838	93.38
232.072	105.38
232.306	89.38
232.541	127.38
232.775	117.38
233.009	120.38
233.243	123.38
233.477	114.38
233.711	124.38
233.945	132.38
234.179	136.38
234.413	126.38
234.647	105.38
234.881	120.38
235.115	109.38
235.349	113.38
235.583	108.38
235.817	122.38
236.051	132.38
236.285	128.38
236.519	134.38
236.753	128.38
236.987	144.38
237.221	160.38
237.455	208.38
237.689	168.38
237.922	139.38
238.156	134.38
238.39	119.38
238.624	134.38
238.858	119.38
239.091	122.38
239.325	114.38
239.559	125.38
239.793	132.38
240.027	136.38
240.26	132.38
240.494	149.38
240.728	151.38
240.961	157.38
241.195	144.38
241.429	141.38
241.662	130.38
241.896	150.38
242.13	126.38
242.363	122.38
242.597	144.38
242.83	143.38
243.064	140.38
243.298	134.38
243.531	140.38
243.765	146.38
243.998	141.38
244.232	139.38
244.465	141.38
244.699	152.38
244.932	145.38
245.166	152.38
245.399	146.38
245.633	150.38
245.866	154.38
246.099	141.38
246.333	135.38
246.566	142.38
246.8	152.38
247.033	159.38
247.266	142.38
247.5	163.38
247.733	162.38
247.966	175.38
248.2	195.38
248.433	171.38
248.666	173.38
248.899	186.38
249.133	174.38
249.366	189.38
249.599	188.38
249.832	174.38
250.066	169.38
250.299	170.38
250.532	190.38
250.765	191.38
250.998	218.38
251.231	222.38
251.465	207.38
251.698	202.38
251.931	192.38
252.164	192.38
252.397	199.38
252.63	201.38
252.863	208.38
253.096	210.38
253.329	203.38
253.562	224.38
253.795	214.38
254.028	202.38
254.261	212.38
254.494	212.38
254.727	244.38
254.96	284.38
255.193	271.38
255.426	245.38
255.659	242.38
255.892	248.38
256.124	240.38
256.357	233.38
256.59	217.38
256.823	224.38
257.056	216.38
257.289	195.38
257.521	207.38
257.754	206.38
257.987	202.38
258.22	203.38
258.452	207.38
258.685	199.38
258.918	220.38
259.151	211.38
259.383	219.38
259.616	223.38
259.849	218.38
260.081	219.38
260.314	231.38
260.547	245.38
260.779	239.38
261.012	221.38
261.244	229.38
261.477	229.38
261.71	213.38
261.942	214.38
262.175	233.38
262.407	221.38
262.64	222.38
262.872	238.38
263.105	205.38
263.337	215.38
263.57	222.38
263.802	210.38
264.035	222.38
264.267	209.38
264.499	215.38
264.732	212.38
264.964	230.38
265.197	209.38
265.429	207.38
265.661	205.38
265.894	223.38
266.126	235.38
266.358	223.38
266.591	225.38
266.823	226.38
267.055	231.38
267.287	249.38
267.52	237.38
267.752	220.38
267.984	231.38
268.216	242.38
268.448	250.38
268.681	234.38
268.913	230.38
269.145	239.38
269.377	270.38
269.609	272.38
269.841	270.38
270.073	288.38
270.306	304.38
270.538	298.38
270.77	325.38
271.002	295.38
271.234	304.38
271.466	308.38
271.698	303.38
271.93	332.38
272.162	288.38
272.394	306.38
272.626	313.38
272.858	290.38
273.09	296.38
273.322	280.38
273.553	275.38
273.785	278.38
274.017	276.38
274.249	258.38
274.481	272.38
274.713	245.38
274.945	254.38
275.176	269.38
275.408	281.38
275.64	284.38
275.872	286.38
276.104	266.38
276.335	271.38
276.567	288.38
276.799	286.38
277.031	308.38
277.262	323.38
277.494	319.38
277.726	312.38
277.957	319.38
278.189	293.38
278.421	269.38
278.652	296.38
278.884	296.38
279.115	280.38
279.347	283.38
279.579	281.38
279.81	275.38
280.042	264.38
280.273	274.38
280.505	278.38
280.736	292.38
280.968	282.38
281.199	262.38
281.431	276.38
281.662	278.38
281.894	308.38
282.125	293.38
282.356	309.38
282.588	316.38
282.819	328.38
283.051	291.38
283.282	289.38
283.513	277.38
283.745	295.38
283.976	299.38
284.207	300.38
284.439	287.38
284.67	304.38
284.901	292.38
285.132	301.38
285.364	307.38
285.595	304.38
285.826	292.38
286.057	303.38
286.288	300.38
286.52	306.38
286.751	271.38
286.982	300.38
287.213	302.38
287.444	310.38
287.675	298.38
287.906	315.38
288.138	316.38
288.369	325.38
288.6	323.38
288.831	312.38
289.062	310.38
289.293	308.38
289.524	304.38
289.755	290.38
289.986	307.38
290.217	332.38
290.448	317.38
290.679	303.38
290.91	320.38
291.141	308.38
291.371	283.38
291.602	328.38
291.833	298.38
292.064	320.38
292.295	311.38
292.526	317.38
292.757	297.38
292.987	294.38
293.218	314.38
293.449	318.38
293.68	327.38
293.91	329.38
294.141	318.38
294.372	309.38
294.603	308.38
294.833	294.38
295.064	324.38
295.295	324.38
295.525	342.38
295.756	334.38
295.987	324.38
296.217	336.38
296.448	359.38
296.679	322.38
296.909	302.38
297.14	313.38
297.37	322.38
297.601	328.38
297.831	331.38
298.062	325.38
298.292	312.38
298.523	323.38
298.753	332.38
298.984	334.38
299.214	336.38
299.445	328.38
299.675	328.38
299.905	341.38
300.136	311.38
300.366	330.38
300.597	340.38
300.827	335.38
301.057	348.38
301.288	344.38
301.518	344.38
301.748	335.38
301.979	336.38
302.209	350.38
302.439	340.38
302.669	358.38
302.9	354.38
303.13	349.38
303.36	363.38
303.59	356.38
303.82	346.38
304.051	363.38
304.281	362.38
304.511	354.38
304.741	331.38
304.971	336.38
305.201	368.38
305.431	357.38
305.661	338.38
305.891	344.38
306.121	351.38
306.352	340.38
306.582	360.38
306.812	367.38
307.042	349.38
307.272	351.38
307.502	342.38
307.731	351.38
307.961	371.38
308.191	346.38
308.421	359.38
308.651	370.38
308.881	354.38
309.111	360.38
309.341	375.38
309.571	372.38
309.8	372.38
310.03	381.38
310.26	360.38
310.49	388.38
310.72	365.38
310.949	380.38
311.179	413.38
311.409	382.38
311.639	388.38
311.868	401.38
312.098	388.38
312.328	403.38
312.557	417.38
312.787	398.38
313.017	406.38
313.246	387.38
313.476	409.38
313.706	395.38
313.935	396.38
314.165	403.38
314.394	421.38
314.624	396.38
314.853	400.38
315.083	382.38
315.312	399.38
315.542	398.38
315.771	389.38
316.001	382.38
316.23	380.38
316.46	397.38
316.689	390.38
316.919	402.38
317.148	420.38
317.377	411.38
317.607	417.38
317.836	387.38
318.065	390.38
318.295	403.38
318.524	380.38
318.753	379.38
318.983	390.38
319.212	379.38
319.441	380.38
319.67	411.38
319.9	408.38
320.129	392.38
320.358	408.38
320.587	390.38
320.816	415.38
321.046	418.38
321.275	386.38
321.504	409.38
321.733	401.38
321.962	398.38
322.191	444.38
322.42	428.38
322.649	444.38
322.878	458.38
323.108	436.38
323.337	460.38
323.566	488.38
323.795	530.38
324.024	539.38
324.253	651.38
324.482	875.38
324.71	1312.38
324.939	1839.38
325.168	1568.38
325.397	879.38
325.626	595.38
325.855	526.38
326.084	476.38
326.313	493.38
326.542	496.38
326.77	540.38
326.999	632.38
327.228	811.38
327.457	1197.38
327.686	1344.38
327.914	919.38
328.143	641.38
328.372	583.38
328.6	553.38
328.829	530.38
329.058	548.38
329.287	560.38
329.515	546.38
329.744	518.38
329.972	473.38
330.201	500.38
330.43	547.38
330.658	572.38
330.887	589.38
331.115	550.38
331.344	519.38
331.572	470.38
331.801	506.38
332.03	489.38
332.258	479.38
332.486	467.38
332.715	444.38
332.943	465.38
333.172	473.38
333.4	482.38
333.629	456.38
333.857	493.38
334.085	517.38
334.314	505.38
334.542	527.38
334.771	535.38
334.999	500.38
335.227	503.38
335.455	486.38
335.684	474.38
335.912	454.38
336.14	484.38
336.369	460.38
336.597	455.38
336.825	466.38
337.053	458.38
337.281	440.38
337.51	465.38
337.738	434.38
337.966	442.38
338.194	467.38
338.422	438.38
338.65	459.38
338.878	449.38
339.106	436.38
339.334	447.38
339.562	437.38
339.79	450.38
340.018	440.38
340.246	429.38
340.474	423.38
340.702	435.38
340.93	440.38
341.158	424.38
341.386	443.38
341.614	428.38
341.842	442.38
342.07	414.38
342.298	435.38
342.526	426.38
342.754	427.38
342.981	413.38
343.209	415.38
343.437	426.38
343.665	439.38
343.893	433.38
344.12	462.38
344.348	446.38
344.576	447.38
344.804	461.38
345.031	431.38
345.259	467.38
345.487	416.38
345.714	448.38
345.942	439.38
346.17	407.38
346.397	442.38
346.625	417.38
346.853	437.38
347.08	434.38
347.308	442.38
347.535	425.38
347.763	425.38
347.99	414.38
348.218	414.38
348.445	414.38
348.673	445.38
348.9	418.38
349.128	400.38
349.355	423.38
349.583	392.38
349.81	403.38
350.037	407.38
350.265	394.38
350.492	415.38
350.72	406.38
350.947	411.38
351.174	418.38
351.402	405.38
351.629	408.38
351.856	416.38
352.083	420.38
352.311	436.38
352.538	405.38
352.765	438.38
352.992	413.38
353.22	398.38
353.447	395.38
353.674	414.38
353.901	397.38
354.128	382.38
354.355	413.38
354.583	385.38
354.81	395.38
355.037	382.38
355.264	392.38
355.491	403.38
355.718	394.38
355.945	384.38
356.172	394.38
356.399	378.38
356.626	389.38
356.853	396.38
357.08	395.38
357.307	416.38
357.534	386.38
357.761	400.38
357.988	400.38
358.215	396.38
358.441	395.38
358.668	389.38
358.895	396.38
359.122	406.38
359.349	388.38
359.576	431.38
359.802	421.38
360.029	441.38
360.256	427.38
360.483	434.38
360.709	408.38
360.936	406.38
361.163	404.38
361.39	399.38
361.616	428.38
361.843	423.38
362.07	386.38
362.296	406.38
362.523	405.38
362.749	400.38
362.976	399.38
363.203	386.38
363.429	386.38
363.656	387.38
363.882	379.38
364.109	388.38
364.335	389.38
364.562	387.38
364.788	406.38
365.015	420.38
365.241	404.38
365.468	395.38
365.694	400.38
365.92	392.38
366.147	386.38
366.373	380.38
366.599	392.38
366.826	391.38
367.052	405.38
367.278	397.38
367.505	377.38
367.731	412.38
367.957	381.38
368.184	401.38
368.41	403.38
368.636	413.38
368.862	389.38
369.089	396.38
369.315	402.38
369.541	404.38
369.767	379.38
369.993	382.38
370.219	389.38
370.445	402.38
370.672	408.38
370.898	386.38
371.124	398.38
371.35	391.38
371.576	400.38
371.802	399.38
372.028	392.38
372.254	380.38
372.48	393.38
372.706	396.38
372.932	391.38
373.158	399.38
373.384	413.38
373.61	412.38
373.835	383.38
374.061	395.38
374.287	382.38
374.513	400.38
374.739	407.38
374.965	410.38
375.191	415.38
375.416	431.38
375.642	411.38
375.868	398.38
376.094	395.38
376.319	407.38
376.545	379.38
376.771	382.38
376.997	386.38
377.222	386.38
377.448	382.38
377.674	376.38
377.899	385.38
378.125	378.38
378.35	396.38
378.576	376.38
378.802	385.38
379.027	386.38
379.253	390.38
379.478	375.38
379.704	378.38
379.929	379.38
380.155	389.38
380.38	384.38
380.606	392.38
380.831	393.38
381.057	377.38
381.282	403.38
381.507	388.38
381.733	391.38
381.958	412.38
382.184	397.38
382.409	396.38
382.634	397.38
382.86	387.38
383.085	383.38
383.31	374.38
383.535	386.38
383.761	406.38
383.986	404.38
384.211	410.38
384.436	402.38
384.662	418.38
384.887	425.38
385.112	440.38
385.337	400.38
385.562	419.38
385.787	419.38
386.013	415.38
386.238	432.38
386.463	430.38
386.688	431.38
386.913	408.38
387.138	425.38
387.363	427.38
387.588	421.38
387.813	421.38
388.038	422.38
388.263	412.38
388.488	413.38
388.713	443.38
388.938	429.38
389.163	441.38
389.387	420.38
389.612	408.38
389.837	407.38
390.062	423.38
390.287	412.38
390.512	411.38
390.736	406.38
390.961	423.38
391.186	407.38
391.411	423.38
391.636	442.38
391.86	454.38
392.085	460.38
392.31	424.38
392.534	435.38
392.759	436.38
392.984	433.38
393.208	418.38
393.433	448.38
393.658	443.38
393.882	418.38
394.107	422.38
394.331	429.38
394.556	412.38
394.78	446.38
395.005	431.38
395.229	442.38
395.454	449.38
395.678	441.38
395.903	439.38
396.127	448.38
396.352	466.38
396.576	434.38
396.801	426.38
397.025	448.38
397.249	442.38
397.474	449.38
397.698	482.38
397.922	460.38
398.147	492.38
398.371	501.38
398.595	486.38
398.82	476.38
399.044	504.38
399.268	514.38
399.492	544.38
399.717	577.38
399.941	612.38
400.165	592.38
400.389	605.38
400.613	544.38
400.837	518.38
401.062	495.38
401.286	501.38
401.51	478.38
401.734	495.38
401.958	479.38
402.182	503.38
402.406	493.38
402.63	512.38
402.854	507.38
403.078	499.38
403.302	514.38
403.526	510.38
403.75	498.38
403.974	490.38
404.198	475.38
404.422	512.38
404.645	528.38
404.869	529.38
405.093	538.38
405.317	556.38
405.541	575.38
405.765	526.38
405.988	540.38
406.212	535.38
406.436	532.38
406.66	543.38
406.883	554.38
407.107	536.38
407.331	598.38
407.555	625.38
407.778	632.38
408.002	600.38
408.226	553.38
408.449	540.38
408.673	542.38
408.896	555.38
409.12	584.38
409.344	578.38
409.567	511.38
409.791	504.38
410.014	517.38
410.238	501.38
410.461	496.38
410.685	493.38
410.908	490.38
411.132	536.38
411.355	549.38
411.578	531.38
411.802	510.38
412.025	508.38
412.249	498.38
412.472	521.38
412.695	538.38
412.919	531.38
413.142	502.38
413.365	492.38
413.589	501.38
413.812	486.38
414.035	475.38
414.258	470.38
414.482	470.38
414.705	465.38
414.928	467.38
415.151	470.38
415.374	475.38
415.597	458.38
415.821	449.38
416.044	481.38
416.267	473.38
416.49	454.38
416.713	440.38
416.936	466.38
417.159	461.38
417.382	479.38
417.605	477.38
417.828	467.38
418.051	485.38
418.274	491.38
418.497	454.38
418.72	444.38
418.943	457.38
419.166	482.38
419.389	511.38
419.611	520.38
419.834	495.38
420.057	494.38
420.28	487.38
420.503	456.38
420.726	485.38
420.948	504.38
421.171	528.38
421.394	546.38
421.617	510.38
421.839	494.38
422.062	486.38
422.285	488.38
422.507	553.38
422.73	599.38
422.953	574.38
423.175	515.38
423.398	502.38
423.621	484.38
423.843	528.38
424.066	501.38
424.288	502.38
424.511	508.38
424.733	569.38
424.956	639.38
425.178	618.38
425.401	605.38
425.623	639.38
425.846	530.38
426.068	512.38
426.291	500.38
426.513	517.38
426.735	506.38
426.958	557.38
427.18	630.38
427.402	742.38
427.625	796.38
427.847	674.38
428.069	580.38
428.292	516.38
428.514	498.38
428.736	470.38
428.958	471.38
429.181	483.38
429.403	467.38
429.625	465.38
429.847	508.38
430.069	536.38
430.292	554.38
430.514	483.38
430.736	480.38
430.958	452.38
431.18	443.38
431.402	460.38
431.624	437.38
431.846	443.38
432.068	439.38
432.29	444.38
432.512	439.38
432.734	443.38
432.956	445.38
433.178	488.38
433.4	463.38
433.622	460.38
433.844	458.38
434.066	439.38
434.287	434.38
434.509	435.38
434.731	451.38
434.953	461.38
435.175	487.38
435.397	488.38
435.618	502.38
435.84	528.38
436.062	623.38
436.284	674.38
436.505	564.38
436.727	492.38
436.949	477.38
437.17	445.38
437.392	459.38
437.614	456.38
437.835	490.38
438.057	552.38
438.278	639.38
438.5	647.38
438.721	726.38
438.943	686.38
439.165	528.38
439.386	532.38
439.608	516.38
439.829	535.38
440.05	533.38
440.272	555.38
440.493	528.38
440.715	477.38
440.936	472.38
441.158	456.38
441.379	482.38
441.6	476.38
441.822	476.38
442.043	536.38
442.264	607.38
442.486	623.38
442.707	539.38
442.928	535.38
443.149	518.38
443.371	506.38
443.592	570.38
443.813	652.38
444.034	707.38
444.255	597.38
444.476	524.38
444.698	508.38
444.919	511.38
445.14	647.38
445.361	558.38
445.582	541.38
445.803	603.38
446.024	678.38
446.245	691.38
446.466	612.38
446.687	525.38
446.908	492.38
447.129	490.38
447.35	443.38
447.571	448.38
447.792	428.38
448.013	445.38
448.234	465.38
448.455	500.38
448.675	628.38
448.896	702.38
449.117	579.38
449.338	570.38
449.559	659.38
449.779	733.38
450	588.38
450.221	479.38
450.442	470.38
450.662	445.38
450.883	448.38
451.104	439.38
451.324	429.38
451.545	425.38
451.766	420.38
451.986	420.38
452.207	412.38
452.428	419.38
452.648	402.38
452.869	395.38
453.089	405.38
453.31	408.38
453.53	414.38
453.751	425.38
453.971	421.38
454.192	428.38
454.412	401.38
454.633	424.38
454.853	396.38
455.073	415.38
455.294	430.38
455.514	480.38
455.734	462.38
455.955	402.38
456.175	409.38
456.395	399.38
456.616	386.38
456.836	377.38
457.056	388.38
457.276	388.38
457.497	406.38
457.717	407.38
457.937	405.38
458.157	397.38
458.377	406.38
458.598	434.38
458.818	468.38
459.038	501.38
459.258	554.38
459.478	472.38
459.698	427.38
459.918	447.38
460.138	450.38
460.358	468.38
460.578	447.38
460.798	460.38
461.018	458.38
461.238	456.38
461.458	464.38
461.678	451.38
461.898	480.38
462.118	447.38
462.338	466.38
462.558	468.38
462.777	485.38
462.997	487.38
463.217	501.38
463.437	504.38
463.657	499.38
463.876	495.38
464.096	500.38
464.316	513.38
464.536	504.38
464.755	495.38
464.975	475.38
465.195	520.38
465.414	536.38
465.634	489.38
465.854	456.38
466.073	438.38
466.293	423.38
466.512	423.38
466.732	429.38
466.951	419.38
467.171	431.38
467.391	425.38
467.61	408.38
467.829	423.38
468.049	419.38
468.268	413.38
468.488	416.38
468.707	395.38
468.927	400.38
469.146	401.38
469.365	402.38
469.585	408.38
469.804	404.38
470.023	413.38
470.243	414.38
470.462	430.38
470.681	455.38
470.901	452.38
471.12	436.38
471.339	430.38
471.558	447.38
471.777	408.38
471.997	434.38
472.216	418.38
472.435	432.38
472.654	413.38
472.873	408.38
473.092	419.38
473.311	416.38
473.53	445.38
473.749	431.38
473.968	471.38
474.187	548.38
474.406	556.38
474.625	482.38
474.844	442.38
475.063	422.38
475.282	421.38
475.501	425.38
475.72	439.38
475.939	438.38
476.158	425.38
476.377	424.38
476.596	440.38
476.814	444.38
477.033	428.38
477.252	446.38
477.471	448.38
477.69	468.38
477.908	467.38
478.127	440.38
478.346	475.38
478.564	470.38
478.783	471.38
479.002	477.38
479.22	495.38
479.439	474.38
479.658	502.38
479.876	524.38
480.095	509.38
480.313	516.38
480.532	526.38
480.751	540.38
480.969	534.38
481.188	546.38
481.406	553.38
481.624	534.38
481.843	535.38
482.061	500.38
482.28	487.38
482.498	490.38
482.717	485.38
482.935	462.38
483.153	485.38
483.372	499.38
483.59	476.38
483.808	479.38
484.027	493.38
484.245	480.38
484.463	493.38
484.681	495.38
484.9	513.38
485.118	483.38
485.336	506.38
485.554	483.38
485.772	522.38
485.99	512.38
486.209	507.38
486.427	511.38
486.645	498.38
486.863	520.38
487.081	525.38
487.299	527.38
487.517	519.38
487.735	504.38
487.953	514.38
488.171	534.38
488.389	487.38
488.607	513.38
488.825	507.38
489.043	521.38
489.261	527.38
489.479	516.38
489.696	538.38
489.914	510.38
490.132	552.38
490.35	537.38
490.568	570.38
490.786	542.38
491.003	573.38
491.221	566.38
491.439	564.38
491.657	556.38
491.874	597.38
492.092	585.38
492.31	579.38
492.527	575.38
492.745	584.38
492.963	623.38
493.18	607.38
493.398	584.38
493.615	594.38
493.833	580.38
494.05	594.38
494.268	600.38
494.485	590.38
494.703	581.38
494.92	613.38
495.138	605.38
495.355	589.38
495.573	614.38
495.79	620.38
496.008	608.38
496.225	586.38
496.442	618.38
496.66	633.38
496.877	606.38
497.094	605.38
497.312	627.38
497.529	618.38
497.746	662.38
497.963	660.38
498.181	682.38
498.398	668.38
498.615	684.38
498.832	706.38
499.049	726.38
499.267	768.38
499.484	782.38
499.701	794.38
499.918	857.38
500.135	875.38
500.352	912.38
500.569	932.38
500.786	950.38
501.003	926.38
501.22	909.38
501.437	895.38
501.654	804.38
501.871	792.38
502.088	790.38
502.305	733.38
502.522	715.38
502.739	723.38
502.956	700.38
503.172	665.38
503.389	663.38
503.606	632.38
503.823	635.38
504.04	636.38
504.256	622.38
504.473	626.38
504.69	612.38
504.907	597.38
505.123	615.38
505.34	602.38
505.557	600.38
505.773	590.38
505.99	589.38
506.207	564.38
506.423	575.38
506.64	579.38
506.856	568.38
507.073	585.38
507.289	569.38
507.506	550.38
507.722	586.38
507.939	567.38
508.155	559.38
508.372	543.38
508.588	532.38
508.805	535.38
509.021	518.38
509.238	556.38
509.454	562.38
509.67	569.38
509.887	533.38
510.103	517.38
510.319	539.38
510.536	596.38
510.752	877.38
510.968	754.38
511.184	552.38
511.401	521.38
511.617	528.38
511.833	518.38
512.049	519.38
512.265	483.38
512.481	496.38
512.698	520.38
512.914	518.38
513.13	515.38
513.346	496.38
513.562	507.38
513.778	500.38
513.994	514.38
514.21	536.38
514.426	527.38
514.642	534.38
514.858	568.38
515.074	582.38
515.29	671.38
515.506	893.38
515.721	770.38
515.937	602.38
516.153	550.38
516.369	547.38
516.585	544.38
516.801	513.38
517.016	551.38
517.232	540.38
517.448	547.38
517.664	542.38
517.879	549.38
518.095	539.38
518.311	542.38
518.527	504.38
518.742	540.38
518.958	519.38
519.173	520.38
519.389	509.38
519.605	524.38
519.82	480.38
520.036	528.38
520.251	523.38
520.467	538.38
520.682	538.38
520.898	538.38
521.113	548.38
521.329	564.38
521.544	598.38
521.76	756.38
521.975	1085.38
522.19	1047.38
522.406	682.38
522.621	548.38
522.836	521.38
523.052	502.38
523.267	485.38
523.482	483.38
523.698	459.38
523.913	479.38
524.128	449.38
524.343	445.38
524.559	462.38
524.774	452.38
524.989	455.38
525.204	452.38
525.419	444.38
525.634	436.38
525.849	431.38
526.064	426.38
526.28	447.38
526.495	439.38
526.71	436.38
526.925	421.38
527.14	422.38
527.355	400.38
527.57	423.38
527.785	426.38
527.999	428.38
528.214	420.38
528.429	418.38
528.644	443.38
528.859	413.38
529.074	419.38
529.289	429.38
529.503	490.38
529.718	471.38
529.933	440.38
530.148	440.38
530.363	435.38
530.577	418.38
530.792	428.38
531.007	414.38
531.221	415.38
531.436	423.38
531.651	395.38
531.865	427.38
532.08	414.38
532.295	429.38
532.509	397.38
532.724	417.38
532.938	419.38
533.153	408.38
533.367	401.38
533.582	376.38
533.796	407.38
534.011	404.38
534.225	406.38
534.44	373.38
534.654	394.38
534.868	397.38
535.083	398.38
535.297	401.38
535.511	406.38
535.726	407.38
535.94	403.38
536.154	399.38
536.369	392.38
536.583	387.38
536.797	413.38
537.011	377.38
537.225	391.38
537.44	403.38
537.654	390.38
537.868	403.38
538.082	396.38
538.296	381.38
538.51	421.38
538.724	407.38
538.938	410.38
539.153	391.38
539.367	413.38
539.581	398.38
539.795	382.38
540.009	387.38
540.222	401.38
540.436	382.38
540.65	382.38
540.864	392.38
541.078	389.38
541.292	392.38
541.506	391.38
541.72	387.38
541.934	361.38
542.147	394.38
542.361	378.38
542.575	388.38
542.789	385.38
543.002	388.38
543.216	397.38
543.43	403.38
543.644	397.38
543.857	406.38
544.071	390.38
544.285	400.38
544.498	374.38
544.712	382.38
544.925	373.38
545.139	380.38
545.352	365.38
545.566	386.38
545.779	382.38
545.993	377.38
546.206	392.38
546.42	372.38
546.633	379.38
546.847	373.38
547.06	378.38
547.274	390.38
547.487	374.38
547.7	375.38
547.914	366.38
548.127	368.38
548.34	373.38
548.554	378.38
548.767	389.38
548.98	379.38
549.193	373.38
549.407	380.38
549.62	387.38
549.833	371.38
550.046	374.38
550.259	370.38
550.473	358.38
550.686	367.38
550.899	371.38
551.112	378.38
551.325	377.38
551.538	362.38
551.751	379.38
551.964	369.38
552.177	379.38
552.39	379.38
552.603	371.38
552.816	383.38
553.029	382.38
553.242	389.38
553.455	380.38
553.667	392.38
553.88	397.38
554.093	398.38
554.306	374.38
554.519	384.38
554.732	371.38
554.944	379.38
555.157	356.38
555.37	373.38
555.583	363.38
555.795	360.38
556.008	351.38
556.221	339.38
556.433	356.38
556.646	343.38
556.859	337.38
557.071	359.38
557.284	328.38
557.496	346.38
557.709	344.38
557.921	334.38
558.134	352.38
558.346	345.38
558.559	348.38
558.771	345.38
558.984	324.38
559.196	326.38
559.409	344.38
559.621	342.38
559.833	323.38
560.046	322.38
560.258	313.38
560.47	327.38
560.683	325.38
560.895	330.38
561.107	324.38
561.32	338.38
561.532	323.38
561.744	329.38
561.956	331.38
562.168	347.38
562.381	326.38
562.593	341.38
562.805	350.38
563.017	335.38
563.229	328.38
563.441	334.38
563.653	344.38
563.865	334.38
564.077	346.38
564.289	340.38
564.501	355.38
564.713	348.38
564.925	351.38
565.137	360.38
565.349	364.38
565.561	375.38
565.773	373.38
565.985	396.38
566.197	375.38
566.408	402.38
566.62	406.38
566.832	446.38
567.044	424.38
567.255	429.38
567.467	421.38
567.679	434.38
567.891	423.38
568.102	466.38
568.314	462.38
568.526	420.38
568.737	394.38
568.949	390.38
569.161	383.38
569.372	380.38
569.584	350.38
569.795	356.38
570.007	359.38
570.218	369.38
570.43	378.38
570.641	351.38
570.853	340.38
571.064	330.38
571.276	319.38
571.487	319.38
571.698	309.38
571.91	332.38
572.121	323.38
572.333	299.38
572.544	297.38
572.755	296.38
572.966	290.38
573.178	290.38
573.389	309.38
573.6	286.38
573.811	301.38
574.023	316.38
574.234	292.38
574.445	294.38
574.656	290.38
574.867	289.38
575.078	290.38
575.289	304.38
575.501	280.38
575.712	280.38
575.923	285.38
576.134	289.38
576.345	291.38
576.556	283.38
576.767	278.38
576.978	292.38
577.188	275.38
577.399	279.38
577.61	279.38
577.821	290.38
578.032	284.38
578.243	294.38
578.454	398.38
578.665	336.38
578.875	288.38
579.086	283.38
579.297	271.38
579.508	277.38
579.718	285.38
579.929	270.38
580.14	262.38
580.35	259.38
580.561	273.38
580.772	282.38
580.982	273.38
581.193	278.38
581.403	267.38
581.614	272.38
581.825	268.38
582.035	271.38
582.246	266.38
582.456	264.38
582.667	258.38
582.877	266.38
583.087	263.38
583.298	244.38
583.508	263.38
583.719	260.38
583.929	275.38
584.139	266.38
584.35	287.38
584.56	249.38
584.77	254.38
584.981	261.38
585.191	267.38
585.401	265.38
585.611	254.38
585.821	262.38
586.032	250.38
586.242	257.38
586.452	258.38
586.662	238.38
586.872	273.38
587.082	244.38
587.292	268.38
587.502	250.38
587.713	273.38
587.923	251.38
588.133	282.38
588.343	246.38
588.553	248.38
588.762	259.38
588.972	272.38
589.182	268.38
589.392	269.38
589.602	259.38
589.812	254.38
590.022	246.38
590.232	248.38
590.441	240.38
590.651	264.38
590.861	252.38
591.071	248.38
591.281	257.38
591.49	266.38
591.7	253.38
591.91	268.38
592.119	262.38
592.329	258.38
592.539	257.38
592.748	275.38
592.958	260.38
593.167	278.38
593.377	264.38
593.587	281.38
593.796	286.38
594.006	281.38
594.215	268.38
594.424	282.38
594.634	278.38
594.843	287.38
595.053	276.38
595.262	264.38
595.472	256.38
595.681	259.38
595.89	279.38
596.1	245.38
596.309	255.38
596.518	246.38
596.727	227.38
596.937	264.38
597.146	233.38
597.355	240.38
597.564	232.38
597.774	246.38
597.983	232.38
598.192	236.38
598.401	222.38
598.61	221.38
598.819	226.38
599.028	224.38
599.237	222.38
599.446	246.38
599.655	226.38
599.864	235.38
600.073	234.38
600.282	230.38
600.491	237.38
600.7	231.38
600.909	226.38
601.118	230.38
601.327	227.38
601.536	219.38
601.745	222.38
601.953	213.38
602.162	235.38
602.371	219.38
602.58	221.38
602.789	236.38
602.997	222.38
603.206	232.38
603.415	221.38
603.623	211.38
603.832	221.38
604.041	221.38
604.249	206.38
604.458	199.38
604.666	223.38
604.875	217.38
605.084	208.38
605.292	224.38
605.501	219.38
605.709	221.38
605.918	214.38
606.126	222.38
606.334	204.38
606.543	217.38
606.751	213.38
606.96	208.38
607.168	215.38
607.376	204.38
607.585	207.38
607.793	212.38
608.001	222.38
608.21	220.38
608.418	202.38
608.626	209.38
608.834	223.38
609.043	206.38
609.251	223.38
609.459	188.38
609.667	210.38
609.875	204.38
610.083	200.38
610.291	207.38
610.499	214.38
610.707	199.38
610.916	203.38
611.124	223.38
611.332	206.38
611.54	220.38
611.748	213.38
611.955	208.38
612.163	201.38
612.371	200.38
612.579	198.38
612.787	213.38
612.995	210.38
613.203	212.38
613.411	198.38
613.618	212.38
613.826	222.38
614.034	215.38
614.242	218.38
614.449	202.38
614.657	198.38
614.865	200.38
615.072	184.38
615.28	223.38
615.488	206.38
615.695	207.38
615.903	200.38
616.111	210.38
616.318	230.38
616.526	204.38
616.733	227.38
616.941	214.38
617.148	215.38
617.356	210.38
617.563	210.38
617.771	200.38
617.978	184.38
618.185	204.38
618.393	224.38
618.6	211.38
618.807	198.38
619.015	201.38
619.222	203.38
619.429	200.38
619.637	203.38
619.844	196.38
620.051	202.38
620.258	207.38
620.466	182.38
620.673	186.38
620.88	182.38
621.087	189.38
621.294	186.38
621.501	202.38
621.708	199.38
621.915	189.38
622.122	202.38
622.329	198.38
622.536	194.38
622.743	208.38
622.95	197.38
623.157	174.38
623.364	196.38
623.571	191.38
623.778	194.38
623.985	170.38
624.192	186.38
624.399	188.38
624.606	172.38
624.812	187.38
625.019	204.38
625.226	171.38
625.433	186.38
625.639	192.38
625.846	187.38
626.053	183.38
626.259	193.38
626.466	182.38
626.673	195.38
626.879	160.38
627.086	182.38
627.293	171.38
627.499	170.38
627.706	190.38
627.912	183.38
628.119	186.38
628.325	180.38
628.532	178.38
628.738	175.38
628.945	178.38
629.151	176.38
629.357	167.38
629.564	197.38
629.77	173.38
629.976	164.38
630.183	172.38
630.389	153.38
630.595	175.38
630.802	174.38
631.008	167.38
631.214	174.38
631.42	185.38
631.627	182.38
631.833	171.38
632.039	167.38
632.245	184.38
632.451	166.38
632.657	172.38
632.863	163.38
633.069	175.38
633.275	163.38
633.481	166.38
633.688	172.38
633.893	189.38
634.099	171.38
634.305	160.38
634.511	170.38
634.717	178.38
634.923	160.38
635.129	164.38
635.335	163.38
635.541	171.38
635.747	179.38
635.952	147.38
636.158	158.38
636.364	168.38
636.57	184.38
636.775	180.38
636.981	170.38
637.187	158.38
637.392	165.38
637.598	164.38
637.804	173.38
638.009	155.38
638.215	160.38
638.421	156.38
638.626	145.38
638.832	170.38
639.037	161.38
639.243	152.38
639.448	150.38
639.654	166.38
639.859	143.38
640.065	143.38
640.27	152.38
640.475	143.38
640.681	154.38
640.886	171.38
641.091	169.38
641.297	144.38
641.502	167.38
641.707	143.38
641.913	148.38
642.118	151.38
642.323	144.38
642.528	164.38
642.733	153.38
642.939	145.38
643.144	150.38
643.349	146.38
643.554	158.38
643.759	152.38
643.964	155.38
644.169	156.38
644.374	156.38
644.579	159.38
644.784	147.38
644.989	167.38
645.194	168.38
645.399	144.38
645.604	146.38
645.809	156.38
646.014	152.38
646.219	142.38
646.423	152.38
646.628	159.38
646.833	168.38
647.038	159.38
647.243	158.38
647.447	151.38
647.652	130.38
647.857	160.38
648.062	156.38
648.266	147.38
648.471	150.38
648.676	162.38
648.88	159.38
649.085	155.38
649.289	165.38
649.494	147.38
649.698	162.38
649.903	152.38
650.107	149.38
650.312	165.38
650.516	143.38
650.721	143.38
650.925	144.38
651.13	125.38
651.334	139.38
651.539	132.38
651.743	143.38
651.947	141.38
652.152	127.38
652.356	144.38
652.56	154.38
652.764	140.38
652.969	144.38
653.173	135.38
653.377	130.38
653.581	126.38
653.785	125.38
653.99	143.38
654.194	154.38
654.398	130.38
654.602	117.38
654.806	124.38
655.01	128.38
655.214	143.38
655.418	133.38
655.622	128.38
655.826	121.38
656.03	124.38
656.234	140.38
656.438	135.38
656.642	132.38
656.846	118.38
657.049	124.38
657.253	127.38
657.457	105.38
657.661	122.38
657.865	120.38
658.068	121.38
658.272	108.38
658.476	107.38
658.68	100.38
658.883	112.38
659.087	112.38
659.291	110.38
659.494	101.38
659.698	99.38
659.901	92.38
660.105	105.38
660.309	97.38
660.512	81.38
660.716	97.38
660.919	84.38
661.123	100.38
661.326	98.38
661.53	86.38
661.733	82.38
661.936	89.38
662.14	93.38
662.343	77.38
662.546	90.38
662.75	91.38
662.953	104.38
663.156	78.38
663.36	102.38
663.563	92.38
663.766	71.38
663.969	91.38
664.173	92.38
664.376	76.38
664.579	88.38
664.782	80.38
664.985	86.38
665.188	75.38
665.391	74.38
665.594	95.38
665.797	88.38
666	87.38
666.203	84.38
666.406	65.38
666.609	79.38
666.812	95.38
667.015	83.38
667.218	106.38
667.421	93.38
667.624	83.38
667.827	84.38
668.03	84.38
668.232	80.38
668.435	89.38
668.638	74.38
668.841	82.38
669.043	96.38
669.246	84.38
669.449	82.38
669.651	76.38
669.854	74.38
670.057	76.38
670.259	84.38
670.462	80.38
670.665	84.38
670.867	67.38
671.07	81.38
671.272	78.38
671.475	82.38
671.677	90.38
671.88	85.38
672.082	73.38
672.284	87.38
672.487	74.38
672.689	79.38
672.892	91.38
