Data from 1977.PennyLincolnUp.Lamp.En5.5.200Scan.071719.P1_HRD10591_16-06-31-864.txt Node
Date: Thu Jul 18 16:06:31 EDT 2019
User: cochatt
Spectrometer: HR+D1059
Trigger mode: 1
Integration Time (sec): 1.000000E-1
Scans to average: 1
Electric dark correction enabled: true
Nonlinearity correction enabled: false
Boxcar width: 0
XAxis mode: Wavelengths
Number of Pixels in Spectrum: 2048
>>>>>Begin Spectral Data<<<<<
223.165	-15.31
223.4	-15.31
223.635	-15.31
223.869	-23.31
224.104	-18.31
224.338	-14.31
224.573	-17.31
224.808	-9.31
225.042	-3.31
225.277	-10.31
225.511	-6.31
225.746	8.69
225.98	20.69
226.215	14.69
226.449	3.69
226.683	10.69
226.918	28.69
227.152	30.69
227.387	35.69
227.621	29.69
227.856	39.69
228.09	64.69
228.324	53.69
228.559	52.69
228.793	61.69
229.027	90.69
229.262	102.69
229.496	100.69
229.73	109.69
229.964	139.69
230.199	114.69
230.433	100.69
230.667	121.69
230.901	109.69
231.136	101.69
231.37	129.69
231.604	94.69
231.838	98.69
232.072	110.69
232.306	109.69
232.541	105.69
232.775	116.69
233.009	121.69
233.243	110.69
233.477	117.69
233.711	105.69
233.945	113.69
234.179	104.69
234.413	126.69
234.647	114.69
234.881	100.69
235.115	112.69
235.349	116.69
235.583	121.69
235.817	122.69
236.051	124.69
236.285	122.69
236.519	127.69
236.753	129.69
236.987	138.69
237.221	152.69
237.455	200.69
237.689	173.69
237.922	138.69
238.156	130.69
238.39	136.69
238.624	118.69
238.858	130.69
239.091	123.69
239.325	128.69
239.559	128.69
239.793	123.69
240.027	120.69
240.26	139.69
240.494	166.69
240.728	136.69
240.961	139.69
241.195	153.69
241.429	142.69
241.662	140.69
241.896	127.69
242.13	137.69
242.363	142.69
242.597	127.69
242.83	117.69
243.064	123.69
243.298	135.69
243.531	142.69
243.765	133.69
243.998	124.69
244.232	142.69
244.465	143.69
244.699	148.69
244.932	141.69
245.166	135.69
245.399	142.69
245.633	139.69
245.866	151.69
246.099	141.69
246.333	132.69
246.566	138.69
246.8	135.69
247.033	160.69
247.266	152.69
247.5	159.69
247.733	153.69
247.966	170.69
248.2	169.69
248.433	171.69
248.666	156.69
248.899	178.69
249.133	194.69
249.366	193.69
249.599	177.69
249.832	170.69
250.066	178.69
250.299	181.69
250.532	186.69
250.765	196.69
250.998	199.69
251.231	219.69
251.465	205.69
251.698	190.69
251.931	187.69
252.164	190.69
252.397	197.69
252.63	209.69
252.863	198.69
253.096	227.69
253.329	232.69
253.562	228.69
253.795	205.69
254.028	204.69
254.261	197.69
254.494	205.69
254.727	231.69
254.96	251.69
255.193	260.69
255.426	230.69
255.659	223.69
255.892	241.69
256.124	222.69
256.357	221.69
256.59	210.69
256.823	209.69
257.056	205.69
257.289	196.69
257.521	210.69
257.754	221.69
257.987	203.69
258.22	203.69
258.452	214.69
258.685	186.69
258.918	206.69
259.151	206.69
259.383	225.69
259.616	208.69
259.849	209.69
260.081	228.69
260.314	244.69
260.547	252.69
260.779	217.69
261.012	228.69
261.244	205.69
261.477	208.69
261.71	220.69
261.942	222.69
262.175	238.69
262.407	243.69
262.64	222.69
262.872	215.69
263.105	220.69
263.337	200.69
263.57	222.69
263.802	211.69
264.035	227.69
264.267	219.69
264.499	204.69
264.732	212.69
264.964	230.69
265.197	210.69
265.429	213.69
265.661	215.69
265.894	212.69
266.126	227.69
266.358	224.69
266.591	236.69
266.823	224.69
267.055	227.69
267.287	231.69
267.52	250.69
267.752	226.69
267.984	221.69
268.216	224.69
268.448	232.69
268.681	245.69
268.913	241.69
269.145	243.69
269.377	245.69
269.609	267.69
269.841	256.69
270.073	270.69
270.306	282.69
270.538	305.69
270.77	306.69
271.002	305.69
271.234	299.69
271.466	309.69
271.698	288.69
271.93	301.69
272.162	284.69
272.394	338.69
272.626	310.69
272.858	295.69
273.09	278.69
273.322	280.69
273.553	290.69
273.785	279.69
274.017	270.69
274.249	278.69
274.481	278.69
274.713	276.69
274.945	282.69
275.176	270.69
275.408	281.69
275.64	288.69
275.872	278.69
276.104	291.69
276.335	302.69
276.567	262.69
276.799	272.69
277.031	306.69
277.262	309.69
277.494	325.69
277.726	300.69
277.957	290.69
278.189	281.69
278.421	277.69
278.652	292.69
278.884	292.69
279.115	289.69
279.347	284.69
279.579	285.69
279.81	285.69
280.042	284.69
280.273	278.69
280.505	275.69
280.736	288.69
280.968	288.69
281.199	292.69
281.431	268.69
281.662	281.69
281.894	285.69
282.125	281.69
282.356	300.69
282.588	297.69
282.819	307.69
283.051	266.69
283.282	289.69
283.513	293.69
283.745	292.69
283.976	304.69
284.207	304.69
284.439	308.69
284.67	288.69
284.901	312.69
285.132	286.69
285.364	292.69
285.595	289.69
285.826	287.69
286.057	311.69
286.288	311.69
286.52	291.69
286.751	290.69
286.982	286.69
287.213	294.69
287.444	298.69
287.675	329.69
287.906	310.69
288.138	326.69
288.369	337.69
288.6	321.69
288.831	307.69
289.062	321.69
289.293	299.69
289.524	308.69
289.755	309.69
289.986	308.69
290.217	299.69
290.448	297.69
290.679	298.69
290.91	307.69
291.141	298.69
291.371	320.69
291.602	291.69
291.833	308.69
292.064	324.69
292.295	305.69
292.526	316.69
292.757	313.69
292.987	300.69
293.218	315.69
293.449	325.69
293.68	319.69
293.91	302.69
294.141	308.69
294.372	314.69
294.603	294.69
294.833	329.69
295.064	334.69
295.295	329.69
295.525	304.69
295.756	324.69
295.987	320.69
296.217	333.69
296.448	342.69
296.679	339.69
296.909	327.69
297.14	312.69
297.37	313.69
297.601	299.69
297.831	317.69
298.062	322.69
298.292	314.69
298.523	326.69
298.753	344.69
298.984	333.69
299.214	326.69
299.445	312.69
299.675	297.69
299.905	315.69
300.136	326.69
300.366	328.69
300.597	324.69
300.827	335.69
301.057	355.69
301.288	325.69
301.518	348.69
301.748	364.69
301.979	362.69
302.209	342.69
302.439	340.69
302.669	344.69
302.9	346.69
303.13	349.69
303.36	356.69
303.59	362.69
303.82	349.69
304.051	349.69
304.281	354.69
304.511	367.69
304.741	340.69
304.971	354.69
305.201	338.69
305.431	338.69
305.661	348.69
305.891	352.69
306.121	345.69
306.352	366.69
306.582	337.69
306.812	351.69
307.042	345.69
307.272	353.69
307.502	354.69
307.731	356.69
307.961	346.69
308.191	359.69
308.421	339.69
308.651	371.69
308.881	357.69
309.111	365.69
309.341	362.69
309.571	350.69
309.8	354.69
310.03	395.69
310.26	382.69
310.49	359.69
310.72	390.69
310.949	392.69
311.179	406.69
311.409	393.69
311.639	385.69
311.868	373.69
312.098	380.69
312.328	388.69
312.557	398.69
312.787	397.69
313.017	399.69
313.246	382.69
313.476	381.69
313.706	380.69
313.935	398.69
314.165	415.69
314.394	403.69
314.624	393.69
314.853	385.69
315.083	392.69
315.312	404.69
315.542	388.69
315.771	390.69
316.001	399.69
316.23	382.69
316.46	374.69
316.689	371.69
316.919	393.69
317.148	404.69
317.377	376.69
317.607	394.69
317.836	373.69
318.065	389.69
318.295	402.69
318.524	392.69
318.753	382.69
318.983	398.69
319.212	373.69
319.441	408.69
319.67	410.69
319.9	381.69
320.129	378.69
320.358	389.69
320.587	408.69
320.816	398.69
321.046	386.69
321.275	405.69
321.504	415.69
321.733	412.69
321.962	407.69
322.191	434.69
322.42	427.69
322.649	411.69
322.878	449.69
323.108	440.69
323.337	457.69
323.566	470.69
323.795	500.69
324.024	548.69
324.253	607.69
324.482	825.69
324.71	1200.69
324.939	1712.69
325.168	1423.69
325.397	778.69
325.626	583.69
325.855	519.69
326.084	499.69
326.313	484.69
326.542	475.69
326.77	513.69
326.999	574.69
327.228	777.69
327.457	1088.69
327.686	1264.69
327.914	867.69
328.143	615.69
328.372	534.69
328.6	533.69
328.829	515.69
329.058	552.69
329.287	552.69
329.515	494.69
329.744	489.69
329.972	489.69
330.201	502.69
330.43	519.69
330.658	524.69
330.887	552.69
331.115	532.69
331.344	494.69
331.572	466.69
331.801	475.69
332.03	482.69
332.258	462.69
332.486	470.69
332.715	462.69
332.943	465.69
333.172	467.69
333.4	463.69
333.629	475.69
333.857	468.69
334.085	490.69
334.314	507.69
334.542	536.69
334.771	520.69
334.999	499.69
335.227	489.69
335.455	494.69
335.684	488.69
335.912	490.69
336.14	489.69
336.369	470.69
336.597	471.69
336.825	473.69
337.053	449.69
337.281	442.69
337.51	457.69
337.738	469.69
337.966	452.69
338.194	464.69
338.422	473.69
338.65	453.69
338.878	433.69
339.106	455.69
339.334	464.69
339.562	446.69
339.79	434.69
340.018	434.69
340.246	435.69
340.474	452.69
340.702	425.69
340.93	444.69
341.158	453.69
341.386	430.69
341.614	457.69
341.842	429.69
342.07	448.69
342.298	444.69
342.526	410.69
342.754	419.69
342.981	419.69
343.209	421.69
343.437	436.69
343.665	435.69
343.893	453.69
344.12	477.69
344.348	453.69
344.576	446.69
344.804	456.69
345.031	455.69
345.259	445.69
345.487	461.69
345.714	419.69
345.942	427.69
346.17	404.69
346.397	423.69
346.625	425.69
346.853	403.69
347.08	408.69
347.308	395.69
347.535	426.69
347.763	423.69
347.99	429.69
348.218	412.69
348.445	419.69
348.673	426.69
348.9	414.69
349.128	419.69
349.355	408.69
349.583	401.69
349.81	406.69
350.037	401.69
350.265	384.69
350.492	412.69
350.72	406.69
350.947	407.69
351.174	414.69
351.402	409.69
351.629	391.69
351.856	408.69
352.083	395.69
352.311	401.69
352.538	411.69
352.765	412.69
352.992	420.69
353.22	401.69
353.447	388.69
353.674	384.69
353.901	385.69
354.128	407.69
354.355	391.69
354.583	416.69
354.81	391.69
355.037	387.69
355.264	401.69
355.491	395.69
355.718	403.69
355.945	379.69
356.172	384.69
356.399	378.69
356.626	401.69
356.853	374.69
357.08	401.69
357.307	377.69
357.534	382.69
357.761	401.69
357.988	368.69
358.215	375.69
358.441	384.69
358.668	378.69
358.895	388.69
359.122	381.69
359.349	390.69
359.576	412.69
359.802	403.69
360.029	424.69
360.256	418.69
360.483	408.69
360.709	401.69
360.936	389.69
361.163	410.69
361.39	379.69
361.616	393.69
361.843	410.69
362.07	396.69
362.296	410.69
362.523	406.69
362.749	394.69
362.976	397.69
363.203	397.69
363.429	389.69
363.656	392.69
363.882	370.69
364.109	379.69
364.335	398.69
364.562	380.69
364.788	386.69
365.015	399.69
365.241	382.69
365.468	389.69
365.694	406.69
365.92	397.69
366.147	376.69
366.373	388.69
366.599	382.69
366.826	388.69
367.052	363.69
367.278	384.69
367.505	388.69
367.731	398.69
367.957	385.69
368.184	402.69
368.41	378.69
368.636	382.69
368.862	402.69
369.089	407.69
369.315	384.69
369.541	378.69
369.767	398.69
369.993	393.69
370.219	392.69
370.445	378.69
370.672	376.69
370.898	385.69
371.124	380.69
371.35	404.69
371.576	394.69
371.802	406.69
372.028	394.69
372.254	403.69
372.48	389.69
372.706	394.69
372.932	389.69
373.158	386.69
373.384	388.69
373.61	413.69
373.835	392.69
374.061	389.69
374.287	396.69
374.513	386.69
374.739	403.69
374.965	393.69
375.191	418.69
375.416	393.69
375.642	392.69
375.868	393.69
376.094	404.69
376.319	398.69
376.545	396.69
376.771	392.69
376.997	391.69
377.222	396.69
377.448	394.69
377.674	383.69
377.899	371.69
378.125	363.69
378.35	376.69
378.576	376.69
378.802	376.69
379.027	387.69
379.253	394.69
379.478	380.69
379.704	386.69
379.929	397.69
380.155	384.69
380.38	394.69
380.606	388.69
380.831	384.69
381.057	374.69
381.282	368.69
381.507	370.69
381.733	388.69
381.958	374.69
382.184	388.69
382.409	410.69
382.634	377.69
382.86	395.69
383.085	400.69
383.31	395.69
383.535	401.69
383.761	400.69
383.986	417.69
384.211	400.69
384.436	417.69
384.662	408.69
384.887	425.69
385.112	409.69
385.337	439.69
385.562	411.69
385.787	414.69
386.013	427.69
386.238	428.69
386.463	432.69
386.688	432.69
386.913	433.69
387.138	412.69
387.363	422.69
387.588	410.69
387.813	433.69
388.038	430.69
388.263	435.69
388.488	428.69
388.713	424.69
388.938	418.69
389.163	416.69
389.387	428.69
389.612	419.69
389.837	420.69
390.062	434.69
390.287	407.69
390.512	430.69
390.736	425.69
390.961	416.69
391.186	438.69
391.411	443.69
391.636	430.69
391.86	454.69
392.085	442.69
392.31	423.69
392.534	414.69
392.759	423.69
392.984	445.69
393.208	436.69
393.433	433.69
393.658	421.69
393.882	419.69
394.107	419.69
394.331	442.69
394.556	432.69
394.78	454.69
395.005	422.69
395.229	454.69
395.454	455.69
395.678	443.69
395.903	454.69
396.127	481.69
396.352	456.69
396.576	458.69
396.801	446.69
397.025	448.69
397.249	444.69
397.474	423.69
397.698	464.69
397.922	461.69
398.147	467.69
398.371	493.69
398.595	497.69
398.82	466.69
399.044	503.69
399.268	493.69
399.492	534.69
399.717	576.69
399.941	614.69
400.165	598.69
400.389	606.69
400.613	550.69
400.837	496.69
401.062	496.69
401.286	478.69
401.51	488.69
401.734	486.69
401.958	491.69
402.182	512.69
402.406	482.69
402.63	500.69
402.854	495.69
403.078	509.69
403.302	501.69
403.526	499.69
403.75	498.69
403.974	505.69
404.198	530.69
404.422	496.69
404.645	520.69
404.869	515.69
405.093	517.69
405.317	560.69
405.541	601.69
405.765	552.69
405.988	545.69
406.212	541.69
406.436	541.69
406.66	560.69
406.883	548.69
407.107	552.69
407.331	598.69
407.555	666.69
407.778	669.69
408.002	590.69
408.226	554.69
408.449	568.69
408.673	549.69
408.896	580.69
409.12	595.69
409.344	565.69
409.567	527.69
409.791	512.69
410.014	512.69
410.238	493.69
410.461	473.69
410.685	505.69
410.908	503.69
411.132	551.69
411.355	560.69
411.578	535.69
411.802	498.69
412.025	462.69
412.249	489.69
412.472	515.69
412.695	555.69
412.919	547.69
413.142	525.69
413.365	492.69
413.589	487.69
413.812	480.69
414.035	493.69
414.258	470.69
414.482	467.69
414.705	471.69
414.928	471.69
415.151	476.69
415.374	458.69
415.597	457.69
415.821	450.69
416.044	457.69
416.267	440.69
416.49	459.69
416.713	457.69
416.936	470.69
417.159	455.69
417.382	451.69
417.605	482.69
417.828	466.69
418.051	488.69
418.274	500.69
418.497	475.69
418.72	462.69
418.943	453.69
419.166	491.69
419.389	500.69
419.611	506.69
419.834	514.69
420.057	512.69
420.28	481.69
420.503	474.69
420.726	474.69
420.948	493.69
421.171	502.69
421.394	552.69
421.617	508.69
421.839	483.69
422.062	474.69
422.285	484.69
422.507	536.69
422.73	599.69
422.953	583.69
423.175	488.69
423.398	530.69
423.621	503.69
423.843	515.69
424.066	520.69
424.288	523.69
424.511	523.69
424.733	563.69
424.956	628.69
425.178	607.69
425.401	600.69
425.623	602.69
425.846	548.69
426.068	516.69
426.291	481.69
426.513	484.69
426.735	513.69
426.958	536.69
427.18	593.69
427.402	684.69
427.625	778.69
427.847	671.69
428.069	561.69
428.292	532.69
428.514	482.69
428.736	469.69
428.958	469.69
429.181	456.69
429.403	479.69
429.625	470.69
429.847	503.69
430.069	540.69
430.292	524.69
430.514	470.69
430.736	461.69
430.958	463.69
431.18	461.69
431.402	434.69
431.624	438.69
431.846	449.69
432.068	454.69
432.29	420.69
432.512	447.69
432.734	463.69
432.956	440.69
433.178	476.69
433.4	454.69
433.622	446.69
433.844	451.69
434.066	446.69
434.287	462.69
434.509	449.69
434.731	462.69
434.953	458.69
435.175	482.69
435.397	497.69
435.618	502.69
435.84	545.69
436.062	602.69
436.284	644.69
436.505	554.69
436.727	480.69
436.949	479.69
437.17	480.69
437.392	460.69
437.614	457.69
437.835	497.69
438.057	558.69
438.278	613.69
438.5	661.69
438.721	700.69
438.943	692.69
439.165	539.69
439.386	480.69
439.608	491.69
439.829	479.69
440.05	509.69
440.272	540.69
440.493	527.69
440.715	497.69
440.936	482.69
441.158	456.69
441.379	441.69
441.6	476.69
441.822	499.69
442.043	521.69
442.264	576.69
442.486	624.69
442.707	524.69
442.928	504.69
443.149	498.69
443.371	518.69
443.592	575.69
443.813	621.69
444.034	657.69
444.255	588.69
444.476	536.69
444.698	533.69
444.919	523.69
445.14	581.69
445.361	562.69
445.582	535.69
445.803	584.69
446.024	638.69
446.245	648.69
446.466	578.69
446.687	530.69
446.908	494.69
447.129	476.69
447.35	472.69
447.571	440.69
447.792	434.69
448.013	445.69
448.234	482.69
448.455	504.69
448.675	597.69
448.896	674.69
449.117	561.69
449.338	548.69
449.559	643.69
449.779	740.69
450	595.69
450.221	476.69
450.442	474.69
450.662	434.69
450.883	420.69
451.104	421.69
451.324	453.69
451.545	435.69
451.766	421.69
451.986	387.69
452.207	434.69
452.428	394.69
452.648	427.69
452.869	402.69
453.089	422.69
453.31	414.69
453.53	398.69
453.751	398.69
453.971	403.69
454.192	409.69
454.412	398.69
454.633	389.69
454.853	389.69
455.073	406.69
455.294	417.69
455.514	484.69
455.734	482.69
455.955	412.69
456.175	396.69
456.395	398.69
456.616	382.69
456.836	404.69
457.056	392.69
457.276	377.69
457.497	378.69
457.717	384.69
457.937	379.69
458.157	403.69
458.377	412.69
458.598	417.69
458.818	446.69
459.038	522.69
459.258	516.69
459.478	455.69
459.698	438.69
459.918	440.69
460.138	435.69
460.358	465.69
460.578	452.69
460.798	457.69
461.018	475.69
461.238	463.69
461.458	457.69
461.678	447.69
461.898	458.69
462.118	444.69
462.338	481.69
462.558	472.69
462.777	505.69
462.997	514.69
463.217	519.69
463.437	526.69
463.657	516.69
463.876	489.69
464.096	487.69
464.316	510.69
464.536	486.69
464.755	486.69
464.975	483.69
465.195	493.69
465.414	541.69
465.634	501.69
465.854	462.69
466.073	450.69
466.293	415.69
466.512	426.69
466.732	420.69
466.951	433.69
467.171	419.69
467.391	419.69
467.61	422.69
467.829	430.69
468.049	411.69
468.268	420.69
468.488	406.69
468.707	392.69
468.927	409.69
469.146	420.69
469.365	406.69
469.585	410.69
469.804	426.69
470.023	437.69
470.243	445.69
470.462	436.69
470.681	433.69
470.901	433.69
471.12	430.69
471.339	412.69
471.558	425.69
471.777	418.69
471.997	420.69
472.216	420.69
472.435	444.69
472.654	421.69
472.873	421.69
473.092	405.69
473.311	407.69
473.53	412.69
473.749	426.69
473.968	453.69
474.187	527.69
474.406	561.69
474.625	485.69
474.844	432.69
475.063	426.69
475.282	433.69
475.501	432.69
475.72	429.69
475.939	423.69
476.158	446.69
476.377	433.69
476.596	426.69
476.814	451.69
477.033	429.69
477.252	454.69
477.471	455.69
477.69	450.69
477.908	475.69
478.127	471.69
478.346	454.69
478.564	452.69
478.783	471.69
479.002	480.69
479.22	473.69
479.439	484.69
479.658	504.69
479.876	537.69
480.095	501.69
480.313	520.69
480.532	520.69
480.751	519.69
480.969	535.69
481.188	548.69
481.406	541.69
481.624	523.69
481.843	507.69
482.061	488.69
482.28	496.69
482.498	479.69
482.717	512.69
482.935	484.69
483.153	496.69
483.372	491.69
483.59	484.69
483.808	477.69
484.027	461.69
484.245	494.69
484.463	495.69
484.681	488.69
484.9	488.69
485.118	471.69
485.336	508.69
485.554	498.69
485.772	506.69
485.99	497.69
486.209	485.69
486.427	505.69
486.645	516.69
486.863	529.69
487.081	515.69
487.299	516.69
487.517	521.69
487.735	504.69
487.953	524.69
488.171	527.69
488.389	507.69
488.607	534.69
488.825	529.69
489.043	503.69
489.261	517.69
489.479	530.69
489.696	534.69
489.914	531.69
490.132	512.69
490.35	558.69
490.568	545.69
490.786	545.69
491.003	563.69
491.221	548.69
491.439	572.69
491.657	593.69
491.874	572.69
492.092	580.69
492.31	596.69
492.527	590.69
492.745	600.69
492.963	602.69
493.18	574.69
493.398	603.69
493.615	597.69
493.833	583.69
494.05	569.69
494.268	589.69
494.485	584.69
494.703	600.69
494.92	601.69
495.138	606.69
495.355	600.69
495.573	605.69
495.79	594.69
496.008	619.69
496.225	606.69
496.442	598.69
496.66	610.69
496.877	595.69
497.094	603.69
497.312	635.69
497.529	613.69
497.746	639.69
497.963	654.69
498.181	663.69
498.398	667.69
498.615	691.69
498.832	707.69
499.049	721.69
499.267	732.69
499.484	784.69
499.701	834.69
499.918	852.69
500.135	895.69
500.352	939.69
500.569	980.69
500.786	926.69
501.003	935.69
501.22	894.69
501.437	859.69
501.654	846.69
501.871	803.69
502.088	766.69
502.305	740.69
502.522	696.69
502.739	713.69
502.956	694.69
503.172	661.69
503.389	617.69
503.606	647.69
503.823	644.69
504.04	636.69
504.256	634.69
504.473	628.69
504.69	645.69
504.907	614.69
505.123	593.69
505.34	609.69
505.557	596.69
505.773	589.69
505.99	570.69
506.207	576.69
506.423	576.69
506.64	584.69
506.856	559.69
507.073	546.69
507.289	578.69
507.506	558.69
507.722	558.69
507.939	568.69
508.155	538.69
508.372	529.69
508.588	552.69
508.805	524.69
509.021	563.69
509.238	563.69
509.454	572.69
509.67	536.69
509.887	565.69
510.103	527.69
510.319	536.69
510.536	616.69
510.752	870.69
510.968	713.69
511.184	540.69
511.401	516.69
511.617	510.69
511.833	503.69
512.049	514.69
512.265	516.69
512.481	528.69
512.698	502.69
512.914	493.69
513.13	507.69
513.346	502.69
513.562	513.69
513.778	506.69
513.994	510.69
514.21	488.69
514.426	514.69
514.642	562.69
514.858	554.69
515.074	579.69
515.29	644.69
515.506	849.69
515.721	724.69
515.937	571.69
516.153	538.69
516.369	525.69
516.585	535.69
516.801	527.69
517.016	529.69
517.232	541.69
517.448	539.69
517.664	562.69
517.879	560.69
518.095	550.69
518.311	568.69
518.527	518.69
518.742	532.69
518.958	545.69
519.173	526.69
519.389	536.69
519.605	516.69
519.82	522.69
520.036	551.69
520.251	525.69
520.467	548.69
520.682	510.69
520.898	534.69
521.113	527.69
521.329	546.69
521.544	599.69
521.76	714.69
521.975	1058.69
522.19	1000.69
522.406	609.69
522.621	538.69
522.836	512.69
523.052	501.69
523.267	486.69
523.482	473.69
523.698	439.69
523.913	455.69
524.128	471.69
524.343	453.69
524.559	444.69
524.774	437.69
524.989	423.69
525.204	418.69
525.419	442.69
525.634	419.69
525.849	444.69
526.064	436.69
526.28	446.69
526.495	415.69
526.71	428.69
526.925	413.69
527.14	438.69
527.355	422.69
527.57	410.69
527.785	413.69
527.999	418.69
528.214	438.69
528.429	427.69
528.644	382.69
528.859	434.69
529.074	420.69
529.289	444.69
529.503	478.69
529.718	451.69
529.933	424.69
530.148	435.69
530.363	427.69
530.577	434.69
530.792	424.69
531.007	388.69
531.221	408.69
531.436	432.69
531.651	420.69
531.865	423.69
532.08	405.69
532.295	398.69
532.509	413.69
532.724	398.69
532.938	410.69
533.153	410.69
533.367	413.69
533.582	421.69
533.796	406.69
534.011	401.69
534.225	412.69
534.44	419.69
534.654	402.69
534.868	422.69
535.083	420.69
535.297	414.69
535.511	404.69
535.726	408.69
535.94	404.69
536.154	397.69
536.369	394.69
536.583	379.69
536.797	398.69
537.011	386.69
537.225	388.69
537.44	396.69
537.654	385.69
537.868	387.69
538.082	380.69
538.296	380.69
538.51	401.69
538.724	396.69
538.938	390.69
539.153	401.69
539.367	392.69
539.581	389.69
539.795	377.69
540.009	397.69
540.222	372.69
540.436	374.69
540.65	387.69
540.864	407.69
541.078	387.69
541.292	400.69
541.506	396.69
541.72	395.69
541.934	387.69
542.147	388.69
542.361	387.69
542.575	377.69
542.789	385.69
543.002	384.69
543.216	387.69
543.43	387.69
543.644	413.69
543.857	389.69
544.071	394.69
544.285	393.69
544.498	376.69
544.712	410.69
544.925	378.69
545.139	390.69
545.352	403.69
545.566	391.69
545.779	372.69
545.993	386.69
546.206	386.69
546.42	385.69
546.633	370.69
546.847	366.69
547.06	387.69
547.274	386.69
547.487	398.69
547.7	399.69
547.914	388.69
548.127	371.69
548.34	377.69
548.554	377.69
548.767	380.69
548.98	377.69
549.193	378.69
549.407	396.69
549.62	402.69
549.833	378.69
550.046	377.69
550.259	371.69
550.473	367.69
550.686	357.69
550.899	380.69
551.112	378.69
551.325	384.69
551.538	389.69
551.751	361.69
551.964	382.69
552.177	396.69
552.39	366.69
552.603	380.69
552.816	368.69
553.029	393.69
553.242	402.69
553.455	386.69
553.667	398.69
553.88	399.69
554.093	383.69
554.306	381.69
554.519	380.69
554.732	378.69
554.944	353.69
555.157	359.69
555.37	366.69
555.583	360.69
555.795	368.69
556.008	357.69
556.221	343.69
556.433	347.69
556.646	336.69
556.859	351.69
557.071	355.69
557.284	344.69
557.496	339.69
557.709	339.69
557.921	339.69
558.134	324.69
558.346	352.69
558.559	327.69
558.771	334.69
558.984	342.69
559.196	333.69
559.409	309.69
559.621	349.69
559.833	315.69
560.046	320.69
560.258	323.69
560.47	331.69
560.683	332.69
560.895	335.69
561.107	331.69
561.32	334.69
561.532	340.69
561.744	337.69
561.956	336.69
562.168	326.69
562.381	340.69
562.593	331.69
562.805	334.69
563.017	338.69
563.229	336.69
563.441	356.69
563.653	352.69
563.865	353.69
564.077	343.69
564.289	340.69
564.501	360.69
564.713	356.69
564.925	349.69
565.137	361.69
565.349	369.69
565.561	373.69
565.773	369.69
565.985	372.69
566.197	394.69
566.408	404.69
566.62	395.69
566.832	428.69
567.044	427.69
567.255	432.69
567.467	443.69
567.679	440.69
567.891	476.69
568.102	451.69
568.314	440.69
568.526	436.69
568.737	424.69
568.949	412.69
569.161	377.69
569.372	349.69
569.584	362.69
569.795	339.69
570.007	378.69
570.218	372.69
570.43	350.69
570.641	342.69
570.853	358.69
571.064	335.69
571.276	324.69
571.487	326.69
571.698	338.69
571.91	342.69
572.121	324.69
572.333	306.69
572.544	310.69
572.755	327.69
572.966	313.69
573.178	319.69
573.389	313.69
573.6	308.69
573.811	288.69
574.023	317.69
574.234	305.69
574.445	304.69
574.656	304.69
574.867	304.69
575.078	295.69
575.289	290.69
575.501	299.69
575.712	311.69
575.923	285.69
576.134	291.69
576.345	291.69
576.556	270.69
576.767	286.69
576.978	262.69
577.188	300.69
577.399	266.69
577.61	296.69
577.821	280.69
578.032	284.69
578.243	300.69
578.454	418.69
578.665	317.69
578.875	290.69
579.086	262.69
579.297	282.69
579.508	275.69
579.718	266.69
579.929	267.69
580.14	266.69
580.35	267.69
580.561	257.69
580.772	271.69
580.982	280.69
581.193	260.69
581.403	269.69
581.614	281.69
581.825	285.69
582.035	275.69
582.246	268.69
582.456	256.69
582.667	280.69
582.877	259.69
583.087	256.69
583.298	246.69
583.508	254.69
583.719	267.69
583.929	248.69
584.139	257.69
584.35	272.69
584.56	268.69
584.77	254.69
584.981	269.69
585.191	262.69
585.401	264.69
585.611	254.69
585.821	252.69
586.032	254.69
586.242	246.69
586.452	252.69
586.662	256.69
586.872	250.69
587.082	246.69
587.292	237.69
587.502	251.69
587.713	248.69
587.923	261.69
588.133	244.69
588.343	257.69
588.553	271.69
588.762	245.69
588.972	259.69
589.182	260.69
589.392	241.69
589.602	264.69
589.812	236.69
590.022	258.69
590.232	276.69
590.441	257.69
590.651	266.69
590.861	233.69
591.071	260.69
591.281	270.69
591.49	261.69
591.7	260.69
591.91	262.69
592.119	281.69
592.329	282.69
592.539	272.69
592.748	269.69
592.958	277.69
593.167	271.69
593.377	288.69
593.587	297.69
593.796	275.69
594.006	280.69
594.215	290.69
594.424	285.69
594.634	284.69
594.843	267.69
595.053	275.69
595.262	282.69
595.472	278.69
595.681	264.69
595.89	250.69
596.1	256.69
596.309	260.69
596.518	243.69
596.727	250.69
596.937	244.69
597.146	245.69
597.355	244.69
597.564	240.69
597.774	234.69
597.983	239.69
598.192	259.69
598.401	221.69
598.61	239.69
598.819	225.69
599.028	234.69
599.237	224.69
599.446	251.69
599.655	240.69
599.864	240.69
600.073	234.69
600.282	233.69
600.491	208.69
600.7	236.69
600.909	225.69
601.118	225.69
601.327	221.69
601.536	212.69
601.745	218.69
601.953	228.69
602.162	223.69
602.371	228.69
602.58	209.69
602.789	212.69
602.997	225.69
603.206	225.69
603.415	199.69
603.623	217.69
603.832	230.69
604.041	213.69
604.249	222.69
604.458	217.69
604.666	211.69
604.875	205.69
605.084	227.69
605.292	218.69
605.501	212.69
605.709	221.69
605.918	213.69
606.126	230.69
606.334	203.69
606.543	211.69
606.751	212.69
606.96	215.69
607.168	203.69
607.376	206.69
607.585	211.69
607.793	214.69
608.001	211.69
608.21	221.69
608.418	215.69
608.626	205.69
608.834	210.69
609.043	215.69
609.251	216.69
609.459	210.69
609.667	217.69
609.875	193.69
610.083	220.69
610.291	221.69
610.499	224.69
610.707	214.69
610.916	206.69
611.124	227.69
611.332	230.69
611.54	207.69
611.748	224.69
611.955	218.69
612.163	209.69
612.371	218.69
612.579	214.69
612.787	220.69
612.995	212.69
613.203	203.69
613.411	213.69
613.618	210.69
613.826	211.69
614.034	203.69
614.242	206.69
614.449	214.69
614.657	181.69
614.865	203.69
615.072	216.69
615.28	205.69
615.488	197.69
615.695	218.69
615.903	203.69
616.111	212.69
616.318	227.69
616.526	202.69
616.733	212.69
616.941	212.69
617.148	202.69
617.356	212.69
617.563	226.69
617.771	214.69
617.978	210.69
618.185	213.69
618.393	200.69
618.6	201.69
618.807	185.69
619.015	199.69
619.222	210.69
619.429	206.69
619.637	211.69
619.844	189.69
620.051	198.69
620.258	189.69
620.466	212.69
620.673	207.69
620.88	189.69
621.087	178.69
621.294	196.69
621.501	203.69
621.708	206.69
621.915	195.69
622.122	193.69
622.329	180.69
622.536	184.69
622.743	198.69
622.95	208.69
623.157	184.69
623.364	181.69
623.571	185.69
623.778	199.69
623.985	185.69
624.192	170.69
624.399	189.69
624.606	191.69
624.812	197.69
625.019	181.69
625.226	191.69
625.433	188.69
625.639	184.69
625.846	172.69
626.053	196.69
626.259	181.69
626.466	176.69
626.673	190.69
626.879	174.69
627.086	194.69
627.293	185.69
627.499	181.69
627.706	193.69
627.912	179.69
628.119	184.69
628.325	176.69
628.532	170.69
628.738	163.69
628.945	187.69
629.151	186.69
629.357	172.69
629.564	172.69
629.77	173.69
629.976	183.69
630.183	164.69
630.389	164.69
630.595	167.69
630.802	174.69
631.008	180.69
631.214	186.69
631.42	178.69
631.627	172.69
631.833	184.69
632.039	164.69
632.245	173.69
632.451	163.69
632.657	156.69
632.863	164.69
633.069	165.69
633.275	178.69
633.481	162.69
633.688	152.69
633.893	172.69
634.099	170.69
634.305	170.69
634.511	173.69
634.717	170.69
634.923	167.69
635.129	187.69
635.335	166.69
635.541	167.69
635.747	164.69
635.952	158.69
636.158	142.69
636.364	172.69
636.57	155.69
636.775	169.69
636.981	166.69
637.187	158.69
637.392	154.69
637.598	172.69
637.804	160.69
638.009	151.69
638.215	179.69
638.421	164.69
638.626	157.69
638.832	150.69
639.037	152.69
639.243	158.69
639.448	156.69
639.654	143.69
639.859	152.69
640.065	142.69
640.27	157.69
640.475	150.69
640.681	152.69
640.886	161.69
641.091	148.69
641.297	156.69
641.502	141.69
641.707	157.69
641.913	162.69
642.118	145.69
642.323	155.69
642.528	155.69
642.733	159.69
642.939	153.69
643.144	153.69
643.349	155.69
643.554	156.69
643.759	133.69
643.964	166.69
644.169	155.69
644.374	139.69
644.579	154.69
644.784	141.69
644.989	154.69
645.194	149.69
645.399	149.69
645.604	141.69
645.809	143.69
646.014	154.69
646.219	142.69
646.423	164.69
646.628	146.69
646.833	153.69
647.038	139.69
647.243	152.69
647.447	149.69
647.652	159.69
647.857	135.69
648.062	158.69
648.266	164.69
648.471	150.69
648.676	162.69
648.88	162.69
649.085	151.69
649.289	166.69
649.494	144.69
649.698	174.69
649.903	165.69
650.107	155.69
650.312	155.69
650.516	153.69
650.721	152.69
650.925	149.69
651.13	142.69
651.334	135.69
651.539	146.69
651.743	142.69
651.947	152.69
652.152	132.69
652.356	140.69
652.56	142.69
652.764	136.69
652.969	150.69
653.173	121.69
653.377	114.69
653.581	127.69
653.785	125.69
653.99	118.69
654.194	128.69
654.398	122.69
654.602	142.69
654.806	127.69
655.01	123.69
655.214	120.69
655.418	133.69
655.622	135.69
655.826	136.69
656.03	137.69
656.234	131.69
656.438	128.69
656.642	125.69
656.846	125.69
657.049	123.69
657.253	117.69
657.457	113.69
657.661	131.69
657.865	109.69
658.068	102.69
658.272	113.69
658.476	102.69
658.68	116.69
658.883	101.69
659.087	84.69
659.291	101.69
659.494	96.69
659.698	96.69
659.901	86.69
660.105	92.69
660.309	110.69
660.512	84.69
660.716	76.69
660.919	91.69
661.123	75.69
661.326	93.69
661.53	98.69
661.733	69.69
661.936	106.69
662.14	87.69
662.343	98.69
662.546	84.69
662.75	94.69
662.953	83.69
663.156	102.69
663.36	91.69
663.563	77.69
663.766	81.69
663.969	91.69
664.173	66.69
664.376	87.69
664.579	92.69
664.782	81.69
664.985	80.69
665.188	85.69
665.391	66.69
665.594	85.69
665.797	94.69
666	88.69
666.203	76.69
666.406	87.69
666.609	86.69
666.812	74.69
667.015	72.69
667.218	91.69
667.421	85.69
667.624	82.69
667.827	71.69
668.03	84.69
668.232	92.69
668.435	87.69
668.638	88.69
668.841	71.69
669.043	75.69
669.246	78.69
669.449	86.69
669.651	101.69
669.854	81.69
670.057	84.69
670.259	81.69
670.462	88.69
670.665	91.69
670.867	84.69
671.07	73.69
671.272	66.69
671.475	75.69
671.677	75.69
671.88	93.69
672.082	76.69
672.284	85.69
672.487	76.69
672.689	74.69
672.892	78.69
