Data from 1977.PennyLincolnUp.Lamp.En5.5.200Scan.071719.P1_HRD10591_16-07-55-865.txt Node
Date: Thu Jul 18 16:07:55 EDT 2019
User: cochatt
Spectrometer: HR+D1059
Trigger mode: 1
Integration Time (sec): 1.000000E-1
Scans to average: 1
Electric dark correction enabled: true
Nonlinearity correction enabled: false
Boxcar width: 0
XAxis mode: Wavelengths
Number of Pixels in Spectrum: 2048
>>>>>Begin Spectral Data<<<<<
223.165	-10.62
223.4	-10.62
223.635	-10.62
223.869	-23.62
224.104	-23.62
224.338	-15.62
224.573	-4.62
224.808	-10.62
225.042	-8.62
225.277	1.38
225.511	-0.62
225.746	-10.62
225.98	6.38
226.215	13.38
226.449	17.38
226.683	15.38
226.918	19.38
227.152	35.38
227.387	21.38
227.621	46.38
227.856	50.38
228.09	49.38
228.324	50.38
228.559	58.38
228.793	63.38
229.027	98.38
229.262	112.38
229.496	109.38
229.73	123.38
229.964	161.38
230.199	130.38
230.433	115.38
230.667	107.38
230.901	92.38
231.136	120.38
231.37	105.38
231.604	125.38
231.838	114.38
232.072	139.38
232.306	116.38
232.541	123.38
232.775	115.38
233.009	116.38
233.243	121.38
233.477	123.38
233.711	131.38
233.945	104.38
234.179	109.38
234.413	135.38
234.647	130.38
234.881	126.38
235.115	132.38
235.349	106.38
235.583	125.38
235.817	118.38
236.051	131.38
236.285	132.38
236.519	123.38
236.753	140.38
236.987	132.38
237.221	179.38
237.455	202.38
237.689	171.38
237.922	140.38
238.156	138.38
238.39	129.38
238.624	145.38
238.858	138.38
239.091	137.38
239.325	129.38
239.559	131.38
239.793	129.38
240.027	124.38
240.26	140.38
240.494	161.38
240.728	143.38
240.961	167.38
241.195	165.38
241.429	135.38
241.662	144.38
241.896	138.38
242.13	133.38
242.363	139.38
242.597	143.38
242.83	137.38
243.064	141.38
243.298	125.38
243.531	140.38
243.765	137.38
243.998	132.38
244.232	137.38
244.465	150.38
244.699	161.38
244.932	141.38
245.166	144.38
245.399	143.38
245.633	163.38
245.866	161.38
246.099	154.38
246.333	163.38
246.566	149.38
246.8	143.38
247.033	162.38
247.266	153.38
247.5	141.38
247.733	178.38
247.966	176.38
248.2	164.38
248.433	162.38
248.666	182.38
248.899	203.38
249.133	203.38
249.366	199.38
249.599	176.38
249.832	167.38
250.066	196.38
250.299	186.38
250.532	189.38
250.765	202.38
250.998	218.38
251.231	226.38
251.465	224.38
251.698	208.38
251.931	211.38
252.164	191.38
252.397	203.38
252.63	207.38
252.863	218.38
253.096	199.38
253.329	218.38
253.562	226.38
253.795	232.38
254.028	211.38
254.261	218.38
254.494	233.38
254.727	252.38
254.96	267.38
255.193	284.38
255.426	251.38
255.659	236.38
255.892	233.38
256.124	225.38
256.357	249.38
256.59	212.38
256.823	229.38
257.056	223.38
257.289	225.38
257.521	209.38
257.754	236.38
257.987	218.38
258.22	227.38
258.452	209.38
258.685	216.38
258.918	220.38
259.151	235.38
259.383	227.38
259.616	231.38
259.849	228.38
260.081	237.38
260.314	248.38
260.547	261.38
260.779	249.38
261.012	242.38
261.244	224.38
261.477	240.38
261.71	238.38
261.942	244.38
262.175	236.38
262.407	232.38
262.64	219.38
262.872	211.38
263.105	215.38
263.337	226.38
263.57	231.38
263.802	236.38
264.035	215.38
264.267	221.38
264.499	231.38
264.732	222.38
264.964	227.38
265.197	210.38
265.429	209.38
265.661	232.38
265.894	234.38
266.126	238.38
266.358	220.38
266.591	243.38
266.823	215.38
267.055	244.38
267.287	242.38
267.52	258.38
267.752	237.38
267.984	255.38
268.216	258.38
268.448	224.38
268.681	244.38
268.913	266.38
269.145	274.38
269.377	312.38
269.609	301.38
269.841	280.38
270.073	295.38
270.306	319.38
270.538	289.38
270.77	313.38
271.002	311.38
271.234	307.38
271.466	317.38
271.698	333.38
271.93	324.38
272.162	327.38
272.394	308.38
272.626	319.38
272.858	279.38
273.09	283.38
273.322	290.38
273.553	268.38
273.785	284.38
274.017	295.38
274.249	260.38
274.481	279.38
274.713	274.38
274.945	293.38
275.176	291.38
275.408	280.38
275.64	283.38
275.872	286.38
276.104	279.38
276.335	291.38
276.567	293.38
276.799	288.38
277.031	303.38
277.262	316.38
277.494	312.38
277.726	304.38
277.957	292.38
278.189	297.38
278.421	297.38
278.652	277.38
278.884	280.38
279.115	288.38
279.347	311.38
279.579	280.38
279.81	292.38
280.042	292.38
280.273	280.38
280.505	304.38
280.736	294.38
280.968	288.38
281.199	311.38
281.431	301.38
281.662	308.38
281.894	300.38
282.125	292.38
282.356	291.38
282.588	317.38
282.819	322.38
283.051	304.38
283.282	291.38
283.513	293.38
283.745	312.38
283.976	308.38
284.207	315.38
284.439	294.38
284.67	301.38
284.901	304.38
285.132	286.38
285.364	297.38
285.595	300.38
285.826	304.38
286.057	315.38
286.288	296.38
286.52	292.38
286.751	305.38
286.982	320.38
287.213	298.38
287.444	312.38
287.675	335.38
287.906	318.38
288.138	319.38
288.369	323.38
288.6	350.38
288.831	304.38
289.062	323.38
289.293	325.38
289.524	308.38
289.755	328.38
289.986	313.38
290.217	318.38
290.448	319.38
290.679	314.38
290.91	302.38
291.141	320.38
291.371	325.38
291.602	339.38
291.833	323.38
292.064	332.38
292.295	323.38
292.526	323.38
292.757	315.38
292.987	329.38
293.218	319.38
293.449	315.38
293.68	324.38
293.91	329.38
294.141	320.38
294.372	340.38
294.603	316.38
294.833	296.38
295.064	324.38
295.295	315.38
295.525	331.38
295.756	331.38
295.987	309.38
296.217	340.38
296.448	339.38
296.679	343.38
296.909	327.38
297.14	319.38
297.37	344.38
297.601	325.38
297.831	345.38
298.062	329.38
298.292	331.38
298.523	344.38
298.753	335.38
298.984	329.38
299.214	338.38
299.445	327.38
299.675	365.38
299.905	340.38
300.136	336.38
300.366	348.38
300.597	344.38
300.827	351.38
301.057	379.38
301.288	359.38
301.518	352.38
301.748	365.38
301.979	353.38
302.209	373.38
302.439	357.38
302.669	347.38
302.9	356.38
303.13	337.38
303.36	356.38
303.59	372.38
303.82	344.38
304.051	361.38
304.281	370.38
304.511	352.38
304.741	347.38
304.971	349.38
305.201	338.38
305.431	352.38
305.661	357.38
305.891	378.38
306.121	353.38
306.352	353.38
306.582	365.38
306.812	345.38
307.042	380.38
307.272	362.38
307.502	352.38
307.731	366.38
307.961	350.38
308.191	367.38
308.421	360.38
308.651	370.38
308.881	371.38
309.111	356.38
309.341	363.38
309.571	368.38
309.8	363.38
310.03	380.38
310.26	391.38
310.49	400.38
310.72	391.38
310.949	425.38
311.179	415.38
311.409	407.38
311.639	397.38
311.868	395.38
312.098	393.38
312.328	397.38
312.557	397.38
312.787	417.38
313.017	412.38
313.246	401.38
313.476	387.38
313.706	420.38
313.935	407.38
314.165	406.38
314.394	399.38
314.624	423.38
314.853	435.38
315.083	401.38
315.312	401.38
315.542	416.38
315.771	405.38
316.001	399.38
316.23	408.38
316.46	398.38
316.689	409.38
316.919	419.38
317.148	395.38
317.377	393.38
317.607	418.38
317.836	409.38
318.065	414.38
318.295	395.38
318.524	399.38
318.753	388.38
318.983	402.38
319.212	396.38
319.441	398.38
319.67	417.38
319.9	394.38
320.129	412.38
320.358	405.38
320.587	417.38
320.816	417.38
321.046	394.38
321.275	406.38
321.504	414.38
321.733	420.38
321.962	415.38
322.191	460.38
322.42	437.38
322.649	453.38
322.878	449.38
323.108	461.38
323.337	500.38
323.566	484.38
323.795	533.38
324.024	569.38
324.253	639.38
324.482	878.38
324.71	1301.38
324.939	1805.38
325.168	1578.38
325.397	840.38
325.626	594.38
325.855	533.38
326.084	494.38
326.313	516.38
326.542	487.38
326.77	541.38
326.999	628.38
327.228	807.38
327.457	1168.38
327.686	1397.38
327.914	937.38
328.143	647.38
328.372	592.38
328.6	551.38
328.829	551.38
329.058	526.38
329.287	552.38
329.515	532.38
329.744	495.38
329.972	492.38
330.201	519.38
330.43	556.38
330.658	555.38
330.887	581.38
331.115	585.38
331.344	518.38
331.572	506.38
331.801	505.38
332.03	501.38
332.258	488.38
332.486	464.38
332.715	455.38
332.943	467.38
333.172	480.38
333.4	483.38
333.629	493.38
333.857	504.38
334.085	516.38
334.314	526.38
334.542	545.38
334.771	551.38
334.999	521.38
335.227	499.38
335.455	492.38
335.684	473.38
335.912	478.38
336.14	479.38
336.369	467.38
336.597	490.38
336.825	464.38
337.053	462.38
337.281	452.38
337.51	468.38
337.738	482.38
337.966	460.38
338.194	473.38
338.422	481.38
338.65	466.38
338.878	465.38
339.106	459.38
339.334	439.38
339.562	446.38
339.79	432.38
340.018	443.38
340.246	455.38
340.474	450.38
340.702	442.38
340.93	470.38
341.158	447.38
341.386	436.38
341.614	451.38
341.842	472.38
342.07	450.38
342.298	434.38
342.526	425.38
342.754	436.38
342.981	453.38
343.209	452.38
343.437	448.38
343.665	466.38
343.893	475.38
344.12	488.38
344.348	478.38
344.576	465.38
344.804	458.38
345.031	456.38
345.259	456.38
345.487	446.38
345.714	435.38
345.942	419.38
346.17	440.38
346.397	421.38
346.625	436.38
346.853	420.38
347.08	430.38
347.308	429.38
347.535	433.38
347.763	455.38
347.99	428.38
348.218	441.38
348.445	413.38
348.673	417.38
348.9	424.38
349.128	426.38
349.355	426.38
349.583	420.38
349.81	411.38
350.037	418.38
350.265	419.38
350.492	416.38
350.72	385.38
350.947	416.38
351.174	437.38
351.402	443.38
351.629	442.38
351.856	441.38
352.083	436.38
352.311	429.38
352.538	431.38
352.765	432.38
352.992	431.38
353.22	426.38
353.447	421.38
353.674	423.38
353.901	398.38
354.128	405.38
354.355	406.38
354.583	392.38
354.81	402.38
355.037	405.38
355.264	397.38
355.491	388.38
355.718	387.38
355.945	395.38
356.172	413.38
356.399	390.38
356.626	387.38
356.853	368.38
357.08	397.38
357.307	388.38
357.534	411.38
357.761	401.38
357.988	394.38
358.215	411.38
358.441	403.38
358.668	387.38
358.895	417.38
359.122	409.38
359.349	397.38
359.576	440.38
359.802	450.38
360.029	462.38
360.256	463.38
360.483	442.38
360.709	436.38
360.936	425.38
361.163	423.38
361.39	409.38
361.616	417.38
361.843	399.38
362.07	399.38
362.296	400.38
362.523	401.38
362.749	423.38
362.976	409.38
363.203	412.38
363.429	400.38
363.656	415.38
363.882	412.38
364.109	397.38
364.335	405.38
364.562	394.38
364.788	377.38
365.015	390.38
365.241	391.38
365.468	403.38
365.694	385.38
365.92	404.38
366.147	380.38
366.373	384.38
366.599	386.38
366.826	388.38
367.052	396.38
367.278	382.38
367.505	397.38
367.731	389.38
367.957	393.38
368.184	381.38
368.41	408.38
368.636	411.38
368.862	415.38
369.089	411.38
369.315	392.38
369.541	404.38
369.767	395.38
369.993	398.38
370.219	397.38
370.445	400.38
370.672	397.38
370.898	403.38
371.124	391.38
371.35	411.38
371.576	411.38
371.802	396.38
372.028	384.38
372.254	395.38
372.48	415.38
372.706	404.38
372.932	396.38
373.158	410.38
373.384	397.38
373.61	392.38
373.835	408.38
374.061	389.38
374.287	390.38
374.513	409.38
374.739	419.38
374.965	411.38
375.191	416.38
375.416	413.38
375.642	404.38
375.868	415.38
376.094	402.38
376.319	406.38
376.545	394.38
376.771	394.38
376.997	412.38
377.222	397.38
377.448	389.38
377.674	399.38
377.899	389.38
378.125	381.38
378.35	410.38
378.576	395.38
378.802	395.38
379.027	372.38
379.253	397.38
379.478	391.38
379.704	381.38
379.929	398.38
380.155	405.38
380.38	402.38
380.606	380.38
380.831	408.38
381.057	393.38
381.282	388.38
381.507	375.38
381.733	410.38
381.958	409.38
382.184	400.38
382.409	377.38
382.634	393.38
382.86	411.38
383.085	402.38
383.31	401.38
383.535	389.38
383.761	425.38
383.986	436.38
384.211	401.38
384.436	415.38
384.662	422.38
384.887	442.38
385.112	421.38
385.337	431.38
385.562	412.38
385.787	427.38
386.013	428.38
386.238	416.38
386.463	441.38
386.688	443.38
386.913	420.38
387.138	439.38
387.363	425.38
387.588	417.38
387.813	441.38
388.038	434.38
388.263	426.38
388.488	441.38
388.713	415.38
388.938	420.38
389.163	423.38
389.387	453.38
389.612	420.38
389.837	426.38
390.062	417.38
390.287	440.38
390.512	433.38
390.736	411.38
390.961	434.38
391.186	421.38
391.411	453.38
391.636	440.38
391.86	433.38
392.085	478.38
392.31	451.38
392.534	461.38
392.759	438.38
392.984	443.38
393.208	433.38
393.433	434.38
393.658	439.38
393.882	428.38
394.107	435.38
394.331	450.38
394.556	449.38
394.78	439.38
395.005	443.38
395.229	433.38
395.454	437.38
395.678	438.38
395.903	451.38
396.127	474.38
396.352	470.38
396.576	449.38
396.801	436.38
397.025	447.38
397.249	458.38
397.474	496.38
397.698	441.38
397.922	465.38
398.147	487.38
398.371	488.38
398.595	477.38
398.82	483.38
399.044	495.38
399.268	532.38
399.492	559.38
399.717	572.38
399.941	587.38
400.165	619.38
400.389	603.38
400.613	553.38
400.837	513.38
401.062	499.38
401.286	505.38
401.51	503.38
401.734	482.38
401.958	492.38
402.182	512.38
402.406	506.38
402.63	476.38
402.854	506.38
403.078	522.38
403.302	489.38
403.526	524.38
403.75	494.38
403.974	511.38
404.198	504.38
404.422	509.38
404.645	521.38
404.869	527.38
405.093	535.38
405.317	560.38
405.541	617.38
405.765	552.38
405.988	547.38
406.212	544.38
406.436	534.38
406.66	567.38
406.883	541.38
407.107	555.38
407.331	635.38
407.555	657.38
407.778	643.38
408.002	626.38
408.226	556.38
408.449	556.38
408.673	570.38
408.896	583.38
409.12	615.38
409.344	572.38
409.567	539.38
409.791	535.38
410.014	514.38
410.238	505.38
410.461	523.38
410.685	503.38
410.908	514.38
411.132	547.38
411.355	559.38
411.578	519.38
411.802	488.38
412.025	508.38
412.249	515.38
412.472	535.38
412.695	551.38
412.919	546.38
413.142	481.38
413.365	483.38
413.589	480.38
413.812	455.38
414.035	484.38
414.258	459.38
414.482	473.38
414.705	467.38
414.928	486.38
415.151	456.38
415.374	464.38
415.597	480.38
415.821	487.38
416.044	489.38
416.267	492.38
416.49	480.38
416.713	479.38
416.936	475.38
417.159	460.38
417.382	473.38
417.605	491.38
417.828	496.38
418.051	481.38
418.274	469.38
418.497	463.38
418.72	476.38
418.943	465.38
419.166	496.38
419.389	507.38
419.611	481.38
419.834	482.38
420.057	497.38
420.28	500.38
420.503	490.38
420.726	493.38
420.948	513.38
421.171	537.38
421.394	547.38
421.617	498.38
421.839	477.38
422.062	496.38
422.285	504.38
422.507	557.38
422.73	616.38
422.953	596.38
423.175	511.38
423.398	513.38
423.621	504.38
423.843	527.38
424.066	539.38
424.288	525.38
424.511	546.38
424.733	572.38
424.956	647.38
425.178	631.38
425.401	634.38
425.623	654.38
425.846	557.38
426.068	525.38
426.291	507.38
426.513	506.38
426.735	514.38
426.958	564.38
427.18	636.38
427.402	723.38
427.625	769.38
427.847	688.38
428.069	620.38
428.292	527.38
428.514	503.38
428.736	478.38
428.958	487.38
429.181	495.38
429.403	476.38
429.625	484.38
429.847	491.38
430.069	559.38
430.292	557.38
430.514	495.38
430.736	473.38
430.958	465.38
431.18	465.38
431.402	452.38
431.624	434.38
431.846	477.38
432.068	460.38
432.29	463.38
432.512	459.38
432.734	467.38
432.956	457.38
433.178	451.38
433.4	463.38
433.622	478.38
433.844	468.38
434.066	443.38
434.287	457.38
434.509	453.38
434.731	452.38
434.953	477.38
435.175	487.38
435.397	511.38
435.618	523.38
435.84	553.38
436.062	640.38
436.284	669.38
436.505	579.38
436.727	501.38
436.949	467.38
437.17	457.38
437.392	491.38
437.614	465.38
437.835	520.38
438.057	570.38
438.278	676.38
438.5	669.38
438.721	735.38
438.943	709.38
439.165	588.38
439.386	519.38
439.608	508.38
439.829	513.38
440.05	527.38
440.272	571.38
440.493	557.38
440.715	512.38
440.936	473.38
441.158	496.38
441.379	495.38
441.6	487.38
441.822	519.38
442.043	557.38
442.264	605.38
442.486	644.38
442.707	545.38
442.928	539.38
443.149	521.38
443.371	559.38
443.592	610.38
443.813	644.38
444.034	702.38
444.255	619.38
444.476	556.38
444.698	544.38
444.919	534.38
445.14	632.38
445.361	584.38
445.582	530.38
445.803	609.38
446.024	673.38
446.245	688.38
446.466	624.38
446.687	533.38
446.908	515.38
447.129	484.38
447.35	458.38
447.571	467.38
447.792	457.38
448.013	468.38
448.234	469.38
448.455	519.38
448.675	619.38
448.896	722.38
449.117	594.38
449.338	595.38
449.559	664.38
449.779	749.38
450	601.38
450.221	510.38
450.442	459.38
450.662	455.38
450.883	430.38
451.104	460.38
451.324	443.38
451.545	442.38
451.766	444.38
451.986	417.38
452.207	412.38
452.428	411.38
452.648	402.38
452.869	419.38
453.089	421.38
453.31	420.38
453.53	433.38
453.751	412.38
453.971	402.38
454.192	443.38
454.412	411.38
454.633	414.38
454.853	434.38
455.073	409.38
455.294	435.38
455.514	512.38
455.734	495.38
455.955	419.38
456.175	398.38
456.395	380.38
456.616	381.38
456.836	385.38
457.056	381.38
457.276	377.38
457.497	397.38
457.717	399.38
457.937	411.38
458.157	400.38
458.377	407.38
458.598	428.38
458.818	464.38
459.038	519.38
459.258	537.38
459.478	492.38
459.698	458.38
459.918	450.38
460.138	441.38
460.358	469.38
460.578	472.38
460.798	455.38
461.018	467.38
461.238	467.38
461.458	460.38
461.678	468.38
461.898	464.38
462.118	479.38
462.338	468.38
462.558	480.38
462.777	485.38
462.997	483.38
463.217	515.38
463.437	488.38
463.657	498.38
463.876	500.38
464.096	501.38
464.316	530.38
464.536	480.38
464.755	503.38
464.975	501.38
465.195	504.38
465.414	537.38
465.634	479.38
465.854	461.38
466.073	451.38
466.293	447.38
466.512	423.38
466.732	432.38
466.951	431.38
467.171	421.38
467.391	447.38
467.61	424.38
467.829	428.38
468.049	437.38
468.268	430.38
468.488	418.38
468.707	425.38
468.927	432.38
469.146	417.38
469.365	429.38
469.585	399.38
469.804	442.38
470.023	441.38
470.243	432.38
470.462	449.38
470.681	455.38
470.901	460.38
471.12	425.38
471.339	438.38
471.558	444.38
471.777	421.38
471.997	432.38
472.216	446.38
472.435	455.38
472.654	449.38
472.873	413.38
473.092	412.38
473.311	452.38
473.53	421.38
473.749	438.38
473.968	476.38
474.187	539.38
474.406	574.38
474.625	481.38
474.844	444.38
475.063	435.38
475.282	447.38
475.501	434.38
475.72	439.38
475.939	424.38
476.158	453.38
476.377	447.38
476.596	428.38
476.814	447.38
477.033	449.38
477.252	448.38
477.471	444.38
477.69	455.38
477.908	455.38
478.127	477.38
478.346	478.38
478.564	481.38
478.783	485.38
479.002	474.38
479.22	485.38
479.439	503.38
479.658	502.38
479.876	508.38
480.095	550.38
480.313	551.38
480.532	518.38
480.751	504.38
480.969	506.38
481.188	557.38
481.406	569.38
481.624	525.38
481.843	526.38
482.061	477.38
482.28	505.38
482.498	470.38
482.717	489.38
482.935	483.38
483.153	486.38
483.372	492.38
483.59	516.38
483.808	488.38
484.027	511.38
484.245	499.38
484.463	511.38
484.681	495.38
484.9	513.38
485.118	488.38
485.336	525.38
485.554	508.38
485.772	510.38
485.99	532.38
486.209	508.38
486.427	529.38
486.645	527.38
486.863	521.38
487.081	531.38
487.299	536.38
487.517	539.38
487.735	525.38
487.953	530.38
488.171	523.38
488.389	540.38
488.607	544.38
488.825	520.38
489.043	509.38
489.261	535.38
489.479	527.38
489.696	534.38
489.914	527.38
490.132	547.38
490.35	548.38
490.568	551.38
490.786	568.38
491.003	559.38
491.221	567.38
491.439	575.38
491.657	589.38
491.874	581.38
492.092	600.38
492.31	587.38
492.527	614.38
492.745	590.38
492.963	612.38
493.18	633.38
493.398	605.38
493.615	627.38
493.833	604.38
494.05	624.38
494.268	589.38
494.485	612.38
494.703	601.38
494.92	613.38
495.138	627.38
495.355	612.38
495.573	616.38
495.79	623.38
496.008	610.38
496.225	627.38
496.442	617.38
496.66	610.38
496.877	628.38
497.094	635.38
497.312	625.38
497.529	639.38
497.746	651.38
497.963	657.38
498.181	677.38
498.398	680.38
498.615	688.38
498.832	718.38
499.049	719.38
499.267	744.38
499.484	781.38
499.701	807.38
499.918	833.38
500.135	890.38
500.352	941.38
500.569	956.38
500.786	943.38
501.003	957.38
501.22	923.38
501.437	873.38
501.654	809.38
501.871	819.38
502.088	796.38
502.305	736.38
502.522	713.38
502.739	699.38
502.956	703.38
503.172	662.38
503.389	644.38
503.606	651.38
503.823	651.38
504.04	656.38
504.256	651.38
504.473	652.38
504.69	621.38
504.907	631.38
505.123	599.38
505.34	598.38
505.557	610.38
505.773	596.38
505.99	596.38
506.207	620.38
506.423	590.38
506.64	568.38
506.856	581.38
507.073	576.38
507.289	573.38
507.506	539.38
507.722	564.38
507.939	582.38
508.155	569.38
508.372	554.38
508.588	556.38
508.805	531.38
509.021	541.38
509.238	565.38
509.454	561.38
509.67	538.38
509.887	555.38
510.103	560.38
510.319	555.38
510.536	606.38
510.752	895.38
510.968	717.38
511.184	570.38
511.401	548.38
511.617	518.38
511.833	498.38
512.049	519.38
512.265	511.38
512.481	528.38
512.698	508.38
512.914	498.38
513.13	528.38
513.346	522.38
513.562	534.38
513.778	530.38
513.994	497.38
514.21	526.38
514.426	547.38
514.642	559.38
514.858	574.38
515.074	605.38
515.29	663.38
515.506	875.38
515.721	771.38
515.937	599.38
516.153	567.38
516.369	571.38
516.585	585.38
516.801	558.38
517.016	545.38
517.232	533.38
517.448	562.38
517.664	565.38
517.879	543.38
518.095	560.38
518.311	552.38
518.527	550.38
518.742	527.38
518.958	533.38
519.173	532.38
519.389	534.38
519.605	510.38
519.82	527.38
520.036	545.38
520.251	545.38
520.467	545.38
520.682	547.38
520.898	561.38
521.113	548.38
521.329	586.38
521.544	617.38
521.76	725.38
521.975	1086.38
522.19	1024.38
522.406	647.38
522.621	557.38
522.836	523.38
523.052	496.38
523.267	481.38
523.482	471.38
523.698	475.38
523.913	473.38
524.128	443.38
524.343	464.38
524.559	437.38
524.774	455.38
524.989	451.38
525.204	480.38
525.419	483.38
525.634	460.38
525.849	462.38
526.064	442.38
526.28	461.38
526.495	427.38
526.71	436.38
526.925	430.38
527.14	415.38
527.355	460.38
527.57	442.38
527.785	434.38
527.999	432.38
528.214	449.38
528.429	437.38
528.644	444.38
528.859	425.38
529.074	436.38
529.289	453.38
529.503	493.38
529.718	480.38
529.933	434.38
530.148	421.38
530.363	436.38
530.577	421.38
530.792	432.38
531.007	426.38
531.221	420.38
531.436	428.38
531.651	416.38
531.865	435.38
532.08	418.38
532.295	439.38
532.509	426.38
532.724	417.38
532.938	420.38
533.153	418.38
533.367	422.38
533.582	414.38
533.796	415.38
534.011	430.38
534.225	419.38
534.44	410.38
534.654	423.38
534.868	405.38
535.083	424.38
535.297	410.38
535.511	418.38
535.726	420.38
535.94	414.38
536.154	403.38
536.369	404.38
536.583	402.38
536.797	407.38
537.011	413.38
537.225	408.38
537.44	402.38
537.654	388.38
537.868	400.38
538.082	416.38
538.296	409.38
538.51	425.38
538.724	406.38
538.938	406.38
539.153	406.38
539.367	414.38
539.581	392.38
539.795	409.38
540.009	397.38
540.222	390.38
540.436	398.38
540.65	407.38
540.864	418.38
541.078	398.38
541.292	393.38
541.506	407.38
541.72	393.38
541.934	382.38
542.147	385.38
542.361	385.38
542.575	389.38
542.789	384.38
543.002	408.38
543.216	412.38
543.43	396.38
543.644	411.38
543.857	409.38
544.071	387.38
544.285	400.38
544.498	398.38
544.712	403.38
544.925	402.38
545.139	410.38
545.352	396.38
545.566	405.38
545.779	381.38
545.993	359.38
546.206	405.38
546.42	405.38
546.633	390.38
546.847	392.38
547.06	400.38
547.274	392.38
547.487	399.38
547.7	408.38
547.914	386.38
548.127	393.38
548.34	400.38
548.554	375.38
548.767	395.38
548.98	387.38
549.193	409.38
549.407	387.38
549.62	399.38
549.833	397.38
550.046	391.38
550.259	386.38
550.473	387.38
550.686	388.38
550.899	380.38
551.112	382.38
551.325	382.38
551.538	385.38
551.751	378.38
551.964	391.38
552.177	380.38
552.39	398.38
552.603	396.38
552.816	387.38
553.029	391.38
553.242	384.38
553.455	412.38
553.667	397.38
553.88	428.38
554.093	384.38
554.306	385.38
554.519	370.38
554.732	391.38
554.944	370.38
555.157	372.38
555.37	368.38
555.583	378.38
555.795	373.38
556.008	348.38
556.221	361.38
556.433	363.38
556.646	352.38
556.859	344.38
557.071	358.38
557.284	343.38
557.496	331.38
557.709	349.38
557.921	336.38
558.134	352.38
558.346	338.38
558.559	355.38
558.771	334.38
558.984	345.38
559.196	343.38
559.409	338.38
559.621	360.38
559.833	328.38
560.046	361.38
560.258	335.38
560.47	359.38
560.683	335.38
560.895	338.38
561.107	340.38
561.32	333.38
561.532	343.38
561.744	329.38
561.956	340.38
562.168	338.38
562.381	339.38
562.593	353.38
562.805	351.38
563.017	341.38
563.229	355.38
563.441	338.38
563.653	351.38
563.865	354.38
564.077	357.38
564.289	355.38
564.501	370.38
564.713	363.38
564.925	346.38
565.137	388.38
565.349	365.38
565.561	401.38
565.773	411.38
565.985	389.38
566.197	396.38
566.408	422.38
566.62	402.38
566.832	427.38
567.044	435.38
567.255	429.38
567.467	432.38
567.679	436.38
567.891	475.38
568.102	465.38
568.314	451.38
568.526	440.38
568.737	421.38
568.949	401.38
569.161	402.38
569.372	378.38
569.584	371.38
569.795	377.38
570.007	348.38
570.218	356.38
570.43	357.38
570.641	353.38
570.853	336.38
571.064	348.38
571.276	335.38
571.487	335.38
571.698	324.38
571.91	335.38
572.121	327.38
572.333	326.38
572.544	325.38
572.755	314.38
572.966	308.38
573.178	323.38
573.389	305.38
573.6	306.38
573.811	297.38
574.023	306.38
574.234	309.38
574.445	295.38
574.656	313.38
574.867	299.38
575.078	302.38
575.289	327.38
575.501	295.38
575.712	291.38
575.923	307.38
576.134	310.38
576.345	299.38
576.556	289.38
576.767	283.38
576.978	295.38
577.188	291.38
577.399	295.38
577.61	279.38
577.821	278.38
578.032	283.38
578.243	302.38
578.454	428.38
578.665	341.38
578.875	283.38
579.086	269.38
579.297	284.38
579.508	278.38
579.718	291.38
579.929	266.38
580.14	277.38
580.35	257.38
580.561	272.38
580.772	268.38
580.982	262.38
581.193	275.38
581.403	281.38
581.614	262.38
581.825	270.38
582.035	256.38
582.246	266.38
582.456	285.38
582.667	245.38
582.877	270.38
583.087	267.38
583.298	283.38
583.508	265.38
583.719	278.38
583.929	274.38
584.139	255.38
584.35	250.38
584.56	279.38
584.77	274.38
584.981	256.38
585.191	260.38
585.401	259.38
585.611	270.38
585.821	252.38
586.032	263.38
586.242	258.38
586.452	249.38
586.662	254.38
586.872	268.38
587.082	267.38
587.292	244.38
587.502	267.38
587.713	275.38
587.923	274.38
588.133	269.38
588.343	271.38
588.553	256.38
588.762	265.38
588.972	269.38
589.182	265.38
589.392	261.38
589.602	241.38
589.812	263.38
590.022	269.38
590.232	271.38
590.441	263.38
590.651	268.38
590.861	264.38
591.071	240.38
591.281	269.38
591.49	277.38
591.7	269.38
591.91	276.38
592.119	275.38
592.329	276.38
592.539	297.38
592.748	289.38
592.958	278.38
593.167	292.38
593.377	277.38
593.587	280.38
593.796	289.38
594.006	274.38
594.215	273.38
594.424	280.38
594.634	293.38
594.843	291.38
595.053	259.38
595.262	290.38
595.472	249.38
595.681	257.38
595.89	274.38
596.1	256.38
596.309	253.38
596.518	275.38
596.727	257.38
596.937	263.38
597.146	245.38
597.355	243.38
597.564	236.38
597.774	254.38
597.983	255.38
598.192	217.38
598.401	247.38
598.61	241.38
598.819	238.38
599.028	238.38
599.237	241.38
599.446	226.38
599.655	239.38
599.864	232.38
600.073	228.38
600.282	236.38
600.491	232.38
600.7	232.38
600.909	240.38
601.118	230.38
601.327	238.38
601.536	239.38
601.745	229.38
601.953	236.38
602.162	234.38
602.371	233.38
602.58	233.38
602.789	237.38
602.997	216.38
603.206	248.38
603.415	212.38
603.623	226.38
603.832	224.38
604.041	220.38
604.249	238.38
604.458	223.38
604.666	233.38
604.875	223.38
605.084	218.38
605.292	207.38
605.501	208.38
605.709	220.38
605.918	213.38
606.126	221.38
606.334	231.38
606.543	221.38
606.751	210.38
606.96	220.38
607.168	220.38
607.376	208.38
607.585	215.38
607.793	234.38
608.001	227.38
608.21	226.38
608.418	214.38
608.626	232.38
608.834	208.38
609.043	213.38
609.251	237.38
609.459	224.38
609.667	221.38
609.875	218.38
610.083	204.38
610.291	214.38
610.499	222.38
610.707	204.38
610.916	218.38
611.124	201.38
611.332	204.38
611.54	227.38
611.748	215.38
611.955	220.38
612.163	231.38
612.371	215.38
612.579	228.38
612.787	212.38
612.995	212.38
613.203	224.38
613.411	224.38
613.618	227.38
613.826	201.38
614.034	209.38
614.242	203.38
614.449	222.38
614.657	208.38
614.865	198.38
615.072	225.38
615.28	220.38
615.488	216.38
615.695	203.38
615.903	220.38
616.111	221.38
616.318	215.38
616.526	214.38
616.733	204.38
616.941	210.38
617.148	222.38
617.356	210.38
617.563	198.38
617.771	211.38
617.978	207.38
618.185	203.38
618.393	222.38
618.6	213.38
618.807	209.38
619.015	199.38
619.222	215.38
619.429	217.38
619.637	186.38
619.844	208.38
620.051	221.38
620.258	214.38
620.466	201.38
620.673	200.38
620.88	177.38
621.087	217.38
621.294	204.38
621.501	197.38
621.708	205.38
621.915	197.38
622.122	201.38
622.329	183.38
622.536	205.38
622.743	206.38
622.95	194.38
623.157	202.38
623.364	203.38
623.571	212.38
623.778	188.38
623.985	199.38
624.192	185.38
624.399	191.38
624.606	186.38
624.812	187.38
625.019	186.38
625.226	203.38
625.433	181.38
625.639	178.38
625.846	189.38
626.053	191.38
626.259	179.38
626.466	189.38
626.673	175.38
626.879	185.38
627.086	193.38
627.293	179.38
627.499	201.38
627.706	195.38
627.912	201.38
628.119	184.38
628.325	183.38
628.532	196.38
628.738	171.38
628.945	187.38
629.151	192.38
629.357	180.38
629.564	184.38
629.77	183.38
629.976	176.38
630.183	181.38
630.389	186.38
630.595	187.38
630.802	170.38
631.008	166.38
631.214	166.38
631.42	172.38
631.627	177.38
631.833	172.38
632.039	174.38
632.245	189.38
632.451	185.38
632.657	176.38
632.863	187.38
633.069	170.38
633.275	168.38
633.481	180.38
633.688	159.38
633.893	179.38
634.099	179.38
634.305	157.38
634.511	182.38
634.717	162.38
634.923	161.38
635.129	187.38
635.335	168.38
635.541	172.38
635.747	163.38
635.952	177.38
636.158	169.38
636.364	162.38
636.57	168.38
636.775	164.38
636.981	161.38
637.187	168.38
637.392	178.38
637.598	157.38
637.804	180.38
638.009	174.38
638.215	166.38
638.421	159.38
638.626	171.38
638.832	170.38
639.037	146.38
639.243	141.38
639.448	158.38
639.654	170.38
639.859	138.38
640.065	151.38
640.27	164.38
640.475	164.38
640.681	157.38
640.886	166.38
641.091	161.38
641.297	154.38
641.502	159.38
641.707	168.38
641.913	173.38
642.118	151.38
642.323	156.38
642.528	157.38
642.733	170.38
642.939	153.38
643.144	154.38
643.349	163.38
643.554	156.38
643.759	153.38
643.964	151.38
644.169	153.38
644.374	150.38
644.579	155.38
644.784	152.38
644.989	155.38
645.194	152.38
645.399	148.38
645.604	144.38
645.809	166.38
646.014	169.38
646.219	153.38
646.423	169.38
646.628	145.38
646.833	143.38
647.038	167.38
647.243	156.38
647.447	149.38
647.652	161.38
647.857	165.38
648.062	143.38
648.266	157.38
648.471	161.38
648.676	155.38
648.88	155.38
649.085	143.38
649.289	167.38
649.494	152.38
649.698	177.38
649.903	172.38
650.107	166.38
650.312	149.38
650.516	162.38
650.721	147.38
650.925	143.38
651.13	159.38
651.334	144.38
651.539	128.38
651.743	157.38
651.947	156.38
652.152	148.38
652.356	148.38
652.56	149.38
652.764	136.38
652.969	120.38
653.173	131.38
653.377	144.38
653.581	125.38
653.785	129.38
653.99	132.38
654.194	139.38
654.398	128.38
654.602	143.38
654.806	129.38
655.01	137.38
655.214	150.38
655.418	137.38
655.622	135.38
655.826	141.38
656.03	137.38
656.234	128.38
656.438	127.38
656.642	127.38
656.846	124.38
657.049	140.38
657.253	119.38
657.457	126.38
657.661	120.38
657.865	116.38
658.068	115.38
658.272	114.38
658.476	111.38
658.68	100.38
658.883	98.38
659.087	109.38
659.291	106.38
659.494	102.38
659.698	107.38
659.901	97.38
660.105	98.38
660.309	100.38
660.512	104.38
660.716	96.38
660.919	106.38
661.123	89.38
661.326	89.38
661.53	90.38
661.733	81.38
661.936	92.38
662.14	95.38
662.343	96.38
662.546	84.38
662.75	75.38
662.953	85.38
663.156	95.38
663.36	73.38
663.563	92.38
663.766	92.38
663.969	94.38
664.173	87.38
664.376	78.38
664.579	95.38
664.782	94.38
664.985	93.38
665.188	94.38
665.391	81.38
665.594	81.38
665.797	87.38
666	92.38
666.203	81.38
666.406	73.38
666.609	80.38
666.812	88.38
667.015	96.38
667.218	92.38
667.421	77.38
667.624	77.38
667.827	75.38
668.03	88.38
668.232	79.38
668.435	83.38
668.638	74.38
668.841	89.38
669.043	92.38
669.246	92.38
669.449	77.38
669.651	108.38
669.854	91.38
670.057	82.38
670.259	84.38
670.462	82.38
670.665	81.38
670.867	95.38
671.07	89.38
671.272	87.38
671.475	90.38
671.677	80.38
671.88	93.38
672.082	94.38
672.284	98.38
672.487	93.38
672.689	86.38
672.892	75.38
