Data from 1977.PennyLincolnUp.Lamp.En5.5.200Scan.071719.P1_HRD10591_16-08-02-865.txt Node
Date: Thu Jul 18 16:08:02 EDT 2019
User: cochatt
Spectrometer: HR+D1059
Trigger mode: 1
Integration Time (sec): 1.000000E-1
Scans to average: 1
Electric dark correction enabled: true
Nonlinearity correction enabled: false
Boxcar width: 0
XAxis mode: Wavelengths
Number of Pixels in Spectrum: 2048
>>>>>Begin Spectral Data<<<<<
223.165	-16.62
223.4	-16.62
223.635	-16.62
223.869	-31.62
224.104	-14.62
224.338	-14.62
224.573	-10.62
224.808	0.38
225.042	-7.62
225.277	-1.62
225.511	-3.62
225.746	4.38
225.98	-6.62
226.215	18.38
226.449	13.38
226.683	17.38
226.918	29.38
227.152	24.38
227.387	23.38
227.621	40.38
227.856	49.38
228.09	40.38
228.324	36.38
228.559	49.38
228.793	76.38
229.027	94.38
229.262	104.38
229.496	124.38
229.73	122.38
229.964	133.38
230.199	117.38
230.433	97.38
230.667	104.38
230.901	113.38
231.136	111.38
231.37	115.38
231.604	124.38
231.838	105.38
232.072	110.38
232.306	103.38
232.541	105.38
232.775	114.38
233.009	116.38
233.243	111.38
233.477	101.38
233.711	107.38
233.945	109.38
234.179	103.38
234.413	123.38
234.647	111.38
234.881	121.38
235.115	127.38
235.349	127.38
235.583	130.38
235.817	108.38
236.051	113.38
236.285	113.38
236.519	118.38
236.753	114.38
236.987	149.38
237.221	166.38
237.455	219.38
237.689	175.38
237.922	140.38
238.156	141.38
238.39	136.38
238.624	123.38
238.858	125.38
239.091	132.38
239.325	123.38
239.559	130.38
239.793	122.38
240.027	137.38
240.26	139.38
240.494	155.38
240.728	148.38
240.961	152.38
241.195	130.38
241.429	132.38
241.662	136.38
241.896	134.38
242.13	130.38
242.363	125.38
242.597	115.38
242.83	126.38
243.064	157.38
243.298	136.38
243.531	133.38
243.765	137.38
243.998	132.38
244.232	140.38
244.465	141.38
244.699	134.38
244.932	128.38
245.166	130.38
245.399	145.38
245.633	152.38
245.866	136.38
246.099	145.38
246.333	148.38
246.566	149.38
246.8	142.38
247.033	147.38
247.266	172.38
247.5	162.38
247.733	180.38
247.966	177.38
248.2	159.38
248.433	155.38
248.666	169.38
248.899	177.38
249.133	183.38
249.366	200.38
249.599	196.38
249.832	191.38
250.066	182.38
250.299	181.38
250.532	177.38
250.765	178.38
250.998	210.38
251.231	223.38
251.465	219.38
251.698	196.38
251.931	182.38
252.164	196.38
252.397	197.38
252.63	195.38
252.863	205.38
253.096	226.38
253.329	231.38
253.562	220.38
253.795	217.38
254.028	220.38
254.261	216.38
254.494	225.38
254.727	237.38
254.96	268.38
255.193	265.38
255.426	236.38
255.659	235.38
255.892	229.38
256.124	233.38
256.357	230.38
256.59	210.38
256.823	211.38
257.056	208.38
257.289	213.38
257.521	211.38
257.754	226.38
257.987	197.38
258.22	195.38
258.452	205.38
258.685	194.38
258.918	209.38
259.151	214.38
259.383	215.38
259.616	231.38
259.849	202.38
260.081	229.38
260.314	251.38
260.547	246.38
260.779	229.38
261.012	223.38
261.244	230.38
261.477	216.38
261.71	225.38
261.942	219.38
262.175	229.38
262.407	211.38
262.64	221.38
262.872	215.38
263.105	226.38
263.337	227.38
263.57	227.38
263.802	214.38
264.035	216.38
264.267	216.38
264.499	218.38
264.732	215.38
264.964	214.38
265.197	220.38
265.429	223.38
265.661	213.38
265.894	229.38
266.126	237.38
266.358	227.38
266.591	218.38
266.823	233.38
267.055	229.38
267.287	242.38
267.52	222.38
267.752	233.38
267.984	232.38
268.216	236.38
268.448	239.38
268.681	246.38
268.913	274.38
269.145	270.38
269.377	278.38
269.609	270.38
269.841	275.38
270.073	270.38
270.306	306.38
270.538	329.38
270.77	293.38
271.002	317.38
271.234	311.38
271.466	293.38
271.698	325.38
271.93	329.38
272.162	323.38
272.394	313.38
272.626	313.38
272.858	296.38
273.09	283.38
273.322	277.38
273.553	281.38
273.785	277.38
274.017	261.38
274.249	255.38
274.481	276.38
274.713	270.38
274.945	268.38
275.176	284.38
275.408	276.38
275.64	284.38
275.872	263.38
276.104	289.38
276.335	269.38
276.567	280.38
276.799	285.38
277.031	298.38
277.262	322.38
277.494	343.38
277.726	312.38
277.957	295.38
278.189	300.38
278.421	283.38
278.652	280.38
278.884	265.38
279.115	283.38
279.347	289.38
279.579	277.38
279.81	296.38
280.042	275.38
280.273	277.38
280.505	277.38
280.736	292.38
280.968	268.38
281.199	294.38
281.431	275.38
281.662	289.38
281.894	298.38
282.125	287.38
282.356	311.38
282.588	309.38
282.819	297.38
283.051	280.38
283.282	278.38
283.513	296.38
283.745	293.38
283.976	291.38
284.207	314.38
284.439	309.38
284.67	314.38
284.901	292.38
285.132	284.38
285.364	295.38
285.595	288.38
285.826	292.38
286.057	292.38
286.288	293.38
286.52	311.38
286.751	287.38
286.982	301.38
287.213	302.38
287.444	310.38
287.675	318.38
287.906	309.38
288.138	309.38
288.369	322.38
288.6	330.38
288.831	322.38
289.062	322.38
289.293	288.38
289.524	320.38
289.755	301.38
289.986	295.38
290.217	305.38
290.448	312.38
290.679	315.38
290.91	311.38
291.141	306.38
291.371	311.38
291.602	277.38
291.833	306.38
292.064	306.38
292.295	299.38
292.526	297.38
292.757	299.38
292.987	305.38
293.218	318.38
293.449	324.38
293.68	312.38
293.91	319.38
294.141	315.38
294.372	322.38
294.603	296.38
294.833	310.38
295.064	306.38
295.295	304.38
295.525	310.38
295.756	305.38
295.987	321.38
296.217	331.38
296.448	345.38
296.679	324.38
296.909	323.38
297.14	311.38
297.37	316.38
297.601	332.38
297.831	332.38
298.062	325.38
298.292	329.38
298.523	327.38
298.753	317.38
298.984	323.38
299.214	317.38
299.445	325.38
299.675	340.38
299.905	327.38
300.136	330.38
300.366	329.38
300.597	330.38
300.827	341.38
301.057	331.38
301.288	347.38
301.518	331.38
301.748	326.38
301.979	345.38
302.209	335.38
302.439	334.38
302.669	375.38
302.9	343.38
303.13	344.38
303.36	356.38
303.59	343.38
303.82	340.38
304.051	368.38
304.281	355.38
304.511	344.38
304.741	332.38
304.971	356.38
305.201	357.38
305.431	353.38
305.661	339.38
305.891	330.38
306.121	350.38
306.352	338.38
306.582	346.38
306.812	356.38
307.042	354.38
307.272	354.38
307.502	356.38
307.731	354.38
307.961	331.38
308.191	360.38
308.421	355.38
308.651	338.38
308.881	371.38
309.111	380.38
309.341	358.38
309.571	373.38
309.8	361.38
310.03	379.38
310.26	377.38
310.49	370.38
310.72	396.38
310.949	405.38
311.179	397.38
311.409	393.38
311.639	395.38
311.868	409.38
312.098	409.38
312.328	396.38
312.557	420.38
312.787	404.38
313.017	412.38
313.246	411.38
313.476	390.38
313.706	401.38
313.935	393.38
314.165	402.38
314.394	401.38
314.624	416.38
314.853	393.38
315.083	394.38
315.312	387.38
315.542	377.38
315.771	385.38
316.001	385.38
316.23	410.38
316.46	409.38
316.689	403.38
316.919	396.38
317.148	398.38
317.377	413.38
317.607	380.38
317.836	395.38
318.065	386.38
318.295	396.38
318.524	386.38
318.753	404.38
318.983	402.38
319.212	401.38
319.441	395.38
319.67	394.38
319.9	400.38
320.129	397.38
320.358	403.38
320.587	413.38
320.816	405.38
321.046	417.38
321.275	434.38
321.504	415.38
321.733	404.38
321.962	414.38
322.191	434.38
322.42	451.38
322.649	453.38
322.878	455.38
323.108	466.38
323.337	460.38
323.566	488.38
323.795	519.38
324.024	570.38
324.253	662.38
324.482	896.38
324.71	1338.38
324.939	1873.38
325.168	1622.38
325.397	828.38
325.626	602.38
325.855	544.38
326.084	496.38
326.313	487.38
326.542	479.38
326.77	543.38
326.999	626.38
327.228	835.38
327.457	1169.38
327.686	1397.38
327.914	921.38
328.143	655.38
328.372	597.38
328.6	569.38
328.829	522.38
329.058	531.38
329.287	540.38
329.515	521.38
329.744	504.38
329.972	503.38
330.201	505.38
330.43	544.38
330.658	571.38
330.887	546.38
331.115	562.38
331.344	527.38
331.572	506.38
331.801	496.38
332.03	482.38
332.258	483.38
332.486	473.38
332.715	454.38
332.943	472.38
333.172	489.38
333.4	495.38
333.629	499.38
333.857	512.38
334.085	509.38
334.314	501.38
334.542	532.38
334.771	532.38
334.999	505.38
335.227	496.38
335.455	482.38
335.684	469.38
335.912	475.38
336.14	483.38
336.369	469.38
336.597	471.38
336.825	495.38
337.053	441.38
337.281	454.38
337.51	449.38
337.738	455.38
337.966	443.38
338.194	440.38
338.422	442.38
338.65	457.38
338.878	461.38
339.106	444.38
339.334	437.38
339.562	441.38
339.79	437.38
340.018	454.38
340.246	440.38
340.474	452.38
340.702	428.38
340.93	438.38
341.158	431.38
341.386	422.38
341.614	449.38
341.842	428.38
342.07	419.38
342.298	427.38
342.526	425.38
342.754	418.38
342.981	435.38
343.209	431.38
343.437	454.38
343.665	442.38
343.893	453.38
344.12	443.38
344.348	457.38
344.576	459.38
344.804	467.38
345.031	463.38
345.259	458.38
345.487	442.38
345.714	433.38
345.942	431.38
346.17	409.38
346.397	432.38
346.625	444.38
346.853	420.38
347.08	399.38
347.308	419.38
347.535	425.38
347.763	413.38
347.99	428.38
348.218	440.38
348.445	421.38
348.673	422.38
348.9	420.38
349.128	420.38
349.355	403.38
349.583	403.38
349.81	415.38
350.037	435.38
350.265	395.38
350.492	411.38
350.72	417.38
350.947	423.38
351.174	419.38
351.402	425.38
351.629	440.38
351.856	413.38
352.083	421.38
352.311	411.38
352.538	433.38
352.765	425.38
352.992	423.38
353.22	422.38
353.447	412.38
353.674	381.38
353.901	388.38
354.128	392.38
354.355	397.38
354.583	404.38
354.81	388.38
355.037	404.38
355.264	400.38
355.491	403.38
355.718	403.38
355.945	395.38
356.172	390.38
356.399	391.38
356.626	383.38
356.853	393.38
357.08	405.38
357.307	392.38
357.534	393.38
357.761	383.38
357.988	393.38
358.215	381.38
358.441	397.38
358.668	395.38
358.895	389.38
359.122	385.38
359.349	424.38
359.576	408.38
359.802	432.38
360.029	442.38
360.256	455.38
360.483	431.38
360.709	405.38
360.936	415.38
361.163	419.38
361.39	399.38
361.616	424.38
361.843	409.38
362.07	401.38
362.296	419.38
362.523	407.38
362.749	419.38
362.976	394.38
363.203	398.38
363.429	392.38
363.656	397.38
363.882	396.38
364.109	404.38
364.335	387.38
364.562	389.38
364.788	381.38
365.015	401.38
365.241	390.38
365.468	406.38
365.694	416.38
365.92	388.38
366.147	403.38
366.373	385.38
366.599	387.38
366.826	394.38
367.052	392.38
367.278	364.38
367.505	377.38
367.731	393.38
367.957	395.38
368.184	406.38
368.41	414.38
368.636	396.38
368.862	422.38
369.089	393.38
369.315	382.38
369.541	406.38
369.767	394.38
369.993	404.38
370.219	399.38
370.445	395.38
370.672	376.38
370.898	379.38
371.124	365.38
371.35	399.38
371.576	399.38
371.802	375.38
372.028	396.38
372.254	368.38
372.48	388.38
372.706	396.38
372.932	390.38
373.158	405.38
373.384	409.38
373.61	381.38
373.835	388.38
374.061	386.38
374.287	412.38
374.513	407.38
374.739	403.38
374.965	412.38
375.191	403.38
375.416	391.38
375.642	375.38
375.868	390.38
376.094	381.38
376.319	396.38
376.545	391.38
376.771	365.38
376.997	377.38
377.222	387.38
377.448	381.38
377.674	396.38
377.899	388.38
378.125	358.38
378.35	371.38
378.576	373.38
378.802	371.38
379.027	396.38
379.253	404.38
379.478	370.38
379.704	383.38
379.929	397.38
380.155	397.38
380.38	379.38
380.606	387.38
380.831	399.38
381.057	386.38
381.282	390.38
381.507	392.38
381.733	366.38
381.958	377.38
382.184	387.38
382.409	398.38
382.634	382.38
382.86	396.38
383.085	420.38
383.31	407.38
383.535	405.38
383.761	417.38
383.986	405.38
384.211	426.38
384.436	401.38
384.662	405.38
384.887	427.38
385.112	405.38
385.337	428.38
385.562	422.38
385.787	410.38
386.013	418.38
386.238	437.38
386.463	441.38
386.688	433.38
386.913	416.38
387.138	417.38
387.363	413.38
387.588	419.38
387.813	424.38
388.038	430.38
388.263	414.38
388.488	431.38
388.713	457.38
388.938	457.38
389.163	424.38
389.387	437.38
389.612	419.38
389.837	412.38
390.062	419.38
390.287	421.38
390.512	441.38
390.736	417.38
390.961	443.38
391.186	426.38
391.411	425.38
391.636	432.38
391.86	422.38
392.085	458.38
392.31	441.38
392.534	426.38
392.759	446.38
392.984	441.38
393.208	427.38
393.433	410.38
393.658	432.38
393.882	416.38
394.107	424.38
394.331	428.38
394.556	454.38
394.78	441.38
395.005	453.38
395.229	449.38
395.454	430.38
395.678	457.38
395.903	438.38
396.127	457.38
396.352	458.38
396.576	454.38
396.801	426.38
397.025	456.38
397.249	447.38
397.474	443.38
397.698	448.38
397.922	461.38
398.147	475.38
398.371	495.38
398.595	483.38
398.82	473.38
399.044	479.38
399.268	522.38
399.492	549.38
399.717	576.38
399.941	619.38
400.165	596.38
400.389	579.38
400.613	555.38
400.837	549.38
401.062	518.38
401.286	492.38
401.51	504.38
401.734	483.38
401.958	491.38
402.182	518.38
402.406	492.38
402.63	501.38
402.854	506.38
403.078	497.38
403.302	490.38
403.526	509.38
403.75	510.38
403.974	505.38
404.198	488.38
404.422	507.38
404.645	514.38
404.869	497.38
405.093	540.38
405.317	561.38
405.541	586.38
405.765	541.38
405.988	535.38
406.212	508.38
406.436	538.38
406.66	563.38
406.883	513.38
407.107	559.38
407.331	582.38
407.555	661.38
407.778	637.38
408.002	608.38
408.226	563.38
408.449	545.38
408.673	547.38
408.896	555.38
409.12	601.38
409.344	560.38
409.567	529.38
409.791	508.38
410.014	502.38
410.238	470.38
410.461	496.38
410.685	494.38
410.908	496.38
411.132	551.38
411.355	554.38
411.578	556.38
411.802	488.38
412.025	498.38
412.249	516.38
412.472	534.38
412.695	550.38
412.919	523.38
413.142	489.38
413.365	514.38
413.589	497.38
413.812	462.38
414.035	446.38
414.258	451.38
414.482	456.38
414.705	466.38
414.928	460.38
415.151	468.38
415.374	450.38
415.597	472.38
415.821	465.38
416.044	464.38
416.267	466.38
416.49	443.38
416.713	458.38
416.936	465.38
417.159	459.38
417.382	479.38
417.605	474.38
417.828	472.38
418.051	477.38
418.274	486.38
418.497	486.38
418.72	453.38
418.943	467.38
419.166	474.38
419.389	514.38
419.611	493.38
419.834	492.38
420.057	489.38
420.28	499.38
420.503	459.38
420.726	455.38
420.948	490.38
421.171	524.38
421.394	548.38
421.617	490.38
421.839	488.38
422.062	488.38
422.285	500.38
422.507	555.38
422.73	609.38
422.953	586.38
423.175	529.38
423.398	523.38
423.621	500.38
423.843	531.38
424.066	489.38
424.288	517.38
424.511	546.38
424.733	583.38
424.956	615.38
425.178	608.38
425.401	628.38
425.623	635.38
425.846	535.38
426.068	483.38
426.291	525.38
426.513	517.38
426.735	532.38
426.958	554.38
427.18	626.38
427.402	717.38
427.625	804.38
427.847	677.38
428.069	580.38
428.292	538.38
428.514	471.38
428.736	501.38
428.958	488.38
429.181	465.38
429.403	473.38
429.625	483.38
429.847	491.38
430.069	562.38
430.292	583.38
430.514	521.38
430.736	461.38
430.958	468.38
431.18	462.38
431.402	444.38
431.624	451.38
431.846	455.38
432.068	452.38
432.29	467.38
432.512	477.38
432.734	481.38
432.956	446.38
433.178	464.38
433.4	468.38
433.622	454.38
433.844	451.38
434.066	452.38
434.287	452.38
434.509	457.38
434.731	465.38
434.953	480.38
435.175	476.38
435.397	502.38
435.618	531.38
435.84	566.38
436.062	632.38
436.284	671.38
436.505	556.38
436.727	523.38
436.949	498.38
437.17	468.38
437.392	465.38
437.614	461.38
437.835	502.38
438.057	568.38
438.278	672.38
438.5	669.38
438.721	721.38
438.943	684.38
439.165	543.38
439.386	503.38
439.608	517.38
439.829	515.38
440.05	545.38
440.272	553.38
440.493	554.38
440.715	507.38
440.936	481.38
441.158	459.38
441.379	467.38
441.6	498.38
441.822	499.38
442.043	532.38
442.264	604.38
442.486	650.38
442.707	544.38
442.928	517.38
443.149	524.38
443.371	531.38
443.592	565.38
443.813	628.38
444.034	709.38
444.255	573.38
444.476	529.38
444.698	540.38
444.919	516.38
445.14	628.38
445.361	572.38
445.582	561.38
445.803	594.38
446.024	672.38
446.245	689.38
446.466	604.38
446.687	519.38
446.908	511.38
447.129	478.38
447.35	443.38
447.571	475.38
447.792	475.38
448.013	465.38
448.234	472.38
448.455	535.38
448.675	610.38
448.896	703.38
449.117	603.38
449.338	578.38
449.559	666.38
449.779	732.38
450	578.38
450.221	521.38
450.442	493.38
450.662	436.38
450.883	456.38
451.104	458.38
451.324	448.38
451.545	460.38
451.766	431.38
451.986	429.38
452.207	419.38
452.428	394.38
452.648	405.38
452.869	409.38
453.089	411.38
453.31	426.38
453.53	422.38
453.751	414.38
453.971	415.38
454.192	427.38
454.412	427.38
454.633	403.38
454.853	395.38
455.073	427.38
455.294	432.38
455.514	476.38
455.734	463.38
455.955	426.38
456.175	426.38
456.395	385.38
456.616	392.38
456.836	403.38
457.056	401.38
457.276	383.38
457.497	400.38
457.717	384.38
457.937	388.38
458.157	400.38
458.377	416.38
458.598	402.38
458.818	451.38
459.038	527.38
459.258	565.38
459.478	484.38
459.698	439.38
459.918	450.38
460.138	425.38
460.358	454.38
460.578	467.38
460.798	461.38
461.018	481.38
461.238	433.38
461.458	443.38
461.678	479.38
461.898	447.38
462.118	457.38
462.338	465.38
462.558	480.38
462.777	460.38
462.997	495.38
463.217	486.38
463.437	540.38
463.657	513.38
463.876	485.38
464.096	501.38
464.316	494.38
464.536	506.38
464.755	500.38
464.975	500.38
465.195	512.38
465.414	539.38
465.634	495.38
465.854	458.38
466.073	449.38
466.293	448.38
466.512	408.38
466.732	429.38
466.951	424.38
467.171	405.38
467.391	442.38
467.61	417.38
467.829	419.38
468.049	441.38
468.268	437.38
468.488	418.38
468.707	419.38
468.927	387.38
469.146	408.38
469.365	427.38
469.585	416.38
469.804	436.38
470.023	418.38
470.243	409.38
470.462	428.38
470.681	452.38
470.901	439.38
471.12	462.38
471.339	447.38
471.558	433.38
471.777	436.38
471.997	418.38
472.216	427.38
472.435	447.38
472.654	423.38
472.873	410.38
473.092	420.38
473.311	390.38
473.53	450.38
473.749	430.38
473.968	458.38
474.187	551.38
474.406	575.38
474.625	472.38
474.844	451.38
475.063	420.38
475.282	424.38
475.501	433.38
475.72	443.38
475.939	433.38
476.158	429.38
476.377	449.38
476.596	434.38
476.814	451.38
477.033	439.38
477.252	436.38
477.471	425.38
477.69	453.38
477.908	441.38
478.127	455.38
478.346	489.38
478.564	484.38
478.783	459.38
479.002	492.38
479.22	479.38
479.439	492.38
479.658	502.38
479.876	513.38
480.095	529.38
480.313	535.38
480.532	536.38
480.751	515.38
480.969	511.38
481.188	565.38
481.406	573.38
481.624	516.38
481.843	521.38
482.061	496.38
482.28	505.38
482.498	489.38
482.717	482.38
482.935	467.38
483.153	477.38
483.372	475.38
483.59	484.38
483.808	483.38
484.027	472.38
484.245	497.38
484.463	502.38
484.681	500.38
484.9	490.38
485.118	501.38
485.336	490.38
485.554	505.38
485.772	500.38
485.99	513.38
486.209	511.38
486.427	518.38
486.645	525.38
486.863	520.38
487.081	528.38
487.299	537.38
487.517	543.38
487.735	524.38
487.953	510.38
488.171	518.38
488.389	521.38
488.607	544.38
488.825	529.38
489.043	511.38
489.261	525.38
489.479	513.38
489.696	529.38
489.914	532.38
490.132	525.38
490.35	531.38
490.568	529.38
490.786	539.38
491.003	567.38
491.221	555.38
491.439	577.38
491.657	578.38
491.874	575.38
492.092	569.38
492.31	589.38
492.527	598.38
492.745	595.38
492.963	576.38
493.18	617.38
493.398	618.38
493.615	585.38
493.833	597.38
494.05	587.38
494.268	618.38
494.485	624.38
494.703	583.38
494.92	607.38
495.138	614.38
495.355	595.38
495.573	601.38
495.79	605.38
496.008	612.38
496.225	586.38
496.442	607.38
496.66	611.38
496.877	597.38
497.094	615.38
497.312	620.38
497.529	635.38
497.746	671.38
497.963	669.38
498.181	679.38
498.398	685.38
498.615	712.38
498.832	717.38
499.049	739.38
499.267	762.38
499.484	769.38
499.701	811.38
499.918	845.38
500.135	881.38
500.352	960.38
500.569	945.38
500.786	968.38
501.003	934.38
501.22	888.38
501.437	872.38
501.654	859.38
501.871	806.38
502.088	771.38
502.305	771.38
502.522	713.38
502.739	690.38
502.956	681.38
503.172	661.38
503.389	649.38
503.606	661.38
503.823	653.38
504.04	623.38
504.256	635.38
504.473	617.38
504.69	629.38
504.907	613.38
505.123	592.38
505.34	604.38
505.557	601.38
505.773	574.38
505.99	593.38
506.207	588.38
506.423	591.38
506.64	571.38
506.856	580.38
507.073	565.38
507.289	592.38
507.506	570.38
507.722	562.38
507.939	574.38
508.155	556.38
508.372	550.38
508.588	552.38
508.805	548.38
509.021	543.38
509.238	548.38
509.454	575.38
509.67	557.38
509.887	547.38
510.103	543.38
510.319	557.38
510.536	619.38
510.752	890.38
510.968	765.38
511.184	563.38
511.401	532.38
511.617	529.38
511.833	529.38
512.049	532.38
512.265	491.38
512.481	525.38
512.698	522.38
512.914	498.38
513.13	507.38
513.346	513.38
513.562	540.38
513.778	513.38
513.994	538.38
514.21	537.38
514.426	527.38
514.642	570.38
514.858	568.38
515.074	597.38
515.29	684.38
515.506	891.38
515.721	751.38
515.937	607.38
516.153	564.38
516.369	552.38
516.585	547.38
516.801	530.38
517.016	535.38
517.232	542.38
517.448	533.38
517.664	549.38
517.879	560.38
518.095	565.38
518.311	545.38
518.527	543.38
518.742	534.38
518.958	539.38
519.173	533.38
519.389	535.38
519.605	533.38
519.82	515.38
520.036	527.38
520.251	552.38
520.467	534.38
520.682	534.38
520.898	573.38
521.113	549.38
521.329	581.38
521.544	623.38
521.76	764.38
521.975	1116.38
522.19	1059.38
522.406	677.38
522.621	549.38
522.836	522.38
523.052	514.38
523.267	480.38
523.482	464.38
523.698	453.38
523.913	471.38
524.128	485.38
524.343	451.38
524.559	448.38
524.774	460.38
524.989	432.38
525.204	447.38
525.419	447.38
525.634	431.38
525.849	448.38
526.064	457.38
526.28	436.38
526.495	405.38
526.71	432.38
526.925	424.38
527.14	424.38
527.355	427.38
527.57	415.38
527.785	428.38
527.999	425.38
528.214	421.38
528.429	417.38
528.644	426.38
528.859	448.38
529.074	437.38
529.289	434.38
529.503	478.38
529.718	479.38
529.933	439.38
530.148	440.38
530.363	449.38
530.577	427.38
530.792	414.38
531.007	433.38
531.221	437.38
531.436	444.38
531.651	421.38
531.865	411.38
532.08	399.38
532.295	442.38
532.509	410.38
532.724	427.38
532.938	436.38
533.153	407.38
533.367	417.38
533.582	421.38
533.796	387.38
534.011	418.38
534.225	396.38
534.44	393.38
534.654	401.38
534.868	412.38
535.083	414.38
535.297	403.38
535.511	415.38
535.726	403.38
535.94	423.38
536.154	391.38
536.369	393.38
536.583	392.38
536.797	380.38
537.011	389.38
537.225	406.38
537.44	410.38
537.654	388.38
537.868	380.38
538.082	403.38
538.296	383.38
538.51	390.38
538.724	389.38
538.938	382.38
539.153	398.38
539.367	383.38
539.581	426.38
539.795	390.38
540.009	379.38
540.222	386.38
540.436	390.38
540.65	397.38
540.864	388.38
541.078	373.38
541.292	399.38
541.506	390.38
541.72	398.38
541.934	381.38
542.147	385.38
542.361	377.38
542.575	364.38
542.789	393.38
543.002	398.38
543.216	397.38
543.43	369.38
543.644	383.38
543.857	411.38
544.071	399.38
544.285	412.38
544.498	393.38
544.712	385.38
544.925	400.38
545.139	398.38
545.352	381.38
545.566	403.38
545.779	380.38
545.993	383.38
546.206	394.38
546.42	406.38
546.633	381.38
546.847	388.38
547.06	382.38
547.274	374.38
547.487	384.38
547.7	355.38
547.914	379.38
548.127	371.38
548.34	369.38
548.554	383.38
548.767	377.38
548.98	399.38
549.193	392.38
549.407	394.38
549.62	390.38
549.833	392.38
550.046	369.38
550.259	379.38
550.473	377.38
550.686	375.38
550.899	372.38
551.112	367.38
551.325	396.38
551.538	391.38
551.751	377.38
551.964	387.38
552.177	390.38
552.39	379.38
552.603	379.38
552.816	372.38
553.029	392.38
553.242	397.38
553.455	392.38
553.667	377.38
553.88	411.38
554.093	392.38
554.306	389.38
554.519	381.38
554.732	390.38
554.944	376.38
555.157	380.38
555.37	362.38
555.583	345.38
555.795	378.38
556.008	361.38
556.221	332.38
556.433	363.38
556.646	341.38
556.859	337.38
557.071	346.38
557.284	339.38
557.496	340.38
557.709	325.38
557.921	333.38
558.134	332.38
558.346	337.38
558.559	344.38
558.771	345.38
558.984	355.38
559.196	334.38
559.409	361.38
559.621	336.38
559.833	331.38
560.046	328.38
560.258	337.38
560.47	344.38
560.683	338.38
560.895	320.38
561.107	337.38
561.32	328.38
561.532	339.38
561.744	345.38
561.956	346.38
562.168	332.38
562.381	328.38
562.593	340.38
562.805	343.38
563.017	343.38
563.229	334.38
563.441	341.38
563.653	336.38
563.865	333.38
564.077	339.38
564.289	343.38
564.501	345.38
564.713	362.38
564.925	342.38
565.137	367.38
565.349	353.38
565.561	369.38
565.773	365.38
565.985	397.38
566.197	378.38
566.408	411.38
566.62	428.38
566.832	425.38
567.044	431.38
567.255	447.38
567.467	456.38
567.679	449.38
567.891	449.38
568.102	462.38
568.314	433.38
568.526	438.38
568.737	421.38
568.949	403.38
569.161	373.38
569.372	364.38
569.584	376.38
569.795	350.38
570.007	359.38
570.218	369.38
570.43	360.38
570.641	339.38
570.853	343.38
571.064	356.38
571.276	322.38
571.487	307.38
571.698	323.38
571.91	306.38
572.121	332.38
572.333	317.38
572.544	307.38
572.755	305.38
572.966	315.38
573.178	300.38
573.389	296.38
573.6	307.38
573.811	287.38
574.023	277.38
574.234	294.38
574.445	295.38
574.656	286.38
574.867	283.38
575.078	299.38
575.289	298.38
575.501	299.38
575.712	288.38
575.923	295.38
576.134	297.38
576.345	283.38
576.556	284.38
576.767	287.38
576.978	287.38
577.188	287.38
577.399	285.38
577.61	282.38
577.821	284.38
578.032	291.38
578.243	302.38
578.454	415.38
578.665	355.38
578.875	289.38
579.086	299.38
579.297	273.38
579.508	279.38
579.718	286.38
579.929	257.38
580.14	245.38
580.35	256.38
580.561	270.38
580.772	252.38
580.982	279.38
581.193	272.38
581.403	274.38
581.614	280.38
581.825	261.38
582.035	270.38
582.246	264.38
582.456	271.38
582.667	244.38
582.877	268.38
583.087	270.38
583.298	265.38
583.508	261.38
583.719	275.38
583.929	266.38
584.139	249.38
584.35	252.38
584.56	287.38
584.77	253.38
584.981	243.38
585.191	267.38
585.401	260.38
585.611	268.38
585.821	250.38
586.032	246.38
586.242	259.38
586.452	259.38
586.662	263.38
586.872	253.38
587.082	269.38
587.292	245.38
587.502	256.38
587.713	245.38
587.923	268.38
588.133	263.38
588.343	246.38
588.553	232.38
588.762	244.38
588.972	261.38
589.182	278.38
589.392	250.38
589.602	249.38
589.812	246.38
590.022	249.38
590.232	259.38
590.441	252.38
590.651	257.38
590.861	264.38
591.071	281.38
591.281	244.38
591.49	265.38
591.7	256.38
591.91	260.38
592.119	261.38
592.329	255.38
592.539	267.38
592.748	276.38
592.958	280.38
593.167	277.38
593.377	267.38
593.587	297.38
593.796	276.38
594.006	284.38
594.215	289.38
594.424	251.38
594.634	276.38
594.843	252.38
595.053	259.38
595.262	279.38
595.472	264.38
595.681	253.38
595.89	252.38
596.1	264.38
596.309	263.38
596.518	245.38
596.727	250.38
596.937	226.38
597.146	228.38
597.355	247.38
597.564	247.38
597.774	247.38
597.983	240.38
598.192	234.38
598.401	215.38
598.61	230.38
598.819	229.38
599.028	225.38
599.237	220.38
599.446	233.38
599.655	224.38
599.864	249.38
600.073	215.38
600.282	241.38
600.491	224.38
600.7	230.38
600.909	217.38
601.118	222.38
601.327	210.38
601.536	206.38
601.745	204.38
601.953	213.38
602.162	218.38
602.371	220.38
602.58	220.38
602.789	200.38
602.997	227.38
603.206	212.38
603.415	209.38
603.623	203.38
603.832	216.38
604.041	220.38
604.249	223.38
604.458	231.38
604.666	210.38
604.875	219.38
605.084	225.38
605.292	204.38
605.501	219.38
605.709	229.38
605.918	219.38
606.126	219.38
606.334	218.38
606.543	208.38
606.751	211.38
606.96	204.38
607.168	204.38
607.376	210.38
607.585	215.38
607.793	217.38
608.001	223.38
608.21	210.38
608.418	223.38
608.626	210.38
608.834	210.38
609.043	206.38
609.251	197.38
609.459	204.38
609.667	219.38
609.875	199.38
610.083	212.38
610.291	213.38
610.499	229.38
610.707	209.38
610.916	215.38
611.124	203.38
611.332	216.38
611.54	210.38
611.748	218.38
611.955	212.38
612.163	217.38
612.371	198.38
612.579	211.38
612.787	193.38
612.995	199.38
613.203	212.38
613.411	219.38
613.618	201.38
613.826	195.38
614.034	202.38
614.242	202.38
614.449	227.38
614.657	216.38
614.865	206.38
615.072	220.38
615.28	213.38
615.488	211.38
615.695	223.38
615.903	208.38
616.111	203.38
616.318	204.38
616.526	200.38
616.733	210.38
616.941	205.38
617.148	188.38
617.356	210.38
617.563	199.38
617.771	208.38
617.978	210.38
618.185	210.38
618.393	207.38
618.6	212.38
618.807	209.38
619.015	215.38
619.222	188.38
619.429	194.38
619.637	194.38
619.844	199.38
620.051	212.38
620.258	194.38
620.466	197.38
620.673	196.38
620.88	192.38
621.087	195.38
621.294	196.38
621.501	179.38
621.708	193.38
621.915	199.38
622.122	177.38
622.329	185.38
622.536	205.38
622.743	203.38
622.95	194.38
623.157	169.38
623.364	191.38
623.571	191.38
623.778	182.38
623.985	179.38
624.192	189.38
624.399	185.38
624.606	201.38
624.812	179.38
625.019	178.38
625.226	183.38
625.433	177.38
625.639	208.38
625.846	176.38
626.053	195.38
626.259	203.38
626.466	192.38
626.673	177.38
626.879	187.38
627.086	180.38
627.293	194.38
627.499	185.38
627.706	198.38
627.912	191.38
628.119	171.38
628.325	166.38
628.532	179.38
628.738	169.38
628.945	166.38
629.151	161.38
629.357	179.38
629.564	172.38
629.77	177.38
629.976	157.38
630.183	186.38
630.389	188.38
630.595	183.38
630.802	168.38
631.008	168.38
631.214	167.38
631.42	179.38
631.627	174.38
631.833	177.38
632.039	149.38
632.245	178.38
632.451	174.38
632.657	157.38
632.863	179.38
633.069	173.38
633.275	172.38
633.481	164.38
633.688	177.38
633.893	173.38
634.099	146.38
634.305	161.38
634.511	167.38
634.717	162.38
634.923	155.38
635.129	168.38
635.335	155.38
635.541	153.38
635.747	165.38
635.952	166.38
636.158	168.38
636.364	181.38
636.57	177.38
636.775	151.38
636.981	144.38
637.187	153.38
637.392	183.38
637.598	169.38
637.804	161.38
638.009	171.38
638.215	160.38
638.421	154.38
638.626	155.38
638.832	149.38
639.037	152.38
639.243	155.38
639.448	159.38
639.654	152.38
639.859	156.38
640.065	141.38
640.27	155.38
640.475	147.38
640.681	149.38
640.886	154.38
641.091	154.38
641.297	153.38
641.502	151.38
641.707	151.38
641.913	159.38
642.118	163.38
642.323	162.38
642.528	156.38
642.733	151.38
642.939	170.38
643.144	151.38
643.349	149.38
643.554	142.38
643.759	143.38
643.964	143.38
644.169	149.38
644.374	141.38
644.579	165.38
644.784	148.38
644.989	140.38
645.194	166.38
645.399	148.38
645.604	140.38
645.809	150.38
646.014	140.38
646.219	142.38
646.423	127.38
646.628	126.38
646.833	140.38
647.038	162.38
647.243	151.38
647.447	137.38
647.652	156.38
647.857	153.38
648.062	142.38
648.266	157.38
648.471	147.38
648.676	172.38
648.88	149.38
649.085	127.38
649.289	159.38
649.494	147.38
649.698	156.38
649.903	161.38
650.107	144.38
650.312	151.38
650.516	163.38
650.721	140.38
650.925	156.38
651.13	159.38
651.334	135.38
651.539	150.38
651.743	135.38
651.947	136.38
652.152	139.38
652.356	125.38
652.56	137.38
652.764	133.38
652.969	139.38
653.173	117.38
653.377	132.38
653.581	138.38
653.785	126.38
653.99	132.38
654.194	127.38
654.398	113.38
654.602	131.38
654.806	137.38
655.01	132.38
655.214	121.38
655.418	123.38
655.622	122.38
655.826	124.38
656.03	122.38
656.234	139.38
656.438	134.38
656.642	130.38
656.846	147.38
657.049	137.38
657.253	115.38
657.457	111.38
657.661	129.38
657.865	119.38
658.068	112.38
658.272	108.38
658.476	103.38
658.68	97.38
658.883	114.38
659.087	112.38
659.291	120.38
659.494	92.38
659.698	95.38
659.901	104.38
660.105	97.38
660.309	78.38
660.512	80.38
660.716	78.38
660.919	89.38
661.123	72.38
661.326	82.38
661.53	92.38
661.733	88.38
661.936	82.38
662.14	91.38
662.343	91.38
662.546	91.38
662.75	93.38
662.953	91.38
663.156	73.38
663.36	101.38
663.563	80.38
663.766	77.38
663.969	93.38
664.173	74.38
664.376	85.38
664.579	84.38
664.782	80.38
664.985	99.38
665.188	94.38
665.391	81.38
665.594	80.38
665.797	96.38
666	73.38
666.203	80.38
666.406	79.38
666.609	74.38
666.812	84.38
667.015	82.38
667.218	82.38
667.421	84.38
667.624	80.38
667.827	70.38
668.03	80.38
668.232	86.38
668.435	96.38
668.638	90.38
668.841	81.38
669.043	77.38
669.246	73.38
669.449	81.38
669.651	84.38
669.854	77.38
670.057	60.38
670.259	89.38
670.462	91.38
670.665	82.38
670.867	77.38
671.07	89.38
671.272	85.38
671.475	86.38
671.677	71.38
671.88	66.38
672.082	85.38
672.284	75.38
672.487	92.38
672.689	95.38
672.892	89.38
