Data from 1977.PennyLincolnUp.Lamp.En5.5.200Scan.071719.P1_HRD10591_16-06-17-863.txt Node
Date: Thu Jul 18 16:06:17 EDT 2019
User: cochatt
Spectrometer: HR+D1059
Trigger mode: 1
Integration Time (sec): 1.000000E-1
Scans to average: 1
Electric dark correction enabled: true
Nonlinearity correction enabled: false
Boxcar width: 0
XAxis mode: Wavelengths
Number of Pixels in Spectrum: 2048
>>>>>Begin Spectral Data<<<<<
223.165	-15.19
223.4	-15.19
223.635	-15.19
223.869	-13.19
224.104	-14.19
224.338	-8.19
224.573	-22.19
224.808	-0.19
225.042	-7.19
225.277	17.81
225.511	-15.19
225.746	18.81
225.98	-1.19
226.215	-11.19
226.449	6.81
226.683	21.81
226.918	24.81
227.152	17.81
227.387	16.81
227.621	38.81
227.856	45.81
228.09	32.81
228.324	44.81
228.559	51.81
228.793	61.81
229.027	77.81
229.262	85.81
229.496	107.81
229.73	110.81
229.964	122.81
230.199	115.81
230.433	118.81
230.667	87.81
230.901	96.81
231.136	108.81
231.37	122.81
231.604	107.81
231.838	97.81
232.072	111.81
232.306	111.81
232.541	114.81
232.775	103.81
233.009	98.81
233.243	121.81
233.477	101.81
233.711	117.81
233.945	106.81
234.179	120.81
234.413	127.81
234.647	115.81
234.881	130.81
235.115	121.81
235.349	112.81
235.583	106.81
235.817	106.81
236.051	126.81
236.285	140.81
236.519	120.81
236.753	129.81
236.987	137.81
237.221	168.81
237.455	201.81
237.689	161.81
237.922	135.81
238.156	130.81
238.39	107.81
238.624	122.81
238.858	115.81
239.091	118.81
239.325	120.81
239.559	117.81
239.793	131.81
240.027	133.81
240.26	128.81
240.494	143.81
240.728	141.81
240.961	140.81
241.195	134.81
241.429	126.81
241.662	128.81
241.896	127.81
242.13	129.81
242.363	122.81
242.597	129.81
242.83	139.81
243.064	127.81
243.298	132.81
243.531	129.81
243.765	140.81
243.998	154.81
244.232	131.81
244.465	141.81
244.699	130.81
244.932	143.81
245.166	121.81
245.399	143.81
245.633	147.81
245.866	127.81
246.099	146.81
246.333	136.81
246.566	150.81
246.8	140.81
247.033	139.81
247.266	148.81
247.5	152.81
247.733	158.81
247.966	174.81
248.2	151.81
248.433	176.81
248.666	185.81
248.899	169.81
249.133	194.81
249.366	191.81
249.599	179.81
249.832	177.81
250.066	178.81
250.299	181.81
250.532	185.81
250.765	193.81
250.998	213.81
251.231	198.81
251.465	196.81
251.698	175.81
251.931	203.81
252.164	179.81
252.397	190.81
252.63	194.81
252.863	192.81
253.096	210.81
253.329	200.81
253.562	206.81
253.795	208.81
254.028	195.81
254.261	200.81
254.494	222.81
254.727	242.81
254.96	262.81
255.193	241.81
255.426	227.81
255.659	233.81
255.892	203.81
256.124	209.81
256.357	219.81
256.59	202.81
256.823	213.81
257.056	219.81
257.289	195.81
257.521	225.81
257.754	219.81
257.987	223.81
258.22	219.81
258.452	213.81
258.685	199.81
258.918	209.81
259.151	209.81
259.383	198.81
259.616	209.81
259.849	218.81
260.081	233.81
260.314	246.81
260.547	261.81
260.779	254.81
261.012	245.81
261.244	223.81
261.477	227.81
261.71	207.81
261.942	223.81
262.175	220.81
262.407	211.81
262.64	205.81
262.872	215.81
263.105	197.81
263.337	199.81
263.57	211.81
263.802	222.81
264.035	200.81
264.267	219.81
264.499	223.81
264.732	215.81
264.964	218.81
265.197	205.81
265.429	220.81
265.661	212.81
265.894	220.81
266.126	208.81
266.358	205.81
266.591	228.81
266.823	241.81
267.055	226.81
267.287	227.81
267.52	212.81
267.752	218.81
267.984	226.81
268.216	234.81
268.448	234.81
268.681	234.81
268.913	255.81
269.145	261.81
269.377	275.81
269.609	253.81
269.841	287.81
270.073	267.81
270.306	278.81
270.538	293.81
270.77	322.81
271.002	292.81
271.234	283.81
271.466	283.81
271.698	296.81
271.93	291.81
272.162	309.81
272.394	307.81
272.626	279.81
272.858	277.81
273.09	283.81
273.322	272.81
273.553	266.81
273.785	259.81
274.017	270.81
274.249	263.81
274.481	265.81
274.713	270.81
274.945	269.81
275.176	268.81
275.408	280.81
275.64	260.81
275.872	242.81
276.104	278.81
276.335	267.81
276.567	265.81
276.799	280.81
277.031	318.81
277.262	309.81
277.494	317.81
277.726	294.81
277.957	298.81
278.189	282.81
278.421	265.81
278.652	286.81
278.884	297.81
279.115	279.81
279.347	284.81
279.579	282.81
279.81	246.81
280.042	265.81
280.273	269.81
280.505	261.81
280.736	273.81
280.968	289.81
281.199	278.81
281.431	290.81
281.662	285.81
281.894	284.81
282.125	292.81
282.356	290.81
282.588	295.81
282.819	306.81
283.051	291.81
283.282	280.81
283.513	288.81
283.745	299.81
283.976	283.81
284.207	291.81
284.439	295.81
284.67	279.81
284.901	303.81
285.132	274.81
285.364	279.81
285.595	290.81
285.826	305.81
286.057	304.81
286.288	291.81
286.52	291.81
286.751	279.81
286.982	290.81
287.213	296.81
287.444	297.81
287.675	311.81
287.906	299.81
288.138	310.81
288.369	306.81
288.6	313.81
288.831	319.81
289.062	283.81
289.293	309.81
289.524	291.81
289.755	313.81
289.986	324.81
290.217	311.81
290.448	325.81
290.679	308.81
290.91	306.81
291.141	315.81
291.371	299.81
291.602	308.81
291.833	310.81
292.064	314.81
292.295	309.81
292.526	314.81
292.757	302.81
292.987	294.81
293.218	283.81
293.449	309.81
293.68	308.81
293.91	311.81
294.141	310.81
294.372	305.81
294.603	313.81
294.833	312.81
295.064	305.81
295.295	322.81
295.525	311.81
295.756	325.81
295.987	310.81
296.217	329.81
296.448	327.81
296.679	315.81
296.909	304.81
297.14	312.81
297.37	321.81
297.601	318.81
297.831	322.81
298.062	314.81
298.292	308.81
298.523	334.81
298.753	322.81
298.984	319.81
299.214	343.81
299.445	318.81
299.675	325.81
299.905	337.81
300.136	331.81
300.366	330.81
300.597	335.81
300.827	330.81
301.057	324.81
301.288	327.81
301.518	336.81
301.748	341.81
301.979	342.81
302.209	339.81
302.439	341.81
302.669	341.81
302.9	354.81
303.13	350.81
303.36	347.81
303.59	334.81
303.82	342.81
304.051	337.81
304.281	362.81
304.511	341.81
304.741	343.81
304.971	345.81
305.201	352.81
305.431	342.81
305.661	346.81
305.891	350.81
306.121	359.81
306.352	342.81
306.582	352.81
306.812	335.81
307.042	352.81
307.272	360.81
307.502	349.81
307.731	344.81
307.961	351.81
308.191	341.81
308.421	362.81
308.651	354.81
308.881	336.81
309.111	337.81
309.341	342.81
309.571	373.81
309.8	389.81
310.03	373.81
310.26	357.81
310.49	394.81
310.72	382.81
310.949	404.81
311.179	387.81
311.409	385.81
311.639	369.81
311.868	367.81
312.098	377.81
312.328	392.81
312.557	399.81
312.787	405.81
313.017	403.81
313.246	390.81
313.476	381.81
313.706	386.81
313.935	385.81
314.165	390.81
314.394	399.81
314.624	398.81
314.853	408.81
315.083	403.81
315.312	391.81
315.542	378.81
315.771	370.81
316.001	369.81
316.23	413.81
316.46	379.81
316.689	385.81
316.919	382.81
317.148	385.81
317.377	405.81
317.607	402.81
317.836	387.81
318.065	381.81
318.295	383.81
318.524	370.81
318.753	395.81
318.983	388.81
319.212	393.81
319.441	407.81
319.67	400.81
319.9	390.81
320.129	405.81
320.358	389.81
320.587	384.81
320.816	419.81
321.046	416.81
321.275	399.81
321.504	401.81
321.733	413.81
321.962	403.81
322.191	417.81
322.42	418.81
322.649	430.81
322.878	446.81
323.108	444.81
323.337	471.81
323.566	468.81
323.795	477.81
324.024	511.81
324.253	616.81
324.482	831.81
324.71	1217.81
324.939	1706.81
325.168	1447.81
325.397	785.81
325.626	597.81
325.855	498.81
326.084	470.81
326.313	487.81
326.542	467.81
326.77	507.81
326.999	573.81
327.228	738.81
327.457	1102.81
327.686	1245.81
327.914	851.81
328.143	609.81
328.372	546.81
328.6	528.81
328.829	511.81
329.058	501.81
329.287	512.81
329.515	495.81
329.744	478.81
329.972	500.81
330.201	503.81
330.43	521.81
330.658	543.81
330.887	543.81
331.115	528.81
331.344	489.81
331.572	479.81
331.801	468.81
332.03	470.81
332.258	460.81
332.486	473.81
332.715	459.81
332.943	459.81
333.172	449.81
333.4	476.81
333.629	470.81
333.857	464.81
334.085	510.81
334.314	496.81
334.542	503.81
334.771	524.81
334.999	497.81
335.227	490.81
335.455	478.81
335.684	462.81
335.912	464.81
336.14	460.81
336.369	443.81
336.597	453.81
336.825	473.81
337.053	449.81
337.281	459.81
337.51	458.81
337.738	442.81
337.966	417.81
338.194	425.81
338.422	416.81
338.65	456.81
338.878	438.81
339.106	447.81
339.334	429.81
339.562	419.81
339.79	435.81
340.018	417.81
340.246	415.81
340.474	442.81
340.702	433.81
340.93	422.81
341.158	457.81
341.386	426.81
341.614	423.81
341.842	446.81
342.07	433.81
342.298	449.81
342.526	427.81
342.754	417.81
342.981	421.81
343.209	441.81
343.437	435.81
343.665	456.81
343.893	448.81
344.12	452.81
344.348	449.81
344.576	452.81
344.804	463.81
345.031	442.81
345.259	434.81
345.487	429.81
345.714	438.81
345.942	408.81
346.17	415.81
346.397	399.81
346.625	433.81
346.853	407.81
347.08	403.81
347.308	417.81
347.535	419.81
347.763	413.81
347.99	421.81
348.218	406.81
348.445	417.81
348.673	429.81
348.9	409.81
349.128	402.81
349.355	388.81
349.583	394.81
349.81	404.81
350.037	399.81
350.265	403.81
350.492	395.81
350.72	400.81
350.947	413.81
351.174	420.81
351.402	416.81
351.629	405.81
351.856	399.81
352.083	394.81
352.311	421.81
352.538	400.81
352.765	411.81
352.992	413.81
353.22	391.81
353.447	371.81
353.674	404.81
353.901	381.81
354.128	378.81
354.355	381.81
354.583	402.81
354.81	383.81
355.037	389.81
355.264	386.81
355.491	380.81
355.718	396.81
355.945	400.81
356.172	386.81
356.399	385.81
356.626	386.81
356.853	385.81
357.08	374.81
357.307	393.81
357.534	387.81
357.761	394.81
357.988	374.81
358.215	390.81
358.441	386.81
358.668	382.81
358.895	393.81
359.122	381.81
359.349	399.81
359.576	392.81
359.802	403.81
360.029	407.81
360.256	444.81
360.483	405.81
360.709	384.81
360.936	402.81
361.163	390.81
361.39	392.81
361.616	389.81
361.843	393.81
362.07	408.81
362.296	392.81
362.523	393.81
362.749	411.81
362.976	398.81
363.203	374.81
363.429	398.81
363.656	388.81
363.882	380.81
364.109	390.81
364.335	363.81
364.562	375.81
364.788	394.81
365.015	399.81
365.241	386.81
365.468	378.81
365.694	362.81
365.92	376.81
366.147	392.81
366.373	386.81
366.599	396.81
366.826	389.81
367.052	379.81
367.278	390.81
367.505	387.81
367.731	378.81
367.957	393.81
368.184	392.81
368.41	382.81
368.636	387.81
368.862	404.81
369.089	396.81
369.315	414.81
369.541	395.81
369.767	393.81
369.993	376.81
370.219	374.81
370.445	378.81
370.672	377.81
370.898	390.81
371.124	398.81
371.35	402.81
371.576	395.81
371.802	385.81
372.028	388.81
372.254	393.81
372.48	385.81
372.706	402.81
372.932	371.81
373.158	385.81
373.384	401.81
373.61	396.81
373.835	409.81
374.061	364.81
374.287	381.81
374.513	402.81
374.739	386.81
374.965	384.81
375.191	408.81
375.416	397.81
375.642	410.81
375.868	394.81
376.094	386.81
376.319	381.81
376.545	386.81
376.771	399.81
376.997	381.81
377.222	388.81
377.448	381.81
377.674	367.81
377.899	374.81
378.125	392.81
378.35	388.81
378.576	369.81
378.802	373.81
379.027	369.81
379.253	386.81
379.478	389.81
379.704	384.81
379.929	395.81
380.155	383.81
380.38	381.81
380.606	360.81
380.831	376.81
381.057	379.81
381.282	374.81
381.507	385.81
381.733	376.81
381.958	377.81
382.184	398.81
382.409	392.81
382.634	386.81
382.86	410.81
383.085	394.81
383.31	353.81
383.535	381.81
383.761	396.81
383.986	412.81
384.211	379.81
384.436	403.81
384.662	393.81
384.887	423.81
385.112	408.81
385.337	415.81
385.562	416.81
385.787	417.81
386.013	419.81
386.238	434.81
386.463	435.81
386.688	413.81
386.913	425.81
387.138	407.81
387.363	410.81
387.588	423.81
387.813	410.81
388.038	429.81
388.263	419.81
388.488	445.81
388.713	432.81
388.938	425.81
389.163	449.81
389.387	413.81
389.612	423.81
389.837	412.81
390.062	414.81
390.287	426.81
390.512	415.81
390.736	415.81
390.961	430.81
391.186	435.81
391.411	434.81
391.636	428.81
391.86	421.81
392.085	451.81
392.31	435.81
392.534	435.81
392.759	420.81
392.984	438.81
393.208	415.81
393.433	434.81
393.658	420.81
393.882	429.81
394.107	420.81
394.331	419.81
394.556	410.81
394.78	429.81
395.005	425.81
395.229	435.81
395.454	423.81
395.678	443.81
395.903	438.81
396.127	454.81
396.352	455.81
396.576	447.81
396.801	428.81
397.025	429.81
397.249	454.81
397.474	453.81
397.698	452.81
397.922	446.81
398.147	451.81
398.371	468.81
398.595	455.81
398.82	482.81
399.044	487.81
399.268	505.81
399.492	549.81
399.717	563.81
399.941	615.81
400.165	602.81
400.389	603.81
400.613	535.81
400.837	529.81
401.062	476.81
401.286	455.81
401.51	477.81
401.734	491.81
401.958	488.81
402.182	471.81
402.406	509.81
402.63	473.81
402.854	477.81
403.078	488.81
403.302	482.81
403.526	487.81
403.75	488.81
403.974	489.81
404.198	488.81
404.422	507.81
404.645	513.81
404.869	500.81
405.093	542.81
405.317	570.81
405.541	584.81
405.765	550.81
405.988	529.81
406.212	535.81
406.436	541.81
406.66	544.81
406.883	527.81
407.107	565.81
407.331	586.81
407.555	635.81
407.778	643.81
408.002	607.81
408.226	559.81
408.449	549.81
408.673	543.81
408.896	569.81
409.12	591.81
409.344	553.81
409.567	511.81
409.791	526.81
410.014	501.81
410.238	500.81
410.461	491.81
410.685	507.81
410.908	494.81
411.132	545.81
411.355	570.81
411.578	541.81
411.802	504.81
412.025	497.81
412.249	502.81
412.472	512.81
412.695	542.81
412.919	503.81
413.142	491.81
413.365	466.81
413.589	477.81
413.812	471.81
414.035	478.81
414.258	463.81
414.482	448.81
414.705	476.81
414.928	454.81
415.151	453.81
415.374	448.81
415.597	456.81
415.821	464.81
416.044	464.81
416.267	463.81
416.49	453.81
416.713	433.81
416.936	454.81
417.159	471.81
417.382	449.81
417.605	443.81
417.828	465.81
418.051	475.81
418.274	464.81
418.497	437.81
418.72	459.81
418.943	472.81
419.166	478.81
419.389	507.81
419.611	495.81
419.834	499.81
420.057	497.81
420.28	476.81
420.503	477.81
420.726	478.81
420.948	495.81
421.171	507.81
421.394	549.81
421.617	515.81
421.839	471.81
422.062	474.81
422.285	487.81
422.507	532.81
422.73	613.81
422.953	564.81
423.175	522.81
423.398	500.81
423.621	485.81
423.843	498.81
424.066	513.81
424.288	504.81
424.511	527.81
424.733	567.81
424.956	633.81
425.178	601.81
425.401	601.81
425.623	600.81
425.846	544.81
426.068	521.81
426.291	482.81
426.513	520.81
426.735	509.81
426.958	525.81
427.18	593.81
427.402	705.81
427.625	781.81
427.847	667.81
428.069	579.81
428.292	524.81
428.514	508.81
428.736	479.81
428.958	471.81
429.181	466.81
429.403	437.81
429.625	471.81
429.847	490.81
430.069	547.81
430.292	541.81
430.514	475.81
430.736	434.81
430.958	465.81
431.18	453.81
431.402	440.81
431.624	425.81
431.846	414.81
432.068	442.81
432.29	429.81
432.512	429.81
432.734	459.81
432.956	452.81
433.178	439.81
433.4	467.81
433.622	448.81
433.844	444.81
434.066	430.81
434.287	431.81
434.509	438.81
434.731	434.81
434.953	464.81
435.175	475.81
435.397	495.81
435.618	510.81
435.84	517.81
436.062	615.81
436.284	663.81
436.505	548.81
436.727	522.81
436.949	470.81
437.17	459.81
437.392	455.81
437.614	479.81
437.835	486.81
438.057	566.81
438.278	642.81
438.5	645.81
438.721	707.81
438.943	694.81
439.165	566.81
439.386	514.81
439.608	491.81
439.829	474.81
440.05	510.81
440.272	541.81
440.493	511.81
440.715	465.81
440.936	477.81
441.158	447.81
441.379	439.81
441.6	481.81
441.822	479.81
442.043	530.81
442.264	584.81
442.486	623.81
442.707	553.81
442.928	511.81
443.149	521.81
443.371	531.81
443.592	568.81
443.813	657.81
444.034	679.81
444.255	595.81
444.476	536.81
444.698	517.81
444.919	534.81
445.14	615.81
445.361	573.81
445.582	561.81
445.803	582.81
446.024	657.81
446.245	647.81
446.466	579.81
446.687	538.81
446.908	483.81
447.129	466.81
447.35	442.81
447.571	443.81
447.792	453.81
448.013	425.81
448.234	448.81
448.455	521.81
448.675	610.81
448.896	680.81
449.117	601.81
449.338	564.81
449.559	659.81
449.779	718.81
450	582.81
450.221	490.81
450.442	459.81
450.662	421.81
450.883	448.81
451.104	438.81
451.324	445.81
451.545	435.81
451.766	432.81
451.986	432.81
452.207	405.81
452.428	390.81
452.648	406.81
452.869	402.81
453.089	416.81
453.31	410.81
453.53	409.81
453.751	389.81
453.971	387.81
454.192	424.81
454.412	404.81
454.633	394.81
454.853	386.81
455.073	385.81
455.294	415.81
455.514	461.81
455.734	458.81
455.955	409.81
456.175	389.81
456.395	379.81
456.616	373.81
456.836	400.81
457.056	372.81
457.276	373.81
457.497	379.81
457.717	345.81
457.937	389.81
458.157	385.81
458.377	407.81
458.598	395.81
458.818	456.81
459.038	510.81
459.258	507.81
459.478	448.81
459.698	437.81
459.918	438.81
460.138	440.81
460.358	441.81
460.578	453.81
460.798	455.81
461.018	450.81
461.238	448.81
461.458	450.81
461.678	440.81
461.898	447.81
462.118	443.81
462.338	476.81
462.558	473.81
462.777	479.81
462.997	477.81
463.217	512.81
463.437	502.81
463.657	506.81
463.876	483.81
464.096	472.81
464.316	456.81
464.536	472.81
464.755	495.81
464.975	486.81
465.195	484.81
465.414	518.81
465.634	473.81
465.854	456.81
466.073	450.81
466.293	416.81
466.512	431.81
466.732	431.81
466.951	421.81
467.171	419.81
467.391	417.81
467.61	412.81
467.829	416.81
468.049	431.81
468.268	435.81
468.488	414.81
468.707	407.81
468.927	392.81
469.146	393.81
469.365	403.81
469.585	429.81
469.804	417.81
470.023	411.81
470.243	419.81
470.462	427.81
470.681	450.81
470.901	407.81
471.12	444.81
471.339	405.81
471.558	425.81
471.777	415.81
471.997	423.81
472.216	414.81
472.435	419.81
472.654	417.81
472.873	418.81
473.092	408.81
473.311	415.81
473.53	421.81
473.749	397.81
473.968	438.81
474.187	542.81
474.406	562.81
474.625	452.81
474.844	422.81
475.063	407.81
475.282	438.81
475.501	433.81
475.72	438.81
475.939	422.81
476.158	431.81
476.377	426.81
476.596	415.81
476.814	442.81
477.033	415.81
477.252	452.81
477.471	446.81
477.69	454.81
477.908	464.81
478.127	446.81
478.346	438.81
478.564	469.81
478.783	451.81
479.002	482.81
479.22	495.81
479.439	509.81
479.658	509.81
479.876	498.81
480.095	497.81
480.313	519.81
480.532	511.81
480.751	517.81
480.969	499.81
481.188	535.81
481.406	549.81
481.624	520.81
481.843	512.81
482.061	502.81
482.28	475.81
482.498	485.81
482.717	475.81
482.935	469.81
483.153	500.81
483.372	482.81
483.59	481.81
483.808	481.81
484.027	479.81
484.245	463.81
484.463	471.81
484.681	495.81
484.9	492.81
485.118	478.81
485.336	480.81
485.554	474.81
485.772	512.81
485.99	490.81
486.209	478.81
486.427	483.81
486.645	513.81
486.863	512.81
487.081	491.81
487.299	513.81
487.517	507.81
487.735	497.81
487.953	509.81
488.171	489.81
488.389	517.81
488.607	511.81
488.825	519.81
489.043	501.81
489.261	511.81
489.479	504.81
489.696	507.81
489.914	511.81
490.132	529.81
490.35	532.81
490.568	522.81
490.786	550.81
491.003	555.81
491.221	557.81
491.439	558.81
491.657	572.81
491.874	572.81
492.092	578.81
492.31	568.81
492.527	568.81
492.745	562.81
492.963	588.81
493.18	594.81
493.398	585.81
493.615	596.81
493.833	608.81
494.05	607.81
494.268	612.81
494.485	609.81
494.703	586.81
494.92	552.81
495.138	594.81
495.355	596.81
495.573	580.81
495.79	597.81
496.008	572.81
496.225	589.81
496.442	587.81
496.66	608.81
496.877	606.81
497.094	613.81
497.312	624.81
497.529	628.81
497.746	634.81
497.963	650.81
498.181	645.81
498.398	643.81
498.615	668.81
498.832	702.81
499.049	705.81
499.267	721.81
499.484	771.81
499.701	777.81
499.918	824.81
500.135	899.81
500.352	917.81
500.569	957.81
500.786	936.81
501.003	936.81
501.22	892.81
501.437	853.81
501.654	832.81
501.871	803.81
502.088	782.81
502.305	738.81
502.522	687.81
502.739	673.81
502.956	717.81
503.172	653.81
503.389	654.81
503.606	630.81
503.823	639.81
504.04	626.81
504.256	625.81
504.473	618.81
504.69	625.81
504.907	615.81
505.123	591.81
505.34	585.81
505.557	598.81
505.773	585.81
505.99	594.81
506.207	600.81
506.423	574.81
506.64	570.81
506.856	578.81
507.073	557.81
507.289	541.81
507.506	549.81
507.722	559.81
507.939	559.81
508.155	543.81
508.372	550.81
508.588	529.81
508.805	528.81
509.021	542.81
509.238	540.81
509.454	523.81
509.67	528.81
509.887	533.81
510.103	548.81
510.319	541.81
510.536	581.81
510.752	854.81
510.968	716.81
511.184	517.81
511.401	531.81
511.617	520.81
511.833	513.81
512.049	511.81
512.265	487.81
512.481	479.81
512.698	494.81
512.914	493.81
513.13	501.81
513.346	493.81
513.562	500.81
513.778	500.81
513.994	506.81
514.21	506.81
514.426	542.81
514.642	536.81
514.858	545.81
515.074	587.81
515.29	626.81
515.506	882.81
515.721	711.81
515.937	580.81
516.153	530.81
516.369	520.81
516.585	511.81
516.801	536.81
517.016	533.81
517.232	518.81
517.448	545.81
517.664	523.81
517.879	532.81
518.095	543.81
518.311	553.81
518.527	549.81
518.742	534.81
518.958	528.81
519.173	529.81
519.389	530.81
519.605	517.81
519.82	505.81
520.036	521.81
520.251	511.81
520.467	536.81
520.682	546.81
520.898	515.81
521.113	519.81
521.329	565.81
521.544	580.81
521.76	699.81
521.975	1031.81
522.19	987.81
522.406	639.81
522.621	529.81
522.836	482.81
523.052	461.81
523.267	453.81
523.482	467.81
523.698	457.81
523.913	449.81
524.128	457.81
524.343	442.81
524.559	413.81
524.774	441.81
524.989	450.81
525.204	435.81
525.419	440.81
525.634	431.81
525.849	437.81
526.064	441.81
526.28	442.81
526.495	442.81
526.71	431.81
526.925	439.81
527.14	412.81
527.355	424.81
527.57	409.81
527.785	415.81
527.999	417.81
528.214	434.81
528.429	429.81
528.644	419.81
528.859	405.81
529.074	415.81
529.289	440.81
529.503	451.81
529.718	445.81
529.933	422.81
530.148	436.81
530.363	436.81
530.577	422.81
530.792	418.81
531.007	404.81
531.221	412.81
531.436	390.81
531.651	404.81
531.865	425.81
532.08	411.81
532.295	427.81
532.509	412.81
532.724	399.81
532.938	394.81
533.153	385.81
533.367	405.81
533.582	389.81
533.796	400.81
534.011	399.81
534.225	391.81
534.44	393.81
534.654	406.81
534.868	413.81
535.083	421.81
535.297	401.81
535.511	403.81
535.726	420.81
535.94	406.81
536.154	385.81
536.369	400.81
536.583	414.81
536.797	382.81
537.011	377.81
537.225	403.81
537.44	382.81
537.654	366.81
537.868	379.81
538.082	379.81
538.296	398.81
538.51	407.81
538.724	395.81
538.938	373.81
539.153	383.81
539.367	395.81
539.581	388.81
539.795	392.81
540.009	406.81
540.222	386.81
540.436	352.81
540.65	395.81
540.864	387.81
541.078	369.81
541.292	382.81
541.506	396.81
541.72	376.81
541.934	398.81
542.147	394.81
542.361	399.81
542.575	371.81
542.789	367.81
543.002	374.81
543.216	405.81
543.43	406.81
543.644	374.81
543.857	380.81
544.071	387.81
544.285	386.81
544.498	377.81
544.712	383.81
544.925	365.81
545.139	391.81
545.352	384.81
545.566	387.81
545.779	380.81
545.993	384.81
546.206	389.81
546.42	401.81
546.633	380.81
546.847	387.81
547.06	361.81
547.274	361.81
547.487	382.81
547.7	387.81
547.914	383.81
548.127	371.81
548.34	373.81
548.554	375.81
548.767	368.81
548.98	371.81
549.193	381.81
549.407	378.81
549.62	394.81
549.833	349.81
550.046	373.81
550.259	375.81
550.473	378.81
550.686	367.81
550.899	369.81
551.112	335.81
551.325	363.81
551.538	365.81
551.751	379.81
551.964	365.81
552.177	366.81
552.39	361.81
552.603	371.81
552.816	375.81
553.029	386.81
553.242	383.81
553.455	389.81
553.667	390.81
553.88	390.81
554.093	389.81
554.306	368.81
554.519	374.81
554.732	370.81
554.944	371.81
555.157	383.81
555.37	358.81
555.583	342.81
555.795	351.81
556.008	358.81
556.221	372.81
556.433	357.81
556.646	335.81
556.859	341.81
557.071	342.81
557.284	326.81
557.496	361.81
557.709	344.81
557.921	335.81
558.134	328.81
558.346	325.81
558.559	349.81
558.771	338.81
558.984	326.81
559.196	324.81
559.409	337.81
559.621	328.81
559.833	341.81
560.046	327.81
560.258	321.81
560.47	328.81
560.683	327.81
560.895	337.81
561.107	327.81
561.32	328.81
561.532	331.81
561.744	322.81
561.956	331.81
562.168	330.81
562.381	334.81
562.593	318.81
562.805	333.81
563.017	321.81
563.229	314.81
563.441	329.81
563.653	326.81
563.865	349.81
564.077	332.81
564.289	332.81
564.501	339.81
564.713	346.81
564.925	368.81
565.137	357.81
565.349	351.81
565.561	372.81
565.773	363.81
565.985	379.81
566.197	393.81
566.408	394.81
566.62	414.81
566.832	416.81
567.044	423.81
567.255	426.81
567.467	450.81
567.679	447.81
567.891	465.81
568.102	457.81
568.314	429.81
568.526	421.81
568.737	408.81
568.949	389.81
569.161	394.81
569.372	367.81
569.584	348.81
569.795	352.81
570.007	356.81
570.218	374.81
570.43	359.81
570.641	346.81
570.853	306.81
571.064	321.81
571.276	334.81
571.487	341.81
571.698	313.81
571.91	320.81
572.121	310.81
572.333	303.81
572.544	313.81
572.755	307.81
572.966	298.81
573.178	305.81
573.389	307.81
573.6	303.81
573.811	279.81
574.023	289.81
574.234	286.81
574.445	309.81
574.656	287.81
574.867	286.81
575.078	284.81
575.289	281.81
575.501	274.81
575.712	291.81
575.923	275.81
576.134	279.81
576.345	283.81
576.556	289.81
576.767	274.81
576.978	274.81
577.188	264.81
577.399	290.81
577.61	270.81
577.821	287.81
578.032	271.81
578.243	317.81
578.454	410.81
578.665	322.81
578.875	293.81
579.086	275.81
579.297	288.81
579.508	277.81
579.718	271.81
579.929	263.81
580.14	249.81
580.35	247.81
580.561	275.81
580.772	264.81
580.982	253.81
581.193	246.81
581.403	262.81
581.614	255.81
581.825	281.81
582.035	265.81
582.246	258.81
582.456	267.81
582.667	266.81
582.877	254.81
583.087	255.81
583.298	238.81
583.508	268.81
583.719	264.81
583.929	265.81
584.139	256.81
584.35	246.81
584.56	233.81
584.77	258.81
584.981	248.81
585.191	241.81
585.401	244.81
585.611	241.81
585.821	253.81
586.032	253.81
586.242	255.81
586.452	258.81
586.662	260.81
586.872	246.81
587.082	251.81
587.292	257.81
587.502	245.81
587.713	252.81
587.923	249.81
588.133	242.81
588.343	251.81
588.553	257.81
588.762	246.81
588.972	258.81
589.182	255.81
589.392	254.81
589.602	255.81
589.812	257.81
590.022	266.81
590.232	266.81
590.441	257.81
590.651	237.81
590.861	248.81
591.071	256.81
591.281	257.81
591.49	249.81
591.7	262.81
591.91	275.81
592.119	261.81
592.329	263.81
592.539	285.81
592.748	291.81
592.958	277.81
593.167	277.81
593.377	259.81
593.587	281.81
593.796	278.81
594.006	277.81
594.215	297.81
594.424	271.81
594.634	272.81
594.843	277.81
595.053	263.81
595.262	262.81
595.472	279.81
595.681	248.81
595.89	242.81
596.1	266.81
596.309	246.81
596.518	237.81
596.727	244.81
596.937	244.81
597.146	254.81
597.355	239.81
597.564	245.81
597.774	243.81
597.983	243.81
598.192	245.81
598.401	222.81
598.61	232.81
598.819	217.81
599.028	210.81
599.237	222.81
599.446	207.81
599.655	219.81
599.864	208.81
600.073	215.81
600.282	211.81
600.491	221.81
600.7	224.81
600.909	202.81
601.118	227.81
601.327	220.81
601.536	209.81
601.745	201.81
601.953	231.81
602.162	221.81
602.371	226.81
602.58	226.81
602.789	212.81
602.997	226.81
603.206	216.81
603.415	218.81
603.623	216.81
603.832	209.81
604.041	219.81
604.249	203.81
604.458	210.81
604.666	217.81
604.875	214.81
605.084	225.81
605.292	206.81
605.501	217.81
605.709	204.81
605.918	206.81
606.126	213.81
606.334	194.81
606.543	211.81
606.751	209.81
606.96	203.81
607.168	204.81
607.376	198.81
607.585	199.81
607.793	201.81
608.001	200.81
608.21	199.81
608.418	201.81
608.626	201.81
608.834	211.81
609.043	206.81
609.251	195.81
609.459	196.81
609.667	198.81
609.875	196.81
610.083	208.81
610.291	214.81
610.499	207.81
610.707	217.81
610.916	212.81
611.124	201.81
611.332	233.81
611.54	195.81
611.748	212.81
611.955	200.81
612.163	200.81
612.371	205.81
612.579	200.81
612.787	212.81
612.995	197.81
613.203	195.81
613.411	186.81
613.618	195.81
613.826	200.81
614.034	199.81
614.242	208.81
614.449	190.81
614.657	200.81
614.865	211.81
615.072	210.81
615.28	203.81
615.488	201.81
615.695	203.81
615.903	203.81
616.111	210.81
616.318	196.81
616.526	189.81
616.733	199.81
616.941	203.81
617.148	203.81
617.356	188.81
617.563	184.81
617.771	204.81
617.978	211.81
618.185	187.81
618.393	215.81
618.6	205.81
618.807	220.81
619.015	222.81
619.222	204.81
619.429	199.81
619.637	201.81
619.844	191.81
620.051	186.81
620.258	182.81
620.466	186.81
620.673	183.81
620.88	215.81
621.087	207.81
621.294	182.81
621.501	184.81
621.708	185.81
621.915	191.81
622.122	181.81
622.329	183.81
622.536	202.81
622.743	201.81
622.95	181.81
623.157	181.81
623.364	203.81
623.571	182.81
623.778	182.81
623.985	185.81
624.192	190.81
624.399	194.81
624.606	185.81
624.812	171.81
625.019	186.81
625.226	169.81
625.433	162.81
625.639	181.81
625.846	175.81
626.053	175.81
626.259	187.81
626.466	169.81
626.673	175.81
626.879	161.81
627.086	166.81
627.293	207.81
627.499	176.81
627.706	182.81
627.912	183.81
628.119	163.81
628.325	178.81
628.532	184.81
628.738	175.81
628.945	168.81
629.151	174.81
629.357	182.81
629.564	170.81
629.77	171.81
629.976	159.81
630.183	168.81
630.389	164.81
630.595	163.81
630.802	166.81
631.008	161.81
631.214	167.81
631.42	160.81
631.627	166.81
631.833	179.81
632.039	155.81
632.245	168.81
632.451	169.81
632.657	183.81
632.863	174.81
633.069	158.81
633.275	173.81
633.481	174.81
633.688	176.81
633.893	169.81
634.099	158.81
634.305	177.81
634.511	153.81
634.717	164.81
634.923	161.81
635.129	140.81
635.335	148.81
635.541	155.81
635.747	162.81
635.952	165.81
636.158	148.81
636.364	144.81
636.57	170.81
636.775	167.81
636.981	155.81
637.187	154.81
637.392	173.81
637.598	157.81
637.804	157.81
638.009	163.81
638.215	138.81
638.421	155.81
638.626	146.81
638.832	170.81
639.037	151.81
639.243	168.81
639.448	149.81
639.654	160.81
639.859	170.81
640.065	149.81
640.27	175.81
640.475	156.81
640.681	145.81
640.886	163.81
641.091	161.81
641.297	154.81
641.502	161.81
641.707	146.81
641.913	155.81
642.118	149.81
642.323	152.81
642.528	133.81
642.733	151.81
642.939	149.81
643.144	146.81
643.349	151.81
643.554	152.81
643.759	147.81
643.964	149.81
644.169	144.81
644.374	152.81
644.579	148.81
644.784	147.81
644.989	130.81
645.194	130.81
645.399	148.81
645.604	139.81
645.809	149.81
646.014	144.81
646.219	147.81
646.423	139.81
646.628	150.81
646.833	141.81
647.038	151.81
647.243	144.81
647.447	154.81
647.652	144.81
647.857	141.81
648.062	134.81
648.266	161.81
648.471	145.81
648.676	165.81
648.88	147.81
649.085	155.81
649.289	166.81
649.494	158.81
649.698	184.81
649.903	153.81
650.107	143.81
650.312	157.81
650.516	157.81
650.721	165.81
650.925	128.81
651.13	123.81
651.334	145.81
651.539	135.81
651.743	149.81
651.947	118.81
652.152	134.81
652.356	126.81
652.56	113.81
652.764	113.81
652.969	131.81
653.173	135.81
653.377	129.81
653.581	119.81
653.785	137.81
653.99	136.81
654.194	137.81
654.398	133.81
654.602	113.81
654.806	122.81
655.01	126.81
655.214	128.81
655.418	133.81
655.622	114.81
655.826	117.81
656.03	133.81
656.234	131.81
656.438	125.81
656.642	130.81
656.846	121.81
657.049	122.81
657.253	124.81
657.457	113.81
657.661	104.81
657.865	115.81
658.068	99.81
658.272	99.81
658.476	87.81
658.68	100.81
658.883	101.81
659.087	89.81
659.291	93.81
659.494	88.81
659.698	83.81
659.901	86.81
660.105	85.81
660.309	78.81
660.512	85.81
660.716	95.81
660.919	87.81
661.123	79.81
661.326	83.81
661.53	83.81
661.733	87.81
661.936	85.81
662.14	88.81
662.343	97.81
662.546	88.81
662.75	87.81
662.953	88.81
663.156	75.81
663.36	87.81
663.563	74.81
663.766	75.81
663.969	67.81
664.173	83.81
664.376	76.81
664.579	72.81
664.782	88.81
664.985	83.81
665.188	95.81
665.391	73.81
665.594	81.81
665.797	88.81
666	78.81
666.203	80.81
666.406	86.81
666.609	76.81
666.812	86.81
667.015	75.81
667.218	74.81
667.421	72.81
667.624	81.81
667.827	79.81
668.03	81.81
668.232	85.81
668.435	74.81
668.638	79.81
668.841	74.81
669.043	78.81
669.246	71.81
669.449	67.81
669.651	64.81
669.854	61.81
670.057	78.81
670.259	67.81
670.462	79.81
670.665	88.81
670.867	94.81
671.07	83.81
671.272	85.81
671.475	84.81
671.677	86.81
671.88	87.81
672.082	87.81
672.284	82.81
672.487	85.81
672.689	79.81
672.892	82.81
