Data from 1977.PennyLincolnUp.Lamp.En5.5.200Scan.071719.P1_HRD10591_16-06-28-864.txt Node
Date: Thu Jul 18 16:06:28 EDT 2019
User: cochatt
Spectrometer: HR+D1059
Trigger mode: 1
Integration Time (sec): 1.000000E-1
Scans to average: 1
Electric dark correction enabled: true
Nonlinearity correction enabled: false
Boxcar width: 0
XAxis mode: Wavelengths
Number of Pixels in Spectrum: 2048
>>>>>Begin Spectral Data<<<<<
223.165	-18.12
223.4	-18.12
223.635	-18.12
223.869	-8.12
224.104	-5.12
224.338	-19.12
224.573	-8.12
224.808	-13.12
225.042	1.88
225.277	-10.12
225.511	-6.12
225.746	3.88
225.98	12.88
226.215	4.88
226.449	14.88
226.683	18.88
226.918	3.88
227.152	26.88
227.387	53.88
227.621	30.88
227.856	37.88
228.09	57.88
228.324	39.88
228.559	46.88
228.793	59.88
229.027	97.88
229.262	93.88
229.496	103.88
229.73	119.88
229.964	140.88
230.199	98.88
230.433	107.88
230.667	109.88
230.901	107.88
231.136	126.88
231.37	118.88
231.604	101.88
231.838	110.88
232.072	124.88
232.306	106.88
232.541	100.88
232.775	106.88
233.009	118.88
233.243	120.88
233.477	95.88
233.711	118.88
233.945	126.88
234.179	113.88
234.413	101.88
234.647	120.88
234.881	112.88
235.115	120.88
235.349	122.88
235.583	101.88
235.817	103.88
236.051	124.88
236.285	116.88
236.519	102.88
236.753	115.88
236.987	140.88
237.221	150.88
237.455	195.88
237.689	156.88
237.922	136.88
238.156	133.88
238.39	134.88
238.624	125.88
238.858	109.88
239.091	116.88
239.325	107.88
239.559	141.88
239.793	123.88
240.027	134.88
240.26	146.88
240.494	129.88
240.728	136.88
240.961	144.88
241.195	137.88
241.429	124.88
241.662	120.88
241.896	123.88
242.13	138.88
242.363	132.88
242.597	149.88
242.83	147.88
243.064	135.88
243.298	150.88
243.531	125.88
243.765	142.88
243.998	129.88
244.232	150.88
244.465	158.88
244.699	143.88
244.932	154.88
245.166	143.88
245.399	150.88
245.633	138.88
245.866	136.88
246.099	134.88
246.333	137.88
246.566	148.88
246.8	158.88
247.033	166.88
247.266	151.88
247.5	166.88
247.733	167.88
247.966	186.88
248.2	171.88
248.433	180.88
248.666	157.88
248.899	172.88
249.133	184.88
249.366	197.88
249.599	185.88
249.832	156.88
250.066	182.88
250.299	188.88
250.532	190.88
250.765	202.88
250.998	204.88
251.231	188.88
251.465	189.88
251.698	201.88
251.931	203.88
252.164	191.88
252.397	184.88
252.63	170.88
252.863	192.88
253.096	204.88
253.329	218.88
253.562	208.88
253.795	209.88
254.028	204.88
254.261	214.88
254.494	222.88
254.727	236.88
254.96	246.88
255.193	235.88
255.426	228.88
255.659	209.88
255.892	229.88
256.124	224.88
256.357	220.88
256.59	215.88
256.823	201.88
257.056	213.88
257.289	222.88
257.521	208.88
257.754	200.88
257.987	195.88
258.22	215.88
258.452	202.88
258.685	209.88
258.918	194.88
259.151	208.88
259.383	216.88
259.616	209.88
259.849	217.88
260.081	242.88
260.314	223.88
260.547	220.88
260.779	236.88
261.012	253.88
261.244	225.88
261.477	225.88
261.71	221.88
261.942	224.88
262.175	220.88
262.407	211.88
262.64	221.88
262.872	199.88
263.105	218.88
263.337	208.88
263.57	219.88
263.802	215.88
264.035	212.88
264.267	200.88
264.499	214.88
264.732	215.88
264.964	218.88
265.197	213.88
265.429	217.88
265.661	222.88
265.894	232.88
266.126	219.88
266.358	216.88
266.591	214.88
266.823	234.88
267.055	216.88
267.287	203.88
267.52	226.88
267.752	233.88
267.984	240.88
268.216	232.88
268.448	238.88
268.681	236.88
268.913	258.88
269.145	264.88
269.377	267.88
269.609	273.88
269.841	246.88
270.073	280.88
270.306	287.88
270.538	296.88
270.77	318.88
271.002	279.88
271.234	284.88
271.466	300.88
271.698	294.88
271.93	294.88
272.162	306.88
272.394	303.88
272.626	286.88
272.858	281.88
273.09	292.88
273.322	270.88
273.553	286.88
273.785	244.88
274.017	254.88
274.249	262.88
274.481	264.88
274.713	251.88
274.945	261.88
275.176	272.88
275.408	248.88
275.64	288.88
275.872	268.88
276.104	270.88
276.335	266.88
276.567	271.88
276.799	292.88
277.031	310.88
277.262	329.88
277.494	316.88
277.726	291.88
277.957	306.88
278.189	284.88
278.421	281.88
278.652	271.88
278.884	294.88
279.115	265.88
279.347	264.88
279.579	288.88
279.81	269.88
280.042	273.88
280.273	284.88
280.505	272.88
280.736	270.88
280.968	261.88
281.199	282.88
281.431	272.88
281.662	298.88
281.894	281.88
282.125	286.88
282.356	294.88
282.588	305.88
282.819	312.88
283.051	285.88
283.282	278.88
283.513	285.88
283.745	288.88
283.976	282.88
284.207	288.88
284.439	297.88
284.67	287.88
284.901	293.88
285.132	311.88
285.364	296.88
285.595	290.88
285.826	275.88
286.057	295.88
286.288	310.88
286.52	293.88
286.751	308.88
286.982	315.88
287.213	299.88
287.444	319.88
287.675	312.88
287.906	312.88
288.138	303.88
288.369	333.88
288.6	311.88
288.831	310.88
289.062	303.88
289.293	311.88
289.524	309.88
289.755	309.88
289.986	299.88
290.217	301.88
290.448	320.88
290.679	304.88
290.91	308.88
291.141	306.88
291.371	318.88
291.602	315.88
291.833	309.88
292.064	295.88
292.295	314.88
292.526	298.88
292.757	298.88
292.987	289.88
293.218	313.88
293.449	310.88
293.68	302.88
293.91	310.88
294.141	322.88
294.372	320.88
294.603	306.88
294.833	303.88
295.064	315.88
295.295	311.88
295.525	313.88
295.756	323.88
295.987	319.88
296.217	324.88
296.448	338.88
296.679	330.88
296.909	313.88
297.14	296.88
297.37	318.88
297.601	337.88
297.831	324.88
298.062	318.88
298.292	325.88
298.523	324.88
298.753	314.88
298.984	317.88
299.214	324.88
299.445	332.88
299.675	326.88
299.905	340.88
300.136	317.88
300.366	322.88
300.597	339.88
300.827	354.88
301.057	344.88
301.288	348.88
301.518	363.88
301.748	333.88
301.979	354.88
302.209	348.88
302.439	350.88
302.669	334.88
302.9	365.88
303.13	349.88
303.36	345.88
303.59	360.88
303.82	335.88
304.051	338.88
304.281	348.88
304.511	342.88
304.741	335.88
304.971	339.88
305.201	344.88
305.431	344.88
305.661	340.88
305.891	349.88
306.121	347.88
306.352	346.88
306.582	341.88
306.812	346.88
307.042	333.88
307.272	367.88
307.502	346.88
307.731	355.88
307.961	349.88
308.191	353.88
308.421	342.88
308.651	361.88
308.881	354.88
309.111	354.88
309.341	360.88
309.571	384.88
309.8	381.88
310.03	380.88
310.26	375.88
310.49	369.88
310.72	382.88
310.949	375.88
311.179	387.88
311.409	389.88
311.639	369.88
311.868	388.88
312.098	368.88
312.328	400.88
312.557	404.88
312.787	400.88
313.017	389.88
313.246	384.88
313.476	394.88
313.706	400.88
313.935	402.88
314.165	402.88
314.394	383.88
314.624	422.88
314.853	384.88
315.083	391.88
315.312	383.88
315.542	381.88
315.771	382.88
316.001	375.88
316.23	380.88
316.46	395.88
316.689	390.88
316.919	396.88
317.148	394.88
317.377	411.88
317.607	381.88
317.836	378.88
318.065	384.88
318.295	391.88
318.524	383.88
318.753	387.88
318.983	375.88
319.212	387.88
319.441	392.88
319.67	405.88
319.9	411.88
320.129	414.88
320.358	390.88
320.587	393.88
320.816	400.88
321.046	401.88
321.275	413.88
321.504	428.88
321.733	416.88
321.962	414.88
322.191	408.88
322.42	423.88
322.649	446.88
322.878	436.88
323.108	441.88
323.337	451.88
323.566	483.88
323.795	513.88
324.024	528.88
324.253	627.88
324.482	820.88
324.71	1174.88
324.939	1670.88
325.168	1398.88
325.397	789.88
325.626	576.88
325.855	514.88
326.084	480.88
326.313	487.88
326.542	489.88
326.77	510.88
326.999	587.88
327.228	780.88
327.457	1095.88
327.686	1260.88
327.914	848.88
328.143	611.88
328.372	564.88
328.6	531.88
328.829	500.88
329.058	522.88
329.287	536.88
329.515	493.88
329.744	485.88
329.972	474.88
330.201	500.88
330.43	510.88
330.658	530.88
330.887	524.88
331.115	513.88
331.344	495.88
331.572	465.88
331.801	505.88
332.03	481.88
332.258	464.88
332.486	466.88
332.715	461.88
332.943	447.88
333.172	471.88
333.4	472.88
333.629	476.88
333.857	498.88
334.085	507.88
334.314	509.88
334.542	514.88
334.771	517.88
334.999	500.88
335.227	491.88
335.455	456.88
335.684	484.88
335.912	471.88
336.14	442.88
336.369	451.88
336.597	477.88
336.825	474.88
337.053	463.88
337.281	442.88
337.51	454.88
337.738	452.88
337.966	430.88
338.194	446.88
338.422	431.88
338.65	441.88
338.878	437.88
339.106	450.88
339.334	439.88
339.562	434.88
339.79	434.88
340.018	430.88
340.246	433.88
340.474	449.88
340.702	448.88
340.93	431.88
341.158	426.88
341.386	435.88
341.614	422.88
341.842	417.88
342.07	444.88
342.298	439.88
342.526	423.88
342.754	414.88
342.981	414.88
343.209	426.88
343.437	435.88
343.665	460.88
343.893	441.88
344.12	456.88
344.348	455.88
344.576	459.88
344.804	444.88
345.031	448.88
345.259	434.88
345.487	440.88
345.714	437.88
345.942	423.88
346.17	416.88
346.397	408.88
346.625	397.88
346.853	413.88
347.08	418.88
347.308	416.88
347.535	418.88
347.763	431.88
347.99	437.88
348.218	414.88
348.445	408.88
348.673	430.88
348.9	403.88
349.128	398.88
349.355	397.88
349.583	391.88
349.81	403.88
350.037	386.88
350.265	402.88
350.492	392.88
350.72	412.88
350.947	404.88
351.174	412.88
351.402	412.88
351.629	397.88
351.856	409.88
352.083	406.88
352.311	423.88
352.538	409.88
352.765	400.88
352.992	413.88
353.22	410.88
353.447	404.88
353.674	403.88
353.901	404.88
354.128	376.88
354.355	375.88
354.583	390.88
354.81	390.88
355.037	398.88
355.264	400.88
355.491	382.88
355.718	377.88
355.945	367.88
356.172	386.88
356.399	388.88
356.626	387.88
356.853	387.88
357.08	378.88
357.307	380.88
357.534	404.88
357.761	389.88
357.988	400.88
358.215	390.88
358.441	373.88
358.668	382.88
358.895	389.88
359.122	377.88
359.349	390.88
359.576	403.88
359.802	425.88
360.029	413.88
360.256	434.88
360.483	427.88
360.709	385.88
360.936	415.88
361.163	414.88
361.39	397.88
361.616	410.88
361.843	394.88
362.07	392.88
362.296	396.88
362.523	382.88
362.749	382.88
362.976	382.88
363.203	389.88
363.429	389.88
363.656	413.88
363.882	389.88
364.109	382.88
364.335	387.88
364.562	384.88
364.788	379.88
365.015	404.88
365.241	400.88
365.468	384.88
365.694	398.88
365.92	389.88
366.147	399.88
366.373	404.88
366.599	384.88
366.826	392.88
367.052	372.88
367.278	375.88
367.505	376.88
367.731	386.88
367.957	382.88
368.184	376.88
368.41	389.88
368.636	398.88
368.862	413.88
369.089	396.88
369.315	398.88
369.541	382.88
369.767	378.88
369.993	404.88
370.219	384.88
370.445	358.88
370.672	386.88
370.898	380.88
371.124	388.88
371.35	403.88
371.576	364.88
371.802	402.88
372.028	388.88
372.254	409.88
372.48	374.88
372.706	378.88
372.932	402.88
373.158	423.88
373.384	385.88
373.61	393.88
373.835	379.88
374.061	398.88
374.287	382.88
374.513	400.88
374.739	403.88
374.965	394.88
375.191	399.88
375.416	397.88
375.642	390.88
375.868	395.88
376.094	408.88
376.319	411.88
376.545	387.88
376.771	401.88
376.997	400.88
377.222	385.88
377.448	399.88
377.674	392.88
377.899	377.88
378.125	402.88
378.35	384.88
378.576	386.88
378.802	364.88
379.027	392.88
379.253	377.88
379.478	394.88
379.704	365.88
379.929	366.88
380.155	384.88
380.38	369.88
380.606	407.88
380.831	373.88
381.057	393.88
381.282	397.88
381.507	403.88
381.733	384.88
381.958	378.88
382.184	368.88
382.409	402.88
382.634	386.88
382.86	387.88
383.085	385.88
383.31	383.88
383.535	403.88
383.761	406.88
383.986	406.88
384.211	386.88
384.436	413.88
384.662	410.88
384.887	419.88
385.112	395.88
385.337	400.88
385.562	426.88
385.787	407.88
386.013	428.88
386.238	414.88
386.463	425.88
386.688	435.88
386.913	418.88
387.138	403.88
387.363	420.88
387.588	430.88
387.813	427.88
388.038	426.88
388.263	427.88
388.488	417.88
388.713	416.88
388.938	424.88
389.163	440.88
389.387	424.88
389.612	407.88
389.837	420.88
390.062	407.88
390.287	422.88
390.512	407.88
390.736	418.88
390.961	417.88
391.186	413.88
391.411	415.88
391.636	426.88
391.86	418.88
392.085	431.88
392.31	420.88
392.534	448.88
392.759	457.88
392.984	423.88
393.208	429.88
393.433	414.88
393.658	431.88
393.882	424.88
394.107	422.88
394.331	427.88
394.556	427.88
394.78	422.88
395.005	439.88
395.229	438.88
395.454	434.88
395.678	429.88
395.903	430.88
396.127	471.88
396.352	445.88
396.576	430.88
396.801	452.88
397.025	420.88
397.249	432.88
397.474	440.88
397.698	445.88
397.922	463.88
398.147	466.88
398.371	475.88
398.595	477.88
398.82	483.88
399.044	498.88
399.268	511.88
399.492	542.88
399.717	586.88
399.941	607.88
400.165	602.88
400.389	610.88
400.613	541.88
400.837	490.88
401.062	502.88
401.286	488.88
401.51	500.88
401.734	469.88
401.958	491.88
402.182	474.88
402.406	487.88
402.63	507.88
402.854	480.88
403.078	495.88
403.302	499.88
403.526	496.88
403.75	504.88
403.974	488.88
404.198	502.88
404.422	510.88
404.645	496.88
404.869	505.88
405.093	512.88
405.317	549.88
405.541	584.88
405.765	567.88
405.988	510.88
406.212	535.88
406.436	522.88
406.66	553.88
406.883	529.88
407.107	538.88
407.331	592.88
407.555	636.88
407.778	640.88
408.002	596.88
408.226	550.88
408.449	527.88
408.673	530.88
408.896	557.88
409.12	608.88
409.344	560.88
409.567	522.88
409.791	501.88
410.014	493.88
410.238	487.88
410.461	476.88
410.685	497.88
410.908	487.88
411.132	540.88
411.355	544.88
411.578	548.88
411.802	518.88
412.025	479.88
412.249	499.88
412.472	509.88
412.695	544.88
412.919	539.88
413.142	514.88
413.365	487.88
413.589	466.88
413.812	462.88
414.035	470.88
414.258	463.88
414.482	477.88
414.705	463.88
414.928	449.88
415.151	483.88
415.374	479.88
415.597	448.88
415.821	462.88
416.044	474.88
416.267	469.88
416.49	447.88
416.713	451.88
416.936	475.88
417.159	464.88
417.382	469.88
417.605	461.88
417.828	471.88
418.051	464.88
418.274	487.88
418.497	470.88
418.72	459.88
418.943	464.88
419.166	514.88
419.389	487.88
419.611	492.88
419.834	487.88
420.057	478.88
420.28	482.88
420.503	484.88
420.726	470.88
420.948	475.88
421.171	509.88
421.394	520.88
421.617	496.88
421.839	501.88
422.062	472.88
422.285	479.88
422.507	545.88
422.73	586.88
422.953	558.88
423.175	510.88
423.398	482.88
423.621	487.88
423.843	517.88
424.066	521.88
424.288	492.88
424.511	506.88
424.733	546.88
424.956	633.88
425.178	614.88
425.401	602.88
425.623	595.88
425.846	545.88
426.068	492.88
426.291	474.88
426.513	501.88
426.735	505.88
426.958	554.88
427.18	615.88
427.402	666.88
427.625	746.88
427.847	636.88
428.069	578.88
428.292	518.88
428.514	490.88
428.736	455.88
428.958	463.88
429.181	445.88
429.403	430.88
429.625	460.88
429.847	468.88
430.069	535.88
430.292	532.88
430.514	469.88
430.736	472.88
430.958	459.88
431.18	450.88
431.402	456.88
431.624	432.88
431.846	445.88
432.068	424.88
432.29	438.88
432.512	437.88
432.734	427.88
432.956	439.88
433.178	447.88
433.4	447.88
433.622	445.88
433.844	440.88
434.066	434.88
434.287	462.88
434.509	427.88
434.731	443.88
434.953	456.88
435.175	482.88
435.397	489.88
435.618	500.88
435.84	520.88
436.062	616.88
436.284	645.88
436.505	530.88
436.727	501.88
436.949	474.88
437.17	459.88
437.392	463.88
437.614	469.88
437.835	488.88
438.057	568.88
438.278	646.88
438.5	640.88
438.721	692.88
438.943	676.88
439.165	525.88
439.386	500.88
439.608	503.88
439.829	511.88
440.05	490.88
440.272	570.88
440.493	516.88
440.715	485.88
440.936	490.88
441.158	459.88
441.379	479.88
441.6	487.88
441.822	484.88
442.043	525.88
442.264	573.88
442.486	619.88
442.707	524.88
442.928	512.88
443.149	526.88
443.371	531.88
443.592	562.88
443.813	639.88
444.034	661.88
444.255	586.88
444.476	526.88
444.698	538.88
444.919	543.88
445.14	589.88
445.361	566.88
445.582	536.88
445.803	601.88
446.024	634.88
446.245	628.88
446.466	583.88
446.687	538.88
446.908	476.88
447.129	459.88
447.35	446.88
447.571	440.88
447.792	454.88
448.013	462.88
448.234	487.88
448.455	494.88
448.675	603.88
448.896	667.88
449.117	599.88
449.338	566.88
449.559	635.88
449.779	712.88
450	578.88
450.221	482.88
450.442	445.88
450.662	449.88
450.883	421.88
451.104	442.88
451.324	442.88
451.545	423.88
451.766	402.88
451.986	414.88
452.207	412.88
452.428	394.88
452.648	404.88
452.869	394.88
453.089	403.88
453.31	416.88
453.53	421.88
453.751	398.88
453.971	406.88
454.192	415.88
454.412	401.88
454.633	407.88
454.853	389.88
455.073	377.88
455.294	417.88
455.514	472.88
455.734	440.88
455.955	399.88
456.175	379.88
456.395	396.88
456.616	383.88
456.836	383.88
457.056	380.88
457.276	389.88
457.497	390.88
457.717	392.88
457.937	414.88
458.157	377.88
458.377	387.88
458.598	406.88
458.818	445.88
459.038	500.88
459.258	496.88
459.478	451.88
459.698	450.88
459.918	433.88
460.138	435.88
460.358	444.88
460.578	448.88
460.798	480.88
461.018	455.88
461.238	441.88
461.458	474.88
461.678	446.88
461.898	452.88
462.118	490.88
462.338	476.88
462.558	472.88
462.777	462.88
462.997	490.88
463.217	504.88
463.437	514.88
463.657	497.88
463.876	486.88
464.096	493.88
464.316	496.88
464.536	484.88
464.755	482.88
464.975	475.88
465.195	478.88
465.414	521.88
465.634	478.88
465.854	449.88
466.073	450.88
466.293	452.88
466.512	421.88
466.732	412.88
466.951	398.88
467.171	431.88
467.391	423.88
467.61	436.88
467.829	424.88
468.049	434.88
468.268	394.88
468.488	415.88
468.707	406.88
468.927	416.88
469.146	394.88
469.365	396.88
469.585	397.88
469.804	407.88
470.023	408.88
470.243	414.88
470.462	406.88
470.681	421.88
470.901	429.88
471.12	424.88
471.339	420.88
471.558	396.88
471.777	423.88
471.997	402.88
472.216	415.88
472.435	432.88
472.654	431.88
472.873	419.88
473.092	412.88
473.311	407.88
473.53	392.88
473.749	416.88
473.968	440.88
474.187	528.88
474.406	538.88
474.625	475.88
474.844	434.88
475.063	438.88
475.282	414.88
475.501	443.88
475.72	420.88
475.939	413.88
476.158	440.88
476.377	434.88
476.596	437.88
476.814	440.88
477.033	444.88
477.252	428.88
477.471	448.88
477.69	448.88
477.908	443.88
478.127	479.88
478.346	439.88
478.564	452.88
478.783	466.88
479.002	478.88
479.22	482.88
479.439	478.88
479.658	500.88
479.876	482.88
480.095	490.88
480.313	537.88
480.532	533.88
480.751	502.88
480.969	508.88
481.188	543.88
481.406	553.88
481.624	542.88
481.843	486.88
482.061	485.88
482.28	492.88
482.498	469.88
482.717	461.88
482.935	472.88
483.153	479.88
483.372	473.88
483.59	495.88
483.808	476.88
484.027	478.88
484.245	487.88
484.463	478.88
484.681	482.88
484.9	487.88
485.118	492.88
485.336	510.88
485.554	498.88
485.772	499.88
485.99	502.88
486.209	527.88
486.427	488.88
486.645	518.88
486.863	538.88
487.081	526.88
487.299	502.88
487.517	509.88
487.735	486.88
487.953	477.88
488.171	528.88
488.389	500.88
488.607	514.88
488.825	524.88
489.043	524.88
489.261	514.88
489.479	519.88
489.696	513.88
489.914	516.88
490.132	531.88
490.35	511.88
490.568	546.88
490.786	518.88
491.003	553.88
491.221	541.88
491.439	573.88
491.657	552.88
491.874	564.88
492.092	580.88
492.31	564.88
492.527	567.88
492.745	556.88
492.963	579.88
493.18	579.88
493.398	598.88
493.615	575.88
493.833	588.88
494.05	581.88
494.268	603.88
494.485	587.88
494.703	590.88
494.92	617.88
495.138	598.88
495.355	598.88
495.573	608.88
495.79	610.88
496.008	618.88
496.225	606.88
496.442	602.88
496.66	598.88
496.877	591.88
497.094	613.88
497.312	606.88
497.529	604.88
497.746	615.88
497.963	655.88
498.181	646.88
498.398	676.88
498.615	693.88
498.832	684.88
499.049	714.88
499.267	733.88
499.484	732.88
499.701	800.88
499.918	827.88
500.135	878.88
500.352	921.88
500.569	925.88
500.786	946.88
501.003	932.88
501.22	914.88
501.437	851.88
501.654	836.88
501.871	791.88
502.088	763.88
502.305	712.88
502.522	712.88
502.739	685.88
502.956	683.88
503.172	668.88
503.389	648.88
503.606	635.88
503.823	631.88
504.04	613.88
504.256	636.88
504.473	615.88
504.69	615.88
504.907	601.88
505.123	621.88
505.34	598.88
505.557	587.88
505.773	564.88
505.99	572.88
506.207	590.88
506.423	568.88
506.64	546.88
506.856	563.88
507.073	555.88
507.289	564.88
507.506	553.88
507.722	542.88
507.939	562.88
508.155	527.88
508.372	539.88
508.588	530.88
508.805	501.88
509.021	556.88
509.238	541.88
509.454	538.88
509.67	547.88
509.887	526.88
510.103	495.88
510.319	522.88
510.536	583.88
510.752	842.88
510.968	695.88
511.184	537.88
511.401	514.88
511.617	523.88
511.833	481.88
512.049	502.88
512.265	492.88
512.481	488.88
512.698	496.88
512.914	493.88
513.13	501.88
513.346	502.88
513.562	489.88
513.778	512.88
513.994	502.88
514.21	515.88
514.426	530.88
514.642	517.88
514.858	548.88
515.074	563.88
515.29	661.88
515.506	863.88
515.721	722.88
515.937	546.88
516.153	537.88
516.369	557.88
516.585	515.88
516.801	532.88
517.016	539.88
517.232	546.88
517.448	552.88
517.664	582.88
517.879	544.88
518.095	554.88
518.311	548.88
518.527	532.88
518.742	511.88
518.958	525.88
519.173	522.88
519.389	518.88
519.605	532.88
519.82	497.88
520.036	506.88
520.251	520.88
520.467	532.88
520.682	534.88
520.898	535.88
521.113	534.88
521.329	561.88
521.544	593.88
521.76	716.88
521.975	1063.88
522.19	1011.88
522.406	622.88
522.621	537.88
522.836	494.88
523.052	501.88
523.267	474.88
523.482	458.88
523.698	455.88
523.913	430.88
524.128	454.88
524.343	461.88
524.559	438.88
524.774	450.88
524.989	439.88
525.204	437.88
525.419	456.88
525.634	446.88
525.849	436.88
526.064	444.88
526.28	447.88
526.495	434.88
526.71	415.88
526.925	406.88
527.14	417.88
527.355	407.88
527.57	431.88
527.785	419.88
527.999	423.88
528.214	415.88
528.429	423.88
528.644	435.88
528.859	406.88
529.074	431.88
529.289	434.88
529.503	472.88
529.718	442.88
529.933	413.88
530.148	412.88
530.363	408.88
530.577	412.88
530.792	431.88
531.007	414.88
531.221	408.88
531.436	431.88
531.651	404.88
531.865	392.88
532.08	423.88
532.295	411.88
532.509	388.88
532.724	406.88
532.938	409.88
533.153	396.88
533.367	408.88
533.582	410.88
533.796	399.88
534.011	421.88
534.225	402.88
534.44	407.88
534.654	400.88
534.868	394.88
535.083	398.88
535.297	404.88
535.511	406.88
535.726	407.88
535.94	413.88
536.154	394.88
536.369	382.88
536.583	378.88
536.797	407.88
537.011	377.88
537.225	391.88
537.44	398.88
537.654	382.88
537.868	382.88
538.082	395.88
538.296	401.88
538.51	408.88
538.724	383.88
538.938	394.88
539.153	384.88
539.367	395.88
539.581	398.88
539.795	402.88
540.009	403.88
540.222	379.88
540.436	394.88
540.65	384.88
540.864	394.88
541.078	396.88
541.292	397.88
541.506	382.88
541.72	384.88
541.934	380.88
542.147	390.88
542.361	391.88
542.575	385.88
542.789	387.88
543.002	370.88
543.216	398.88
543.43	394.88
543.644	373.88
543.857	386.88
544.071	383.88
544.285	397.88
544.498	381.88
544.712	381.88
544.925	389.88
545.139	385.88
545.352	390.88
545.566	382.88
545.779	372.88
545.993	374.88
546.206	380.88
546.42	368.88
546.633	386.88
546.847	400.88
547.06	361.88
547.274	382.88
547.487	372.88
547.7	364.88
547.914	372.88
548.127	378.88
548.34	401.88
548.554	376.88
548.767	348.88
548.98	382.88
549.193	386.88
549.407	376.88
549.62	366.88
549.833	382.88
550.046	366.88
550.259	362.88
550.473	401.88
550.686	358.88
550.899	357.88
551.112	386.88
551.325	370.88
551.538	369.88
551.751	376.88
551.964	357.88
552.177	373.88
552.39	375.88
552.603	381.88
552.816	373.88
553.029	378.88
553.242	379.88
553.455	383.88
553.667	391.88
553.88	374.88
554.093	378.88
554.306	389.88
554.519	381.88
554.732	384.88
554.944	363.88
555.157	356.88
555.37	366.88
555.583	354.88
555.795	358.88
556.008	353.88
556.221	345.88
556.433	342.88
556.646	343.88
556.859	345.88
557.071	340.88
557.284	346.88
557.496	337.88
557.709	329.88
557.921	334.88
558.134	355.88
558.346	323.88
558.559	329.88
558.771	335.88
558.984	322.88
559.196	330.88
559.409	339.88
559.621	330.88
559.833	342.88
560.046	317.88
560.258	333.88
560.47	334.88
560.683	338.88
560.895	324.88
561.107	309.88
561.32	311.88
561.532	331.88
561.744	340.88
561.956	349.88
562.168	326.88
562.381	330.88
562.593	348.88
562.805	326.88
563.017	320.88
563.229	340.88
563.441	362.88
563.653	325.88
563.865	350.88
564.077	330.88
564.289	348.88
564.501	351.88
564.713	327.88
564.925	356.88
565.137	366.88
565.349	382.88
565.561	379.88
565.773	376.88
565.985	385.88
566.197	420.88
566.408	406.88
566.62	412.88
566.832	438.88
567.044	436.88
567.255	444.88
567.467	456.88
567.679	475.88
567.891	471.88
568.102	441.88
568.314	442.88
568.526	436.88
568.737	422.88
568.949	398.88
569.161	396.88
569.372	379.88
569.584	350.88
569.795	366.88
570.007	338.88
570.218	374.88
570.43	376.88
570.641	339.88
570.853	335.88
571.064	346.88
571.276	340.88
571.487	328.88
571.698	326.88
571.91	315.88
572.121	320.88
572.333	310.88
572.544	313.88
572.755	290.88
572.966	298.88
573.178	322.88
573.389	312.88
573.6	312.88
573.811	296.88
574.023	316.88
574.234	290.88
574.445	306.88
574.656	291.88
574.867	302.88
575.078	289.88
575.289	297.88
575.501	286.88
575.712	283.88
575.923	274.88
576.134	299.88
576.345	284.88
576.556	291.88
576.767	273.88
576.978	274.88
577.188	280.88
577.399	280.88
577.61	287.88
577.821	266.88
578.032	281.88
578.243	309.88
578.454	399.88
578.665	338.88
578.875	297.88
579.086	278.88
579.297	268.88
579.508	279.88
579.718	273.88
579.929	267.88
580.14	282.88
580.35	270.88
580.561	278.88
580.772	260.88
580.982	251.88
581.193	265.88
581.403	251.88
581.614	278.88
581.825	256.88
582.035	258.88
582.246	263.88
582.456	267.88
582.667	255.88
582.877	256.88
583.087	285.88
583.298	261.88
583.508	275.88
583.719	273.88
583.929	259.88
584.139	264.88
584.35	242.88
584.56	255.88
584.77	239.88
584.981	262.88
585.191	264.88
585.401	251.88
585.611	256.88
585.821	267.88
586.032	258.88
586.242	246.88
586.452	245.88
586.662	259.88
586.872	249.88
587.082	257.88
587.292	250.88
587.502	247.88
587.713	254.88
587.923	266.88
588.133	243.88
588.343	247.88
588.553	245.88
588.762	234.88
588.972	262.88
589.182	248.88
589.392	252.88
589.602	246.88
589.812	259.88
590.022	253.88
590.232	254.88
590.441	250.88
590.651	257.88
590.861	265.88
591.071	272.88
591.281	263.88
591.49	286.88
591.7	278.88
591.91	282.88
592.119	285.88
592.329	263.88
592.539	276.88
592.748	280.88
592.958	261.88
593.167	261.88
593.377	278.88
593.587	279.88
593.796	278.88
594.006	272.88
594.215	259.88
594.424	266.88
594.634	286.88
594.843	271.88
595.053	259.88
595.262	258.88
595.472	267.88
595.681	240.88
595.89	257.88
596.1	245.88
596.309	249.88
596.518	236.88
596.727	251.88
596.937	244.88
597.146	246.88
597.355	239.88
597.564	242.88
597.774	235.88
597.983	239.88
598.192	235.88
598.401	227.88
598.61	233.88
598.819	228.88
599.028	256.88
599.237	234.88
599.446	222.88
599.655	233.88
599.864	231.88
600.073	240.88
600.282	231.88
600.491	223.88
600.7	224.88
600.909	219.88
601.118	220.88
601.327	220.88
601.536	219.88
601.745	230.88
601.953	231.88
602.162	227.88
602.371	232.88
602.58	227.88
602.789	206.88
602.997	214.88
603.206	201.88
603.415	216.88
603.623	217.88
603.832	227.88
604.041	219.88
604.249	215.88
604.458	199.88
604.666	222.88
604.875	216.88
605.084	217.88
605.292	214.88
605.501	218.88
605.709	222.88
605.918	219.88
606.126	214.88
606.334	219.88
606.543	226.88
606.751	213.88
606.96	219.88
607.168	218.88
607.376	219.88
607.585	221.88
607.793	204.88
608.001	231.88
608.21	187.88
608.418	200.88
608.626	214.88
608.834	212.88
609.043	214.88
609.251	207.88
609.459	215.88
609.667	221.88
609.875	220.88
610.083	214.88
610.291	219.88
610.499	224.88
610.707	198.88
610.916	206.88
611.124	218.88
611.332	216.88
611.54	209.88
611.748	210.88
611.955	218.88
612.163	204.88
612.371	206.88
612.579	200.88
612.787	213.88
612.995	204.88
613.203	213.88
613.411	212.88
613.618	212.88
613.826	217.88
614.034	207.88
614.242	210.88
614.449	200.88
614.657	208.88
614.865	219.88
615.072	215.88
615.28	221.88
615.488	215.88
615.695	207.88
615.903	199.88
616.111	209.88
616.318	198.88
616.526	207.88
616.733	209.88
616.941	207.88
617.148	199.88
617.356	198.88
617.563	213.88
617.771	197.88
617.978	186.88
618.185	212.88
618.393	209.88
618.6	197.88
618.807	213.88
619.015	201.88
619.222	197.88
619.429	206.88
619.637	206.88
619.844	205.88
620.051	199.88
620.258	213.88
620.466	201.88
620.673	200.88
620.88	205.88
621.087	180.88
621.294	181.88
621.501	196.88
621.708	217.88
621.915	192.88
622.122	195.88
622.329	204.88
622.536	211.88
622.743	206.88
622.95	193.88
623.157	188.88
623.364	218.88
623.571	196.88
623.778	211.88
623.985	174.88
624.192	168.88
624.399	192.88
624.606	182.88
624.812	188.88
625.019	183.88
625.226	180.88
625.433	182.88
625.639	191.88
625.846	191.88
626.053	175.88
626.259	195.88
626.466	190.88
626.673	179.88
626.879	178.88
627.086	174.88
627.293	184.88
627.499	195.88
627.706	188.88
627.912	190.88
628.119	173.88
628.325	180.88
628.532	172.88
628.738	173.88
628.945	187.88
629.151	170.88
629.357	169.88
629.564	189.88
629.77	182.88
629.976	178.88
630.183	172.88
630.389	173.88
630.595	175.88
630.802	163.88
631.008	173.88
631.214	183.88
631.42	164.88
631.627	185.88
631.833	148.88
632.039	167.88
632.245	146.88
632.451	155.88
632.657	183.88
632.863	179.88
633.069	168.88
633.275	164.88
633.481	167.88
633.688	154.88
633.893	164.88
634.099	163.88
634.305	161.88
634.511	169.88
634.717	150.88
634.923	175.88
635.129	161.88
635.335	158.88
635.541	171.88
635.747	155.88
635.952	175.88
636.158	159.88
636.364	167.88
636.57	161.88
636.775	162.88
636.981	157.88
637.187	173.88
637.392	169.88
637.598	159.88
637.804	174.88
638.009	159.88
638.215	147.88
638.421	160.88
638.626	171.88
638.832	172.88
639.037	164.88
639.243	158.88
639.448	163.88
639.654	166.88
639.859	152.88
640.065	158.88
640.27	156.88
640.475	155.88
640.681	152.88
640.886	148.88
641.091	147.88
641.297	183.88
641.502	140.88
641.707	160.88
641.913	174.88
642.118	139.88
642.323	163.88
642.528	145.88
642.733	144.88
642.939	161.88
643.144	148.88
643.349	150.88
643.554	158.88
643.759	171.88
643.964	158.88
644.169	160.88
644.374	137.88
644.579	147.88
644.784	157.88
644.989	165.88
645.194	158.88
645.399	154.88
645.604	159.88
645.809	170.88
646.014	150.88
646.219	159.88
646.423	151.88
646.628	171.88
646.833	161.88
647.038	145.88
647.243	147.88
647.447	157.88
647.652	146.88
647.857	164.88
648.062	154.88
648.266	170.88
648.471	154.88
648.676	150.88
648.88	158.88
649.085	146.88
649.289	158.88
649.494	146.88
649.698	158.88
649.903	172.88
650.107	146.88
650.312	144.88
650.516	137.88
650.721	136.88
650.925	144.88
651.13	139.88
651.334	147.88
651.539	142.88
651.743	133.88
651.947	141.88
652.152	144.88
652.356	138.88
652.56	141.88
652.764	144.88
652.969	135.88
653.173	142.88
653.377	140.88
653.581	134.88
653.785	128.88
653.99	134.88
654.194	132.88
654.398	139.88
654.602	120.88
654.806	126.88
655.01	136.88
655.214	129.88
655.418	123.88
655.622	138.88
655.826	137.88
656.03	106.88
656.234	136.88
656.438	124.88
656.642	133.88
656.846	141.88
657.049	137.88
657.253	128.88
657.457	117.88
657.661	118.88
657.865	126.88
658.068	103.88
658.272	95.88
658.476	104.88
658.68	106.88
658.883	90.88
659.087	108.88
659.291	101.88
659.494	101.88
659.698	108.88
659.901	105.88
660.105	89.88
660.309	84.88
660.512	86.88
660.716	93.88
660.919	106.88
661.123	120.88
661.326	86.88
661.53	74.88
661.733	107.88
661.936	83.88
662.14	96.88
662.343	90.88
662.546	81.88
662.75	98.88
662.953	84.88
663.156	81.88
663.36	93.88
663.563	89.88
663.766	87.88
663.969	75.88
664.173	91.88
664.376	95.88
664.579	97.88
664.782	97.88
664.985	87.88
665.188	78.88
665.391	86.88
665.594	84.88
665.797	85.88
666	83.88
666.203	79.88
666.406	79.88
666.609	93.88
666.812	86.88
667.015	88.88
667.218	93.88
667.421	93.88
667.624	92.88
667.827	69.88
668.03	72.88
668.232	73.88
668.435	74.88
668.638	84.88
668.841	86.88
669.043	71.88
669.246	91.88
669.449	96.88
669.651	77.88
669.854	89.88
670.057	78.88
670.259	91.88
670.462	66.88
670.665	91.88
670.867	83.88
671.07	100.88
671.272	85.88
671.475	89.88
671.677	75.88
671.88	84.88
672.082	78.88
672.284	84.88
672.487	92.88
672.689	73.88
672.892	75.88
