Data from 1977.PennyLincolnUp.Lamp.En5.5.200Scan.071719.P1_HRD10591_16-07-03-864.txt Node
Date: Thu Jul 18 16:07:03 EDT 2019
User: cochatt
Spectrometer: HR+D1059
Trigger mode: 1
Integration Time (sec): 1.000000E-1
Scans to average: 1
Electric dark correction enabled: true
Nonlinearity correction enabled: false
Boxcar width: 0
XAxis mode: Wavelengths
Number of Pixels in Spectrum: 2048
>>>>>Begin Spectral Data<<<<<
223.165	-15.75
223.4	-15.75
223.635	-15.75
223.869	-10.75
224.104	-3.75
224.338	-16.75
224.573	-22.75
224.808	-18.75
225.042	-4.75
225.277	-5.75
225.511	-4.75
225.746	-5.75
225.98	0.25
226.215	18.25
226.449	12.25
226.683	21.25
226.918	24.25
227.152	33.25
227.387	40.25
227.621	35.25
227.856	35.25
228.09	67.25
228.324	57.25
228.559	55.25
228.793	49.25
229.027	87.25
229.262	97.25
229.496	114.25
229.73	127.25
229.964	148.25
230.199	126.25
230.433	116.25
230.667	108.25
230.901	114.25
231.136	106.25
231.37	112.25
231.604	127.25
231.838	110.25
232.072	114.25
232.306	109.25
232.541	127.25
232.775	101.25
233.009	106.25
233.243	131.25
233.477	106.25
233.711	112.25
233.945	117.25
234.179	116.25
234.413	117.25
234.647	117.25
234.881	126.25
235.115	115.25
235.349	125.25
235.583	110.25
235.817	107.25
236.051	121.25
236.285	114.25
236.519	111.25
236.753	138.25
236.987	134.25
237.221	186.25
237.455	212.25
237.689	166.25
237.922	150.25
238.156	124.25
238.39	129.25
238.624	130.25
238.858	124.25
239.091	130.25
239.325	126.25
239.559	133.25
239.793	132.25
240.027	123.25
240.26	137.25
240.494	162.25
240.728	154.25
240.961	143.25
241.195	140.25
241.429	142.25
241.662	133.25
241.896	149.25
242.13	149.25
242.363	126.25
242.597	152.25
242.83	151.25
243.064	144.25
243.298	137.25
243.531	123.25
243.765	136.25
243.998	141.25
244.232	140.25
244.465	139.25
244.699	149.25
244.932	148.25
245.166	144.25
245.399	152.25
245.633	154.25
245.866	132.25
246.099	154.25
246.333	155.25
246.566	142.25
246.8	148.25
247.033	156.25
247.266	152.25
247.5	160.25
247.733	160.25
247.966	165.25
248.2	173.25
248.433	167.25
248.666	186.25
248.899	182.25
249.133	183.25
249.366	189.25
249.599	198.25
249.832	191.25
250.066	201.25
250.299	179.25
250.532	182.25
250.765	206.25
250.998	198.25
251.231	220.25
251.465	212.25
251.698	201.25
251.931	182.25
252.164	182.25
252.397	169.25
252.63	206.25
252.863	186.25
253.096	205.25
253.329	218.25
253.562	235.25
253.795	214.25
254.028	216.25
254.261	215.25
254.494	214.25
254.727	238.25
254.96	265.25
255.193	260.25
255.426	236.25
255.659	243.25
255.892	219.25
256.124	219.25
256.357	225.25
256.59	227.25
256.823	205.25
257.056	207.25
257.289	222.25
257.521	199.25
257.754	197.25
257.987	199.25
258.22	205.25
258.452	201.25
258.685	212.25
258.918	211.25
259.151	212.25
259.383	229.25
259.616	226.25
259.849	214.25
260.081	242.25
260.314	262.25
260.547	257.25
260.779	256.25
261.012	243.25
261.244	218.25
261.477	222.25
261.71	220.25
261.942	213.25
262.175	220.25
262.407	223.25
262.64	206.25
262.872	214.25
263.105	215.25
263.337	238.25
263.57	224.25
263.802	203.25
264.035	224.25
264.267	219.25
264.499	229.25
264.732	233.25
264.964	229.25
265.197	218.25
265.429	224.25
265.661	214.25
265.894	218.25
266.126	243.25
266.358	217.25
266.591	220.25
266.823	222.25
267.055	254.25
267.287	223.25
267.52	234.25
267.752	237.25
267.984	235.25
268.216	236.25
268.448	236.25
268.681	244.25
268.913	250.25
269.145	244.25
269.377	277.25
269.609	282.25
269.841	281.25
270.073	277.25
270.306	301.25
270.538	324.25
270.77	312.25
271.002	303.25
271.234	299.25
271.466	312.25
271.698	313.25
271.93	319.25
272.162	303.25
272.394	315.25
272.626	301.25
272.858	290.25
273.09	271.25
273.322	270.25
273.553	268.25
273.785	276.25
274.017	275.25
274.249	281.25
274.481	264.25
274.713	274.25
274.945	278.25
275.176	268.25
275.408	282.25
275.64	298.25
275.872	265.25
276.104	291.25
276.335	277.25
276.567	271.25
276.799	303.25
277.031	308.25
277.262	322.25
277.494	322.25
277.726	318.25
277.957	298.25
278.189	290.25
278.421	276.25
278.652	285.25
278.884	292.25
279.115	309.25
279.347	282.25
279.579	287.25
279.81	275.25
280.042	277.25
280.273	280.25
280.505	275.25
280.736	275.25
280.968	288.25
281.199	268.25
281.431	268.25
281.662	298.25
281.894	272.25
282.125	294.25
282.356	290.25
282.588	313.25
282.819	323.25
283.051	297.25
283.282	284.25
283.513	299.25
283.745	281.25
283.976	299.25
284.207	283.25
284.439	295.25
284.67	302.25
284.901	310.25
285.132	308.25
285.364	311.25
285.595	292.25
285.826	280.25
286.057	313.25
286.288	291.25
286.52	292.25
286.751	302.25
286.982	301.25
287.213	282.25
287.444	304.25
287.675	296.25
287.906	326.25
288.138	309.25
288.369	302.25
288.6	328.25
288.831	333.25
289.062	308.25
289.293	302.25
289.524	322.25
289.755	316.25
289.986	304.25
290.217	311.25
290.448	307.25
290.679	307.25
290.91	320.25
291.141	306.25
291.371	303.25
291.602	313.25
291.833	312.25
292.064	296.25
292.295	316.25
292.526	316.25
292.757	296.25
292.987	299.25
293.218	318.25
293.449	308.25
293.68	315.25
293.91	327.25
294.141	321.25
294.372	318.25
294.603	297.25
294.833	336.25
295.064	309.25
295.295	309.25
295.525	323.25
295.756	315.25
295.987	322.25
296.217	351.25
296.448	331.25
296.679	327.25
296.909	331.25
297.14	320.25
297.37	328.25
297.601	338.25
297.831	330.25
298.062	331.25
298.292	320.25
298.523	325.25
298.753	338.25
298.984	338.25
299.214	320.25
299.445	332.25
299.675	348.25
299.905	340.25
300.136	325.25
300.366	330.25
300.597	337.25
300.827	355.25
301.057	319.25
301.288	354.25
301.518	364.25
301.748	336.25
301.979	329.25
302.209	344.25
302.439	339.25
302.669	343.25
302.9	340.25
303.13	353.25
303.36	354.25
303.59	350.25
303.82	342.25
304.051	361.25
304.281	338.25
304.511	341.25
304.741	337.25
304.971	332.25
305.201	342.25
305.431	355.25
305.661	357.25
305.891	358.25
306.121	356.25
306.352	356.25
306.582	345.25
306.812	318.25
307.042	367.25
307.272	325.25
307.502	354.25
307.731	360.25
307.961	363.25
308.191	343.25
308.421	368.25
308.651	364.25
308.881	347.25
309.111	357.25
309.341	336.25
309.571	362.25
309.8	368.25
310.03	374.25
310.26	376.25
310.49	398.25
310.72	400.25
310.949	378.25
311.179	404.25
311.409	398.25
311.639	390.25
311.868	377.25
312.098	380.25
312.328	394.25
312.557	397.25
312.787	424.25
313.017	413.25
313.246	382.25
313.476	392.25
313.706	390.25
313.935	395.25
314.165	394.25
314.394	393.25
314.624	391.25
314.853	392.25
315.083	383.25
315.312	394.25
315.542	396.25
315.771	379.25
316.001	382.25
316.23	387.25
316.46	383.25
316.689	404.25
316.919	404.25
317.148	415.25
317.377	404.25
317.607	398.25
317.836	390.25
318.065	398.25
318.295	388.25
318.524	401.25
318.753	375.25
318.983	381.25
319.212	392.25
319.441	389.25
319.67	389.25
319.9	407.25
320.129	407.25
320.358	391.25
320.587	398.25
320.816	412.25
321.046	396.25
321.275	432.25
321.504	414.25
321.733	422.25
321.962	418.25
322.191	443.25
322.42	428.25
322.649	436.25
322.878	438.25
323.108	439.25
323.337	458.25
323.566	503.25
323.795	500.25
324.024	539.25
324.253	628.25
324.482	858.25
324.71	1276.25
324.939	1773.25
325.168	1496.25
325.397	833.25
325.626	585.25
325.855	523.25
326.084	491.25
326.313	468.25
326.542	470.25
326.77	526.25
326.999	615.25
327.228	796.25
327.457	1116.25
327.686	1358.25
327.914	937.25
328.143	618.25
328.372	558.25
328.6	523.25
328.829	541.25
329.058	543.25
329.287	526.25
329.515	523.25
329.744	505.25
329.972	490.25
330.201	495.25
330.43	520.25
330.658	531.25
330.887	564.25
331.115	566.25
331.344	494.25
331.572	482.25
331.801	474.25
332.03	476.25
332.258	455.25
332.486	463.25
332.715	458.25
332.943	462.25
333.172	492.25
333.4	486.25
333.629	491.25
333.857	499.25
334.085	497.25
334.314	527.25
334.542	524.25
334.771	523.25
334.999	482.25
335.227	470.25
335.455	483.25
335.684	449.25
335.912	450.25
336.14	467.25
336.369	458.25
336.597	450.25
336.825	471.25
337.053	458.25
337.281	460.25
337.51	447.25
337.738	454.25
337.966	435.25
338.194	455.25
338.422	437.25
338.65	438.25
338.878	474.25
339.106	442.25
339.334	444.25
339.562	457.25
339.79	432.25
340.018	446.25
340.246	442.25
340.474	440.25
340.702	423.25
340.93	441.25
341.158	442.25
341.386	459.25
341.614	449.25
341.842	425.25
342.07	439.25
342.298	429.25
342.526	431.25
342.754	415.25
342.981	414.25
343.209	442.25
343.437	426.25
343.665	434.25
343.893	460.25
344.12	461.25
344.348	455.25
344.576	466.25
344.804	445.25
345.031	450.25
345.259	471.25
345.487	420.25
345.714	438.25
345.942	428.25
346.17	407.25
346.397	431.25
346.625	428.25
346.853	413.25
347.08	419.25
347.308	429.25
347.535	417.25
347.763	423.25
347.99	408.25
348.218	415.25
348.445	425.25
348.673	417.25
348.9	421.25
349.128	424.25
349.355	394.25
349.583	409.25
349.81	415.25
350.037	422.25
350.265	414.25
350.492	422.25
350.72	407.25
350.947	396.25
351.174	421.25
351.402	421.25
351.629	412.25
351.856	412.25
352.083	427.25
352.311	431.25
352.538	403.25
352.765	407.25
352.992	416.25
353.22	410.25
353.447	406.25
353.674	413.25
353.901	405.25
354.128	411.25
354.355	410.25
354.583	401.25
354.81	381.25
355.037	394.25
355.264	394.25
355.491	390.25
355.718	377.25
355.945	386.25
356.172	386.25
356.399	408.25
356.626	380.25
356.853	375.25
357.08	407.25
357.307	391.25
357.534	396.25
357.761	390.25
357.988	376.25
358.215	386.25
358.441	386.25
358.668	387.25
358.895	392.25
359.122	389.25
359.349	409.25
359.576	422.25
359.802	423.25
360.029	426.25
360.256	460.25
360.483	427.25
360.709	405.25
360.936	420.25
361.163	403.25
361.39	405.25
361.616	404.25
361.843	392.25
362.07	432.25
362.296	407.25
362.523	395.25
362.749	400.25
362.976	399.25
363.203	420.25
363.429	397.25
363.656	408.25
363.882	398.25
364.109	399.25
364.335	392.25
364.562	383.25
364.788	380.25
365.015	389.25
365.241	400.25
365.468	389.25
365.694	409.25
365.92	398.25
366.147	388.25
366.373	394.25
366.599	372.25
366.826	398.25
367.052	379.25
367.278	395.25
367.505	392.25
367.731	384.25
367.957	384.25
368.184	386.25
368.41	393.25
368.636	401.25
368.862	405.25
369.089	391.25
369.315	411.25
369.541	384.25
369.767	401.25
369.993	394.25
370.219	400.25
370.445	403.25
370.672	406.25
370.898	394.25
371.124	410.25
371.35	410.25
371.576	390.25
371.802	389.25
372.028	391.25
372.254	393.25
372.48	376.25
372.706	391.25
372.932	382.25
373.158	396.25
373.384	394.25
373.61	394.25
373.835	394.25
374.061	400.25
374.287	403.25
374.513	407.25
374.739	391.25
374.965	401.25
375.191	412.25
375.416	415.25
375.642	381.25
375.868	399.25
376.094	391.25
376.319	394.25
376.545	376.25
376.771	372.25
376.997	382.25
377.222	373.25
377.448	382.25
377.674	385.25
377.899	382.25
378.125	400.25
378.35	390.25
378.576	381.25
378.802	380.25
379.027	393.25
379.253	376.25
379.478	380.25
379.704	388.25
379.929	383.25
380.155	393.25
380.38	381.25
380.606	404.25
380.831	364.25
381.057	420.25
381.282	387.25
381.507	405.25
381.733	396.25
381.958	388.25
382.184	379.25
382.409	390.25
382.634	392.25
382.86	398.25
383.085	410.25
383.31	414.25
383.535	391.25
383.761	390.25
383.986	396.25
384.211	399.25
384.436	419.25
384.662	404.25
384.887	418.25
385.112	421.25
385.337	417.25
385.562	410.25
385.787	419.25
386.013	434.25
386.238	416.25
386.463	413.25
386.688	429.25
386.913	430.25
387.138	438.25
387.363	403.25
387.588	415.25
387.813	425.25
388.038	422.25
388.263	430.25
388.488	426.25
388.713	436.25
388.938	424.25
389.163	419.25
389.387	423.25
389.612	420.25
389.837	420.25
390.062	414.25
390.287	432.25
390.512	427.25
390.736	432.25
390.961	425.25
391.186	421.25
391.411	429.25
391.636	419.25
391.86	430.25
392.085	442.25
392.31	435.25
392.534	428.25
392.759	441.25
392.984	434.25
393.208	433.25
393.433	416.25
393.658	428.25
393.882	435.25
394.107	415.25
394.331	428.25
394.556	443.25
394.78	436.25
395.005	428.25
395.229	443.25
395.454	437.25
395.678	441.25
395.903	451.25
396.127	444.25
396.352	469.25
396.576	453.25
396.801	450.25
397.025	430.25
397.249	456.25
397.474	467.25
397.698	436.25
397.922	452.25
398.147	472.25
398.371	500.25
398.595	477.25
398.82	492.25
399.044	508.25
399.268	526.25
399.492	569.25
399.717	573.25
399.941	583.25
400.165	579.25
400.389	595.25
400.613	574.25
400.837	522.25
401.062	499.25
401.286	483.25
401.51	507.25
401.734	480.25
401.958	522.25
402.182	483.25
402.406	504.25
402.63	480.25
402.854	495.25
403.078	486.25
403.302	494.25
403.526	512.25
403.75	489.25
403.974	496.25
404.198	500.25
404.422	497.25
404.645	519.25
404.869	526.25
405.093	538.25
405.317	572.25
405.541	573.25
405.765	534.25
405.988	518.25
406.212	542.25
406.436	548.25
406.66	542.25
406.883	544.25
407.107	546.25
407.331	592.25
407.555	638.25
407.778	652.25
408.002	606.25
408.226	554.25
408.449	537.25
408.673	533.25
408.896	571.25
409.12	603.25
409.344	564.25
409.567	538.25
409.791	503.25
410.014	492.25
410.238	484.25
410.461	492.25
410.685	502.25
410.908	509.25
411.132	562.25
411.355	562.25
411.578	547.25
411.802	503.25
412.025	504.25
412.249	515.25
412.472	517.25
412.695	560.25
412.919	533.25
413.142	496.25
413.365	474.25
413.589	486.25
413.812	483.25
414.035	478.25
414.258	452.25
414.482	477.25
414.705	464.25
414.928	476.25
415.151	467.25
415.374	471.25
415.597	450.25
415.821	461.25
416.044	460.25
416.267	459.25
416.49	480.25
416.713	456.25
416.936	474.25
417.159	461.25
417.382	456.25
417.605	458.25
417.828	481.25
418.051	491.25
418.274	475.25
418.497	474.25
418.72	476.25
418.943	440.25
419.166	507.25
419.389	513.25
419.611	510.25
419.834	470.25
420.057	502.25
420.28	500.25
420.503	471.25
420.726	470.25
420.948	486.25
421.171	531.25
421.394	537.25
421.617	491.25
421.839	482.25
422.062	490.25
422.285	485.25
422.507	526.25
422.73	608.25
422.953	559.25
423.175	532.25
423.398	504.25
423.621	516.25
423.843	524.25
424.066	534.25
424.288	529.25
424.511	535.25
424.733	596.25
424.956	650.25
425.178	615.25
425.401	617.25
425.623	618.25
425.846	560.25
426.068	527.25
426.291	494.25
426.513	528.25
426.735	502.25
426.958	547.25
427.18	615.25
427.402	724.25
427.625	764.25
427.847	661.25
428.069	591.25
428.292	535.25
428.514	519.25
428.736	468.25
428.958	473.25
429.181	470.25
429.403	468.25
429.625	466.25
429.847	486.25
430.069	565.25
430.292	537.25
430.514	490.25
430.736	447.25
430.958	459.25
431.18	440.25
431.402	446.25
431.624	439.25
431.846	444.25
432.068	456.25
432.29	463.25
432.512	437.25
432.734	451.25
432.956	456.25
433.178	445.25
433.4	447.25
433.622	440.25
433.844	458.25
434.066	447.25
434.287	467.25
434.509	455.25
434.731	456.25
434.953	491.25
435.175	477.25
435.397	484.25
435.618	490.25
435.84	531.25
436.062	603.25
436.284	644.25
436.505	575.25
436.727	505.25
436.949	454.25
437.17	462.25
437.392	474.25
437.614	480.25
437.835	504.25
438.057	585.25
438.278	663.25
438.5	674.25
438.721	723.25
438.943	698.25
439.165	545.25
439.386	516.25
439.608	491.25
439.829	511.25
440.05	525.25
440.272	541.25
440.493	514.25
440.715	477.25
440.936	474.25
441.158	477.25
441.379	504.25
441.6	475.25
441.822	501.25
442.043	522.25
442.264	608.25
442.486	649.25
442.707	552.25
442.928	526.25
443.149	527.25
443.371	537.25
443.592	563.25
443.813	652.25
444.034	706.25
444.255	572.25
444.476	544.25
444.698	527.25
444.919	518.25
445.14	605.25
445.361	558.25
445.582	539.25
445.803	593.25
446.024	658.25
446.245	674.25
446.466	605.25
446.687	512.25
446.908	500.25
447.129	461.25
447.35	493.25
447.571	457.25
447.792	440.25
448.013	458.25
448.234	479.25
448.455	518.25
448.675	596.25
448.896	714.25
449.117	588.25
449.338	541.25
449.559	657.25
449.779	730.25
450	582.25
450.221	510.25
450.442	477.25
450.662	445.25
450.883	448.25
451.104	449.25
451.324	455.25
451.545	434.25
451.766	424.25
451.986	402.25
452.207	386.25
452.428	412.25
452.648	400.25
452.869	396.25
453.089	408.25
453.31	429.25
453.53	411.25
453.751	431.25
453.971	407.25
454.192	421.25
454.412	406.25
454.633	390.25
454.853	388.25
455.073	402.25
455.294	432.25
455.514	479.25
455.734	465.25
455.955	409.25
456.175	397.25
456.395	400.25
456.616	377.25
456.836	376.25
457.056	403.25
457.276	367.25
457.497	400.25
457.717	390.25
457.937	409.25
458.157	396.25
458.377	403.25
458.598	436.25
458.818	451.25
459.038	518.25
459.258	535.25
459.478	462.25
459.698	455.25
459.918	436.25
460.138	454.25
460.358	455.25
460.578	475.25
460.798	450.25
461.018	479.25
461.238	445.25
461.458	460.25
461.678	453.25
461.898	456.25
462.118	471.25
462.338	461.25
462.558	481.25
462.777	463.25
462.997	486.25
463.217	517.25
463.437	524.25
463.657	505.25
463.876	476.25
464.096	474.25
464.316	480.25
464.536	494.25
464.755	492.25
464.975	504.25
465.195	495.25
465.414	545.25
465.634	496.25
465.854	459.25
466.073	459.25
466.293	431.25
466.512	422.25
466.732	434.25
466.951	414.25
467.171	417.25
467.391	424.25
467.61	428.25
467.829	412.25
468.049	422.25
468.268	434.25
468.488	408.25
468.707	404.25
468.927	405.25
469.146	420.25
469.365	430.25
469.585	397.25
469.804	422.25
470.023	418.25
470.243	414.25
470.462	437.25
470.681	441.25
470.901	430.25
471.12	404.25
471.339	423.25
471.558	408.25
471.777	428.25
471.997	415.25
472.216	419.25
472.435	436.25
472.654	415.25
472.873	424.25
473.092	415.25
473.311	415.25
473.53	446.25
473.749	439.25
473.968	447.25
474.187	541.25
474.406	559.25
474.625	467.25
474.844	427.25
475.063	411.25
475.282	426.25
475.501	452.25
475.72	450.25
475.939	452.25
476.158	438.25
476.377	432.25
476.596	447.25
476.814	425.25
477.033	462.25
477.252	455.25
477.471	455.25
477.69	443.25
477.908	460.25
478.127	468.25
478.346	471.25
478.564	491.25
478.783	483.25
479.002	489.25
479.22	471.25
479.439	500.25
479.658	505.25
479.876	502.25
480.095	523.25
480.313	534.25
480.532	526.25
480.751	515.25
480.969	512.25
481.188	572.25
481.406	571.25
481.624	528.25
481.843	491.25
482.061	491.25
482.28	503.25
482.498	489.25
482.717	485.25
482.935	500.25
483.153	472.25
483.372	481.25
483.59	470.25
483.808	482.25
484.027	510.25
484.245	490.25
484.463	471.25
484.681	501.25
484.9	496.25
485.118	483.25
485.336	484.25
485.554	523.25
485.772	500.25
485.99	522.25
486.209	515.25
486.427	486.25
486.645	515.25
486.863	522.25
487.081	535.25
487.299	536.25
487.517	518.25
487.735	521.25
487.953	516.25
488.171	523.25
488.389	516.25
488.607	507.25
488.825	537.25
489.043	516.25
489.261	538.25
489.479	511.25
489.696	514.25
489.914	510.25
490.132	515.25
490.35	527.25
490.568	540.25
490.786	568.25
491.003	558.25
491.221	557.25
491.439	543.25
491.657	580.25
491.874	562.25
492.092	588.25
492.31	580.25
492.527	568.25
492.745	579.25
492.963	602.25
493.18	599.25
493.398	608.25
493.615	578.25
493.833	614.25
494.05	600.25
494.268	604.25
494.485	622.25
494.703	592.25
494.92	611.25
495.138	606.25
495.355	588.25
495.573	607.25
495.79	590.25
496.008	601.25
496.225	614.25
496.442	603.25
496.66	596.25
496.877	626.25
497.094	626.25
497.312	628.25
497.529	632.25
497.746	642.25
497.963	634.25
498.181	660.25
498.398	687.25
498.615	687.25
498.832	711.25
499.049	720.25
499.267	747.25
499.484	792.25
499.701	829.25
499.918	866.25
500.135	898.25
500.352	926.25
500.569	960.25
500.786	934.25
501.003	939.25
501.22	887.25
501.437	878.25
501.654	842.25
501.871	818.25
502.088	779.25
502.305	743.25
502.522	722.25
502.739	709.25
502.956	653.25
503.172	639.25
503.389	635.25
503.606	657.25
503.823	630.25
504.04	643.25
504.256	619.25
504.473	633.25
504.69	620.25
504.907	634.25
505.123	598.25
505.34	609.25
505.557	580.25
505.773	580.25
505.99	584.25
506.207	580.25
506.423	595.25
506.64	564.25
506.856	560.25
507.073	559.25
507.289	552.25
507.506	549.25
507.722	552.25
507.939	550.25
508.155	550.25
508.372	549.25
508.588	549.25
508.805	550.25
509.021	551.25
509.238	550.25
509.454	579.25
509.67	564.25
509.887	549.25
510.103	551.25
510.319	541.25
510.536	605.25
510.752	855.25
510.968	675.25
511.184	519.25
511.401	531.25
511.617	542.25
511.833	507.25
512.049	524.25
512.265	524.25
512.481	492.25
512.698	522.25
512.914	534.25
513.13	481.25
513.346	478.25
513.562	498.25
513.778	508.25
513.994	511.25
514.21	533.25
514.426	526.25
514.642	543.25
514.858	567.25
515.074	601.25
515.29	666.25
515.506	869.25
515.721	750.25
515.937	578.25
516.153	547.25
516.369	532.25
516.585	504.25
516.801	542.25
517.016	544.25
517.232	550.25
517.448	539.25
517.664	553.25
517.879	554.25
518.095	552.25
518.311	536.25
518.527	536.25
518.742	531.25
518.958	516.25
519.173	526.25
519.389	505.25
519.605	540.25
519.82	496.25
520.036	503.25
520.251	510.25
520.467	532.25
520.682	554.25
520.898	530.25
521.113	562.25
521.329	558.25
521.544	615.25
521.76	721.25
521.975	1070.25
522.19	996.25
522.406	678.25
522.621	543.25
522.836	502.25
523.052	492.25
523.267	448.25
523.482	470.25
523.698	446.25
523.913	447.25
524.128	461.25
524.343	451.25
524.559	469.25
524.774	452.25
524.989	460.25
525.204	472.25
525.419	455.25
525.634	457.25
525.849	431.25
526.064	410.25
526.28	439.25
526.495	409.25
526.71	416.25
526.925	443.25
527.14	418.25
527.355	418.25
527.57	444.25
527.785	386.25
527.999	438.25
528.214	418.25
528.429	426.25
528.644	430.25
528.859	409.25
529.074	426.25
529.289	463.25
529.503	483.25
529.718	475.25
529.933	446.25
530.148	420.25
530.363	415.25
530.577	431.25
530.792	420.25
531.007	402.25
531.221	418.25
531.436	408.25
531.651	416.25
531.865	408.25
532.08	427.25
532.295	416.25
532.509	427.25
532.724	411.25
532.938	406.25
533.153	405.25
533.367	400.25
533.582	421.25
533.796	416.25
534.011	413.25
534.225	399.25
534.44	394.25
534.654	391.25
534.868	381.25
535.083	404.25
535.297	385.25
535.511	406.25
535.726	407.25
535.94	400.25
536.154	416.25
536.369	416.25
536.583	396.25
536.797	399.25
537.011	387.25
537.225	380.25
537.44	403.25
537.654	394.25
537.868	396.25
538.082	404.25
538.296	420.25
538.51	412.25
538.724	403.25
538.938	391.25
539.153	381.25
539.367	414.25
539.581	398.25
539.795	410.25
540.009	397.25
540.222	386.25
540.436	393.25
540.65	407.25
540.864	404.25
541.078	368.25
541.292	406.25
541.506	393.25
541.72	393.25
541.934	393.25
542.147	379.25
542.361	404.25
542.575	383.25
542.789	386.25
543.002	368.25
543.216	367.25
543.43	400.25
543.644	395.25
543.857	395.25
544.071	391.25
544.285	396.25
544.498	374.25
544.712	400.25
544.925	376.25
545.139	381.25
545.352	388.25
545.566	388.25
545.779	384.25
545.993	377.25
546.206	394.25
546.42	386.25
546.633	381.25
546.847	394.25
547.06	384.25
547.274	409.25
547.487	382.25
547.7	377.25
547.914	395.25
548.127	371.25
548.34	374.25
548.554	376.25
548.767	383.25
548.98	378.25
549.193	360.25
549.407	399.25
549.62	372.25
549.833	393.25
550.046	386.25
550.259	387.25
550.473	382.25
550.686	390.25
550.899	391.25
551.112	387.25
551.325	381.25
551.538	388.25
551.751	376.25
551.964	390.25
552.177	368.25
552.39	378.25
552.603	386.25
552.816	384.25
553.029	397.25
553.242	394.25
553.455	416.25
553.667	399.25
553.88	400.25
554.093	392.25
554.306	393.25
554.519	358.25
554.732	363.25
554.944	367.25
555.157	380.25
555.37	353.25
555.583	378.25
555.795	370.25
556.008	359.25
556.221	347.25
556.433	342.25
556.646	353.25
556.859	343.25
557.071	338.25
557.284	360.25
557.496	351.25
557.709	346.25
557.921	331.25
558.134	344.25
558.346	342.25
558.559	334.25
558.771	340.25
558.984	330.25
559.196	330.25
559.409	330.25
559.621	331.25
559.833	330.25
560.046	335.25
560.258	333.25
560.47	349.25
560.683	342.25
560.895	323.25
561.107	310.25
561.32	344.25
561.532	328.25
561.744	344.25
561.956	338.25
562.168	343.25
562.381	319.25
562.593	356.25
562.805	332.25
563.017	332.25
563.229	342.25
563.441	340.25
563.653	335.25
563.865	360.25
564.077	340.25
564.289	330.25
564.501	334.25
564.713	341.25
564.925	367.25
565.137	364.25
565.349	373.25
565.561	377.25
565.773	378.25
565.985	387.25
566.197	412.25
566.408	395.25
566.62	431.25
566.832	434.25
567.044	416.25
567.255	411.25
567.467	444.25
567.679	453.25
567.891	454.25
568.102	456.25
568.314	455.25
568.526	427.25
568.737	408.25
568.949	411.25
569.161	366.25
569.372	378.25
569.584	367.25
569.795	349.25
570.007	351.25
570.218	372.25
570.43	359.25
570.641	328.25
570.853	333.25
571.064	343.25
571.276	326.25
571.487	328.25
571.698	336.25
571.91	337.25
572.121	316.25
572.333	306.25
572.544	303.25
572.755	300.25
572.966	312.25
573.178	311.25
573.389	294.25
573.6	301.25
573.811	314.25
574.023	292.25
574.234	289.25
574.445	288.25
574.656	284.25
574.867	283.25
575.078	286.25
575.289	276.25
575.501	296.25
575.712	298.25
575.923	275.25
576.134	264.25
576.345	291.25
576.556	285.25
576.767	271.25
576.978	269.25
577.188	303.25
577.399	285.25
577.61	286.25
577.821	285.25
578.032	278.25
578.243	304.25
578.454	415.25
578.665	328.25
578.875	292.25
579.086	276.25
579.297	300.25
579.508	283.25
579.718	271.25
579.929	264.25
580.14	273.25
580.35	270.25
580.561	276.25
580.772	262.25
580.982	278.25
581.193	278.25
581.403	288.25
581.614	271.25
581.825	279.25
582.035	271.25
582.246	270.25
582.456	268.25
582.667	258.25
582.877	259.25
583.087	258.25
583.298	257.25
583.508	277.25
583.719	261.25
583.929	260.25
584.139	263.25
584.35	259.25
584.56	243.25
584.77	262.25
584.981	260.25
585.191	258.25
585.401	277.25
585.611	265.25
585.821	262.25
586.032	270.25
586.242	285.25
586.452	250.25
586.662	258.25
586.872	256.25
587.082	261.25
587.292	258.25
587.502	257.25
587.713	266.25
587.923	266.25
588.133	256.25
588.343	246.25
588.553	245.25
588.762	255.25
588.972	250.25
589.182	243.25
589.392	242.25
589.602	258.25
589.812	251.25
590.022	249.25
590.232	265.25
590.441	272.25
590.651	247.25
590.861	279.25
591.071	267.25
591.281	268.25
591.49	265.25
591.7	271.25
591.91	263.25
592.119	262.25
592.329	266.25
592.539	272.25
592.748	286.25
592.958	280.25
593.167	276.25
593.377	273.25
593.587	297.25
593.796	270.25
594.006	276.25
594.215	267.25
594.424	282.25
594.634	288.25
594.843	280.25
595.053	264.25
595.262	267.25
595.472	257.25
595.681	264.25
595.89	256.25
596.1	251.25
596.309	243.25
596.518	236.25
596.727	246.25
596.937	234.25
597.146	234.25
597.355	255.25
597.564	243.25
597.774	235.25
597.983	233.25
598.192	234.25
598.401	221.25
598.61	218.25
598.819	230.25
599.028	232.25
599.237	224.25
599.446	223.25
599.655	233.25
599.864	217.25
600.073	218.25
600.282	243.25
600.491	248.25
600.7	238.25
600.909	225.25
601.118	223.25
601.327	219.25
601.536	236.25
601.745	206.25
601.953	224.25
602.162	229.25
602.371	224.25
602.58	211.25
602.789	213.25
602.997	227.25
603.206	238.25
603.415	222.25
603.623	215.25
603.832	219.25
604.041	219.25
604.249	208.25
604.458	215.25
604.666	215.25
604.875	215.25
605.084	223.25
605.292	215.25
605.501	219.25
605.709	203.25
605.918	224.25
606.126	203.25
606.334	209.25
606.543	215.25
606.751	207.25
606.96	216.25
607.168	216.25
607.376	209.25
607.585	208.25
607.793	220.25
608.001	207.25
608.21	216.25
608.418	207.25
608.626	211.25
608.834	215.25
609.043	206.25
609.251	197.25
609.459	200.25
609.667	203.25
609.875	210.25
610.083	230.25
610.291	226.25
610.499	212.25
610.707	225.25
610.916	222.25
611.124	209.25
611.332	213.25
611.54	226.25
611.748	233.25
611.955	207.25
612.163	201.25
612.371	198.25
612.579	211.25
612.787	208.25
612.995	209.25
613.203	198.25
613.411	207.25
613.618	209.25
613.826	213.25
614.034	214.25
614.242	215.25
614.449	207.25
614.657	197.25
614.865	191.25
615.072	190.25
615.28	203.25
615.488	221.25
615.695	218.25
615.903	207.25
616.111	201.25
616.318	212.25
616.526	224.25
616.733	221.25
616.941	226.25
617.148	219.25
617.356	191.25
617.563	207.25
617.771	216.25
617.978	188.25
618.185	211.25
618.393	225.25
618.6	204.25
618.807	201.25
619.015	213.25
619.222	198.25
619.429	192.25
619.637	219.25
619.844	196.25
620.051	172.25
620.258	205.25
620.466	180.25
620.673	180.25
620.88	195.25
621.087	196.25
621.294	196.25
621.501	199.25
621.708	200.25
621.915	184.25
622.122	196.25
622.329	198.25
622.536	207.25
622.743	182.25
622.95	201.25
623.157	197.25
623.364	214.25
623.571	182.25
623.778	192.25
623.985	189.25
624.192	194.25
624.399	186.25
624.606	186.25
624.812	195.25
625.019	186.25
625.226	183.25
625.433	185.25
625.639	187.25
625.846	183.25
626.053	191.25
626.259	171.25
626.466	174.25
626.673	191.25
626.879	193.25
627.086	188.25
627.293	193.25
627.499	190.25
627.706	186.25
627.912	180.25
628.119	193.25
628.325	169.25
628.532	193.25
628.738	173.25
628.945	178.25
629.151	190.25
629.357	169.25
629.564	172.25
629.77	165.25
629.976	159.25
630.183	164.25
630.389	177.25
630.595	174.25
630.802	180.25
631.008	159.25
631.214	164.25
631.42	188.25
631.627	177.25
631.833	181.25
632.039	181.25
632.245	154.25
632.451	182.25
632.657	167.25
632.863	192.25
633.069	187.25
633.275	184.25
633.481	170.25
633.688	178.25
633.893	160.25
634.099	173.25
634.305	168.25
634.511	152.25
634.717	162.25
634.923	168.25
635.129	152.25
635.335	166.25
635.541	159.25
635.747	167.25
635.952	162.25
636.158	156.25
636.364	160.25
636.57	167.25
636.775	168.25
636.981	151.25
637.187	163.25
637.392	172.25
637.598	175.25
637.804	159.25
638.009	159.25
638.215	153.25
638.421	169.25
638.626	163.25
638.832	156.25
639.037	160.25
639.243	164.25
639.448	163.25
639.654	173.25
639.859	171.25
640.065	138.25
640.27	168.25
640.475	167.25
640.681	151.25
640.886	150.25
641.091	167.25
641.297	172.25
641.502	160.25
641.707	166.25
641.913	146.25
642.118	148.25
642.323	140.25
642.528	151.25
642.733	153.25
642.939	155.25
643.144	144.25
643.349	147.25
643.554	160.25
643.759	165.25
643.964	152.25
644.169	160.25
644.374	156.25
644.579	158.25
644.784	149.25
644.989	168.25
645.194	152.25
645.399	147.25
645.604	155.25
645.809	158.25
646.014	149.25
646.219	158.25
646.423	150.25
646.628	148.25
646.833	159.25
647.038	151.25
647.243	149.25
647.447	151.25
647.652	152.25
647.857	158.25
648.062	150.25
648.266	150.25
648.471	150.25
648.676	160.25
648.88	148.25
649.085	158.25
649.289	153.25
649.494	145.25
649.698	153.25
649.903	165.25
650.107	178.25
650.312	148.25
650.516	148.25
650.721	165.25
650.925	147.25
651.13	134.25
651.334	135.25
651.539	134.25
651.743	143.25
651.947	135.25
652.152	144.25
652.356	135.25
652.56	136.25
652.764	140.25
652.969	134.25
653.173	123.25
653.377	123.25
653.581	135.25
653.785	125.25
653.99	138.25
654.194	128.25
654.398	137.25
654.602	131.25
654.806	122.25
655.01	142.25
655.214	129.25
655.418	124.25
655.622	130.25
655.826	137.25
656.03	128.25
656.234	136.25
656.438	129.25
656.642	129.25
656.846	119.25
657.049	132.25
657.253	129.25
657.457	111.25
657.661	120.25
657.865	118.25
658.068	120.25
658.272	103.25
658.476	101.25
658.68	115.25
658.883	108.25
659.087	104.25
659.291	100.25
659.494	95.25
659.698	90.25
659.901	80.25
660.105	100.25
660.309	96.25
660.512	106.25
660.716	113.25
660.919	102.25
661.123	92.25
661.326	91.25
661.53	84.25
661.733	96.25
661.936	89.25
662.14	95.25
662.343	85.25
662.546	95.25
662.75	96.25
662.953	91.25
663.156	84.25
663.36	104.25
663.563	80.25
663.766	91.25
663.969	99.25
664.173	97.25
664.376	85.25
664.579	81.25
664.782	95.25
664.985	82.25
665.188	80.25
665.391	84.25
665.594	87.25
665.797	82.25
666	88.25
666.203	92.25
666.406	81.25
666.609	94.25
666.812	82.25
667.015	81.25
667.218	91.25
667.421	79.25
667.624	77.25
667.827	95.25
668.03	110.25
668.232	97.25
668.435	72.25
668.638	84.25
668.841	77.25
669.043	72.25
669.246	74.25
669.449	72.25
669.651	76.25
669.854	78.25
670.057	80.25
670.259	90.25
670.462	81.25
670.665	96.25
670.867	80.25
671.07	84.25
671.272	87.25
671.475	84.25
671.677	81.25
671.88	94.25
672.082	69.25
672.284	79.25
672.487	85.25
672.689	79.25
672.892	71.25
