Data from 1977.PennyLincolnUp.Lamp.En5.5.200Scan.071719.P1_HRD10591_16-07-29-865.txt Node
Date: Thu Jul 18 16:07:29 EDT 2019
User: cochatt
Spectrometer: HR+D1059
Trigger mode: 1
Integration Time (sec): 1.000000E-1
Scans to average: 1
Electric dark correction enabled: true
Nonlinearity correction enabled: false
Boxcar width: 0
XAxis mode: Wavelengths
Number of Pixels in Spectrum: 2048
>>>>>Begin Spectral Data<<<<<
223.165	-9.62
223.4	-9.62
223.635	-9.62
223.869	-23.62
224.104	-33.62
224.338	-10.62
224.573	-15.62
224.808	-12.62
225.042	0.38
225.277	-7.62
225.511	0.38
225.746	1.38
225.98	-3.62
226.215	5.38
226.449	17.38
226.683	31.38
226.918	29.38
227.152	31.38
227.387	23.38
227.621	48.38
227.856	46.38
228.09	40.38
228.324	31.38
228.559	51.38
228.793	66.38
229.027	107.38
229.262	100.38
229.496	114.38
229.73	129.38
229.964	151.38
230.199	124.38
230.433	100.38
230.667	115.38
230.901	119.38
231.136	114.38
231.37	115.38
231.604	125.38
231.838	123.38
232.072	117.38
232.306	101.38
232.541	111.38
232.775	112.38
233.009	119.38
233.243	108.38
233.477	123.38
233.711	108.38
233.945	129.38
234.179	118.38
234.413	115.38
234.647	121.38
234.881	118.38
235.115	117.38
235.349	139.38
235.583	131.38
235.817	126.38
236.051	135.38
236.285	108.38
236.519	115.38
236.753	162.38
236.987	153.38
237.221	170.38
237.455	204.38
237.689	177.38
237.922	145.38
238.156	132.38
238.39	132.38
238.624	124.38
238.858	132.38
239.091	120.38
239.325	127.38
239.559	134.38
239.793	130.38
240.027	145.38
240.26	155.38
240.494	142.38
240.728	154.38
240.961	152.38
241.195	149.38
241.429	147.38
241.662	129.38
241.896	142.38
242.13	145.38
242.363	147.38
242.597	135.38
242.83	143.38
243.064	134.38
243.298	142.38
243.531	153.38
243.765	138.38
243.998	134.38
244.232	158.38
244.465	157.38
244.699	159.38
244.932	139.38
245.166	135.38
245.399	155.38
245.633	153.38
245.866	145.38
246.099	157.38
246.333	159.38
246.566	158.38
246.8	156.38
247.033	148.38
247.266	158.38
247.5	157.38
247.733	155.38
247.966	175.38
248.2	175.38
248.433	174.38
248.666	174.38
248.899	180.38
249.133	200.38
249.366	214.38
249.599	190.38
249.832	184.38
250.066	183.38
250.299	188.38
250.532	190.38
250.765	201.38
250.998	216.38
251.231	231.38
251.465	243.38
251.698	211.38
251.931	197.38
252.164	209.38
252.397	183.38
252.63	199.38
252.863	203.38
253.096	208.38
253.329	231.38
253.562	227.38
253.795	226.38
254.028	231.38
254.261	219.38
254.494	225.38
254.727	257.38
254.96	252.38
255.193	271.38
255.426	240.38
255.659	243.38
255.892	244.38
256.124	233.38
256.357	235.38
256.59	230.38
256.823	230.38
257.056	220.38
257.289	208.38
257.521	200.38
257.754	230.38
257.987	217.38
258.22	219.38
258.452	215.38
258.685	213.38
258.918	219.38
259.151	206.38
259.383	220.38
259.616	223.38
259.849	220.38
260.081	232.38
260.314	248.38
260.547	247.38
260.779	253.38
261.012	246.38
261.244	247.38
261.477	232.38
261.71	251.38
261.942	244.38
262.175	240.38
262.407	223.38
262.64	211.38
262.872	225.38
263.105	240.38
263.337	221.38
263.57	217.38
263.802	214.38
264.035	232.38
264.267	214.38
264.499	215.38
264.732	224.38
264.964	228.38
265.197	230.38
265.429	223.38
265.661	231.38
265.894	235.38
266.126	230.38
266.358	241.38
266.591	234.38
266.823	239.38
267.055	238.38
267.287	248.38
267.52	227.38
267.752	243.38
267.984	243.38
268.216	247.38
268.448	260.38
268.681	246.38
268.913	260.38
269.145	273.38
269.377	293.38
269.609	291.38
269.841	279.38
270.073	286.38
270.306	303.38
270.538	323.38
270.77	319.38
271.002	321.38
271.234	313.38
271.466	308.38
271.698	318.38
271.93	326.38
272.162	316.38
272.394	313.38
272.626	317.38
272.858	313.38
273.09	288.38
273.322	288.38
273.553	279.38
273.785	287.38
274.017	300.38
274.249	279.38
274.481	288.38
274.713	290.38
274.945	293.38
275.176	284.38
275.408	282.38
275.64	293.38
275.872	303.38
276.104	293.38
276.335	285.38
276.567	283.38
276.799	291.38
277.031	310.38
277.262	317.38
277.494	318.38
277.726	329.38
277.957	318.38
278.189	310.38
278.421	295.38
278.652	298.38
278.884	303.38
279.115	278.38
279.347	294.38
279.579	292.38
279.81	304.38
280.042	297.38
280.273	297.38
280.505	308.38
280.736	299.38
280.968	277.38
281.199	284.38
281.431	287.38
281.662	291.38
281.894	295.38
282.125	310.38
282.356	320.38
282.588	327.38
282.819	329.38
283.051	289.38
283.282	289.38
283.513	297.38
283.745	307.38
283.976	307.38
284.207	287.38
284.439	304.38
284.67	296.38
284.901	315.38
285.132	313.38
285.364	299.38
285.595	312.38
285.826	304.38
286.057	303.38
286.288	326.38
286.52	303.38
286.751	308.38
286.982	316.38
287.213	316.38
287.444	324.38
287.675	311.38
287.906	330.38
288.138	319.38
288.369	334.38
288.6	349.38
288.831	338.38
289.062	321.38
289.293	315.38
289.524	296.38
289.755	302.38
289.986	322.38
290.217	331.38
290.448	321.38
290.679	311.38
290.91	313.38
291.141	321.38
291.371	314.38
291.602	346.38
291.833	327.38
292.064	312.38
292.295	323.38
292.526	332.38
292.757	329.38
292.987	285.38
293.218	322.38
293.449	313.38
293.68	326.38
293.91	323.38
294.141	338.38
294.372	326.38
294.603	323.38
294.833	328.38
295.064	336.38
295.295	318.38
295.525	328.38
295.756	335.38
295.987	336.38
296.217	343.38
296.448	375.38
296.679	345.38
296.909	331.38
297.14	330.38
297.37	341.38
297.601	334.38
297.831	335.38
298.062	324.38
298.292	349.38
298.523	363.38
298.753	326.38
298.984	337.38
299.214	349.38
299.445	338.38
299.675	342.38
299.905	373.38
300.136	337.38
300.366	347.38
300.597	354.38
300.827	346.38
301.057	352.38
301.288	357.38
301.518	344.38
301.748	364.38
301.979	365.38
302.209	355.38
302.439	357.38
302.669	352.38
302.9	367.38
303.13	361.38
303.36	367.38
303.59	365.38
303.82	373.38
304.051	381.38
304.281	373.38
304.511	367.38
304.741	351.38
304.971	360.38
305.201	348.38
305.431	364.38
305.661	364.38
305.891	362.38
306.121	372.38
306.352	374.38
306.582	352.38
306.812	368.38
307.042	360.38
307.272	372.38
307.502	379.38
307.731	378.38
307.961	373.38
308.191	357.38
308.421	363.38
308.651	368.38
308.881	377.38
309.111	375.38
309.341	386.38
309.571	359.38
309.8	395.38
310.03	385.38
310.26	396.38
310.49	390.38
310.72	403.38
310.949	411.38
311.179	420.38
311.409	393.38
311.639	381.38
311.868	385.38
312.098	395.38
312.328	417.38
312.557	414.38
312.787	411.38
313.017	424.38
313.246	392.38
313.476	409.38
313.706	402.38
313.935	392.38
314.165	431.38
314.394	429.38
314.624	433.38
314.853	424.38
315.083	421.38
315.312	397.38
315.542	409.38
315.771	415.38
316.001	394.38
316.23	409.38
316.46	400.38
316.689	412.38
316.919	418.38
317.148	405.38
317.377	432.38
317.607	433.38
317.836	407.38
318.065	414.38
318.295	400.38
318.524	399.38
318.753	399.38
318.983	400.38
319.212	393.38
319.441	435.38
319.67	417.38
319.9	404.38
320.129	409.38
320.358	419.38
320.587	395.38
320.816	418.38
321.046	440.38
321.275	428.38
321.504	428.38
321.733	440.38
321.962	437.38
322.191	444.38
322.42	465.38
322.649	464.38
322.878	479.38
323.108	478.38
323.337	485.38
323.566	518.38
323.795	527.38
324.024	558.38
324.253	679.38
324.482	913.38
324.71	1374.38
324.939	1927.38
325.168	1663.38
325.397	854.38
325.626	617.38
325.855	537.38
326.084	513.38
326.313	487.38
326.542	499.38
326.77	556.38
326.999	626.38
327.228	831.38
327.457	1225.38
327.686	1426.38
327.914	937.38
328.143	671.38
328.372	608.38
328.6	573.38
328.829	552.38
329.058	560.38
329.287	576.38
329.515	531.38
329.744	530.38
329.972	506.38
330.201	518.38
330.43	542.38
330.658	562.38
330.887	580.38
331.115	584.38
331.344	513.38
331.572	490.38
331.801	523.38
332.03	518.38
332.258	493.38
332.486	473.38
332.715	490.38
332.943	481.38
333.172	484.38
333.4	482.38
333.629	498.38
333.857	522.38
334.085	529.38
334.314	518.38
334.542	570.38
334.771	560.38
334.999	531.38
335.227	492.38
335.455	504.38
335.684	491.38
335.912	490.38
336.14	483.38
336.369	483.38
336.597	478.38
336.825	495.38
337.053	473.38
337.281	464.38
337.51	461.38
337.738	464.38
337.966	479.38
338.194	471.38
338.422	476.38
338.65	479.38
338.878	477.38
339.106	453.38
339.334	461.38
339.562	463.38
339.79	435.38
340.018	446.38
340.246	444.38
340.474	464.38
340.702	471.38
340.93	431.38
341.158	459.38
341.386	462.38
341.614	448.38
341.842	455.38
342.07	436.38
342.298	445.38
342.526	434.38
342.754	436.38
342.981	450.38
343.209	441.38
343.437	460.38
343.665	440.38
343.893	458.38
344.12	484.38
344.348	499.38
344.576	476.38
344.804	464.38
345.031	465.38
345.259	473.38
345.487	474.38
345.714	465.38
345.942	429.38
346.17	447.38
346.397	473.38
346.625	455.38
346.853	436.38
347.08	411.38
347.308	436.38
347.535	443.38
347.763	431.38
347.99	455.38
348.218	445.38
348.445	442.38
348.673	446.38
348.9	406.38
349.128	410.38
349.355	421.38
349.583	410.38
349.81	436.38
350.037	431.38
350.265	413.38
350.492	413.38
350.72	411.38
350.947	441.38
351.174	431.38
351.402	419.38
351.629	437.38
351.856	441.38
352.083	429.38
352.311	453.38
352.538	452.38
352.765	444.38
352.992	418.38
353.22	431.38
353.447	418.38
353.674	422.38
353.901	416.38
354.128	398.38
354.355	416.38
354.583	419.38
354.81	405.38
355.037	403.38
355.264	411.38
355.491	388.38
355.718	388.38
355.945	413.38
356.172	403.38
356.399	401.38
356.626	417.38
356.853	415.38
357.08	408.38
357.307	402.38
357.534	405.38
357.761	394.38
357.988	411.38
358.215	388.38
358.441	394.38
358.668	397.38
358.895	405.38
359.122	418.38
359.349	391.38
359.576	436.38
359.802	454.38
360.029	447.38
360.256	471.38
360.483	425.38
360.709	437.38
360.936	423.38
361.163	417.38
361.39	432.38
361.616	418.38
361.843	425.38
362.07	419.38
362.296	435.38
362.523	422.38
362.749	425.38
362.976	411.38
363.203	409.38
363.429	405.38
363.656	408.38
363.882	391.38
364.109	400.38
364.335	405.38
364.562	398.38
364.788	401.38
365.015	402.38
365.241	391.38
365.468	407.38
365.694	426.38
365.92	394.38
366.147	422.38
366.373	413.38
366.599	392.38
366.826	410.38
367.052	375.38
367.278	401.38
367.505	399.38
367.731	395.38
367.957	399.38
368.184	409.38
368.41	406.38
368.636	413.38
368.862	409.38
369.089	413.38
369.315	402.38
369.541	403.38
369.767	396.38
369.993	396.38
370.219	399.38
370.445	400.38
370.672	406.38
370.898	404.38
371.124	412.38
371.35	395.38
371.576	394.38
371.802	402.38
372.028	401.38
372.254	421.38
372.48	408.38
372.706	421.38
372.932	413.38
373.158	413.38
373.384	410.38
373.61	392.38
373.835	405.38
374.061	391.38
374.287	420.38
374.513	405.38
374.739	391.38
374.965	423.38
375.191	415.38
375.416	416.38
375.642	392.38
375.868	413.38
376.094	397.38
376.319	404.38
376.545	405.38
376.771	395.38
376.997	400.38
377.222	405.38
377.448	385.38
377.674	406.38
377.899	420.38
378.125	411.38
378.35	392.38
378.576	387.38
378.802	387.38
379.027	398.38
379.253	397.38
379.478	406.38
379.704	389.38
379.929	397.38
380.155	387.38
380.38	392.38
380.606	398.38
380.831	410.38
381.057	397.38
381.282	378.38
381.507	383.38
381.733	421.38
381.958	379.38
382.184	401.38
382.409	415.38
382.634	415.38
382.86	412.38
383.085	412.38
383.31	425.38
383.535	410.38
383.761	441.38
383.986	427.38
384.211	434.38
384.436	421.38
384.662	435.38
384.887	418.38
385.112	424.38
385.337	453.38
385.562	429.38
385.787	448.38
386.013	449.38
386.238	451.38
386.463	449.38
386.688	463.38
386.913	444.38
387.138	446.38
387.363	453.38
387.588	445.38
387.813	447.38
388.038	429.38
388.263	425.38
388.488	456.38
388.713	449.38
388.938	435.38
389.163	447.38
389.387	451.38
389.612	435.38
389.837	464.38
390.062	435.38
390.287	420.38
390.512	441.38
390.736	446.38
390.961	421.38
391.186	437.38
391.411	429.38
391.636	444.38
391.86	453.38
392.085	451.38
392.31	459.38
392.534	457.38
392.759	457.38
392.984	430.38
393.208	462.38
393.433	441.38
393.658	446.38
393.882	430.38
394.107	432.38
394.331	442.38
394.556	442.38
394.78	442.38
395.005	448.38
395.229	450.38
395.454	469.38
395.678	471.38
395.903	454.38
396.127	477.38
396.352	497.38
396.576	455.38
396.801	472.38
397.025	452.38
397.249	469.38
397.474	495.38
397.698	473.38
397.922	479.38
398.147	484.38
398.371	498.38
398.595	503.38
398.82	496.38
399.044	513.38
399.268	550.38
399.492	583.38
399.717	600.38
399.941	620.38
400.165	625.38
400.389	619.38
400.613	590.38
400.837	529.38
401.062	517.38
401.286	528.38
401.51	498.38
401.734	491.38
401.958	504.38
402.182	526.38
402.406	508.38
402.63	518.38
402.854	515.38
403.078	502.38
403.302	515.38
403.526	524.38
403.75	520.38
403.974	503.38
404.198	515.38
404.422	540.38
404.645	543.38
404.869	529.38
405.093	538.38
405.317	590.38
405.541	629.38
405.765	556.38
405.988	539.38
406.212	569.38
406.436	533.38
406.66	572.38
406.883	555.38
407.107	584.38
407.331	640.38
407.555	672.38
407.778	656.38
408.002	643.38
408.226	586.38
408.449	600.38
408.673	552.38
408.896	580.38
409.12	641.38
409.344	596.38
409.567	538.38
409.791	523.38
410.014	515.38
410.238	509.38
410.461	515.38
410.685	519.38
410.908	528.38
411.132	565.38
411.355	570.38
411.578	566.38
411.802	509.38
412.025	518.38
412.249	531.38
412.472	525.38
412.695	574.38
412.919	549.38
413.142	536.38
413.365	507.38
413.589	501.38
413.812	496.38
414.035	483.38
414.258	495.38
414.482	484.38
414.705	487.38
414.928	489.38
415.151	481.38
415.374	484.38
415.597	466.38
415.821	488.38
416.044	494.38
416.267	466.38
416.49	500.38
416.713	481.38
416.936	485.38
417.159	470.38
417.382	463.38
417.605	475.38
417.828	494.38
418.051	530.38
418.274	485.38
418.497	471.38
418.72	490.38
418.943	483.38
419.166	488.38
419.389	521.38
419.611	506.38
419.834	496.38
420.057	522.38
420.28	542.38
420.503	496.38
420.726	500.38
420.948	516.38
421.171	533.38
421.394	572.38
421.617	520.38
421.839	505.38
422.062	487.38
422.285	515.38
422.507	548.38
422.73	608.38
422.953	602.38
423.175	543.38
423.398	523.38
423.621	516.38
423.843	546.38
424.066	552.38
424.288	531.38
424.511	557.38
424.733	617.38
424.956	668.38
425.178	643.38
425.401	616.38
425.623	649.38
425.846	567.38
426.068	528.38
426.291	542.38
426.513	521.38
426.735	537.38
426.958	576.38
427.18	645.38
427.402	745.38
427.625	824.38
427.847	699.38
428.069	629.38
428.292	557.38
428.514	518.38
428.736	502.38
428.958	503.38
429.181	483.38
429.403	483.38
429.625	483.38
429.847	500.38
430.069	584.38
430.292	600.38
430.514	521.38
430.736	473.38
430.958	460.38
431.18	444.38
431.402	433.38
431.624	453.38
431.846	464.38
432.068	459.38
432.29	480.38
432.512	465.38
432.734	449.38
432.956	455.38
433.178	465.38
433.4	472.38
433.622	454.38
433.844	456.38
434.066	460.38
434.287	476.38
434.509	455.38
434.731	471.38
434.953	501.38
435.175	495.38
435.397	524.38
435.618	533.38
435.84	554.38
436.062	623.38
436.284	682.38
436.505	579.38
436.727	500.38
436.949	509.38
437.17	487.38
437.392	488.38
437.614	489.38
437.835	510.38
438.057	592.38
438.278	672.38
438.5	684.38
438.721	749.38
438.943	713.38
439.165	576.38
439.386	529.38
439.608	538.38
439.829	519.38
440.05	535.38
440.272	565.38
440.493	569.38
440.715	505.38
440.936	499.38
441.158	503.38
441.379	488.38
441.6	492.38
441.822	527.38
442.043	543.38
442.264	602.38
442.486	664.38
442.707	571.38
442.928	524.38
443.149	516.38
443.371	563.38
443.592	599.38
443.813	669.38
444.034	715.38
444.255	613.38
444.476	549.38
444.698	525.38
444.919	560.38
445.14	665.38
445.361	597.38
445.582	556.38
445.803	626.38
446.024	700.38
446.245	704.38
446.466	636.38
446.687	550.38
446.908	507.38
447.129	501.38
447.35	484.38
447.571	491.38
447.792	465.38
448.013	475.38
448.234	475.38
448.455	534.38
448.675	637.38
448.896	731.38
449.117	625.38
449.338	585.38
449.559	692.38
449.779	770.38
450	607.38
450.221	537.38
450.442	469.38
450.662	478.38
450.883	468.38
451.104	465.38
451.324	443.38
451.545	450.38
451.766	444.38
451.986	420.38
452.207	428.38
452.428	441.38
452.648	444.38
452.869	424.38
453.089	423.38
453.31	451.38
453.53	433.38
453.751	405.38
453.971	447.38
454.192	424.38
454.412	437.38
454.633	432.38
454.853	405.38
455.073	408.38
455.294	461.38
455.514	506.38
455.734	485.38
455.955	439.38
456.175	407.38
456.395	393.38
456.616	385.38
456.836	399.38
457.056	412.38
457.276	379.38
457.497	412.38
457.717	395.38
457.937	392.38
458.157	425.38
458.377	410.38
458.598	457.38
458.818	493.38
459.038	555.38
459.258	574.38
459.478	500.38
459.698	462.38
459.918	465.38
460.138	446.38
460.358	441.38
460.578	468.38
460.798	457.38
461.018	476.38
461.238	471.38
461.458	468.38
461.678	454.38
461.898	471.38
462.118	487.38
462.338	454.38
462.558	483.38
462.777	490.38
462.997	502.38
463.217	525.38
463.437	526.38
463.657	523.38
463.876	500.38
464.096	501.38
464.316	532.38
464.536	524.38
464.755	522.38
464.975	504.38
465.195	537.38
465.414	558.38
465.634	514.38
465.854	480.38
466.073	478.38
466.293	463.38
466.512	426.38
466.732	415.38
466.951	441.38
467.171	445.38
467.391	428.38
467.61	445.38
467.829	430.38
468.049	418.38
468.268	431.38
468.488	411.38
468.707	433.38
468.927	414.38
469.146	435.38
469.365	437.38
469.585	440.38
469.804	435.38
470.023	445.38
470.243	459.38
470.462	461.38
470.681	431.38
470.901	443.38
471.12	432.38
471.339	429.38
471.558	444.38
471.777	440.38
471.997	445.38
472.216	439.38
472.435	444.38
472.654	455.38
472.873	419.38
473.092	428.38
473.311	417.38
473.53	436.38
473.749	456.38
473.968	483.38
474.187	572.38
474.406	591.38
474.625	501.38
474.844	460.38
475.063	461.38
475.282	428.38
475.501	455.38
475.72	437.38
475.939	424.38
476.158	462.38
476.377	446.38
476.596	445.38
476.814	451.38
477.033	456.38
477.252	460.38
477.471	465.38
477.69	478.38
477.908	476.38
478.127	487.38
478.346	484.38
478.564	451.38
478.783	493.38
479.002	484.38
479.22	505.38
479.439	503.38
479.658	515.38
479.876	540.38
480.095	535.38
480.313	552.38
480.532	540.38
480.751	544.38
480.969	569.38
481.188	579.38
481.406	587.38
481.624	525.38
481.843	530.38
482.061	504.38
482.28	523.38
482.498	515.38
482.717	513.38
482.935	517.38
483.153	521.38
483.372	509.38
483.59	500.38
483.808	480.38
484.027	509.38
484.245	506.38
484.463	519.38
484.681	516.38
484.9	501.38
485.118	509.38
485.336	537.38
485.554	510.38
485.772	525.38
485.99	546.38
486.209	538.38
486.427	532.38
486.645	523.38
486.863	529.38
487.081	543.38
487.299	549.38
487.517	541.38
487.735	539.38
487.953	530.38
488.171	535.38
488.389	519.38
488.607	541.38
488.825	542.38
489.043	532.38
489.261	522.38
489.479	549.38
489.696	548.38
489.914	540.38
490.132	562.38
490.35	558.38
490.568	563.38
490.786	570.38
491.003	564.38
491.221	598.38
491.439	593.38
491.657	585.38
491.874	565.38
492.092	599.38
492.31	585.38
492.527	609.38
492.745	599.38
492.963	622.38
493.18	608.38
493.398	627.38
493.615	622.38
493.833	624.38
494.05	632.38
494.268	600.38
494.485	612.38
494.703	624.38
494.92	628.38
495.138	620.38
495.355	611.38
495.573	621.38
495.79	625.38
496.008	638.38
496.225	625.38
496.442	649.38
496.66	633.38
496.877	623.38
497.094	649.38
497.312	667.38
497.529	663.38
497.746	658.38
497.963	651.38
498.181	682.38
498.398	692.38
498.615	736.38
498.832	748.38
499.049	747.38
499.267	760.38
499.484	831.38
499.701	856.38
499.918	899.38
500.135	918.38
500.352	944.38
500.569	964.38
500.786	972.38
501.003	989.38
501.22	936.38
501.437	917.38
501.654	863.38
501.871	851.38
502.088	817.38
502.305	760.38
502.522	744.38
502.739	728.38
502.956	704.38
503.172	693.38
503.389	664.38
503.606	668.38
503.823	645.38
504.04	649.38
504.256	665.38
504.473	654.38
504.69	634.38
504.907	624.38
505.123	643.38
505.34	634.38
505.557	618.38
505.773	629.38
505.99	614.38
506.207	606.38
506.423	598.38
506.64	597.38
506.856	582.38
507.073	567.38
507.289	576.38
507.506	590.38
507.722	603.38
507.939	587.38
508.155	586.38
508.372	572.38
508.588	558.38
508.805	558.38
509.021	551.38
509.238	572.38
509.454	576.38
509.67	568.38
509.887	559.38
510.103	563.38
510.319	580.38
510.536	641.38
510.752	897.38
510.968	741.38
511.184	560.38
511.401	557.38
511.617	549.38
511.833	513.38
512.049	524.38
512.265	537.38
512.481	535.38
512.698	516.38
512.914	536.38
513.13	541.38
513.346	532.38
513.562	507.38
513.778	501.38
513.994	540.38
514.21	544.38
514.426	534.38
514.642	566.38
514.858	621.38
515.074	639.38
515.29	686.38
515.506	919.38
515.721	767.38
515.937	615.38
516.153	576.38
516.369	542.38
516.585	563.38
516.801	539.38
517.016	552.38
517.232	585.38
517.448	557.38
517.664	553.38
517.879	535.38
518.095	571.38
518.311	586.38
518.527	564.38
518.742	537.38
518.958	545.38
519.173	544.38
519.389	532.38
519.605	541.38
519.82	527.38
520.036	537.38
520.251	572.38
520.467	562.38
520.682	549.38
520.898	571.38
521.113	583.38
521.329	608.38
521.544	631.38
521.76	775.38
521.975	1123.38
522.19	1083.38
522.406	671.38
522.621	573.38
522.836	521.38
523.052	517.38
523.267	480.38
523.482	481.38
523.698	492.38
523.913	472.38
524.128	472.38
524.343	475.38
524.559	459.38
524.774	445.38
524.989	466.38
525.204	485.38
525.419	463.38
525.634	455.38
525.849	462.38
526.064	464.38
526.28	452.38
526.495	432.38
526.71	431.38
526.925	453.38
527.14	431.38
527.355	464.38
527.57	445.38
527.785	409.38
527.999	419.38
528.214	424.38
528.429	463.38
528.644	438.38
528.859	457.38
529.074	436.38
529.289	452.38
529.503	473.38
529.718	488.38
529.933	461.38
530.148	455.38
530.363	433.38
530.577	422.38
530.792	425.38
531.007	427.38
531.221	447.38
531.436	432.38
531.651	407.38
531.865	419.38
532.08	423.38
532.295	432.38
532.509	430.38
532.724	417.38
532.938	431.38
533.153	431.38
533.367	424.38
533.582	423.38
533.796	430.38
534.011	439.38
534.225	396.38
534.44	414.38
534.654	417.38
534.868	440.38
535.083	411.38
535.297	439.38
535.511	439.38
535.726	418.38
535.94	416.38
536.154	408.38
536.369	398.38
536.583	419.38
536.797	395.38
537.011	395.38
537.225	396.38
537.44	398.38
537.654	398.38
537.868	411.38
538.082	412.38
538.296	407.38
538.51	422.38
538.724	408.38
538.938	408.38
539.153	401.38
539.367	431.38
539.581	413.38
539.795	407.38
540.009	396.38
540.222	404.38
540.436	401.38
540.65	404.38
540.864	419.38
541.078	429.38
541.292	409.38
541.506	412.38
541.72	392.38
541.934	414.38
542.147	394.38
542.361	400.38
542.575	392.38
542.789	418.38
543.002	392.38
543.216	399.38
543.43	406.38
543.644	390.38
543.857	406.38
544.071	402.38
544.285	416.38
544.498	414.38
544.712	404.38
544.925	405.38
545.139	389.38
545.352	407.38
545.566	383.38
545.779	419.38
545.993	389.38
546.206	380.38
546.42	390.38
546.633	398.38
546.847	383.38
547.06	379.38
547.274	396.38
547.487	393.38
547.7	390.38
547.914	395.38
548.127	380.38
548.34	397.38
548.554	401.38
548.767	382.38
548.98	397.38
549.193	378.38
549.407	411.38
549.62	407.38
549.833	388.38
550.046	399.38
550.259	386.38
550.473	405.38
550.686	384.38
550.899	396.38
551.112	376.38
551.325	376.38
551.538	381.38
551.751	383.38
551.964	387.38
552.177	385.38
552.39	361.38
552.603	414.38
552.816	398.38
553.029	407.38
553.242	402.38
553.455	390.38
553.667	408.38
553.88	409.38
554.093	411.38
554.306	395.38
554.519	387.38
554.732	385.38
554.944	385.38
555.157	373.38
555.37	359.38
555.583	373.38
555.795	383.38
556.008	360.38
556.221	375.38
556.433	359.38
556.646	351.38
556.859	350.38
557.071	348.38
557.284	347.38
557.496	341.38
557.709	355.38
557.921	363.38
558.134	381.38
558.346	351.38
558.559	329.38
558.771	339.38
558.984	354.38
559.196	329.38
559.409	340.38
559.621	347.38
559.833	354.38
560.046	336.38
560.258	344.38
560.47	335.38
560.683	359.38
560.895	362.38
561.107	335.38
561.32	334.38
561.532	339.38
561.744	344.38
561.956	340.38
562.168	335.38
562.381	350.38
562.593	354.38
562.805	347.38
563.017	355.38
563.229	340.38
563.441	352.38
563.653	341.38
563.865	329.38
564.077	360.38
564.289	355.38
564.501	368.38
564.713	352.38
564.925	374.38
565.137	378.38
565.349	394.38
565.561	390.38
565.773	372.38
565.985	381.38
566.197	397.38
566.408	406.38
566.62	412.38
566.832	419.38
567.044	435.38
567.255	428.38
567.467	461.38
567.679	460.38
567.891	454.38
568.102	465.38
568.314	484.38
568.526	444.38
568.737	417.38
568.949	402.38
569.161	418.38
569.372	381.38
569.584	352.38
569.795	355.38
570.007	369.38
570.218	365.38
570.43	367.38
570.641	352.38
570.853	341.38
571.064	352.38
571.276	336.38
571.487	339.38
571.698	345.38
571.91	327.38
572.121	317.38
572.333	331.38
572.544	309.38
572.755	319.38
572.966	316.38
573.178	308.38
573.389	318.38
573.6	329.38
573.811	308.38
574.023	319.38
574.234	284.38
574.445	305.38
574.656	316.38
574.867	299.38
575.078	301.38
575.289	315.38
575.501	303.38
575.712	307.38
575.923	297.38
576.134	304.38
576.345	300.38
576.556	296.38
576.767	290.38
576.978	280.38
577.188	292.38
577.399	314.38
577.61	299.38
577.821	280.38
578.032	295.38
578.243	313.38
578.454	437.38
578.665	359.38
578.875	302.38
579.086	282.38
579.297	278.38
579.508	275.38
579.718	276.38
579.929	277.38
580.14	280.38
580.35	280.38
580.561	277.38
580.772	273.38
580.982	279.38
581.193	273.38
581.403	265.38
581.614	276.38
581.825	256.38
582.035	294.38
582.246	274.38
582.456	277.38
582.667	278.38
582.877	287.38
583.087	279.38
583.298	252.38
583.508	269.38
583.719	276.38
583.929	278.38
584.139	268.38
584.35	263.38
584.56	272.38
584.77	262.38
584.981	277.38
585.191	278.38
585.401	285.38
585.611	271.38
585.821	276.38
586.032	285.38
586.242	273.38
586.452	271.38
586.662	259.38
586.872	265.38
587.082	268.38
587.292	263.38
587.502	255.38
587.713	268.38
587.923	290.38
588.133	280.38
588.343	252.38
588.553	273.38
588.762	270.38
588.972	275.38
589.182	275.38
589.392	261.38
589.602	280.38
589.812	281.38
590.022	256.38
590.232	285.38
590.441	273.38
590.651	267.38
590.861	268.38
591.071	259.38
591.281	271.38
591.49	276.38
591.7	238.38
591.91	263.38
592.119	270.38
592.329	279.38
592.539	287.38
592.748	302.38
592.958	280.38
593.167	286.38
593.377	289.38
593.587	288.38
593.796	292.38
594.006	288.38
594.215	291.38
594.424	305.38
594.634	282.38
594.843	272.38
595.053	267.38
595.262	282.38
595.472	285.38
595.681	267.38
595.89	269.38
596.1	265.38
596.309	258.38
596.518	260.38
596.727	272.38
596.937	262.38
597.146	239.38
597.355	277.38
597.564	256.38
597.774	244.38
597.983	247.38
598.192	237.38
598.401	263.38
598.61	259.38
598.819	235.38
599.028	235.38
599.237	247.38
599.446	224.38
599.655	252.38
599.864	236.38
600.073	238.38
600.282	237.38
600.491	244.38
600.7	233.38
600.909	233.38
601.118	231.38
601.327	228.38
601.536	234.38
601.745	231.38
601.953	216.38
602.162	231.38
602.371	222.38
602.58	240.38
602.789	230.38
602.997	237.38
603.206	229.38
603.415	236.38
603.623	222.38
603.832	227.38
604.041	234.38
604.249	231.38
604.458	224.38
604.666	218.38
604.875	219.38
605.084	208.38
605.292	221.38
605.501	227.38
605.709	215.38
605.918	215.38
606.126	231.38
606.334	210.38
606.543	216.38
606.751	233.38
606.96	228.38
607.168	218.38
607.376	206.38
607.585	212.38
607.793	204.38
608.001	228.38
608.21	215.38
608.418	204.38
608.626	216.38
608.834	222.38
609.043	217.38
609.251	222.38
609.459	208.38
609.667	240.38
609.875	232.38
610.083	215.38
610.291	215.38
610.499	213.38
610.707	221.38
610.916	221.38
611.124	223.38
611.332	222.38
611.54	217.38
611.748	213.38
611.955	222.38
612.163	224.38
612.371	214.38
612.579	212.38
612.787	209.38
612.995	218.38
613.203	213.38
613.411	213.38
613.618	205.38
613.826	203.38
614.034	212.38
614.242	223.38
614.449	207.38
614.657	220.38
614.865	228.38
615.072	222.38
615.28	211.38
615.488	214.38
615.695	198.38
615.903	223.38
616.111	210.38
616.318	213.38
616.526	213.38
616.733	229.38
616.941	216.38
617.148	216.38
617.356	217.38
617.563	204.38
617.771	209.38
617.978	193.38
618.185	194.38
618.393	205.38
618.6	192.38
618.807	197.38
619.015	192.38
619.222	207.38
619.429	213.38
619.637	217.38
619.844	213.38
620.051	201.38
620.258	191.38
620.466	190.38
620.673	225.38
620.88	198.38
621.087	193.38
621.294	207.38
621.501	191.38
621.708	202.38
621.915	204.38
622.122	204.38
622.329	185.38
622.536	207.38
622.743	219.38
622.95	196.38
623.157	207.38
623.364	188.38
623.571	193.38
623.778	206.38
623.985	201.38
624.192	195.38
624.399	198.38
624.606	199.38
624.812	184.38
625.019	209.38
625.226	205.38
625.433	191.38
625.639	171.38
625.846	197.38
626.053	190.38
626.259	200.38
626.466	179.38
626.673	191.38
626.879	189.38
627.086	202.38
627.293	196.38
627.499	177.38
627.706	183.38
627.912	184.38
628.119	183.38
628.325	189.38
628.532	188.38
628.738	185.38
628.945	197.38
629.151	169.38
629.357	173.38
629.564	180.38
629.77	191.38
629.976	188.38
630.183	165.38
630.389	176.38
630.595	191.38
630.802	200.38
631.008	178.38
631.214	188.38
631.42	172.38
631.627	180.38
631.833	159.38
632.039	169.38
632.245	168.38
632.451	165.38
632.657	158.38
632.863	177.38
633.069	177.38
633.275	182.38
633.481	178.38
633.688	163.38
633.893	183.38
634.099	183.38
634.305	173.38
634.511	181.38
634.717	170.38
634.923	192.38
635.129	165.38
635.335	170.38
635.541	156.38
635.747	164.38
635.952	170.38
636.158	189.38
636.364	160.38
636.57	168.38
636.775	165.38
636.981	191.38
637.187	193.38
637.392	177.38
637.598	160.38
637.804	168.38
638.009	158.38
638.215	159.38
638.421	169.38
638.626	153.38
638.832	159.38
639.037	165.38
639.243	161.38
639.448	159.38
639.654	164.38
639.859	160.38
640.065	163.38
640.27	158.38
640.475	161.38
640.681	170.38
640.886	173.38
641.091	156.38
641.297	163.38
641.502	164.38
641.707	154.38
641.913	167.38
642.118	137.38
642.323	167.38
642.528	166.38
642.733	172.38
642.939	175.38
643.144	174.38
643.349	155.38
643.554	156.38
643.759	167.38
643.964	155.38
644.169	171.38
644.374	165.38
644.579	157.38
644.784	172.38
644.989	160.38
645.194	155.38
645.399	157.38
645.604	153.38
645.809	138.38
646.014	140.38
646.219	135.38
646.423	152.38
646.628	148.38
646.833	165.38
647.038	145.38
647.243	159.38
647.447	147.38
647.652	141.38
647.857	169.38
648.062	152.38
648.266	168.38
648.471	162.38
648.676	165.38
648.88	165.38
649.085	167.38
649.289	164.38
649.494	166.38
649.698	165.38
649.903	162.38
650.107	166.38
650.312	148.38
650.516	151.38
650.721	167.38
650.925	152.38
651.13	148.38
651.334	136.38
651.539	141.38
651.743	129.38
651.947	149.38
652.152	135.38
652.356	143.38
652.56	142.38
652.764	129.38
652.969	136.38
653.173	145.38
653.377	137.38
653.581	130.38
653.785	129.38
653.99	127.38
654.194	133.38
654.398	119.38
654.602	135.38
654.806	134.38
655.01	127.38
655.214	127.38
655.418	119.38
655.622	127.38
655.826	137.38
656.03	139.38
656.234	124.38
656.438	125.38
656.642	136.38
656.846	141.38
657.049	135.38
657.253	142.38
657.457	120.38
657.661	128.38
657.865	110.38
658.068	107.38
658.272	121.38
658.476	114.38
658.68	115.38
658.883	119.38
659.087	118.38
659.291	97.38
659.494	103.38
659.698	105.38
659.901	87.38
660.105	94.38
660.309	116.38
660.512	100.38
660.716	91.38
660.919	94.38
661.123	93.38
661.326	97.38
661.53	76.38
661.733	87.38
661.936	94.38
662.14	71.38
662.343	86.38
662.546	75.38
662.75	88.38
662.953	103.38
663.156	78.38
663.36	77.38
663.563	93.38
663.766	96.38
663.969	90.38
664.173	95.38
664.376	76.38
664.579	88.38
664.782	96.38
664.985	83.38
665.188	72.38
665.391	78.38
665.594	68.38
665.797	76.38
666	86.38
666.203	86.38
666.406	77.38
666.609	91.38
666.812	77.38
667.015	95.38
667.218	87.38
667.421	81.38
667.624	80.38
667.827	92.38
668.03	87.38
668.232	95.38
668.435	83.38
668.638	90.38
668.841	104.38
669.043	82.38
669.246	88.38
669.449	80.38
669.651	75.38
669.854	84.38
670.057	86.38
670.259	87.38
670.462	64.38
670.665	87.38
670.867	89.38
671.07	80.38
671.272	74.38
671.475	76.38
671.677	87.38
671.88	94.38
672.082	75.38
672.284	88.38
672.487	93.38
672.689	83.38
672.892	91.38
