Data from 1977.PennyLincolnUp.Lamp.En5.5.200Scan.071719.P1_HRD10591_16-07-45-864.txt Node
Date: Thu Jul 18 16:07:45 EDT 2019
User: cochatt
Spectrometer: HR+D1059
Trigger mode: 1
Integration Time (sec): 1.000000E-1
Scans to average: 1
Electric dark correction enabled: true
Nonlinearity correction enabled: false
Boxcar width: 0
XAxis mode: Wavelengths
Number of Pixels in Spectrum: 2048
>>>>>Begin Spectral Data<<<<<
223.165	-9.94
223.4	-9.94
223.635	-9.94
223.869	-6.94
224.104	-19.94
224.338	-7.94
224.573	-7.94
224.808	-8.94
225.042	0.06
225.277	-20.94
225.511	-14.94
225.746	10.06
225.98	12.06
226.215	-5.94
226.449	4.06
226.683	24.06
226.918	24.06
227.152	29.06
227.387	30.06
227.621	32.06
227.856	40.06
228.09	58.06
228.324	56.06
228.559	62.06
228.793	73.06
229.027	88.06
229.262	95.06
229.496	116.06
229.73	124.06
229.964	131.06
230.199	130.06
230.433	107.06
230.667	113.06
230.901	116.06
231.136	113.06
231.37	102.06
231.604	100.06
231.838	98.06
232.072	101.06
232.306	124.06
232.541	101.06
232.775	113.06
233.009	111.06
233.243	114.06
233.477	104.06
233.711	125.06
233.945	114.06
234.179	106.06
234.413	112.06
234.647	111.06
234.881	113.06
235.115	110.06
235.349	122.06
235.583	114.06
235.817	113.06
236.051	114.06
236.285	127.06
236.519	128.06
236.753	138.06
236.987	136.06
237.221	159.06
237.455	192.06
237.689	170.06
237.922	138.06
238.156	110.06
238.39	122.06
238.624	126.06
238.858	112.06
239.091	119.06
239.325	121.06
239.559	135.06
239.793	124.06
240.027	134.06
240.26	144.06
240.494	150.06
240.728	144.06
240.961	140.06
241.195	139.06
241.429	128.06
241.662	129.06
241.896	128.06
242.13	138.06
242.363	134.06
242.597	136.06
242.83	144.06
243.064	137.06
243.298	126.06
243.531	126.06
243.765	149.06
243.998	136.06
244.232	138.06
244.465	133.06
244.699	142.06
244.932	137.06
245.166	126.06
245.399	157.06
245.633	145.06
245.866	159.06
246.099	145.06
246.333	147.06
246.566	151.06
246.8	156.06
247.033	147.06
247.266	150.06
247.5	154.06
247.733	163.06
247.966	149.06
248.2	164.06
248.433	156.06
248.666	174.06
248.899	176.06
249.133	183.06
249.366	210.06
249.599	188.06
249.832	202.06
250.066	175.06
250.299	146.06
250.532	176.06
250.765	196.06
250.998	204.06
251.231	201.06
251.465	218.06
251.698	206.06
251.931	208.06
252.164	190.06
252.397	185.06
252.63	186.06
252.863	188.06
253.096	216.06
253.329	219.06
253.562	205.06
253.795	204.06
254.028	202.06
254.261	217.06
254.494	214.06
254.727	235.06
254.96	240.06
255.193	241.06
255.426	234.06
255.659	211.06
255.892	222.06
256.124	229.06
256.357	234.06
256.59	211.06
256.823	188.06
257.056	211.06
257.289	200.06
257.521	188.06
257.754	203.06
257.987	207.06
258.22	198.06
258.452	201.06
258.685	192.06
258.918	190.06
259.151	189.06
259.383	209.06
259.616	197.06
259.849	220.06
260.081	228.06
260.314	228.06
260.547	269.06
260.779	244.06
261.012	225.06
261.244	214.06
261.477	225.06
261.71	202.06
261.942	226.06
262.175	214.06
262.407	209.06
262.64	208.06
262.872	214.06
263.105	225.06
263.337	217.06
263.57	225.06
263.802	216.06
264.035	230.06
264.267	209.06
264.499	210.06
264.732	219.06
264.964	218.06
265.197	222.06
265.429	236.06
265.661	212.06
265.894	218.06
266.126	201.06
266.358	223.06
266.591	215.06
266.823	248.06
267.055	239.06
267.287	216.06
267.52	229.06
267.752	226.06
267.984	238.06
268.216	228.06
268.448	223.06
268.681	239.06
268.913	245.06
269.145	261.06
269.377	285.06
269.609	269.06
269.841	253.06
270.073	271.06
270.306	279.06
270.538	314.06
270.77	314.06
271.002	300.06
271.234	286.06
271.466	269.06
271.698	297.06
271.93	294.06
272.162	304.06
272.394	305.06
272.626	276.06
272.858	292.06
273.09	284.06
273.322	274.06
273.553	266.06
273.785	259.06
274.017	268.06
274.249	248.06
274.481	261.06
274.713	285.06
274.945	271.06
275.176	263.06
275.408	265.06
275.64	271.06
275.872	251.06
276.104	265.06
276.335	270.06
276.567	276.06
276.799	287.06
277.031	305.06
277.262	316.06
277.494	296.06
277.726	296.06
277.957	306.06
278.189	276.06
278.421	276.06
278.652	284.06
278.884	271.06
279.115	296.06
279.347	291.06
279.579	267.06
279.81	275.06
280.042	282.06
280.273	271.06
280.505	278.06
280.736	283.06
280.968	277.06
281.199	280.06
281.431	294.06
281.662	286.06
281.894	297.06
282.125	285.06
282.356	289.06
282.588	299.06
282.819	295.06
283.051	302.06
283.282	266.06
283.513	288.06
283.745	293.06
283.976	296.06
284.207	282.06
284.439	290.06
284.67	282.06
284.901	293.06
285.132	285.06
285.364	296.06
285.595	301.06
285.826	293.06
286.057	292.06
286.288	277.06
286.52	271.06
286.751	288.06
286.982	293.06
287.213	290.06
287.444	321.06
287.675	300.06
287.906	296.06
288.138	313.06
288.369	311.06
288.6	319.06
288.831	323.06
289.062	305.06
289.293	304.06
289.524	317.06
289.755	287.06
289.986	288.06
290.217	289.06
290.448	313.06
290.679	306.06
290.91	306.06
291.141	317.06
291.371	314.06
291.602	310.06
291.833	307.06
292.064	304.06
292.295	292.06
292.526	295.06
292.757	315.06
292.987	296.06
293.218	305.06
293.449	301.06
293.68	306.06
293.91	321.06
294.141	299.06
294.372	301.06
294.603	292.06
294.833	303.06
295.064	318.06
295.295	308.06
295.525	304.06
295.756	301.06
295.987	306.06
296.217	331.06
296.448	332.06
296.679	309.06
296.909	313.06
297.14	313.06
297.37	299.06
297.601	319.06
297.831	298.06
298.062	298.06
298.292	309.06
298.523	313.06
298.753	331.06
298.984	325.06
299.214	333.06
299.445	317.06
299.675	334.06
299.905	326.06
300.136	335.06
300.366	335.06
300.597	312.06
300.827	322.06
301.057	314.06
301.288	343.06
301.518	332.06
301.748	330.06
301.979	331.06
302.209	347.06
302.439	348.06
302.669	356.06
302.9	322.06
303.13	349.06
303.36	363.06
303.59	345.06
303.82	342.06
304.051	337.06
304.281	350.06
304.511	337.06
304.741	344.06
304.971	348.06
305.201	346.06
305.431	337.06
305.661	342.06
305.891	341.06
306.121	336.06
306.352	346.06
306.582	342.06
306.812	359.06
307.042	347.06
307.272	358.06
307.502	331.06
307.731	348.06
307.961	339.06
308.191	343.06
308.421	338.06
308.651	332.06
308.881	335.06
309.111	356.06
309.341	336.06
309.571	365.06
309.8	360.06
310.03	355.06
310.26	380.06
310.49	382.06
310.72	377.06
310.949	394.06
311.179	394.06
311.409	387.06
311.639	372.06
311.868	386.06
312.098	390.06
312.328	380.06
312.557	386.06
312.787	403.06
313.017	396.06
313.246	388.06
313.476	363.06
313.706	384.06
313.935	399.06
314.165	381.06
314.394	396.06
314.624	393.06
314.853	408.06
315.083	376.06
315.312	366.06
315.542	378.06
315.771	375.06
316.001	372.06
316.23	392.06
316.46	374.06
316.689	381.06
316.919	395.06
317.148	392.06
317.377	386.06
317.607	410.06
317.836	370.06
318.065	376.06
318.295	408.06
318.524	373.06
318.753	392.06
318.983	397.06
319.212	377.06
319.441	391.06
319.67	398.06
319.9	372.06
320.129	385.06
320.358	376.06
320.587	396.06
320.816	384.06
321.046	394.06
321.275	383.06
321.504	392.06
321.733	399.06
321.962	385.06
322.191	417.06
322.42	398.06
322.649	436.06
322.878	421.06
323.108	439.06
323.337	444.06
323.566	472.06
323.795	479.06
324.024	504.06
324.253	614.06
324.482	817.06
324.71	1224.06
324.939	1726.06
325.168	1470.06
325.397	795.06
325.626	580.06
325.855	505.06
326.084	491.06
326.313	475.06
326.542	469.06
326.77	504.06
326.999	586.06
327.228	766.06
327.457	1109.06
327.686	1312.06
327.914	888.06
328.143	593.06
328.372	527.06
328.6	522.06
328.829	516.06
329.058	532.06
329.287	516.06
329.515	493.06
329.744	475.06
329.972	469.06
330.201	488.06
330.43	531.06
330.658	518.06
330.887	557.06
331.115	544.06
331.344	491.06
331.572	479.06
331.801	488.06
332.03	479.06
332.258	475.06
332.486	468.06
332.715	474.06
332.943	460.06
333.172	458.06
333.4	457.06
333.629	482.06
333.857	501.06
334.085	497.06
334.314	496.06
334.542	498.06
334.771	510.06
334.999	475.06
335.227	480.06
335.455	470.06
335.684	478.06
335.912	458.06
336.14	451.06
336.369	452.06
336.597	449.06
336.825	476.06
337.053	464.06
337.281	445.06
337.51	465.06
337.738	451.06
337.966	448.06
338.194	438.06
338.422	462.06
338.65	421.06
338.878	440.06
339.106	410.06
339.334	431.06
339.562	431.06
339.79	423.06
340.018	434.06
340.246	428.06
340.474	430.06
340.702	445.06
340.93	446.06
341.158	416.06
341.386	444.06
341.614	420.06
341.842	412.06
342.07	420.06
342.298	427.06
342.526	426.06
342.754	410.06
342.981	435.06
343.209	411.06
343.437	428.06
343.665	429.06
343.893	464.06
344.12	448.06
344.348	445.06
344.576	448.06
344.804	445.06
345.031	454.06
345.259	428.06
345.487	432.06
345.714	421.06
345.942	408.06
346.17	399.06
346.397	414.06
346.625	434.06
346.853	418.06
347.08	401.06
347.308	415.06
347.535	403.06
347.763	418.06
347.99	408.06
348.218	428.06
348.445	408.06
348.673	408.06
348.9	391.06
349.128	404.06
349.355	385.06
349.583	400.06
349.81	410.06
350.037	377.06
350.265	415.06
350.492	400.06
350.72	401.06
350.947	388.06
351.174	397.06
351.402	407.06
351.629	402.06
351.856	394.06
352.083	392.06
352.311	393.06
352.538	409.06
352.765	418.06
352.992	402.06
353.22	400.06
353.447	401.06
353.674	410.06
353.901	380.06
354.128	386.06
354.355	388.06
354.583	394.06
354.81	376.06
355.037	376.06
355.264	376.06
355.491	381.06
355.718	387.06
355.945	384.06
356.172	393.06
356.399	383.06
356.626	417.06
356.853	380.06
357.08	377.06
357.307	374.06
357.534	381.06
357.761	372.06
357.988	385.06
358.215	389.06
358.441	383.06
358.668	374.06
358.895	386.06
359.122	373.06
359.349	392.06
359.576	382.06
359.802	410.06
360.029	414.06
360.256	420.06
360.483	423.06
360.709	395.06
360.936	392.06
361.163	404.06
361.39	416.06
361.616	414.06
361.843	381.06
362.07	396.06
362.296	393.06
362.523	382.06
362.749	381.06
362.976	396.06
363.203	382.06
363.429	382.06
363.656	386.06
363.882	382.06
364.109	383.06
364.335	384.06
364.562	382.06
364.788	376.06
365.015	393.06
365.241	370.06
365.468	384.06
365.694	380.06
365.92	380.06
366.147	374.06
366.373	371.06
366.599	391.06
366.826	359.06
367.052	383.06
367.278	383.06
367.505	360.06
367.731	362.06
367.957	393.06
368.184	384.06
368.41	374.06
368.636	387.06
368.862	395.06
369.089	384.06
369.315	380.06
369.541	361.06
369.767	386.06
369.993	372.06
370.219	383.06
370.445	372.06
370.672	374.06
370.898	372.06
371.124	397.06
371.35	373.06
371.576	388.06
371.802	399.06
372.028	374.06
372.254	389.06
372.48	382.06
372.706	380.06
372.932	399.06
373.158	388.06
373.384	383.06
373.61	381.06
373.835	376.06
374.061	372.06
374.287	382.06
374.513	379.06
374.739	383.06
374.965	384.06
375.191	385.06
375.416	401.06
375.642	413.06
375.868	360.06
376.094	377.06
376.319	388.06
376.545	365.06
376.771	378.06
376.997	392.06
377.222	375.06
377.448	362.06
377.674	375.06
377.899	362.06
378.125	372.06
378.35	387.06
378.576	359.06
378.802	377.06
379.027	387.06
379.253	368.06
379.478	396.06
379.704	396.06
379.929	373.06
380.155	391.06
380.38	369.06
380.606	388.06
380.831	378.06
381.057	375.06
381.282	367.06
381.507	373.06
381.733	382.06
381.958	384.06
382.184	393.06
382.409	381.06
382.634	377.06
382.86	389.06
383.085	373.06
383.31	390.06
383.535	391.06
383.761	394.06
383.986	401.06
384.211	377.06
384.436	392.06
384.662	394.06
384.887	401.06
385.112	417.06
385.337	414.06
385.562	395.06
385.787	410.06
386.013	424.06
386.238	414.06
386.463	416.06
386.688	414.06
386.913	396.06
387.138	402.06
387.363	434.06
387.588	406.06
387.813	412.06
388.038	419.06
388.263	400.06
388.488	416.06
388.713	408.06
388.938	416.06
389.163	412.06
389.387	430.06
389.612	410.06
389.837	421.06
390.062	402.06
390.287	392.06
390.512	407.06
390.736	408.06
390.961	410.06
391.186	424.06
391.411	414.06
391.636	424.06
391.86	436.06
392.085	448.06
392.31	439.06
392.534	459.06
392.759	419.06
392.984	424.06
393.208	412.06
393.433	404.06
393.658	409.06
393.882	403.06
394.107	416.06
394.331	414.06
394.556	413.06
394.78	429.06
395.005	432.06
395.229	406.06
395.454	417.06
395.678	444.06
395.903	467.06
396.127	433.06
396.352	431.06
396.576	405.06
396.801	428.06
397.025	429.06
397.249	423.06
397.474	463.06
397.698	452.06
397.922	438.06
398.147	465.06
398.371	463.06
398.595	456.06
398.82	477.06
399.044	506.06
399.268	522.06
399.492	530.06
399.717	579.06
399.941	577.06
400.165	574.06
400.389	609.06
400.613	528.06
400.837	489.06
401.062	476.06
401.286	472.06
401.51	472.06
401.734	473.06
401.958	490.06
402.182	479.06
402.406	460.06
402.63	488.06
402.854	478.06
403.078	471.06
403.302	503.06
403.526	470.06
403.75	479.06
403.974	490.06
404.198	478.06
404.422	502.06
404.645	491.06
404.869	490.06
405.093	522.06
405.317	551.06
405.541	580.06
405.765	535.06
405.988	498.06
406.212	524.06
406.436	525.06
406.66	514.06
406.883	512.06
407.107	548.06
407.331	564.06
407.555	610.06
407.778	632.06
408.002	588.06
408.226	552.06
408.449	551.06
408.673	537.06
408.896	547.06
409.12	588.06
409.344	566.06
409.567	494.06
409.791	465.06
410.014	476.06
410.238	487.06
410.461	501.06
410.685	484.06
410.908	500.06
411.132	522.06
411.355	566.06
411.578	516.06
411.802	492.06
412.025	486.06
412.249	472.06
412.472	524.06
412.695	519.06
412.919	527.06
413.142	496.06
413.365	478.06
413.589	473.06
413.812	448.06
414.035	476.06
414.258	438.06
414.482	458.06
414.705	443.06
414.928	462.06
415.151	442.06
415.374	446.06
415.597	447.06
415.821	442.06
416.044	446.06
416.267	449.06
416.49	439.06
416.713	460.06
416.936	421.06
417.159	446.06
417.382	459.06
417.605	450.06
417.828	465.06
418.051	481.06
418.274	465.06
418.497	445.06
418.72	446.06
418.943	467.06
419.166	476.06
419.389	485.06
419.611	516.06
419.834	500.06
420.057	472.06
420.28	466.06
420.503	477.06
420.726	455.06
420.948	467.06
421.171	503.06
421.394	536.06
421.617	494.06
421.839	433.06
422.062	457.06
422.285	478.06
422.507	523.06
422.73	580.06
422.953	548.06
423.175	492.06
423.398	502.06
423.621	502.06
423.843	508.06
424.066	515.06
424.288	494.06
424.511	523.06
424.733	539.06
424.956	616.06
425.178	605.06
425.401	608.06
425.623	603.06
425.846	534.06
426.068	500.06
426.291	504.06
426.513	490.06
426.735	479.06
426.958	521.06
427.18	580.06
427.402	707.06
427.625	762.06
427.847	646.06
428.069	560.06
428.292	520.06
428.514	482.06
428.736	463.06
428.958	468.06
429.181	456.06
429.403	446.06
429.625	460.06
429.847	481.06
430.069	548.06
430.292	544.06
430.514	477.06
430.736	440.06
430.958	456.06
431.18	440.06
431.402	418.06
431.624	430.06
431.846	423.06
432.068	420.06
432.29	430.06
432.512	403.06
432.734	430.06
432.956	448.06
433.178	441.06
433.4	455.06
433.622	444.06
433.844	430.06
434.066	433.06
434.287	439.06
434.509	443.06
434.731	470.06
434.953	453.06
435.175	464.06
435.397	481.06
435.618	493.06
435.84	531.06
436.062	580.06
436.284	644.06
436.505	540.06
436.727	486.06
436.949	466.06
437.17	447.06
437.392	451.06
437.614	474.06
437.835	482.06
438.057	537.06
438.278	634.06
438.5	623.06
438.721	702.06
438.943	688.06
439.165	539.06
439.386	486.06
439.608	498.06
439.829	497.06
440.05	495.06
440.272	530.06
440.493	504.06
440.715	480.06
440.936	472.06
441.158	448.06
441.379	457.06
441.6	489.06
441.822	504.06
442.043	516.06
442.264	583.06
442.486	607.06
442.707	525.06
442.928	489.06
443.149	516.06
443.371	520.06
443.592	544.06
443.813	615.06
444.034	671.06
444.255	581.06
444.476	510.06
444.698	481.06
444.919	494.06
445.14	613.06
445.361	561.06
445.582	533.06
445.803	584.06
446.024	646.06
446.245	642.06
446.466	599.06
446.687	528.06
446.908	483.06
447.129	471.06
447.35	468.06
447.571	446.06
447.792	449.06
448.013	432.06
448.234	470.06
448.455	495.06
448.675	606.06
448.896	681.06
449.117	594.06
449.338	524.06
449.559	629.06
449.779	709.06
450	575.06
450.221	483.06
450.442	469.06
450.662	441.06
450.883	437.06
451.104	434.06
451.324	419.06
451.545	408.06
451.766	398.06
451.986	396.06
452.207	390.06
452.428	378.06
452.648	398.06
452.869	386.06
453.089	385.06
453.31	423.06
453.53	392.06
453.751	408.06
453.971	407.06
454.192	398.06
454.412	400.06
454.633	399.06
454.853	382.06
455.073	394.06
455.294	428.06
455.514	463.06
455.734	465.06
455.955	393.06
456.175	378.06
456.395	375.06
456.616	354.06
456.836	375.06
457.056	369.06
457.276	382.06
457.497	367.06
457.717	374.06
457.937	378.06
458.157	395.06
458.377	380.06
458.598	402.06
458.818	447.06
459.038	501.06
459.258	502.06
459.478	468.06
459.698	424.06
459.918	455.06
460.138	428.06
460.358	437.06
460.578	434.06
460.798	432.06
461.018	447.06
461.238	449.06
461.458	430.06
461.678	441.06
461.898	456.06
462.118	443.06
462.338	453.06
462.558	469.06
462.777	486.06
462.997	481.06
463.217	498.06
463.437	497.06
463.657	469.06
463.876	479.06
464.096	466.06
464.316	466.06
464.536	461.06
464.755	470.06
464.975	451.06
465.195	472.06
465.414	494.06
465.634	484.06
465.854	434.06
466.073	421.06
466.293	423.06
466.512	420.06
466.732	415.06
466.951	402.06
467.171	404.06
467.391	429.06
467.61	412.06
467.829	414.06
468.049	397.06
468.268	404.06
468.488	414.06
468.707	409.06
468.927	381.06
469.146	383.06
469.365	396.06
469.585	387.06
469.804	406.06
470.023	408.06
470.243	412.06
470.462	414.06
470.681	422.06
470.901	425.06
471.12	418.06
471.339	410.06
471.558	417.06
471.777	412.06
471.997	412.06
472.216	400.06
472.435	422.06
472.654	413.06
472.873	415.06
473.092	414.06
473.311	417.06
473.53	392.06
473.749	401.06
473.968	452.06
474.187	526.06
474.406	561.06
474.625	438.06
474.844	414.06
475.063	401.06
475.282	396.06
475.501	410.06
475.72	433.06
475.939	424.06
476.158	443.06
476.377	436.06
476.596	419.06
476.814	425.06
477.033	428.06
477.252	424.06
477.471	432.06
477.69	434.06
477.908	428.06
478.127	441.06
478.346	476.06
478.564	452.06
478.783	454.06
479.002	465.06
479.22	476.06
479.439	478.06
479.658	487.06
479.876	483.06
480.095	505.06
480.313	528.06
480.532	542.06
480.751	524.06
480.969	500.06
481.188	549.06
481.406	551.06
481.624	506.06
481.843	482.06
482.061	492.06
482.28	485.06
482.498	465.06
482.717	481.06
482.935	480.06
483.153	504.06
483.372	461.06
483.59	468.06
483.808	470.06
484.027	473.06
484.245	452.06
484.463	472.06
484.681	475.06
484.9	482.06
485.118	496.06
485.336	470.06
485.554	502.06
485.772	486.06
485.99	504.06
486.209	497.06
486.427	499.06
486.645	502.06
486.863	519.06
487.081	495.06
487.299	502.06
487.517	489.06
487.735	505.06
487.953	509.06
488.171	522.06
488.389	514.06
488.607	494.06
488.825	498.06
489.043	501.06
489.261	525.06
489.479	508.06
489.696	503.06
489.914	514.06
490.132	528.06
490.35	516.06
490.568	545.06
490.786	520.06
491.003	541.06
491.221	528.06
491.439	546.06
491.657	555.06
491.874	572.06
492.092	577.06
492.31	580.06
492.527	574.06
492.745	570.06
492.963	561.06
493.18	567.06
493.398	580.06
493.615	589.06
493.833	607.06
494.05	570.06
494.268	574.06
494.485	586.06
494.703	582.06
494.92	585.06
495.138	594.06
495.355	590.06
495.573	599.06
495.79	608.06
496.008	609.06
496.225	589.06
496.442	583.06
496.66	600.06
496.877	572.06
497.094	586.06
497.312	595.06
497.529	607.06
497.746	638.06
497.963	618.06
498.181	671.06
498.398	648.06
498.615	675.06
498.832	688.06
499.049	708.06
499.267	720.06
499.484	760.06
499.701	774.06
499.918	776.06
500.135	876.06
500.352	902.06
500.569	921.06
500.786	900.06
501.003	916.06
501.22	891.06
501.437	836.06
501.654	786.06
501.871	791.06
502.088	764.06
502.305	711.06
502.522	717.06
502.739	676.06
502.956	654.06
503.172	648.06
503.389	634.06
503.606	619.06
503.823	613.06
504.04	615.06
504.256	610.06
504.473	615.06
504.69	612.06
504.907	603.06
505.123	594.06
505.34	574.06
505.557	589.06
505.773	554.06
505.99	573.06
506.207	579.06
506.423	562.06
506.64	526.06
506.856	561.06
507.073	542.06
507.289	567.06
507.506	537.06
507.722	538.06
507.939	549.06
508.155	568.06
508.372	529.06
508.588	509.06
508.805	535.06
509.021	518.06
509.238	539.06
509.454	534.06
509.67	530.06
509.887	513.06
510.103	526.06
510.319	520.06
510.536	578.06
510.752	835.06
510.968	648.06
511.184	520.06
511.401	512.06
511.617	505.06
511.833	502.06
512.049	505.06
512.265	506.06
512.481	503.06
512.698	495.06
512.914	505.06
513.13	505.06
513.346	501.06
513.562	491.06
513.778	491.06
513.994	488.06
514.21	514.06
514.426	530.06
514.642	535.06
514.858	544.06
515.074	562.06
515.29	616.06
515.506	825.06
515.721	719.06
515.937	563.06
516.153	552.06
516.369	511.06
516.585	512.06
516.801	539.06
517.016	522.06
517.232	524.06
517.448	503.06
517.664	534.06
517.879	542.06
518.095	544.06
518.311	528.06
518.527	523.06
518.742	542.06
518.958	503.06
519.173	488.06
519.389	499.06
519.605	473.06
519.82	485.06
520.036	502.06
520.251	500.06
520.467	525.06
520.682	512.06
520.898	529.06
521.113	520.06
521.329	543.06
521.544	585.06
521.76	699.06
521.975	997.06
522.19	969.06
522.406	615.06
522.621	514.06
522.836	479.06
523.052	472.06
523.267	469.06
523.482	461.06
523.698	465.06
523.913	451.06
524.128	448.06
524.343	453.06
524.559	440.06
524.774	437.06
524.989	456.06
525.204	428.06
525.419	422.06
525.634	424.06
525.849	422.06
526.064	439.06
526.28	425.06
526.495	408.06
526.71	413.06
526.925	429.06
527.14	426.06
527.355	416.06
527.57	408.06
527.785	413.06
527.999	415.06
528.214	433.06
528.429	403.06
528.644	416.06
528.859	412.06
529.074	397.06
529.289	418.06
529.503	445.06
529.718	448.06
529.933	394.06
530.148	428.06
530.363	437.06
530.577	403.06
530.792	401.06
531.007	405.06
531.221	408.06
531.436	389.06
531.651	396.06
531.865	408.06
532.08	390.06
532.295	409.06
532.509	378.06
532.724	401.06
532.938	406.06
533.153	411.06
533.367	413.06
533.582	400.06
533.796	417.06
534.011	393.06
534.225	389.06
534.44	372.06
534.654	396.06
534.868	403.06
535.083	392.06
535.297	420.06
535.511	391.06
535.726	418.06
535.94	406.06
536.154	393.06
536.369	383.06
536.583	377.06
536.797	366.06
537.011	387.06
537.225	384.06
537.44	384.06
537.654	366.06
537.868	388.06
538.082	367.06
538.296	388.06
538.51	391.06
538.724	398.06
538.938	386.06
539.153	397.06
539.367	394.06
539.581	382.06
539.795	399.06
540.009	381.06
540.222	376.06
540.436	383.06
540.65	384.06
540.864	406.06
541.078	394.06
541.292	397.06
541.506	376.06
541.72	389.06
541.934	375.06
542.147	385.06
542.361	370.06
542.575	372.06
542.789	390.06
543.002	384.06
543.216	385.06
543.43	379.06
543.644	385.06
543.857	389.06
544.071	412.06
544.285	373.06
544.498	363.06
544.712	376.06
544.925	382.06
545.139	380.06
545.352	379.06
545.566	369.06
545.779	368.06
545.993	382.06
546.206	380.06
546.42	381.06
546.633	373.06
546.847	377.06
547.06	380.06
547.274	377.06
547.487	360.06
547.7	365.06
547.914	356.06
548.127	369.06
548.34	380.06
548.554	363.06
548.767	378.06
548.98	400.06
549.193	372.06
549.407	356.06
549.62	382.06
549.833	365.06
550.046	388.06
550.259	380.06
550.473	374.06
550.686	367.06
550.899	357.06
551.112	359.06
551.325	353.06
551.538	360.06
551.751	368.06
551.964	375.06
552.177	378.06
552.39	373.06
552.603	369.06
552.816	370.06
553.029	385.06
553.242	366.06
553.455	386.06
553.667	396.06
553.88	380.06
554.093	387.06
554.306	385.06
554.519	372.06
554.732	368.06
554.944	366.06
555.157	363.06
555.37	361.06
555.583	356.06
555.795	358.06
556.008	343.06
556.221	352.06
556.433	332.06
556.646	344.06
556.859	357.06
557.071	352.06
557.284	353.06
557.496	348.06
557.709	340.06
557.921	340.06
558.134	342.06
558.346	327.06
558.559	314.06
558.771	333.06
558.984	322.06
559.196	347.06
559.409	333.06
559.621	314.06
559.833	339.06
560.046	338.06
560.258	318.06
560.47	330.06
560.683	317.06
560.895	318.06
561.107	322.06
561.32	333.06
561.532	327.06
561.744	320.06
561.956	326.06
562.168	309.06
562.381	328.06
562.593	317.06
562.805	326.06
563.017	332.06
563.229	333.06
563.441	329.06
563.653	352.06
563.865	346.06
564.077	353.06
564.289	344.06
564.501	347.06
564.713	348.06
564.925	348.06
565.137	348.06
565.349	362.06
565.561	358.06
565.773	355.06
565.985	359.06
566.197	363.06
566.408	379.06
566.62	412.06
566.832	406.06
567.044	418.06
567.255	406.06
567.467	433.06
567.679	429.06
567.891	438.06
568.102	445.06
568.314	440.06
568.526	401.06
568.737	422.06
568.949	383.06
569.161	369.06
569.372	350.06
569.584	353.06
569.795	346.06
570.007	324.06
570.218	365.06
570.43	352.06
570.641	340.06
570.853	330.06
571.064	329.06
571.276	334.06
571.487	312.06
571.698	314.06
571.91	322.06
572.121	320.06
572.333	313.06
572.544	280.06
572.755	299.06
572.966	312.06
573.178	309.06
573.389	296.06
573.6	292.06
573.811	294.06
574.023	299.06
574.234	288.06
574.445	283.06
574.656	289.06
574.867	300.06
575.078	271.06
575.289	289.06
575.501	278.06
575.712	294.06
575.923	299.06
576.134	279.06
576.345	298.06
576.556	266.06
576.767	273.06
576.978	278.06
577.188	271.06
577.399	284.06
577.61	315.06
577.821	274.06
578.032	271.06
578.243	296.06
578.454	422.06
578.665	334.06
578.875	273.06
579.086	267.06
579.297	270.06
579.508	273.06
579.718	253.06
579.929	270.06
580.14	296.06
580.35	282.06
580.561	261.06
580.772	245.06
580.982	248.06
581.193	254.06
581.403	253.06
581.614	265.06
581.825	267.06
582.035	265.06
582.246	265.06
582.456	254.06
582.667	272.06
582.877	266.06
583.087	262.06
583.298	263.06
583.508	260.06
583.719	258.06
583.929	252.06
584.139	268.06
584.35	250.06
584.56	236.06
584.77	266.06
584.981	255.06
585.191	221.06
585.401	255.06
585.611	241.06
585.821	261.06
586.032	252.06
586.242	278.06
586.452	252.06
586.662	247.06
586.872	229.06
587.082	255.06
587.292	262.06
587.502	271.06
587.713	253.06
587.923	247.06
588.133	246.06
588.343	253.06
588.553	252.06
588.762	235.06
588.972	235.06
589.182	252.06
589.392	246.06
589.602	248.06
589.812	253.06
590.022	253.06
590.232	253.06
590.441	250.06
590.651	229.06
590.861	238.06
591.071	272.06
591.281	278.06
591.49	252.06
591.7	249.06
591.91	257.06
592.119	252.06
592.329	268.06
592.539	260.06
592.748	276.06
592.958	260.06
593.167	270.06
593.377	271.06
593.587	284.06
593.796	276.06
594.006	267.06
594.215	258.06
594.424	266.06
594.634	280.06
594.843	260.06
595.053	262.06
595.262	268.06
595.472	266.06
595.681	262.06
595.89	249.06
596.1	250.06
596.309	244.06
596.518	237.06
596.727	223.06
596.937	244.06
597.146	249.06
597.355	222.06
597.564	237.06
597.774	228.06
597.983	233.06
598.192	248.06
598.401	220.06
598.61	225.06
598.819	230.06
599.028	214.06
599.237	227.06
599.446	239.06
599.655	228.06
599.864	223.06
600.073	211.06
600.282	222.06
600.491	220.06
600.7	231.06
600.909	235.06
601.118	219.06
601.327	225.06
601.536	224.06
601.745	213.06
601.953	227.06
602.162	228.06
602.371	213.06
602.58	215.06
602.789	215.06
602.997	233.06
603.206	226.06
603.415	228.06
603.623	195.06
603.832	216.06
604.041	230.06
604.249	214.06
604.458	218.06
604.666	220.06
604.875	208.06
605.084	220.06
605.292	222.06
605.501	216.06
605.709	212.06
605.918	221.06
606.126	202.06
606.334	210.06
606.543	210.06
606.751	190.06
606.96	214.06
607.168	204.06
607.376	194.06
607.585	217.06
607.793	213.06
608.001	209.06
608.21	202.06
608.418	186.06
608.626	209.06
608.834	207.06
609.043	219.06
609.251	210.06
609.459	199.06
609.667	213.06
609.875	207.06
610.083	207.06
610.291	206.06
610.499	206.06
610.707	206.06
610.916	205.06
611.124	214.06
611.332	213.06
611.54	216.06
611.748	214.06
611.955	198.06
612.163	221.06
612.371	202.06
612.579	208.06
612.787	203.06
612.995	199.06
613.203	201.06
613.411	208.06
613.618	210.06
613.826	192.06
614.034	200.06
614.242	192.06
614.449	192.06
614.657	210.06
614.865	202.06
615.072	209.06
615.28	201.06
615.488	204.06
615.695	215.06
615.903	205.06
616.111	202.06
616.318	202.06
616.526	196.06
616.733	191.06
616.941	192.06
617.148	200.06
617.356	194.06
617.563	208.06
617.771	210.06
617.978	194.06
618.185	178.06
618.393	194.06
618.6	201.06
618.807	194.06
619.015	194.06
619.222	193.06
619.429	203.06
619.637	211.06
619.844	202.06
620.051	206.06
620.258	185.06
620.466	201.06
620.673	176.06
620.88	184.06
621.087	177.06
621.294	204.06
621.501	199.06
621.708	188.06
621.915	199.06
622.122	200.06
622.329	187.06
622.536	190.06
622.743	200.06
622.95	203.06
623.157	180.06
623.364	199.06
623.571	176.06
623.778	190.06
623.985	184.06
624.192	199.06
624.399	200.06
624.606	185.06
624.812	182.06
625.019	169.06
625.226	192.06
625.433	164.06
625.639	180.06
625.846	186.06
626.053	175.06
626.259	170.06
626.466	198.06
626.673	177.06
626.879	185.06
627.086	184.06
627.293	188.06
627.499	175.06
627.706	174.06
627.912	177.06
628.119	164.06
628.325	195.06
628.532	182.06
628.738	169.06
628.945	173.06
629.151	169.06
629.357	170.06
629.564	197.06
629.77	171.06
629.976	178.06
630.183	177.06
630.389	176.06
630.595	159.06
630.802	174.06
631.008	180.06
631.214	173.06
631.42	157.06
631.627	175.06
631.833	181.06
632.039	160.06
632.245	159.06
632.451	172.06
632.657	161.06
632.863	166.06
633.069	178.06
633.275	156.06
633.481	177.06
633.688	166.06
633.893	161.06
634.099	173.06
634.305	164.06
634.511	167.06
634.717	173.06
634.923	166.06
635.129	142.06
635.335	159.06
635.541	170.06
635.747	159.06
635.952	168.06
636.158	164.06
636.364	150.06
636.57	165.06
636.775	164.06
636.981	173.06
637.187	159.06
637.392	153.06
637.598	156.06
637.804	171.06
638.009	159.06
638.215	162.06
638.421	161.06
638.626	166.06
638.832	162.06
639.037	154.06
639.243	157.06
639.448	146.06
639.654	159.06
639.859	142.06
640.065	152.06
640.27	167.06
640.475	153.06
640.681	165.06
640.886	151.06
641.091	165.06
641.297	175.06
641.502	146.06
641.707	153.06
641.913	160.06
642.118	160.06
642.323	156.06
642.528	162.06
642.733	153.06
642.939	145.06
643.144	155.06
643.349	173.06
643.554	167.06
643.759	174.06
643.964	150.06
644.169	146.06
644.374	148.06
644.579	140.06
644.784	160.06
644.989	151.06
645.194	159.06
645.399	151.06
645.604	154.06
645.809	157.06
646.014	145.06
646.219	160.06
646.423	159.06
646.628	149.06
646.833	134.06
647.038	166.06
647.243	154.06
647.447	141.06
647.652	144.06
647.857	152.06
648.062	166.06
648.266	152.06
648.471	152.06
648.676	151.06
648.88	145.06
649.085	130.06
649.289	158.06
649.494	151.06
649.698	169.06
649.903	172.06
650.107	144.06
650.312	159.06
650.516	145.06
650.721	144.06
650.925	149.06
651.13	138.06
651.334	143.06
651.539	127.06
651.743	126.06
651.947	141.06
652.152	128.06
652.356	136.06
652.56	158.06
652.764	138.06
652.969	139.06
653.173	131.06
653.377	130.06
653.581	125.06
653.785	119.06
653.99	133.06
654.194	128.06
654.398	132.06
654.602	134.06
654.806	131.06
655.01	139.06
655.214	128.06
655.418	127.06
655.622	130.06
655.826	113.06
656.03	130.06
656.234	130.06
656.438	132.06
656.642	116.06
656.846	118.06
657.049	129.06
657.253	131.06
657.457	124.06
657.661	118.06
657.865	113.06
658.068	105.06
658.272	97.06
658.476	110.06
658.68	115.06
658.883	100.06
659.087	108.06
659.291	85.06
659.494	97.06
659.698	96.06
659.901	92.06
660.105	92.06
660.309	96.06
660.512	100.06
660.716	97.06
660.919	88.06
661.123	98.06
661.326	75.06
661.53	84.06
661.733	84.06
661.936	76.06
662.14	73.06
662.343	80.06
662.546	84.06
662.75	93.06
662.953	94.06
663.156	86.06
663.36	89.06
663.563	91.06
663.766	81.06
663.969	92.06
664.173	77.06
664.376	79.06
664.579	96.06
664.782	85.06
664.985	87.06
665.188	87.06
665.391	86.06
665.594	90.06
665.797	85.06
666	79.06
666.203	71.06
666.406	91.06
666.609	92.06
666.812	81.06
667.015	90.06
667.218	81.06
667.421	92.06
667.624	90.06
667.827	92.06
668.03	75.06
668.232	82.06
668.435	79.06
668.638	78.06
668.841	95.06
669.043	85.06
669.246	83.06
669.449	98.06
669.651	75.06
669.854	74.06
670.057	84.06
670.259	83.06
670.462	83.06
670.665	74.06
670.867	92.06
671.07	85.06
671.272	71.06
671.475	109.06
671.677	92.06
671.88	86.06
672.082	107.06
672.284	97.06
672.487	88.06
672.689	85.06
672.892	93.06
