Data from 1978.PennyLincolnUp.Lamp.En5.5.200Scan.071719.P1_HRD10591_16-12-50-864.txt Node
Date: Thu Jul 18 16:12:50 EDT 2019
User: cochatt
Spectrometer: HR+D1059
Trigger mode: 1
Integration Time (sec): 1.000000E-1
Scans to average: 1
Electric dark correction enabled: true
Nonlinearity correction enabled: false
Boxcar width: 0
XAxis mode: Wavelengths
Number of Pixels in Spectrum: 2048
>>>>>Begin Spectral Data<<<<<
223.165	-19.62
223.4	-19.62
223.635	-19.62
223.869	-19.62
224.104	-6.62
224.338	-12.62
224.573	-18.62
224.808	-14.62
225.042	-23.62
225.277	-4.62
225.511	-4.62
225.746	1.38
225.98	3.38
226.215	11.38
226.449	25.38
226.683	13.38
226.918	40.38
227.152	29.38
227.387	31.38
227.621	41.38
227.856	36.38
228.09	40.38
228.324	44.38
228.559	58.38
228.793	68.38
229.027	77.38
229.262	100.38
229.496	123.38
229.73	109.38
229.964	131.38
230.199	106.38
230.433	109.38
230.667	104.38
230.901	93.38
231.136	103.38
231.37	109.38
231.604	117.38
231.838	114.38
232.072	101.38
232.306	108.38
232.541	107.38
232.775	111.38
233.009	103.38
233.243	101.38
233.477	112.38
233.711	105.38
233.945	97.38
234.179	90.38
234.413	109.38
234.647	115.38
234.881	106.38
235.115	116.38
235.349	117.38
235.583	107.38
235.817	125.38
236.051	112.38
236.285	129.38
236.519	126.38
236.753	115.38
236.987	120.38
237.221	180.38
237.455	225.38
237.689	185.38
237.922	158.38
238.156	139.38
238.39	114.38
238.624	129.38
238.858	112.38
239.091	123.38
239.325	128.38
239.559	140.38
239.793	131.38
240.027	139.38
240.26	128.38
240.494	157.38
240.728	132.38
240.961	153.38
241.195	124.38
241.429	115.38
241.662	129.38
241.896	127.38
242.13	133.38
242.363	127.38
242.597	129.38
242.83	133.38
243.064	124.38
243.298	134.38
243.531	135.38
243.765	135.38
243.998	138.38
244.232	135.38
244.465	128.38
244.699	124.38
244.932	135.38
245.166	139.38
245.399	136.38
245.633	123.38
245.866	136.38
246.099	143.38
246.333	155.38
246.566	132.38
246.8	141.38
247.033	151.38
247.266	135.38
247.5	149.38
247.733	146.38
247.966	169.38
248.2	169.38
248.433	150.38
248.666	164.38
248.899	170.38
249.133	171.38
249.366	181.38
249.599	183.38
249.832	184.38
250.066	175.38
250.299	176.38
250.532	156.38
250.765	188.38
250.998	193.38
251.231	213.38
251.465	203.38
251.698	179.38
251.931	196.38
252.164	182.38
252.397	181.38
252.63	189.38
252.863	185.38
253.096	201.38
253.329	201.38
253.562	193.38
253.795	184.38
254.028	195.38
254.261	177.38
254.494	189.38
254.727	228.38
254.96	257.38
255.193	240.38
255.426	218.38
255.659	193.38
255.892	209.38
256.124	212.38
256.357	210.38
256.59	191.38
256.823	201.38
257.056	201.38
257.289	200.38
257.521	195.38
257.754	202.38
257.987	194.38
258.22	189.38
258.452	190.38
258.685	201.38
258.918	205.38
259.151	193.38
259.383	203.38
259.616	189.38
259.849	206.38
260.081	224.38
260.314	231.38
260.547	231.38
260.779	222.38
261.012	232.38
261.244	215.38
261.477	197.38
261.71	209.38
261.942	215.38
262.175	217.38
262.407	217.38
262.64	196.38
262.872	196.38
263.105	194.38
263.337	202.38
263.57	201.38
263.802	201.38
264.035	189.38
264.267	206.38
264.499	188.38
264.732	191.38
264.964	198.38
265.197	194.38
265.429	207.38
265.661	205.38
265.894	199.38
266.126	198.38
266.358	210.38
266.591	193.38
266.823	221.38
267.055	219.38
267.287	203.38
267.52	222.38
267.752	214.38
267.984	211.38
268.216	205.38
268.448	211.38
268.681	232.38
268.913	256.38
269.145	239.38
269.377	254.38
269.609	255.38
269.841	251.38
270.073	234.38
270.306	265.38
270.538	283.38
270.77	290.38
271.002	264.38
271.234	257.38
271.466	267.38
271.698	273.38
271.93	275.38
272.162	286.38
272.394	278.38
272.626	269.38
272.858	242.38
273.09	244.38
273.322	238.38
273.553	243.38
273.785	239.38
274.017	237.38
274.249	239.38
274.481	244.38
274.713	234.38
274.945	236.38
275.176	261.38
275.408	240.38
275.64	247.38
275.872	230.38
276.104	251.38
276.335	225.38
276.567	241.38
276.799	247.38
277.031	275.38
277.262	299.38
277.494	292.38
277.726	271.38
277.957	270.38
278.189	267.38
278.421	264.38
278.652	249.38
278.884	257.38
279.115	258.38
279.347	265.38
279.579	256.38
279.81	243.38
280.042	275.38
280.273	250.38
280.505	252.38
280.736	247.38
280.968	259.38
281.199	259.38
281.431	258.38
281.662	271.38
281.894	261.38
282.125	255.38
282.356	273.38
282.588	279.38
282.819	296.38
283.051	261.38
283.282	251.38
283.513	259.38
283.745	264.38
283.976	251.38
284.207	265.38
284.439	275.38
284.67	248.38
284.901	251.38
285.132	269.38
285.364	260.38
285.595	264.38
285.826	266.38
286.057	264.38
286.288	264.38
286.52	248.38
286.751	263.38
286.982	279.38
287.213	256.38
287.444	258.38
287.675	272.38
287.906	275.38
288.138	294.38
288.369	291.38
288.6	277.38
288.831	282.38
289.062	273.38
289.293	280.38
289.524	291.38
289.755	275.38
289.986	285.38
290.217	271.38
290.448	275.38
290.679	260.38
290.91	263.38
291.141	278.38
291.371	267.38
291.602	285.38
291.833	276.38
292.064	280.38
292.295	272.38
292.526	291.38
292.757	285.38
292.987	282.38
293.218	298.38
293.449	275.38
293.68	278.38
293.91	277.38
294.141	264.38
294.372	287.38
294.603	280.38
294.833	297.38
295.064	277.38
295.295	265.38
295.525	279.38
295.756	300.38
295.987	298.38
296.217	315.38
296.448	318.38
296.679	301.38
296.909	279.38
297.14	292.38
297.37	284.38
297.601	286.38
297.831	291.38
298.062	276.38
298.292	290.38
298.523	303.38
298.753	313.38
298.984	290.38
299.214	300.38
299.445	298.38
299.675	305.38
299.905	314.38
300.136	300.38
300.366	305.38
300.597	289.38
300.827	297.38
301.057	312.38
301.288	326.38
301.518	308.38
301.748	310.38
301.979	322.38
302.209	316.38
302.439	315.38
302.669	312.38
302.9	307.38
303.13	307.38
303.36	324.38
303.59	321.38
303.82	318.38
304.051	315.38
304.281	324.38
304.511	314.38
304.741	318.38
304.971	316.38
305.201	323.38
305.431	309.38
305.661	314.38
305.891	305.38
306.121	322.38
306.352	343.38
306.582	323.38
306.812	331.38
307.042	335.38
307.272	324.38
307.502	321.38
307.731	323.38
307.961	322.38
308.191	315.38
308.421	325.38
308.651	322.38
308.881	319.38
309.111	309.38
309.341	332.38
309.571	324.38
309.8	338.38
310.03	355.38
310.26	347.38
310.49	346.38
310.72	364.38
310.949	377.38
311.179	370.38
311.409	355.38
311.639	343.38
311.868	349.38
312.098	348.38
312.328	369.38
312.557	381.38
312.787	407.38
313.017	374.38
313.246	374.38
313.476	337.38
313.706	352.38
313.935	382.38
314.165	383.38
314.394	380.38
314.624	393.38
314.853	370.38
315.083	373.38
315.312	379.38
315.542	369.38
315.771	341.38
316.001	342.38
316.23	347.38
316.46	353.38
316.689	353.38
316.919	366.38
317.148	360.38
317.377	362.38
317.607	377.38
317.836	371.38
318.065	365.38
318.295	377.38
318.524	361.38
318.753	365.38
318.983	384.38
319.212	355.38
319.441	367.38
319.67	369.38
319.9	367.38
320.129	353.38
320.358	359.38
320.587	380.38
320.816	385.38
321.046	393.38
321.275	361.38
321.504	375.38
321.733	388.38
321.962	395.38
322.191	396.38
322.42	436.38
322.649	412.38
322.878	434.38
323.108	426.38
323.337	440.38
323.566	462.38
323.795	478.38
324.024	534.38
324.253	634.38
324.482	913.38
324.71	1423.38
324.939	2121.38
325.168	1918.38
325.397	945.38
325.626	623.38
325.855	523.38
326.084	479.38
326.313	472.38
326.542	469.38
326.77	520.38
326.999	597.38
327.228	823.38
327.457	1302.38
327.686	1635.38
327.914	1060.38
328.143	675.38
328.372	558.38
328.6	545.38
328.829	551.38
329.058	506.38
329.287	548.38
329.515	512.38
329.744	476.38
329.972	473.38
330.201	476.38
330.43	498.38
330.658	538.38
330.887	578.38
331.115	549.38
331.344	479.38
331.572	469.38
331.801	479.38
332.03	450.38
332.258	441.38
332.486	441.38
332.715	404.38
332.943	442.38
333.172	445.38
333.4	429.38
333.629	454.38
333.857	459.38
334.085	450.38
334.314	482.38
334.542	490.38
334.771	517.38
334.999	467.38
335.227	435.38
335.455	457.38
335.684	444.38
335.912	434.38
336.14	430.38
336.369	427.38
336.597	433.38
336.825	423.38
337.053	450.38
337.281	423.38
337.51	424.38
337.738	435.38
337.966	431.38
338.194	418.38
338.422	439.38
338.65	451.38
338.878	436.38
339.106	410.38
339.334	437.38
339.562	415.38
339.79	435.38
340.018	417.38
340.246	425.38
340.474	427.38
340.702	421.38
340.93	419.38
341.158	441.38
341.386	419.38
341.614	435.38
341.842	431.38
342.07	426.38
342.298	385.38
342.526	428.38
342.754	423.38
342.981	409.38
343.209	421.38
343.437	404.38
343.665	405.38
343.893	433.38
344.12	429.38
344.348	432.38
344.576	420.38
344.804	440.38
345.031	437.38
345.259	442.38
345.487	440.38
345.714	413.38
345.942	423.38
346.17	446.38
346.397	412.38
346.625	407.38
346.853	385.38
347.08	397.38
347.308	399.38
347.535	420.38
347.763	419.38
347.99	428.38
348.218	409.38
348.445	426.38
348.673	445.38
348.9	415.38
349.128	433.38
349.355	395.38
349.583	396.38
349.81	388.38
350.037	405.38
350.265	401.38
350.492	408.38
350.72	403.38
350.947	397.38
351.174	423.38
351.402	403.38
351.629	410.38
351.856	413.38
352.083	402.38
352.311	425.38
352.538	408.38
352.765	407.38
352.992	409.38
353.22	396.38
353.447	411.38
353.674	392.38
353.901	387.38
354.128	388.38
354.355	408.38
354.583	401.38
354.81	389.38
355.037	413.38
355.264	380.38
355.491	379.38
355.718	380.38
355.945	375.38
356.172	372.38
356.399	413.38
356.626	387.38
356.853	388.38
357.08	394.38
357.307	385.38
357.534	376.38
357.761	393.38
357.988	398.38
358.215	388.38
358.441	395.38
358.668	388.38
358.895	410.38
359.122	408.38
359.349	403.38
359.576	404.38
359.802	443.38
360.029	438.38
360.256	443.38
360.483	441.38
360.709	426.38
360.936	416.38
361.163	416.38
361.39	403.38
361.616	410.38
361.843	409.38
362.07	417.38
362.296	412.38
362.523	410.38
362.749	425.38
362.976	407.38
363.203	408.38
363.429	395.38
363.656	409.38
363.882	404.38
364.109	390.38
364.335	401.38
364.562	383.38
364.788	406.38
365.015	408.38
365.241	404.38
365.468	401.38
365.694	431.38
365.92	413.38
366.147	421.38
366.373	410.38
366.599	414.38
366.826	391.38
367.052	405.38
367.278	386.38
367.505	395.38
367.731	393.38
367.957	387.38
368.184	409.38
368.41	429.38
368.636	405.38
368.862	409.38
369.089	396.38
369.315	409.38
369.541	405.38
369.767	407.38
369.993	415.38
370.219	400.38
370.445	403.38
370.672	402.38
370.898	420.38
371.124	406.38
371.35	395.38
371.576	401.38
371.802	405.38
372.028	427.38
372.254	412.38
372.48	404.38
372.706	420.38
372.932	405.38
373.158	419.38
373.384	417.38
373.61	435.38
373.835	423.38
374.061	410.38
374.287	417.38
374.513	421.38
374.739	416.38
374.965	440.38
375.191	403.38
375.416	411.38
375.642	404.38
375.868	427.38
376.094	403.38
376.319	419.38
376.545	396.38
376.771	424.38
376.997	401.38
377.222	394.38
377.448	397.38
377.674	413.38
377.899	420.38
378.125	412.38
378.35	407.38
378.576	410.38
378.802	403.38
379.027	388.38
379.253	411.38
379.478	412.38
379.704	403.38
379.929	424.38
380.155	413.38
380.38	397.38
380.606	418.38
380.831	406.38
381.057	427.38
381.282	419.38
381.507	415.38
381.733	411.38
381.958	413.38
382.184	419.38
382.409	431.38
382.634	415.38
382.86	415.38
383.085	432.38
383.31	421.38
383.535	429.38
383.761	452.38
383.986	428.38
384.211	412.38
384.436	424.38
384.662	458.38
384.887	465.38
385.112	440.38
385.337	441.38
385.562	461.38
385.787	449.38
386.013	468.38
386.238	457.38
386.463	484.38
386.688	455.38
386.913	443.38
387.138	442.38
387.363	440.38
387.588	435.38
387.813	458.38
388.038	458.38
388.263	452.38
388.488	454.38
388.713	453.38
388.938	451.38
389.163	453.38
389.387	453.38
389.612	452.38
389.837	451.38
390.062	459.38
390.287	460.38
390.512	459.38
390.736	464.38
390.961	479.38
391.186	467.38
391.411	476.38
391.636	466.38
391.86	463.38
392.085	510.38
392.31	478.38
392.534	467.38
392.759	464.38
392.984	453.38
393.208	452.38
393.433	484.38
393.658	461.38
393.882	459.38
394.107	478.38
394.331	482.38
394.556	444.38
394.78	463.38
395.005	467.38
395.229	458.38
395.454	467.38
395.678	481.38
395.903	502.38
396.127	530.38
396.352	512.38
396.576	509.38
396.801	479.38
397.025	476.38
397.249	513.38
397.474	513.38
397.698	483.38
397.922	527.38
398.147	523.38
398.371	534.38
398.595	547.38
398.82	519.38
399.044	545.38
399.268	562.38
399.492	577.38
399.717	605.38
399.941	611.38
400.165	663.38
400.389	667.38
400.613	585.38
400.837	549.38
401.062	554.38
401.286	519.38
401.51	545.38
401.734	534.38
401.958	533.38
402.182	539.38
402.406	543.38
402.63	532.38
402.854	543.38
403.078	554.38
403.302	551.38
403.526	568.38
403.75	552.38
403.974	569.38
404.198	561.38
404.422	551.38
404.645	534.38
404.869	548.38
405.093	597.38
405.317	636.38
405.541	685.38
405.765	612.38
405.988	587.38
406.212	592.38
406.436	589.38
406.66	620.38
406.883	620.38
407.107	636.38
407.331	676.38
407.555	722.38
407.778	747.38
408.002	659.38
408.226	643.38
408.449	633.38
408.673	609.38
408.896	641.38
409.12	698.38
409.344	665.38
409.567	575.38
409.791	586.38
410.014	568.38
410.238	557.38
410.461	576.38
410.685	563.38
410.908	572.38
411.132	612.38
411.355	640.38
411.578	599.38
411.802	579.38
412.025	562.38
412.249	559.38
412.472	589.38
412.695	621.38
412.919	597.38
413.142	586.38
413.365	551.38
413.589	540.38
413.812	533.38
414.035	531.38
414.258	523.38
414.482	518.38
414.705	531.38
414.928	523.38
415.151	552.38
415.374	521.38
415.597	553.38
415.821	512.38
416.044	521.38
416.267	553.38
416.49	528.38
416.713	483.38
416.936	553.38
417.159	533.38
417.382	524.38
417.605	541.38
417.828	534.38
418.051	538.38
418.274	541.38
418.497	531.38
418.72	518.38
418.943	517.38
419.166	547.38
419.389	594.38
419.611	578.38
419.834	559.38
420.057	564.38
420.28	547.38
420.503	524.38
420.726	538.38
420.948	587.38
421.171	615.38
421.394	644.38
421.617	573.38
421.839	542.38
422.062	549.38
422.285	551.38
422.507	617.38
422.73	731.38
422.953	687.38
423.175	590.38
423.398	569.38
423.621	578.38
423.843	563.38
424.066	593.38
424.288	602.38
424.511	590.38
424.733	647.38
424.956	751.38
425.178	701.38
425.401	710.38
425.623	741.38
425.846	631.38
426.068	585.38
426.291	556.38
426.513	571.38
426.735	587.38
426.958	623.38
427.18	703.38
427.402	870.38
427.625	971.38
427.847	805.38
428.069	689.38
428.292	625.38
428.514	561.38
428.736	556.38
428.958	573.38
429.181	547.38
429.403	523.38
429.625	545.38
429.847	583.38
430.069	641.38
430.292	652.38
430.514	566.38
430.736	534.38
430.958	519.38
431.18	519.38
431.402	504.38
431.624	520.38
431.846	498.38
432.068	492.38
432.29	538.38
432.512	515.38
432.734	537.38
432.956	522.38
433.178	533.38
433.4	525.38
433.622	511.38
433.844	516.38
434.066	529.38
434.287	549.38
434.509	533.38
434.731	526.38
434.953	542.38
435.175	561.38
435.397	576.38
435.618	578.38
435.84	636.38
436.062	720.38
436.284	804.38
436.505	684.38
436.727	602.38
436.949	572.38
437.17	557.38
437.392	521.38
437.614	549.38
437.835	568.38
438.057	669.38
438.278	803.38
438.5	794.38
438.721	891.38
438.943	857.38
439.165	653.38
439.386	599.38
439.608	586.38
439.829	585.38
440.05	623.38
440.272	689.38
440.493	646.38
440.715	565.38
440.936	556.38
441.158	553.38
441.379	550.38
441.6	563.38
441.822	579.38
442.043	625.38
442.264	713.38
442.486	760.38
442.707	651.38
442.928	620.38
443.149	621.38
443.371	596.38
443.592	642.38
443.813	783.38
444.034	819.38
444.255	691.38
444.476	611.38
444.698	595.38
444.919	588.38
445.14	715.38
445.361	667.38
445.582	645.38
445.803	699.38
446.024	805.38
446.245	828.38
446.466	719.38
446.687	630.38
446.908	579.38
447.129	559.38
447.35	549.38
447.571	525.38
447.792	524.38
448.013	544.38
448.234	563.38
448.455	600.38
448.675	719.38
448.896	887.38
449.117	718.38
449.338	690.38
449.559	787.38
449.779	917.38
450	736.38
450.221	613.38
450.442	584.38
450.662	538.38
450.883	526.38
451.104	521.38
451.324	523.38
451.545	525.38
451.766	478.38
451.986	484.38
452.207	506.38
452.428	482.38
452.648	490.38
452.869	497.38
453.089	511.38
453.31	496.38
453.53	510.38
453.751	475.38
453.971	484.38
454.192	503.38
454.412	496.38
454.633	486.38
454.853	496.38
455.073	489.38
455.294	517.38
455.514	595.38
455.734	554.38
455.955	468.38
456.175	482.38
456.395	457.38
456.616	466.38
456.836	457.38
457.056	459.38
457.276	452.38
457.497	466.38
457.717	465.38
457.937	451.38
458.157	475.38
458.377	480.38
458.598	497.38
458.818	557.38
459.038	627.38
459.258	658.38
459.478	572.38
459.698	520.38
459.918	514.38
460.138	506.38
460.358	520.38
460.578	550.38
460.798	517.38
461.018	547.38
461.238	518.38
461.458	527.38
461.678	527.38
461.898	526.38
462.118	542.38
462.338	522.38
462.558	530.38
462.777	559.38
462.997	553.38
463.217	579.38
463.437	588.38
463.657	576.38
463.876	557.38
464.096	563.38
464.316	553.38
464.536	572.38
464.755	573.38
464.975	582.38
465.195	599.38
465.414	668.38
465.634	612.38
465.854	554.38
466.073	552.38
466.293	539.38
466.512	524.38
466.732	495.38
466.951	491.38
467.171	505.38
467.391	520.38
467.61	495.38
467.829	523.38
468.049	523.38
468.268	516.38
468.488	503.38
468.707	475.38
468.927	490.38
469.146	493.38
469.365	475.38
469.585	491.38
469.804	503.38
470.023	520.38
470.243	528.38
470.462	502.38
470.681	528.38
470.901	525.38
471.12	517.38
471.339	519.38
471.558	504.38
471.777	511.38
471.997	499.38
472.216	504.38
472.435	532.38
472.654	526.38
472.873	492.38
473.092	482.38
473.311	515.38
473.53	499.38
473.749	519.38
473.968	565.38
474.187	645.38
474.406	672.38
474.625	579.38
474.844	499.38
475.063	499.38
475.282	530.38
475.501	516.38
475.72	535.38
475.939	505.38
476.158	516.38
476.377	532.38
476.596	507.38
476.814	535.38
477.033	537.38
477.252	536.38
477.471	544.38
477.69	537.38
477.908	569.38
478.127	552.38
478.346	554.38
478.564	557.38
478.783	565.38
479.002	571.38
479.22	587.38
479.439	594.38
479.658	623.38
479.876	613.38
480.095	639.38
480.313	644.38
480.532	631.38
480.751	626.38
480.969	633.38
481.188	646.38
481.406	700.38
481.624	643.38
481.843	615.38
482.061	607.38
482.28	623.38
482.498	587.38
482.717	587.38
482.935	597.38
483.153	579.38
483.372	593.38
483.59	601.38
483.808	609.38
484.027	592.38
484.245	590.38
484.463	603.38
484.681	589.38
484.9	618.38
485.118	605.38
485.336	615.38
485.554	609.38
485.772	609.38
485.99	603.38
486.209	617.38
486.427	638.38
486.645	631.38
486.863	633.38
487.081	645.38
487.299	661.38
487.517	630.38
487.735	632.38
487.953	635.38
488.171	637.38
488.389	626.38
488.607	637.38
488.825	630.38
489.043	655.38
489.261	651.38
489.479	612.38
489.696	641.38
489.914	635.38
490.132	667.38
490.35	654.38
490.568	676.38
490.786	671.38
491.003	696.38
491.221	677.38
491.439	694.38
491.657	711.38
491.874	712.38
492.092	702.38
492.31	707.38
492.527	704.38
492.745	728.38
492.963	711.38
493.18	724.38
493.398	706.38
493.615	725.38
493.833	738.38
494.05	714.38
494.268	713.38
494.485	718.38
494.703	742.38
494.92	753.38
495.138	739.38
495.355	741.38
495.573	753.38
495.79	733.38
496.008	749.38
496.225	764.38
496.442	740.38
496.66	759.38
496.877	755.38
497.094	751.38
497.312	766.38
497.529	755.38
497.746	786.38
497.963	791.38
498.181	842.38
498.398	834.38
498.615	846.38
498.832	885.38
499.049	869.38
499.267	928.38
499.484	919.38
499.701	970.38
499.918	994.38
500.135	1024.38
500.352	1064.38
500.569	1111.38
500.786	1108.38
501.003	1073.38
501.22	1041.38
501.437	1028.38
501.654	988.38
501.871	951.38
502.088	930.38
502.305	910.38
502.522	882.38
502.739	873.38
502.956	835.38
503.172	805.38
503.389	801.38
503.606	828.38
503.823	820.38
504.04	788.38
504.256	787.38
504.473	756.38
504.69	769.38
504.907	755.38
505.123	760.38
505.34	736.38
505.557	744.38
505.773	760.38
505.99	729.38
506.207	733.38
506.423	731.38
506.64	731.38
506.856	704.38
507.073	689.38
507.289	709.38
507.506	706.38
507.722	706.38
507.939	707.38
508.155	711.38
508.372	673.38
508.588	701.38
508.805	677.38
509.021	659.38
509.238	691.38
509.454	690.38
509.67	690.38
509.887	694.38
510.103	666.38
510.319	682.38
510.536	745.38
510.752	1151.38
510.968	987.38
511.184	657.38
511.401	644.38
511.617	634.38
511.833	626.38
512.049	640.38
512.265	633.38
512.481	626.38
512.698	638.38
512.914	630.38
513.13	645.38
513.346	623.38
513.562	664.38
513.778	649.38
513.994	673.38
514.21	657.38
514.426	663.38
514.642	702.38
514.858	708.38
515.074	736.38
515.29	863.38
515.506	1149.38
515.721	989.38
515.937	742.38
516.153	701.38
516.369	704.38
516.585	690.38
516.801	680.38
517.016	694.38
517.232	689.38
517.448	678.38
517.664	696.38
517.879	678.38
518.095	673.38
518.311	687.38
518.527	695.38
518.742	667.38
518.958	669.38
519.173	667.38
519.389	645.38
519.605	652.38
519.82	633.38
520.036	643.38
520.251	673.38
520.467	670.38
520.682	691.38
520.898	673.38
521.113	704.38
521.329	723.38
521.544	803.38
521.76	987.38
521.975	1465.38
522.19	1457.38
522.406	873.38
522.621	707.38
522.836	641.38
523.052	627.38
523.267	614.38
523.482	608.38
523.698	592.38
523.913	590.38
524.128	620.38
524.343	609.38
524.559	560.38
524.774	578.38
524.989	564.38
525.204	570.38
525.419	583.38
525.634	577.38
525.849	547.38
526.064	535.38
526.28	554.38
526.495	537.38
526.71	539.38
526.925	540.38
527.14	536.38
527.355	527.38
527.57	531.38
527.785	567.38
527.999	547.38
528.214	548.38
528.429	551.38
528.644	542.38
528.859	546.38
529.074	540.38
529.289	543.38
529.503	631.38
529.718	608.38
529.933	577.38
530.148	564.38
530.363	561.38
530.577	527.38
530.792	545.38
531.007	534.38
531.221	539.38
531.436	531.38
531.651	555.38
531.865	539.38
532.08	523.38
532.295	521.38
532.509	507.38
532.724	515.38
532.938	522.38
533.153	537.38
533.367	511.38
533.582	506.38
533.796	513.38
534.011	506.38
534.225	513.38
534.44	516.38
534.654	498.38
534.868	492.38
535.083	519.38
535.297	518.38
535.511	525.38
535.726	525.38
535.94	530.38
536.154	531.38
536.369	512.38
536.583	506.38
536.797	509.38
537.011	502.38
537.225	491.38
537.44	519.38
537.654	474.38
537.868	495.38
538.082	500.38
538.296	503.38
538.51	508.38
538.724	490.38
538.938	488.38
539.153	488.38
539.367	490.38
539.581	491.38
539.795	486.38
540.009	496.38
540.222	462.38
540.436	478.38
540.65	490.38
540.864	497.38
541.078	497.38
541.292	495.38
541.506	507.38
541.72	479.38
541.934	473.38
542.147	470.38
542.361	478.38
542.575	488.38
542.789	481.38
543.002	464.38
543.216	476.38
543.43	505.38
543.644	492.38
543.857	495.38
544.071	496.38
544.285	498.38
544.498	489.38
544.712	491.38
544.925	472.38
545.139	496.38
545.352	476.38
545.566	477.38
545.779	467.38
545.993	488.38
546.206	484.38
546.42	488.38
546.633	468.38
546.847	479.38
547.06	473.38
547.274	461.38
547.487	474.38
547.7	453.38
547.914	464.38
548.127	474.38
548.34	470.38
548.554	477.38
548.767	477.38
548.98	482.38
549.193	484.38
549.407	471.38
549.62	461.38
549.833	470.38
550.046	479.38
550.259	478.38
550.473	466.38
550.686	460.38
550.899	460.38
551.112	477.38
551.325	465.38
551.538	457.38
551.751	471.38
551.964	472.38
552.177	470.38
552.39	466.38
552.603	459.38
552.816	470.38
553.029	462.38
553.242	501.38
553.455	500.38
553.667	475.38
553.88	486.38
554.093	486.38
554.306	457.38
554.519	446.38
554.732	489.38
554.944	461.38
555.157	466.38
555.37	446.38
555.583	436.38
555.795	450.38
556.008	441.38
556.221	439.38
556.433	462.38
556.646	432.38
556.859	439.38
557.071	420.38
557.284	443.38
557.496	423.38
557.709	431.38
557.921	429.38
558.134	401.38
558.346	418.38
558.559	414.38
558.771	426.38
558.984	430.38
559.196	431.38
559.409	434.38
559.621	426.38
559.833	415.38
560.046	399.38
560.258	414.38
560.47	414.38
560.683	425.38
560.895	411.38
561.107	408.38
561.32	417.38
561.532	408.38
561.744	415.38
561.956	416.38
562.168	426.38
562.381	423.38
562.593	409.38
562.805	424.38
563.017	429.38
563.229	418.38
563.441	427.38
563.653	423.38
563.865	434.38
564.077	435.38
564.289	441.38
564.501	435.38
564.713	431.38
564.925	441.38
565.137	441.38
565.349	470.38
565.561	462.38
565.773	473.38
565.985	476.38
566.197	489.38
566.408	509.38
566.62	502.38
566.832	498.38
567.044	518.38
567.255	524.38
567.467	537.38
567.679	533.38
567.891	571.38
568.102	542.38
568.314	548.38
568.526	518.38
568.737	509.38
568.949	516.38
569.161	489.38
569.372	479.38
569.584	444.38
569.795	467.38
570.007	422.38
570.218	463.38
570.43	467.38
570.641	433.38
570.853	430.38
571.064	414.38
571.276	409.38
571.487	408.38
571.698	421.38
571.91	409.38
572.121	391.38
572.333	382.38
572.544	379.38
572.755	386.38
572.966	379.38
573.178	367.38
573.389	385.38
573.6	371.38
573.811	375.38
574.023	375.38
574.234	377.38
574.445	374.38
574.656	400.38
574.867	371.38
575.078	361.38
575.289	369.38
575.501	387.38
575.712	371.38
575.923	349.38
576.134	354.38
576.345	363.38
576.556	362.38
576.767	362.38
576.978	335.38
577.188	366.38
577.399	370.38
577.61	352.38
577.821	355.38
578.032	355.38
578.243	374.38
578.454	568.38
578.665	431.38
578.875	364.38
579.086	371.38
579.297	360.38
579.508	346.38
579.718	345.38
579.929	337.38
580.14	327.38
580.35	320.38
580.561	355.38
580.772	340.38
580.982	322.38
581.193	361.38
581.403	349.38
581.614	333.38
581.825	348.38
582.035	340.38
582.246	328.38
582.456	335.38
582.667	344.38
582.877	346.38
583.087	329.38
583.298	339.38
583.508	329.38
583.719	327.38
583.929	336.38
584.139	327.38
584.35	339.38
584.56	339.38
584.77	335.38
584.981	347.38
585.191	333.38
585.401	328.38
585.611	317.38
585.821	329.38
586.032	326.38
586.242	301.38
586.452	321.38
586.662	297.38
586.872	338.38
587.082	319.38
587.292	321.38
587.502	333.38
587.713	313.38
587.923	332.38
588.133	323.38
588.343	324.38
588.553	309.38
588.762	326.38
588.972	324.38
589.182	335.38
589.392	335.38
589.602	316.38
589.812	311.38
590.022	306.38
590.232	316.38
590.441	325.38
590.651	322.38
590.861	305.38
591.071	312.38
591.281	314.38
591.49	321.38
591.7	350.38
591.91	338.38
592.119	329.38
592.329	335.38
592.539	357.38
592.748	339.38
592.958	352.38
593.167	351.38
593.377	334.38
593.587	346.38
593.796	324.38
594.006	329.38
594.215	333.38
594.424	336.38
594.634	345.38
594.843	339.38
595.053	332.38
595.262	307.38
595.472	316.38
595.681	315.38
595.89	317.38
596.1	311.38
596.309	320.38
596.518	291.38
596.727	292.38
596.937	307.38
597.146	310.38
597.355	296.38
597.564	289.38
597.774	309.38
597.983	312.38
598.192	286.38
598.401	281.38
598.61	286.38
598.819	297.38
599.028	293.38
599.237	269.38
599.446	284.38
599.655	290.38
599.864	296.38
600.073	285.38
600.282	277.38
600.491	276.38
600.7	278.38
600.909	272.38
601.118	283.38
601.327	283.38
601.536	266.38
601.745	299.38
601.953	291.38
602.162	279.38
602.371	291.38
602.58	263.38
602.789	277.38
602.997	290.38
603.206	279.38
603.415	260.38
603.623	274.38
603.832	296.38
604.041	277.38
604.249	276.38
604.458	271.38
604.666	269.38
604.875	264.38
605.084	247.38
605.292	268.38
605.501	274.38
605.709	260.38
605.918	275.38
606.126	261.38
606.334	276.38
606.543	268.38
606.751	269.38
606.96	276.38
607.168	248.38
607.376	257.38
607.585	272.38
607.793	277.38
608.001	269.38
608.21	268.38
608.418	268.38
608.626	258.38
608.834	275.38
609.043	268.38
609.251	253.38
609.459	249.38
609.667	273.38
609.875	259.38
610.083	244.38
610.291	262.38
610.499	252.38
610.707	267.38
610.916	262.38
611.124	260.38
611.332	253.38
611.54	264.38
611.748	252.38
611.955	275.38
612.163	251.38
612.371	241.38
612.579	245.38
612.787	258.38
612.995	267.38
613.203	264.38
613.411	251.38
613.618	251.38
613.826	237.38
614.034	249.38
614.242	250.38
614.449	256.38
614.657	255.38
614.865	242.38
615.072	266.38
615.28	259.38
615.488	248.38
615.695	255.38
615.903	259.38
616.111	252.38
616.318	266.38
616.526	219.38
616.733	265.38
616.941	272.38
617.148	262.38
617.356	259.38
617.563	243.38
617.771	244.38
617.978	244.38
618.185	242.38
618.393	237.38
618.6	251.38
618.807	237.38
619.015	252.38
619.222	240.38
619.429	229.38
619.637	259.38
619.844	250.38
620.051	252.38
620.258	227.38
620.466	244.38
620.673	231.38
620.88	227.38
621.087	231.38
621.294	231.38
621.501	215.38
621.708	248.38
621.915	230.38
622.122	251.38
622.329	241.38
622.536	236.38
622.743	237.38
622.95	245.38
623.157	224.38
623.364	236.38
623.571	229.38
623.778	228.38
623.985	249.38
624.192	227.38
624.399	233.38
624.606	220.38
624.812	209.38
625.019	227.38
625.226	216.38
625.433	219.38
625.639	224.38
625.846	215.38
626.053	228.38
626.259	223.38
626.466	240.38
626.673	234.38
626.879	204.38
627.086	222.38
627.293	223.38
627.499	216.38
627.706	220.38
627.912	219.38
628.119	208.38
628.325	211.38
628.532	219.38
628.738	216.38
628.945	210.38
629.151	214.38
629.357	225.38
629.564	204.38
629.77	209.38
629.976	215.38
630.183	199.38
630.389	197.38
630.595	203.38
630.802	196.38
631.008	199.38
631.214	204.38
631.42	197.38
631.627	198.38
631.833	214.38
632.039	192.38
632.245	196.38
632.451	200.38
632.657	192.38
632.863	188.38
633.069	188.38
633.275	185.38
633.481	186.38
633.688	187.38
633.893	205.38
634.099	192.38
634.305	220.38
634.511	199.38
634.717	175.38
634.923	208.38
635.129	198.38
635.335	200.38
635.541	197.38
635.747	200.38
635.952	185.38
636.158	204.38
636.364	199.38
636.57	202.38
636.775	204.38
636.981	192.38
637.187	187.38
637.392	172.38
637.598	187.38
637.804	190.38
638.009	194.38
638.215	186.38
638.421	181.38
638.626	169.38
638.832	183.38
639.037	177.38
639.243	179.38
639.448	192.38
639.654	191.38
639.859	200.38
640.065	190.38
640.27	173.38
640.475	181.38
640.681	179.38
640.886	183.38
641.091	179.38
641.297	175.38
641.502	161.38
641.707	181.38
641.913	176.38
642.118	181.38
642.323	170.38
642.528	173.38
642.733	188.38
642.939	166.38
643.144	145.38
643.349	173.38
643.554	159.38
643.759	163.38
643.964	170.38
644.169	173.38
644.374	170.38
644.579	185.38
644.784	191.38
644.989	171.38
645.194	162.38
645.399	161.38
645.604	178.38
645.809	178.38
646.014	181.38
646.219	164.38
646.423	186.38
646.628	184.38
646.833	177.38
647.038	171.38
647.243	179.38
647.447	183.38
647.652	171.38
647.857	169.38
648.062	180.38
648.266	182.38
648.471	175.38
648.676	193.38
648.88	189.38
649.085	171.38
649.289	169.38
649.494	175.38
649.698	215.38
649.903	207.38
650.107	167.38
650.312	171.38
650.516	166.38
650.721	159.38
650.925	164.38
651.13	176.38
651.334	161.38
651.539	157.38
651.743	166.38
651.947	159.38
652.152	141.38
652.356	144.38
652.56	152.38
652.764	144.38
652.969	143.38
653.173	140.38
653.377	146.38
653.581	146.38
653.785	144.38
653.99	161.38
654.194	142.38
654.398	145.38
654.602	155.38
654.806	132.38
655.01	144.38
655.214	151.38
655.418	137.38
655.622	141.38
655.826	138.38
656.03	152.38
656.234	129.38
656.438	142.38
656.642	139.38
656.846	137.38
657.049	128.38
657.253	134.38
657.457	132.38
657.661	120.38
657.865	107.38
658.068	109.38
658.272	115.38
658.476	109.38
658.68	115.38
658.883	91.38
659.087	87.38
659.291	96.38
659.494	90.38
659.698	123.38
659.901	104.38
660.105	91.38
660.309	92.38
660.512	91.38
660.716	100.38
660.919	90.38
661.123	92.38
661.326	100.38
661.53	90.38
661.733	92.38
661.936	85.38
662.14	85.38
662.343	81.38
662.546	78.38
662.75	82.38
662.953	96.38
663.156	81.38
663.36	68.38
663.563	79.38
663.766	71.38
663.969	96.38
664.173	85.38
664.376	85.38
664.579	68.38
664.782	95.38
664.985	90.38
665.188	93.38
665.391	73.38
665.594	74.38
665.797	77.38
666	103.38
666.203	75.38
666.406	87.38
666.609	85.38
666.812	96.38
667.015	89.38
667.218	74.38
667.421	92.38
667.624	84.38
667.827	90.38
668.03	81.38
668.232	72.38
668.435	82.38
668.638	74.38
668.841	93.38
669.043	80.38
669.246	89.38
669.449	81.38
669.651	86.38
669.854	87.38
670.057	79.38
670.259	90.38
670.462	80.38
670.665	83.38
670.867	80.38
671.07	83.38
671.272	86.38
671.475	64.38
671.677	82.38
671.88	62.38
672.082	83.38
672.284	95.38
672.487	91.38
672.689	79.38
672.892	85.38
