Data from 1978.PennyLincolnUp.Lamp.En5.5.200Scan.071719.P1_HRD10591_16-13-49-863.txt Node
Date: Thu Jul 18 16:13:49 EDT 2019
User: cochatt
Spectrometer: HR+D1059
Trigger mode: 1
Integration Time (sec): 1.000000E-1
Scans to average: 1
Electric dark correction enabled: true
Nonlinearity correction enabled: false
Boxcar width: 0
XAxis mode: Wavelengths
Number of Pixels in Spectrum: 2048
>>>>>Begin Spectral Data<<<<<
223.165	-9.31
223.4	-9.31
223.635	-9.31
223.869	-22.31
224.104	-12.31
224.338	-13.31
224.573	-5.31
224.808	-12.31
225.042	-8.31
225.277	-5.31
225.511	-1.31
225.746	-6.31
225.98	-4.31
226.215	24.69
226.449	10.69
226.683	18.69
226.918	10.69
227.152	35.69
227.387	30.69
227.621	38.69
227.856	37.69
228.09	42.69
228.324	42.69
228.559	49.69
228.793	69.69
229.027	90.69
229.262	104.69
229.496	112.69
229.73	133.69
229.964	156.69
230.199	122.69
230.433	113.69
230.667	119.69
230.901	103.69
231.136	89.69
231.37	108.69
231.604	102.69
231.838	108.69
232.072	103.69
232.306	112.69
232.541	97.69
232.775	111.69
233.009	124.69
233.243	91.69
233.477	103.69
233.711	106.69
233.945	113.69
234.179	107.69
234.413	116.69
234.647	113.69
234.881	117.69
235.115	113.69
235.349	117.69
235.583	116.69
235.817	104.69
236.051	104.69
236.285	123.69
236.519	121.69
236.753	130.69
236.987	148.69
237.221	171.69
237.455	218.69
237.689	184.69
237.922	126.69
238.156	122.69
238.39	117.69
238.624	116.69
238.858	120.69
239.091	121.69
239.325	113.69
239.559	128.69
239.793	124.69
240.027	129.69
240.26	119.69
240.494	145.69
240.728	144.69
240.961	140.69
241.195	140.69
241.429	130.69
241.662	127.69
241.896	122.69
242.13	120.69
242.363	129.69
242.597	136.69
242.83	137.69
243.064	133.69
243.298	131.69
243.531	132.69
243.765	131.69
243.998	136.69
244.232	131.69
244.465	120.69
244.699	135.69
244.932	133.69
245.166	143.69
245.399	150.69
245.633	136.69
245.866	140.69
246.099	138.69
246.333	129.69
246.566	146.69
246.8	155.69
247.033	139.69
247.266	135.69
247.5	163.69
247.733	137.69
247.966	147.69
248.2	155.69
248.433	165.69
248.666	158.69
248.899	161.69
249.133	182.69
249.366	190.69
249.599	188.69
249.832	191.69
250.066	177.69
250.299	183.69
250.532	174.69
250.765	191.69
250.998	190.69
251.231	193.69
251.465	194.69
251.698	186.69
251.931	163.69
252.164	178.69
252.397	190.69
252.63	176.69
252.863	193.69
253.096	201.69
253.329	207.69
253.562	207.69
253.795	196.69
254.028	200.69
254.261	192.69
254.494	217.69
254.727	220.69
254.96	253.69
255.193	229.69
255.426	219.69
255.659	215.69
255.892	211.69
256.124	203.69
256.357	227.69
256.59	194.69
256.823	194.69
257.056	210.69
257.289	203.69
257.521	189.69
257.754	204.69
257.987	184.69
258.22	188.69
258.452	176.69
258.685	179.69
258.918	180.69
259.151	202.69
259.383	187.69
259.616	200.69
259.849	208.69
260.081	225.69
260.314	227.69
260.547	242.69
260.779	232.69
261.012	220.69
261.244	210.69
261.477	205.69
261.71	236.69
261.942	217.69
262.175	204.69
262.407	222.69
262.64	193.69
262.872	204.69
263.105	216.69
263.337	209.69
263.57	207.69
263.802	200.69
264.035	197.69
264.267	194.69
264.499	189.69
264.732	214.69
264.964	192.69
265.197	191.69
265.429	190.69
265.661	181.69
265.894	190.69
266.126	205.69
266.358	213.69
266.591	212.69
266.823	210.69
267.055	207.69
267.287	205.69
267.52	202.69
267.752	221.69
267.984	224.69
268.216	197.69
268.448	215.69
268.681	234.69
268.913	246.69
269.145	247.69
269.377	250.69
269.609	250.69
269.841	236.69
270.073	240.69
270.306	274.69
270.538	273.69
270.77	276.69
271.002	286.69
271.234	265.69
271.466	288.69
271.698	281.69
271.93	308.69
272.162	275.69
272.394	288.69
272.626	264.69
272.858	264.69
273.09	269.69
273.322	246.69
273.553	246.69
273.785	245.69
274.017	242.69
274.249	242.69
274.481	248.69
274.713	245.69
274.945	239.69
275.176	253.69
275.408	243.69
275.64	247.69
275.872	259.69
276.104	257.69
276.335	244.69
276.567	252.69
276.799	259.69
277.031	304.69
277.262	289.69
277.494	290.69
277.726	282.69
277.957	286.69
278.189	269.69
278.421	264.69
278.652	257.69
278.884	252.69
279.115	254.69
279.347	244.69
279.579	254.69
279.81	261.69
280.042	234.69
280.273	282.69
280.505	268.69
280.736	261.69
280.968	234.69
281.199	262.69
281.431	254.69
281.662	230.69
281.894	235.69
282.125	246.69
282.356	272.69
282.588	287.69
282.819	299.69
283.051	273.69
283.282	274.69
283.513	258.69
283.745	273.69
283.976	254.69
284.207	258.69
284.439	263.69
284.67	268.69
284.901	258.69
285.132	262.69
285.364	269.69
285.595	280.69
285.826	270.69
286.057	268.69
286.288	274.69
286.52	282.69
286.751	264.69
286.982	257.69
287.213	268.69
287.444	280.69
287.675	271.69
287.906	270.69
288.138	263.69
288.369	266.69
288.6	282.69
288.831	275.69
289.062	263.69
289.293	278.69
289.524	266.69
289.755	282.69
289.986	267.69
290.217	278.69
290.448	273.69
290.679	279.69
290.91	264.69
291.141	285.69
291.371	286.69
291.602	281.69
291.833	264.69
292.064	260.69
292.295	278.69
292.526	289.69
292.757	289.69
292.987	282.69
293.218	269.69
293.449	289.69
293.68	280.69
293.91	280.69
294.141	280.69
294.372	284.69
294.603	259.69
294.833	281.69
295.064	276.69
295.295	285.69
295.525	294.69
295.756	288.69
295.987	282.69
296.217	319.69
296.448	324.69
296.679	293.69
296.909	286.69
297.14	281.69
297.37	287.69
297.601	289.69
297.831	307.69
298.062	298.69
298.292	294.69
298.523	299.69
298.753	284.69
298.984	291.69
299.214	286.69
299.445	296.69
299.675	311.69
299.905	302.69
300.136	284.69
300.366	288.69
300.597	288.69
300.827	316.69
301.057	302.69
301.288	303.69
301.518	322.69
301.748	300.69
301.979	336.69
302.209	311.69
302.439	325.69
302.669	312.69
302.9	315.69
303.13	306.69
303.36	309.69
303.59	320.69
303.82	328.69
304.051	325.69
304.281	312.69
304.511	307.69
304.741	305.69
304.971	321.69
305.201	310.69
305.431	325.69
305.661	328.69
305.891	318.69
306.121	322.69
306.352	318.69
306.582	327.69
306.812	316.69
307.042	327.69
307.272	316.69
307.502	306.69
307.731	320.69
307.961	326.69
308.191	312.69
308.421	311.69
308.651	335.69
308.881	316.69
309.111	315.69
309.341	328.69
309.571	330.69
309.8	335.69
310.03	353.69
310.26	359.69
310.49	349.69
310.72	367.69
310.949	370.69
311.179	382.69
311.409	379.69
311.639	353.69
311.868	360.69
312.098	354.69
312.328	370.69
312.557	388.69
312.787	401.69
313.017	389.69
313.246	368.69
313.476	370.69
313.706	355.69
313.935	370.69
314.165	370.69
314.394	381.69
314.624	369.69
314.853	370.69
315.083	364.69
315.312	368.69
315.542	352.69
315.771	340.69
316.001	335.69
316.23	372.69
316.46	352.69
316.689	370.69
316.919	368.69
317.148	346.69
317.377	390.69
317.607	370.69
317.836	378.69
318.065	366.69
318.295	356.69
318.524	354.69
318.753	361.69
318.983	367.69
319.212	373.69
319.441	383.69
319.67	374.69
319.9	359.69
320.129	367.69
320.358	363.69
320.587	370.69
320.816	380.69
321.046	371.69
321.275	385.69
321.504	391.69
321.733	380.69
321.962	376.69
322.191	395.69
322.42	407.69
322.649	423.69
322.878	425.69
323.108	440.69
323.337	450.69
323.566	491.69
323.795	504.69
324.024	546.69
324.253	658.69
324.482	938.69
324.71	1536.69
324.939	2320.69
325.168	2044.69
325.397	974.69
325.626	607.69
325.855	540.69
326.084	510.69
326.313	483.69
326.542	483.69
326.77	528.69
326.999	620.69
327.228	852.69
327.457	1378.69
327.686	1735.69
327.914	1102.69
328.143	674.69
328.372	608.69
328.6	571.69
328.829	551.69
329.058	550.69
329.287	581.69
329.515	526.69
329.744	510.69
329.972	506.69
330.201	484.69
330.43	532.69
330.658	564.69
330.887	581.69
331.115	581.69
331.344	513.69
331.572	454.69
331.801	466.69
332.03	453.69
332.258	464.69
332.486	454.69
332.715	450.69
332.943	427.69
333.172	440.69
333.4	447.69
333.629	442.69
333.857	467.69
334.085	463.69
334.314	478.69
334.542	494.69
334.771	531.69
334.999	477.69
335.227	467.69
335.455	443.69
335.684	441.69
335.912	443.69
336.14	448.69
336.369	424.69
336.597	447.69
336.825	462.69
337.053	460.69
337.281	446.69
337.51	418.69
337.738	432.69
337.966	414.69
338.194	430.69
338.422	434.69
338.65	420.69
338.878	430.69
339.106	418.69
339.334	434.69
339.562	398.69
339.79	413.69
340.018	415.69
340.246	418.69
340.474	433.69
340.702	417.69
340.93	415.69
341.158	421.69
341.386	416.69
341.614	426.69
341.842	435.69
342.07	442.69
342.298	408.69
342.526	422.69
342.754	421.69
342.981	415.69
343.209	414.69
343.437	419.69
343.665	432.69
343.893	406.69
344.12	450.69
344.348	421.69
344.576	434.69
344.804	432.69
345.031	437.69
345.259	454.69
345.487	436.69
345.714	448.69
345.942	433.69
346.17	417.69
346.397	408.69
346.625	423.69
346.853	432.69
347.08	416.69
347.308	441.69
347.535	406.69
347.763	415.69
347.99	424.69
348.218	408.69
348.445	419.69
348.673	426.69
348.9	419.69
349.128	415.69
349.355	411.69
349.583	396.69
349.81	394.69
350.037	391.69
350.265	410.69
350.492	412.69
350.72	391.69
350.947	390.69
351.174	421.69
351.402	407.69
351.629	408.69
351.856	402.69
352.083	427.69
352.311	432.69
352.538	414.69
352.765	420.69
352.992	402.69
353.22	404.69
353.447	418.69
353.674	413.69
353.901	400.69
354.128	393.69
354.355	390.69
354.583	393.69
354.81	394.69
355.037	400.69
355.264	397.69
355.491	396.69
355.718	379.69
355.945	386.69
356.172	392.69
356.399	386.69
356.626	401.69
356.853	402.69
357.08	375.69
357.307	366.69
357.534	401.69
357.761	392.69
357.988	404.69
358.215	394.69
358.441	376.69
358.668	404.69
358.895	390.69
359.122	391.69
359.349	412.69
359.576	431.69
359.802	437.69
360.029	449.69
360.256	464.69
360.483	454.69
360.709	411.69
360.936	404.69
361.163	428.69
361.39	420.69
361.616	424.69
361.843	430.69
362.07	443.69
362.296	415.69
362.523	396.69
362.749	410.69
362.976	423.69
363.203	390.69
363.429	401.69
363.656	395.69
363.882	410.69
364.109	394.69
364.335	409.69
364.562	397.69
364.788	392.69
365.015	411.69
365.241	392.69
365.468	417.69
365.694	419.69
365.92	408.69
366.147	430.69
366.373	399.69
366.599	390.69
366.826	397.69
367.052	398.69
367.278	385.69
367.505	392.69
367.731	395.69
367.957	418.69
368.184	387.69
368.41	411.69
368.636	398.69
368.862	395.69
369.089	402.69
369.315	404.69
369.541	421.69
369.767	408.69
369.993	393.69
370.219	414.69
370.445	408.69
370.672	413.69
370.898	385.69
371.124	405.69
371.35	385.69
371.576	423.69
371.802	411.69
372.028	393.69
372.254	414.69
372.48	388.69
372.706	398.69
372.932	422.69
373.158	414.69
373.384	410.69
373.61	418.69
373.835	421.69
374.061	423.69
374.287	410.69
374.513	402.69
374.739	404.69
374.965	382.69
375.191	409.69
375.416	422.69
375.642	404.69
375.868	412.69
376.094	437.69
376.319	416.69
376.545	427.69
376.771	416.69
376.997	411.69
377.222	382.69
377.448	410.69
377.674	421.69
377.899	394.69
378.125	379.69
378.35	400.69
378.576	420.69
378.802	420.69
379.027	411.69
379.253	429.69
379.478	418.69
379.704	408.69
379.929	410.69
380.155	390.69
380.38	417.69
380.606	404.69
380.831	402.69
381.057	419.69
381.282	411.69
381.507	412.69
381.733	422.69
381.958	400.69
382.184	420.69
382.409	418.69
382.634	419.69
382.86	407.69
383.085	442.69
383.31	430.69
383.535	421.69
383.761	415.69
383.986	420.69
384.211	422.69
384.436	439.69
384.662	461.69
384.887	454.69
385.112	448.69
385.337	466.69
385.562	443.69
385.787	456.69
386.013	457.69
386.238	467.69
386.463	457.69
386.688	450.69
386.913	425.69
387.138	450.69
387.363	442.69
387.588	455.69
387.813	451.69
388.038	446.69
388.263	465.69
388.488	455.69
388.713	464.69
388.938	443.69
389.163	450.69
389.387	462.69
389.612	452.69
389.837	467.69
390.062	456.69
390.287	464.69
390.512	432.69
390.736	461.69
390.961	473.69
391.186	435.69
391.411	481.69
391.636	471.69
391.86	466.69
392.085	483.69
392.31	487.69
392.534	475.69
392.759	474.69
392.984	455.69
393.208	474.69
393.433	462.69
393.658	475.69
393.882	443.69
394.107	467.69
394.331	491.69
394.556	450.69
394.78	461.69
395.005	464.69
395.229	465.69
395.454	474.69
395.678	476.69
395.903	486.69
396.127	514.69
396.352	509.69
396.576	496.69
396.801	508.69
397.025	470.69
397.249	471.69
397.474	481.69
397.698	483.69
397.922	525.69
398.147	532.69
398.371	531.69
398.595	514.69
398.82	533.69
399.044	516.69
399.268	537.69
399.492	583.69
399.717	602.69
399.941	633.69
400.165	654.69
400.389	677.69
400.613	619.69
400.837	566.69
401.062	541.69
401.286	532.69
401.51	544.69
401.734	519.69
401.958	545.69
402.182	534.69
402.406	568.69
402.63	566.69
402.854	535.69
403.078	518.69
403.302	558.69
403.526	546.69
403.75	564.69
403.974	554.69
404.198	552.69
404.422	557.69
404.645	560.69
404.869	570.69
405.093	587.69
405.317	628.69
405.541	665.69
405.765	592.69
405.988	601.69
406.212	589.69
406.436	591.69
406.66	618.69
406.883	596.69
407.107	632.69
407.331	679.69
407.555	751.69
407.778	755.69
408.002	676.69
408.226	628.69
408.449	614.69
408.673	604.69
408.896	637.69
409.12	682.69
409.344	643.69
409.567	586.69
409.791	583.69
410.014	543.69
410.238	558.69
410.461	569.69
410.685	574.69
410.908	590.69
411.132	595.69
411.355	646.69
411.578	626.69
411.802	554.69
412.025	555.69
412.249	565.69
412.472	584.69
412.695	625.69
412.919	630.69
413.142	582.69
413.365	561.69
413.589	544.69
413.812	530.69
414.035	522.69
414.258	519.69
414.482	517.69
414.705	502.69
414.928	524.69
415.151	556.69
415.374	523.69
415.597	523.69
415.821	525.69
416.044	534.69
416.267	510.69
416.49	526.69
416.713	521.69
416.936	531.69
417.159	532.69
417.382	514.69
417.605	542.69
417.828	549.69
418.051	544.69
418.274	531.69
418.497	520.69
418.72	538.69
418.943	530.69
419.166	541.69
419.389	568.69
419.611	572.69
419.834	551.69
420.057	573.69
420.28	549.69
420.503	547.69
420.726	538.69
420.948	563.69
421.171	613.69
421.394	626.69
421.617	557.69
421.839	545.69
422.062	570.69
422.285	564.69
422.507	607.69
422.73	712.69
422.953	692.69
423.175	602.69
423.398	561.69
423.621	581.69
423.843	566.69
424.066	598.69
424.288	553.69
424.511	592.69
424.733	670.69
424.956	753.69
425.178	722.69
425.401	717.69
425.623	755.69
425.846	638.69
426.068	596.69
426.291	570.69
426.513	592.69
426.735	598.69
426.958	625.69
427.18	704.69
427.402	858.69
427.625	981.69
427.847	838.69
428.069	734.69
428.292	631.69
428.514	569.69
428.736	571.69
428.958	576.69
429.181	541.69
429.403	541.69
429.625	540.69
429.847	597.69
430.069	644.69
430.292	681.69
430.514	546.69
430.736	537.69
430.958	539.69
431.18	537.69
431.402	517.69
431.624	521.69
431.846	507.69
432.068	500.69
432.29	534.69
432.512	519.69
432.734	518.69
432.956	537.69
433.178	546.69
433.4	538.69
433.622	516.69
433.844	526.69
434.066	498.69
434.287	516.69
434.509	538.69
434.731	505.69
434.953	532.69
435.175	555.69
435.397	573.69
435.618	582.69
435.84	633.69
436.062	739.69
436.284	803.69
436.505	655.69
436.727	599.69
436.949	553.69
437.17	552.69
437.392	536.69
437.614	561.69
437.835	586.69
438.057	719.69
438.278	791.69
438.5	816.69
438.721	896.69
438.943	868.69
439.165	664.69
439.386	591.69
439.608	611.69
439.829	585.69
440.05	628.69
440.272	679.69
440.493	619.69
440.715	587.69
440.936	561.69
441.158	553.69
441.379	563.69
441.6	555.69
441.822	576.69
442.043	622.69
442.264	729.69
442.486	780.69
442.707	643.69
442.928	606.69
443.149	609.69
443.371	634.69
443.592	683.69
443.813	791.69
444.034	873.69
444.255	704.69
444.476	614.69
444.698	582.69
444.919	606.69
445.14	664.69
445.361	632.69
445.582	634.69
445.803	699.69
446.024	832.69
446.245	824.69
446.466	764.69
446.687	639.69
446.908	588.69
447.129	542.69
447.35	535.69
447.571	526.69
447.792	540.69
448.013	523.69
448.234	574.69
448.455	603.69
448.675	738.69
448.896	845.69
449.117	740.69
449.338	682.69
449.559	802.69
449.779	918.69
450	722.69
450.221	598.69
450.442	574.69
450.662	540.69
450.883	528.69
451.104	532.69
451.324	522.69
451.545	525.69
451.766	499.69
451.986	469.69
452.207	494.69
452.428	482.69
452.648	490.69
452.869	483.69
453.089	509.69
453.31	516.69
453.53	495.69
453.751	491.69
453.971	483.69
454.192	482.69
454.412	492.69
454.633	486.69
454.853	484.69
455.073	499.69
455.294	516.69
455.514	577.69
455.734	570.69
455.955	491.69
456.175	459.69
456.395	444.69
456.616	450.69
456.836	454.69
457.056	463.69
457.276	471.69
457.497	476.69
457.717	468.69
457.937	455.69
458.157	480.69
458.377	502.69
458.598	508.69
458.818	567.69
459.038	627.69
459.258	686.69
459.478	582.69
459.698	536.69
459.918	508.69
460.138	509.69
460.358	523.69
460.578	522.69
460.798	528.69
461.018	538.69
461.238	531.69
461.458	519.69
461.678	532.69
461.898	544.69
462.118	541.69
462.338	537.69
462.558	566.69
462.777	562.69
462.997	586.69
463.217	594.69
463.437	603.69
463.657	611.69
463.876	560.69
464.096	563.69
464.316	576.69
464.536	602.69
464.755	572.69
464.975	582.69
465.195	582.69
465.414	677.69
465.634	583.69
465.854	570.69
466.073	525.69
466.293	548.69
466.512	503.69
466.732	508.69
466.951	515.69
467.171	491.69
467.391	494.69
467.61	510.69
467.829	513.69
468.049	491.69
468.268	491.69
468.488	496.69
468.707	481.69
468.927	483.69
469.146	471.69
469.365	491.69
469.585	497.69
469.804	495.69
470.023	533.69
470.243	506.69
470.462	495.69
470.681	508.69
470.901	503.69
471.12	525.69
471.339	496.69
471.558	490.69
471.777	520.69
471.997	507.69
472.216	512.69
472.435	538.69
472.654	514.69
472.873	519.69
473.092	496.69
473.311	514.69
473.53	512.69
473.749	505.69
473.968	558.69
474.187	666.69
474.406	698.69
474.625	592.69
474.844	520.69
475.063	514.69
475.282	503.69
475.501	547.69
475.72	527.69
475.939	499.69
476.158	522.69
476.377	520.69
476.596	526.69
476.814	521.69
477.033	539.69
477.252	550.69
477.471	544.69
477.69	562.69
477.908	554.69
478.127	535.69
478.346	558.69
478.564	560.69
478.783	563.69
479.002	595.69
479.22	604.69
479.439	626.69
479.658	611.69
479.876	627.69
480.095	607.69
480.313	617.69
480.532	628.69
480.751	630.69
480.969	634.69
481.188	676.69
481.406	712.69
481.624	651.69
481.843	654.69
482.061	615.69
482.28	585.69
482.498	594.69
482.717	594.69
482.935	599.69
483.153	600.69
483.372	601.69
483.59	583.69
483.808	594.69
484.027	576.69
484.245	597.69
484.463	605.69
484.681	631.69
484.9	616.69
485.118	594.69
485.336	615.69
485.554	610.69
485.772	624.69
485.99	605.69
486.209	626.69
486.427	617.69
486.645	625.69
486.863	623.69
487.081	643.69
487.299	622.69
487.517	631.69
487.735	648.69
487.953	619.69
488.171	658.69
488.389	634.69
488.607	652.69
488.825	660.69
489.043	639.69
489.261	637.69
489.479	662.69
489.696	645.69
489.914	658.69
490.132	630.69
490.35	648.69
490.568	653.69
490.786	664.69
491.003	661.69
491.221	699.69
491.439	698.69
491.657	731.69
491.874	710.69
492.092	699.69
492.31	722.69
492.527	724.69
492.745	754.69
492.963	727.69
493.18	720.69
493.398	724.69
493.615	726.69
493.833	746.69
494.05	731.69
494.268	710.69
494.485	754.69
494.703	754.69
494.92	739.69
495.138	726.69
495.355	742.69
495.573	743.69
495.79	766.69
496.008	776.69
496.225	770.69
496.442	761.69
496.66	746.69
496.877	735.69
497.094	760.69
497.312	807.69
497.529	786.69
497.746	790.69
497.963	806.69
498.181	847.69
498.398	851.69
498.615	848.69
498.832	891.69
499.049	891.69
499.267	888.69
499.484	943.69
499.701	956.69
499.918	983.69
500.135	1032.69
500.352	1088.69
500.569	1066.69
500.786	1093.69
501.003	1087.69
501.22	1055.69
501.437	1042.69
501.654	982.69
501.871	979.69
502.088	968.69
502.305	924.69
502.522	887.69
502.739	838.69
502.956	828.69
503.172	834.69
503.389	813.69
503.606	812.69
503.823	800.69
504.04	784.69
504.256	771.69
504.473	766.69
504.69	773.69
504.907	778.69
505.123	777.69
505.34	742.69
505.557	739.69
505.773	743.69
505.99	750.69
506.207	730.69
506.423	722.69
506.64	723.69
506.856	726.69
507.073	701.69
507.289	700.69
507.506	678.69
507.722	702.69
507.939	719.69
508.155	700.69
508.372	679.69
508.588	695.69
508.805	690.69
509.021	658.69
509.238	690.69
509.454	688.69
509.67	651.69
509.887	676.69
510.103	676.69
510.319	692.69
510.536	755.69
510.752	1189.69
510.968	972.69
511.184	705.69
511.401	680.69
511.617	662.69
511.833	676.69
512.049	663.69
512.265	640.69
512.481	640.69
512.698	613.69
512.914	654.69
513.13	634.69
513.346	653.69
513.562	651.69
513.778	656.69
513.994	658.69
514.21	646.69
514.426	677.69
514.642	718.69
514.858	756.69
515.074	775.69
515.29	890.69
515.506	1198.69
515.721	1030.69
515.937	778.69
516.153	698.69
516.369	686.69
516.585	674.69
516.801	679.69
517.016	652.69
517.232	681.69
517.448	678.69
517.664	701.69
517.879	699.69
518.095	700.69
518.311	671.69
518.527	666.69
518.742	680.69
518.958	658.69
519.173	649.69
519.389	643.69
519.605	639.69
519.82	667.69
520.036	684.69
520.251	652.69
520.467	697.69
520.682	702.69
520.898	712.69
521.113	724.69
521.329	736.69
521.544	821.69
521.76	986.69
521.975	1546.69
522.19	1523.69
522.406	910.69
522.621	716.69
522.836	686.69
523.052	632.69
523.267	615.69
523.482	598.69
523.698	598.69
523.913	608.69
524.128	614.69
524.343	598.69
524.559	559.69
524.774	555.69
524.989	556.69
525.204	586.69
525.419	585.69
525.634	579.69
525.849	554.69
526.064	561.69
526.28	548.69
526.495	546.69
526.71	549.69
526.925	542.69
527.14	534.69
527.355	543.69
527.57	543.69
527.785	545.69
527.999	532.69
528.214	550.69
528.429	525.69
528.644	536.69
528.859	534.69
529.074	536.69
529.289	559.69
529.503	635.69
529.718	609.69
529.933	546.69
530.148	550.69
530.363	551.69
530.577	522.69
530.792	524.69
531.007	535.69
531.221	559.69
531.436	536.69
531.651	517.69
531.865	520.69
532.08	520.69
532.295	519.69
532.509	518.69
532.724	508.69
532.938	515.69
533.153	503.69
533.367	514.69
533.582	510.69
533.796	499.69
534.011	504.69
534.225	518.69
534.44	497.69
534.654	522.69
534.868	513.69
535.083	518.69
535.297	511.69
535.511	517.69
535.726	510.69
535.94	516.69
536.154	511.69
536.369	511.69
536.583	518.69
536.797	501.69
537.011	501.69
537.225	494.69
537.44	475.69
537.654	500.69
537.868	484.69
538.082	506.69
538.296	508.69
538.51	512.69
538.724	489.69
538.938	490.69
539.153	502.69
539.367	508.69
539.581	500.69
539.795	495.69
540.009	499.69
540.222	489.69
540.436	496.69
540.65	485.69
540.864	502.69
541.078	503.69
541.292	502.69
541.506	482.69
541.72	464.69
541.934	478.69
542.147	482.69
542.361	498.69
542.575	477.69
542.789	485.69
543.002	502.69
543.216	489.69
543.43	512.69
543.644	503.69
543.857	498.69
544.071	491.69
544.285	483.69
544.498	493.69
544.712	492.69
544.925	482.69
545.139	500.69
545.352	479.69
545.566	483.69
545.779	480.69
545.993	471.69
546.206	480.69
546.42	497.69
546.633	471.69
546.847	481.69
547.06	478.69
547.274	476.69
547.487	466.69
547.7	482.69
547.914	476.69
548.127	458.69
548.34	469.69
548.554	484.69
548.767	474.69
548.98	460.69
549.193	463.69
549.407	491.69
549.62	457.69
549.833	475.69
550.046	471.69
550.259	463.69
550.473	433.69
550.686	478.69
550.899	465.69
551.112	466.69
551.325	454.69
551.538	467.69
551.751	470.69
551.964	475.69
552.177	462.69
552.39	475.69
552.603	464.69
552.816	457.69
553.029	474.69
553.242	467.69
553.455	481.69
553.667	481.69
553.88	488.69
554.093	495.69
554.306	474.69
554.519	463.69
554.732	481.69
554.944	458.69
555.157	440.69
555.37	460.69
555.583	448.69
555.795	457.69
556.008	436.69
556.221	451.69
556.433	460.69
556.646	433.69
556.859	457.69
557.071	439.69
557.284	425.69
557.496	432.69
557.709	432.69
557.921	440.69
558.134	430.69
558.346	433.69
558.559	416.69
558.771	418.69
558.984	428.69
559.196	427.69
559.409	413.69
559.621	408.69
559.833	448.69
560.046	415.69
560.258	423.69
560.47	398.69
560.683	409.69
560.895	407.69
561.107	402.69
561.32	424.69
561.532	418.69
561.744	427.69
561.956	416.69
562.168	409.69
562.381	424.69
562.593	431.69
562.805	430.69
563.017	435.69
563.229	434.69
563.441	427.69
563.653	430.69
563.865	437.69
564.077	433.69
564.289	464.69
564.501	436.69
564.713	442.69
564.925	452.69
565.137	467.69
565.349	471.69
565.561	472.69
565.773	455.69
565.985	466.69
566.197	476.69
566.408	502.69
566.62	495.69
566.832	488.69
567.044	530.69
567.255	528.69
567.467	535.69
567.679	526.69
567.891	547.69
568.102	562.69
568.314	534.69
568.526	530.69
568.737	507.69
568.949	503.69
569.161	475.69
569.372	456.69
569.584	452.69
569.795	457.69
570.007	451.69
570.218	477.69
570.43	467.69
570.641	442.69
570.853	421.69
571.064	424.69
571.276	387.69
571.487	411.69
571.698	422.69
571.91	407.69
572.121	388.69
572.333	389.69
572.544	387.69
572.755	400.69
572.966	384.69
573.178	366.69
573.389	394.69
573.6	390.69
573.811	382.69
574.023	370.69
574.234	383.69
574.445	343.69
574.656	378.69
574.867	382.69
575.078	362.69
575.289	359.69
575.501	377.69
575.712	363.69
575.923	359.69
576.134	368.69
576.345	359.69
576.556	357.69
576.767	375.69
576.978	364.69
577.188	352.69
577.399	336.69
577.61	352.69
577.821	356.69
578.032	360.69
578.243	401.69
578.454	578.69
578.665	446.69
578.875	360.69
579.086	360.69
579.297	326.69
579.508	343.69
579.718	353.69
579.929	329.69
580.14	336.69
580.35	340.69
580.561	344.69
580.772	331.69
580.982	321.69
581.193	335.69
581.403	333.69
581.614	343.69
581.825	315.69
582.035	313.69
582.246	319.69
582.456	332.69
582.667	322.69
582.877	314.69
583.087	327.69
583.298	321.69
583.508	315.69
583.719	329.69
583.929	321.69
584.139	345.69
584.35	332.69
584.56	344.69
584.77	338.69
584.981	342.69
585.191	334.69
585.401	330.69
585.611	330.69
585.821	312.69
586.032	328.69
586.242	322.69
586.452	326.69
586.662	321.69
586.872	338.69
587.082	327.69
587.292	316.69
587.502	331.69
587.713	327.69
587.923	337.69
588.133	332.69
588.343	320.69
588.553	311.69
588.762	312.69
588.972	325.69
589.182	296.69
589.392	322.69
589.602	325.69
589.812	322.69
590.022	313.69
590.232	317.69
590.441	329.69
590.651	325.69
590.861	307.69
591.071	310.69
591.281	323.69
591.49	319.69
591.7	339.69
591.91	337.69
592.119	314.69
592.329	314.69
592.539	338.69
592.748	336.69
592.958	355.69
593.167	331.69
593.377	339.69
593.587	342.69
593.796	340.69
594.006	340.69
594.215	331.69
594.424	340.69
594.634	336.69
594.843	309.69
595.053	318.69
595.262	324.69
595.472	322.69
595.681	308.69
595.89	331.69
596.1	323.69
596.309	294.69
596.518	310.69
596.727	294.69
596.937	296.69
597.146	317.69
597.355	280.69
597.564	290.69
597.774	287.69
597.983	296.69
598.192	284.69
598.401	304.69
598.61	292.69
598.819	271.69
599.028	295.69
599.237	284.69
599.446	262.69
599.655	296.69
599.864	287.69
600.073	289.69
600.282	283.69
600.491	278.69
600.7	289.69
600.909	275.69
601.118	265.69
601.327	265.69
601.536	267.69
601.745	279.69
601.953	261.69
602.162	258.69
602.371	267.69
602.58	278.69
602.789	260.69
602.997	279.69
603.206	260.69
603.415	275.69
603.623	275.69
603.832	267.69
604.041	252.69
604.249	261.69
604.458	272.69
604.666	276.69
604.875	265.69
605.084	266.69
605.292	256.69
605.501	248.69
605.709	263.69
605.918	249.69
606.126	262.69
606.334	261.69
606.543	265.69
606.751	256.69
606.96	264.69
607.168	261.69
607.376	267.69
607.585	258.69
607.793	261.69
608.001	245.69
608.21	264.69
608.418	260.69
608.626	264.69
608.834	250.69
609.043	266.69
609.251	233.69
609.459	244.69
609.667	262.69
609.875	261.69
610.083	272.69
610.291	264.69
610.499	261.69
610.707	259.69
610.916	255.69
611.124	261.69
611.332	279.69
611.54	281.69
611.748	270.69
611.955	282.69
612.163	235.69
612.371	241.69
612.579	261.69
612.787	255.69
612.995	256.69
613.203	254.69
613.411	260.69
613.618	246.69
613.826	250.69
614.034	237.69
614.242	243.69
614.449	251.69
614.657	251.69
614.865	236.69
615.072	265.69
615.28	225.69
615.488	218.69
615.695	241.69
615.903	240.69
616.111	256.69
616.318	243.69
616.526	264.69
616.733	253.69
616.941	259.69
617.148	246.69
617.356	250.69
617.563	246.69
617.771	240.69
617.978	232.69
618.185	248.69
618.393	256.69
618.6	243.69
618.807	242.69
619.015	247.69
619.222	239.69
619.429	246.69
619.637	241.69
619.844	223.69
620.051	234.69
620.258	243.69
620.466	237.69
620.673	217.69
620.88	231.69
621.087	249.69
621.294	230.69
621.501	233.69
621.708	230.69
621.915	230.69
622.122	232.69
622.329	222.69
622.536	243.69
622.743	246.69
622.95	240.69
623.157	231.69
623.364	224.69
623.571	223.69
623.778	230.69
623.985	217.69
624.192	225.69
624.399	225.69
624.606	225.69
624.812	223.69
625.019	217.69
625.226	223.69
625.433	227.69
625.639	212.69
625.846	215.69
626.053	225.69
626.259	227.69
626.466	196.69
626.673	217.69
626.879	214.69
627.086	222.69
627.293	219.69
627.499	227.69
627.706	207.69
627.912	219.69
628.119	190.69
628.325	209.69
628.532	216.69
628.738	218.69
628.945	198.69
629.151	210.69
629.357	217.69
629.564	196.69
629.77	219.69
629.976	211.69
630.183	204.69
630.389	216.69
630.595	195.69
630.802	194.69
631.008	195.69
631.214	215.69
631.42	209.69
631.627	197.69
631.833	199.69
632.039	202.69
632.245	215.69
632.451	210.69
632.657	207.69
632.863	197.69
633.069	200.69
633.275	188.69
633.481	183.69
633.688	194.69
633.893	197.69
634.099	202.69
634.305	176.69
634.511	190.69
634.717	198.69
634.923	186.69
635.129	201.69
635.335	203.69
635.541	207.69
635.747	203.69
635.952	190.69
636.158	193.69
636.364	191.69
636.57	200.69
636.775	207.69
636.981	200.69
637.187	188.69
637.392	187.69
637.598	169.69
637.804	194.69
638.009	186.69
638.215	179.69
638.421	194.69
638.626	179.69
638.832	189.69
639.037	182.69
639.243	180.69
639.448	191.69
639.654	179.69
639.859	185.69
640.065	180.69
640.27	183.69
640.475	188.69
640.681	187.69
640.886	179.69
641.091	185.69
641.297	179.69
641.502	183.69
641.707	193.69
641.913	180.69
642.118	188.69
642.323	172.69
642.528	175.69
642.733	184.69
642.939	202.69
643.144	170.69
643.349	163.69
643.554	154.69
643.759	186.69
643.964	176.69
644.169	172.69
644.374	163.69
644.579	182.69
644.784	168.69
644.989	162.69
645.194	163.69
645.399	148.69
645.604	174.69
645.809	176.69
646.014	170.69
646.219	172.69
646.423	171.69
646.628	171.69
646.833	170.69
647.038	189.69
647.243	192.69
647.447	170.69
647.652	182.69
647.857	162.69
648.062	168.69
648.266	183.69
648.471	180.69
648.676	195.69
648.88	191.69
649.085	174.69
649.289	166.69
649.494	178.69
649.698	203.69
649.903	192.69
650.107	190.69
650.312	157.69
650.516	157.69
650.721	159.69
650.925	152.69
651.13	168.69
651.334	155.69
651.539	150.69
651.743	154.69
651.947	145.69
652.152	161.69
652.356	150.69
652.56	144.69
652.764	156.69
652.969	132.69
653.173	150.69
653.377	138.69
653.581	148.69
653.785	144.69
653.99	127.69
654.194	152.69
654.398	136.69
654.602	123.69
654.806	148.69
655.01	148.69
655.214	139.69
655.418	130.69
655.622	143.69
655.826	132.69
656.03	130.69
656.234	144.69
656.438	126.69
656.642	113.69
656.846	132.69
657.049	125.69
657.253	124.69
657.457	115.69
657.661	132.69
657.865	112.69
658.068	135.69
658.272	105.69
658.476	106.69
658.68	104.69
658.883	114.69
659.087	106.69
659.291	96.69
659.494	103.69
659.698	94.69
659.901	83.69
660.105	98.69
660.309	84.69
660.512	80.69
660.716	88.69
660.919	88.69
661.123	91.69
661.326	88.69
661.53	90.69
661.733	88.69
661.936	98.69
662.14	76.69
662.343	73.69
662.546	80.69
662.75	86.69
662.953	90.69
663.156	73.69
663.36	84.69
663.563	84.69
663.766	83.69
663.969	97.69
664.173	87.69
664.376	78.69
664.579	78.69
664.782	102.69
664.985	69.69
665.188	77.69
665.391	72.69
665.594	85.69
665.797	66.69
666	82.69
666.203	74.69
666.406	83.69
666.609	68.69
666.812	87.69
667.015	89.69
667.218	63.69
667.421	79.69
667.624	84.69
667.827	70.69
668.03	91.69
668.232	72.69
668.435	69.69
668.638	92.69
668.841	66.69
669.043	85.69
669.246	77.69
669.449	76.69
669.651	80.69
669.854	84.69
670.057	86.69
670.259	77.69
670.462	73.69
670.665	77.69
670.867	87.69
671.07	89.69
671.272	85.69
671.475	93.69
671.677	84.69
671.88	68.69
672.082	79.69
672.284	80.69
672.487	75.69
672.689	83.69
672.892	85.69
