Data from 1978.PennyLincolnUp.Lamp.En5.5.200Scan.071719.P1_HRD10591_16-13-13-863.txt Node
Date: Thu Jul 18 16:13:13 EDT 2019
User: cochatt
Spectrometer: HR+D1059
Trigger mode: 1
Integration Time (sec): 1.000000E-1
Scans to average: 1
Electric dark correction enabled: true
Nonlinearity correction enabled: false
Boxcar width: 0
XAxis mode: Wavelengths
Number of Pixels in Spectrum: 2048
>>>>>Begin Spectral Data<<<<<
223.165	-19.25
223.4	-19.25
223.635	-19.25
223.869	-20.25
224.104	-22.25
224.338	-14.25
224.573	-18.25
224.808	-4.25
225.042	-11.25
225.277	2.75
225.511	-5.25
225.746	-10.25
225.98	27.75
226.215	6.75
226.449	19.75
226.683	24.75
226.918	13.75
227.152	29.75
227.387	32.75
227.621	38.75
227.856	44.75
228.09	43.75
228.324	59.75
228.559	62.75
228.793	79.75
229.027	103.75
229.262	103.75
229.496	106.75
229.73	134.75
229.964	153.75
230.199	127.75
230.433	127.75
230.667	105.75
230.901	112.75
231.136	99.75
231.37	99.75
231.604	100.75
231.838	117.75
232.072	117.75
232.306	120.75
232.541	104.75
232.775	116.75
233.009	107.75
233.243	115.75
233.477	107.75
233.711	108.75
233.945	124.75
234.179	126.75
234.413	134.75
234.647	102.75
234.881	114.75
235.115	120.75
235.349	112.75
235.583	120.75
235.817	120.75
236.051	128.75
236.285	122.75
236.519	132.75
236.753	133.75
236.987	136.75
237.221	184.75
237.455	229.75
237.689	183.75
237.922	150.75
238.156	136.75
238.39	140.75
238.624	135.75
238.858	133.75
239.091	130.75
239.325	130.75
239.559	127.75
239.793	139.75
240.027	139.75
240.26	131.75
240.494	144.75
240.728	155.75
240.961	143.75
241.195	129.75
241.429	141.75
241.662	140.75
241.896	130.75
242.13	121.75
242.363	125.75
242.597	135.75
242.83	148.75
243.064	146.75
243.298	148.75
243.531	127.75
243.765	138.75
243.998	145.75
244.232	144.75
244.465	134.75
244.699	152.75
244.932	145.75
245.166	136.75
245.399	144.75
245.633	125.75
245.866	151.75
246.099	134.75
246.333	142.75
246.566	142.75
246.8	158.75
247.033	154.75
247.266	159.75
247.5	170.75
247.733	154.75
247.966	183.75
248.2	167.75
248.433	158.75
248.666	182.75
248.899	171.75
249.133	196.75
249.366	189.75
249.599	187.75
249.832	184.75
250.066	171.75
250.299	192.75
250.532	186.75
250.765	204.75
250.998	195.75
251.231	206.75
251.465	187.75
251.698	195.75
251.931	196.75
252.164	190.75
252.397	167.75
252.63	180.75
252.863	203.75
253.096	186.75
253.329	221.75
253.562	200.75
253.795	213.75
254.028	208.75
254.261	207.75
254.494	207.75
254.727	224.75
254.96	245.75
255.193	251.75
255.426	226.75
255.659	214.75
255.892	220.75
256.124	226.75
256.357	229.75
256.59	217.75
256.823	208.75
257.056	198.75
257.289	202.75
257.521	199.75
257.754	205.75
257.987	191.75
258.22	199.75
258.452	197.75
258.685	198.75
258.918	195.75
259.151	203.75
259.383	221.75
259.616	213.75
259.849	216.75
260.081	226.75
260.314	228.75
260.547	251.75
260.779	218.75
261.012	221.75
261.244	229.75
261.477	221.75
261.71	219.75
261.942	198.75
262.175	230.75
262.407	209.75
262.64	207.75
262.872	212.75
263.105	205.75
263.337	218.75
263.57	198.75
263.802	218.75
264.035	215.75
264.267	205.75
264.499	203.75
264.732	209.75
264.964	206.75
265.197	193.75
265.429	195.75
265.661	201.75
265.894	210.75
266.126	207.75
266.358	211.75
266.591	221.75
266.823	205.75
267.055	213.75
267.287	229.75
267.52	199.75
267.752	220.75
267.984	219.75
268.216	215.75
268.448	224.75
268.681	238.75
268.913	220.75
269.145	250.75
269.377	274.75
269.609	276.75
269.841	262.75
270.073	249.75
270.306	274.75
270.538	294.75
270.77	292.75
271.002	299.75
271.234	278.75
271.466	271.75
271.698	289.75
271.93	301.75
272.162	303.75
272.394	279.75
272.626	271.75
272.858	292.75
273.09	284.75
273.322	275.75
273.553	264.75
273.785	248.75
274.017	258.75
274.249	252.75
274.481	252.75
274.713	254.75
274.945	252.75
275.176	248.75
275.408	263.75
275.64	265.75
275.872	243.75
276.104	262.75
276.335	249.75
276.567	264.75
276.799	277.75
277.031	303.75
277.262	296.75
277.494	290.75
277.726	288.75
277.957	274.75
278.189	267.75
278.421	264.75
278.652	268.75
278.884	248.75
279.115	263.75
279.347	266.75
279.579	253.75
279.81	260.75
280.042	265.75
280.273	265.75
280.505	269.75
280.736	253.75
280.968	252.75
281.199	251.75
281.431	273.75
281.662	241.75
281.894	270.75
282.125	268.75
282.356	291.75
282.588	280.75
282.819	291.75
283.051	261.75
283.282	255.75
283.513	267.75
283.745	268.75
283.976	259.75
284.207	276.75
284.439	276.75
284.67	280.75
284.901	268.75
285.132	268.75
285.364	270.75
285.595	269.75
285.826	275.75
286.057	272.75
286.288	253.75
286.52	284.75
286.751	276.75
286.982	259.75
287.213	267.75
287.444	271.75
287.675	282.75
287.906	291.75
288.138	295.75
288.369	296.75
288.6	309.75
288.831	288.75
289.062	290.75
289.293	289.75
289.524	276.75
289.755	280.75
289.986	282.75
290.217	278.75
290.448	279.75
290.679	291.75
290.91	279.75
291.141	284.75
291.371	270.75
291.602	286.75
291.833	284.75
292.064	293.75
292.295	273.75
292.526	271.75
292.757	278.75
292.987	280.75
293.218	272.75
293.449	294.75
293.68	283.75
293.91	287.75
294.141	281.75
294.372	291.75
294.603	275.75
294.833	306.75
295.064	298.75
295.295	302.75
295.525	286.75
295.756	297.75
295.987	286.75
296.217	321.75
296.448	320.75
296.679	302.75
296.909	292.75
297.14	296.75
297.37	299.75
297.601	298.75
297.831	298.75
298.062	289.75
298.292	299.75
298.523	329.75
298.753	294.75
298.984	280.75
299.214	315.75
299.445	295.75
299.675	310.75
299.905	308.75
300.136	310.75
300.366	295.75
300.597	305.75
300.827	322.75
301.057	310.75
301.288	321.75
301.518	334.75
301.748	303.75
301.979	329.75
302.209	316.75
302.439	320.75
302.669	318.75
302.9	338.75
303.13	331.75
303.36	333.75
303.59	328.75
303.82	338.75
304.051	320.75
304.281	338.75
304.511	338.75
304.741	326.75
304.971	325.75
305.201	341.75
305.431	323.75
305.661	320.75
305.891	320.75
306.121	331.75
306.352	332.75
306.582	308.75
306.812	311.75
307.042	308.75
307.272	315.75
307.502	328.75
307.731	337.75
307.961	310.75
308.191	308.75
308.421	314.75
308.651	320.75
308.881	341.75
309.111	349.75
309.341	323.75
309.571	342.75
309.8	367.75
310.03	356.75
310.26	346.75
310.49	379.75
310.72	381.75
310.949	376.75
311.179	394.75
311.409	377.75
311.639	379.75
311.868	359.75
312.098	378.75
312.328	369.75
312.557	383.75
312.787	393.75
313.017	392.75
313.246	380.75
313.476	353.75
313.706	360.75
313.935	369.75
314.165	392.75
314.394	382.75
314.624	400.75
314.853	370.75
315.083	376.75
315.312	362.75
315.542	371.75
315.771	362.75
316.001	363.75
316.23	349.75
316.46	376.75
316.689	358.75
316.919	383.75
317.148	374.75
317.377	364.75
317.607	388.75
317.836	375.75
318.065	375.75
318.295	374.75
318.524	378.75
318.753	360.75
318.983	368.75
319.212	353.75
319.441	376.75
319.67	384.75
319.9	373.75
320.129	365.75
320.358	374.75
320.587	386.75
320.816	381.75
321.046	392.75
321.275	400.75
321.504	384.75
321.733	385.75
321.962	390.75
322.191	406.75
322.42	431.75
322.649	449.75
322.878	470.75
323.108	461.75
323.337	470.75
323.566	492.75
323.795	534.75
324.024	546.75
324.253	674.75
324.482	901.75
324.71	1501.75
324.939	2298.75
325.168	1987.75
325.397	954.75
325.626	629.75
325.855	537.75
326.084	499.75
326.313	492.75
326.542	493.75
326.77	536.75
326.999	613.75
327.228	864.75
327.457	1348.75
327.686	1698.75
327.914	1098.75
328.143	710.75
328.372	631.75
328.6	572.75
328.829	548.75
329.058	554.75
329.287	558.75
329.515	533.75
329.744	503.75
329.972	494.75
330.201	504.75
330.43	518.75
330.658	547.75
330.887	580.75
331.115	564.75
331.344	490.75
331.572	486.75
331.801	468.75
332.03	482.75
332.258	448.75
332.486	447.75
332.715	445.75
332.943	441.75
333.172	460.75
333.4	467.75
333.629	462.75
333.857	487.75
334.085	479.75
334.314	508.75
334.542	526.75
334.771	522.75
334.999	509.75
335.227	496.75
335.455	482.75
335.684	460.75
335.912	462.75
336.14	459.75
336.369	458.75
336.597	465.75
336.825	444.75
337.053	459.75
337.281	451.75
337.51	440.75
337.738	449.75
337.966	460.75
338.194	439.75
338.422	438.75
338.65	466.75
338.878	451.75
339.106	424.75
339.334	437.75
339.562	422.75
339.79	445.75
340.018	431.75
340.246	433.75
340.474	454.75
340.702	438.75
340.93	431.75
341.158	428.75
341.386	436.75
341.614	438.75
341.842	429.75
342.07	436.75
342.298	431.75
342.526	426.75
342.754	424.75
342.981	412.75
343.209	418.75
343.437	414.75
343.665	430.75
343.893	446.75
344.12	463.75
344.348	456.75
344.576	459.75
344.804	446.75
345.031	461.75
345.259	455.75
345.487	464.75
345.714	437.75
345.942	434.75
346.17	442.75
346.397	433.75
346.625	428.75
346.853	423.75
347.08	427.75
347.308	416.75
347.535	458.75
347.763	445.75
347.99	427.75
348.218	430.75
348.445	439.75
348.673	434.75
348.9	422.75
349.128	418.75
349.355	405.75
349.583	421.75
349.81	419.75
350.037	408.75
350.265	413.75
350.492	418.75
350.72	431.75
350.947	406.75
351.174	423.75
351.402	447.75
351.629	431.75
351.856	430.75
352.083	437.75
352.311	439.75
352.538	445.75
352.765	435.75
352.992	430.75
353.22	436.75
353.447	399.75
353.674	405.75
353.901	419.75
354.128	390.75
354.355	410.75
354.583	410.75
354.81	412.75
355.037	417.75
355.264	399.75
355.491	403.75
355.718	390.75
355.945	396.75
356.172	389.75
356.399	375.75
356.626	390.75
356.853	399.75
357.08	403.75
357.307	401.75
357.534	384.75
357.761	407.75
357.988	399.75
358.215	392.75
358.441	398.75
358.668	418.75
358.895	412.75
359.122	399.75
359.349	401.75
359.576	391.75
359.802	450.75
360.029	460.75
360.256	469.75
360.483	458.75
360.709	428.75
360.936	424.75
361.163	403.75
361.39	440.75
361.616	432.75
361.843	412.75
362.07	447.75
362.296	416.75
362.523	415.75
362.749	443.75
362.976	412.75
363.203	419.75
363.429	410.75
363.656	447.75
363.882	422.75
364.109	404.75
364.335	411.75
364.562	400.75
364.788	395.75
365.015	412.75
365.241	412.75
365.468	443.75
365.694	401.75
365.92	414.75
366.147	416.75
366.373	417.75
366.599	404.75
366.826	409.75
367.052	400.75
367.278	417.75
367.505	417.75
367.731	413.75
367.957	419.75
368.184	434.75
368.41	424.75
368.636	424.75
368.862	404.75
369.089	435.75
369.315	407.75
369.541	414.75
369.767	435.75
369.993	410.75
370.219	415.75
370.445	423.75
370.672	419.75
370.898	403.75
371.124	422.75
371.35	418.75
371.576	427.75
371.802	417.75
372.028	418.75
372.254	420.75
372.48	427.75
372.706	429.75
372.932	408.75
373.158	413.75
373.384	415.75
373.61	424.75
373.835	429.75
374.061	428.75
374.287	431.75
374.513	429.75
374.739	429.75
374.965	428.75
375.191	451.75
375.416	436.75
375.642	419.75
375.868	430.75
376.094	434.75
376.319	408.75
376.545	401.75
376.771	434.75
376.997	404.75
377.222	424.75
377.448	420.75
377.674	446.75
377.899	442.75
378.125	414.75
378.35	407.75
378.576	420.75
378.802	415.75
379.027	425.75
379.253	431.75
379.478	395.75
379.704	423.75
379.929	424.75
380.155	430.75
380.38	426.75
380.606	428.75
380.831	419.75
381.057	442.75
381.282	423.75
381.507	423.75
381.733	435.75
381.958	420.75
382.184	437.75
382.409	436.75
382.634	422.75
382.86	437.75
383.085	434.75
383.31	438.75
383.535	419.75
383.761	423.75
383.986	456.75
384.211	454.75
384.436	455.75
384.662	459.75
384.887	447.75
385.112	454.75
385.337	444.75
385.562	447.75
385.787	441.75
386.013	477.75
386.238	482.75
386.463	462.75
386.688	487.75
386.913	472.75
387.138	458.75
387.363	477.75
387.588	474.75
387.813	471.75
388.038	474.75
388.263	492.75
388.488	473.75
388.713	476.75
388.938	449.75
389.163	462.75
389.387	454.75
389.612	470.75
389.837	488.75
390.062	491.75
390.287	492.75
390.512	496.75
390.736	487.75
390.961	477.75
391.186	477.75
391.411	439.75
391.636	486.75
391.86	489.75
392.085	467.75
392.31	483.75
392.534	493.75
392.759	476.75
392.984	467.75
393.208	485.75
393.433	489.75
393.658	491.75
393.882	502.75
394.107	488.75
394.331	480.75
394.556	502.75
394.78	472.75
395.005	474.75
395.229	496.75
395.454	492.75
395.678	506.75
395.903	500.75
396.127	539.75
396.352	533.75
396.576	500.75
396.801	489.75
397.025	500.75
397.249	500.75
397.474	493.75
397.698	519.75
397.922	539.75
398.147	538.75
398.371	527.75
398.595	521.75
398.82	561.75
399.044	571.75
399.268	586.75
399.492	600.75
399.717	632.75
399.941	656.75
400.165	681.75
400.389	690.75
400.613	640.75
400.837	587.75
401.062	558.75
401.286	572.75
401.51	538.75
401.734	549.75
401.958	539.75
402.182	555.75
402.406	571.75
402.63	550.75
402.854	574.75
403.078	570.75
403.302	559.75
403.526	567.75
403.75	565.75
403.974	558.75
404.198	562.75
404.422	598.75
404.645	562.75
404.869	587.75
405.093	608.75
405.317	630.75
405.541	674.75
405.765	628.75
405.988	593.75
406.212	588.75
406.436	622.75
406.66	613.75
406.883	614.75
407.107	622.75
407.331	676.75
407.555	724.75
407.778	747.75
408.002	703.75
408.226	654.75
408.449	636.75
408.673	638.75
408.896	677.75
409.12	703.75
409.344	648.75
409.567	619.75
409.791	582.75
410.014	566.75
410.238	578.75
410.461	595.75
410.685	588.75
410.908	604.75
411.132	623.75
411.355	677.75
411.578	642.75
411.802	606.75
412.025	560.75
412.249	601.75
412.472	606.75
412.695	660.75
412.919	630.75
413.142	593.75
413.365	579.75
413.589	568.75
413.812	536.75
414.035	551.75
414.258	534.75
414.482	567.75
414.705	539.75
414.928	533.75
415.151	525.75
415.374	547.75
415.597	537.75
415.821	524.75
416.044	541.75
416.267	546.75
416.49	548.75
416.713	543.75
416.936	550.75
417.159	534.75
417.382	537.75
417.605	553.75
417.828	554.75
418.051	572.75
418.274	556.75
418.497	532.75
418.72	541.75
418.943	533.75
419.166	571.75
419.389	585.75
419.611	581.75
419.834	583.75
420.057	565.75
420.28	558.75
420.503	552.75
420.726	538.75
420.948	574.75
421.171	634.75
421.394	657.75
421.617	582.75
421.839	571.75
422.062	555.75
422.285	558.75
422.507	613.75
422.73	716.75
422.953	706.75
423.175	622.75
423.398	601.75
423.621	596.75
423.843	600.75
424.066	587.75
424.288	592.75
424.511	632.75
424.733	706.75
424.956	746.75
425.178	712.75
425.401	706.75
425.623	786.75
425.846	624.75
426.068	606.75
426.291	602.75
426.513	589.75
426.735	630.75
426.958	644.75
427.18	756.75
427.402	915.75
427.625	983.75
427.847	835.75
428.069	729.75
428.292	671.75
428.514	580.75
428.736	592.75
428.958	588.75
429.181	551.75
429.403	542.75
429.625	584.75
429.847	593.75
430.069	662.75
430.292	684.75
430.514	570.75
430.736	560.75
430.958	536.75
431.18	535.75
431.402	537.75
431.624	541.75
431.846	520.75
432.068	515.75
432.29	535.75
432.512	532.75
432.734	514.75
432.956	546.75
433.178	550.75
433.4	527.75
433.622	524.75
433.844	534.75
434.066	537.75
434.287	529.75
434.509	546.75
434.731	574.75
434.953	576.75
435.175	579.75
435.397	590.75
435.618	605.75
435.84	642.75
436.062	750.75
436.284	840.75
436.505	675.75
436.727	594.75
436.949	593.75
437.17	576.75
437.392	560.75
437.614	570.75
437.835	568.75
438.057	698.75
438.278	807.75
438.5	812.75
438.721	873.75
438.943	873.75
439.165	657.75
439.386	593.75
439.608	603.75
439.829	607.75
440.05	618.75
440.272	659.75
440.493	651.75
440.715	610.75
440.936	585.75
441.158	558.75
441.379	555.75
441.6	558.75
441.822	594.75
442.043	641.75
442.264	723.75
442.486	777.75
442.707	663.75
442.928	612.75
443.149	617.75
443.371	646.75
443.592	662.75
443.813	769.75
444.034	864.75
444.255	684.75
444.476	645.75
444.698	610.75
444.919	605.75
445.14	738.75
445.361	682.75
445.582	655.75
445.803	706.75
446.024	831.75
446.245	843.75
446.466	771.75
446.687	660.75
446.908	605.75
447.129	558.75
447.35	567.75
447.571	570.75
447.792	551.75
448.013	570.75
448.234	549.75
448.455	639.75
448.675	747.75
448.896	890.75
449.117	747.75
449.338	695.75
449.559	810.75
449.779	932.75
450	741.75
450.221	621.75
450.442	569.75
450.662	556.75
450.883	524.75
451.104	542.75
451.324	546.75
451.545	511.75
451.766	498.75
451.986	498.75
452.207	492.75
452.428	498.75
452.648	493.75
452.869	503.75
453.089	519.75
453.31	512.75
453.53	512.75
453.751	515.75
453.971	521.75
454.192	502.75
454.412	490.75
454.633	491.75
454.853	490.75
455.073	518.75
455.294	510.75
455.514	592.75
455.734	578.75
455.955	535.75
456.175	474.75
456.395	493.75
456.616	477.75
456.836	464.75
457.056	476.75
457.276	471.75
457.497	487.75
457.717	455.75
457.937	472.75
458.157	501.75
458.377	492.75
458.598	521.75
458.818	560.75
459.038	638.75
459.258	657.75
459.478	576.75
459.698	541.75
459.918	551.75
460.138	546.75
460.358	555.75
460.578	531.75
460.798	538.75
461.018	545.75
461.238	552.75
461.458	557.75
461.678	546.75
461.898	532.75
462.118	562.75
462.338	541.75
462.558	564.75
462.777	595.75
462.997	584.75
463.217	597.75
463.437	617.75
463.657	590.75
463.876	614.75
464.096	611.75
464.316	581.75
464.536	593.75
464.755	580.75
464.975	596.75
465.195	610.75
465.414	679.75
465.634	605.75
465.854	589.75
466.073	567.75
466.293	533.75
466.512	536.75
466.732	509.75
466.951	519.75
467.171	520.75
467.391	523.75
467.61	513.75
467.829	528.75
468.049	550.75
468.268	537.75
468.488	512.75
468.707	501.75
468.927	522.75
469.146	508.75
469.365	504.75
469.585	496.75
469.804	527.75
470.023	522.75
470.243	537.75
470.462	513.75
470.681	536.75
470.901	532.75
471.12	520.75
471.339	534.75
471.558	522.75
471.777	518.75
471.997	530.75
472.216	530.75
472.435	531.75
472.654	547.75
472.873	535.75
473.092	529.75
473.311	522.75
473.53	532.75
473.749	505.75
473.968	558.75
474.187	661.75
474.406	720.75
474.625	604.75
474.844	541.75
475.063	533.75
475.282	541.75
475.501	543.75
475.72	535.75
475.939	538.75
476.158	544.75
476.377	552.75
476.596	547.75
476.814	558.75
477.033	538.75
477.252	543.75
477.471	562.75
477.69	566.75
477.908	585.75
478.127	590.75
478.346	568.75
478.564	599.75
478.783	603.75
479.002	587.75
479.22	611.75
479.439	615.75
479.658	617.75
479.876	633.75
480.095	630.75
480.313	655.75
480.532	642.75
480.751	633.75
480.969	659.75
481.188	684.75
481.406	709.75
481.624	656.75
481.843	662.75
482.061	622.75
482.28	615.75
482.498	607.75
482.717	616.75
482.935	623.75
483.153	592.75
483.372	614.75
483.59	612.75
483.808	607.75
484.027	612.75
484.245	610.75
484.463	602.75
484.681	630.75
484.9	650.75
485.118	652.75
485.336	649.75
485.554	634.75
485.772	634.75
485.99	636.75
486.209	639.75
486.427	653.75
486.645	646.75
486.863	682.75
487.081	652.75
487.299	659.75
487.517	642.75
487.735	663.75
487.953	644.75
488.171	655.75
488.389	659.75
488.607	653.75
488.825	674.75
489.043	655.75
489.261	642.75
489.479	660.75
489.696	682.75
489.914	675.75
490.132	685.75
490.35	668.75
490.568	681.75
490.786	714.75
491.003	680.75
491.221	707.75
491.439	708.75
491.657	704.75
491.874	715.75
492.092	724.75
492.31	743.75
492.527	744.75
492.745	771.75
492.963	741.75
493.18	724.75
493.398	730.75
493.615	747.75
493.833	734.75
494.05	771.75
494.268	768.75
494.485	756.75
494.703	739.75
494.92	746.75
495.138	749.75
495.355	759.75
495.573	770.75
495.79	760.75
496.008	767.75
496.225	763.75
496.442	750.75
496.66	770.75
496.877	774.75
497.094	775.75
497.312	782.75
497.529	783.75
497.746	806.75
497.963	832.75
498.181	835.75
498.398	869.75
498.615	884.75
498.832	894.75
499.049	889.75
499.267	956.75
499.484	928.75
499.701	959.75
499.918	1026.75
500.135	1078.75
500.352	1107.75
500.569	1141.75
500.786	1122.75
501.003	1162.75
501.22	1091.75
501.437	1054.75
501.654	1034.75
501.871	1007.75
502.088	959.75
502.305	918.75
502.522	893.75
502.739	897.75
502.956	867.75
503.172	861.75
503.389	829.75
503.606	850.75
503.823	825.75
504.04	812.75
504.256	793.75
504.473	790.75
504.69	795.75
504.907	794.75
505.123	786.75
505.34	775.75
505.557	793.75
505.773	725.75
505.99	732.75
506.207	727.75
506.423	736.75
506.64	732.75
506.856	721.75
507.073	724.75
507.289	702.75
507.506	706.75
507.722	723.75
507.939	735.75
508.155	726.75
508.372	706.75
508.588	714.75
508.805	674.75
509.021	670.75
509.238	690.75
509.454	699.75
509.67	699.75
509.887	666.75
510.103	686.75
510.319	704.75
510.536	772.75
510.752	1138.75
510.968	1022.75
511.184	715.75
511.401	682.75
511.617	661.75
511.833	680.75
512.049	671.75
512.265	662.75
512.481	663.75
512.698	648.75
512.914	653.75
513.13	643.75
513.346	659.75
513.562	654.75
513.778	660.75
513.994	686.75
514.21	693.75
514.426	700.75
514.642	720.75
514.858	730.75
515.074	772.75
515.29	928.75
515.506	1234.75
515.721	1067.75
515.937	770.75
516.153	718.75
516.369	731.75
516.585	698.75
516.801	705.75
517.016	678.75
517.232	696.75
517.448	715.75
517.664	702.75
517.879	697.75
518.095	675.75
518.311	708.75
518.527	683.75
518.742	688.75
518.958	654.75
519.173	651.75
519.389	678.75
519.605	689.75
519.82	675.75
520.036	697.75
520.251	664.75
520.467	707.75
520.682	716.75
520.898	706.75
521.113	719.75
521.329	759.75
521.544	836.75
521.76	994.75
521.975	1531.75
522.19	1514.75
522.406	917.75
522.621	724.75
522.836	678.75
523.052	655.75
523.267	646.75
523.482	620.75
523.698	615.75
523.913	616.75
524.128	627.75
524.343	581.75
524.559	594.75
524.774	581.75
524.989	572.75
525.204	587.75
525.419	600.75
525.634	594.75
525.849	555.75
526.064	606.75
526.28	566.75
526.495	550.75
526.71	553.75
526.925	566.75
527.14	534.75
527.355	563.75
527.57	558.75
527.785	551.75
527.999	540.75
528.214	550.75
528.429	560.75
528.644	528.75
528.859	539.75
529.074	549.75
529.289	584.75
529.503	638.75
529.718	640.75
529.933	563.75
530.148	550.75
530.363	564.75
530.577	558.75
530.792	564.75
531.007	559.75
531.221	563.75
531.436	542.75
531.651	566.75
531.865	540.75
532.08	548.75
532.295	538.75
532.509	560.75
532.724	533.75
532.938	536.75
533.153	521.75
533.367	516.75
533.582	540.75
533.796	526.75
534.011	517.75
534.225	526.75
534.44	540.75
534.654	532.75
534.868	500.75
535.083	510.75
535.297	507.75
535.511	517.75
535.726	539.75
535.94	534.75
536.154	526.75
536.369	519.75
536.583	514.75
536.797	523.75
537.011	524.75
537.225	497.75
537.44	511.75
537.654	503.75
537.868	499.75
538.082	519.75
538.296	517.75
538.51	502.75
538.724	541.75
538.938	508.75
539.153	503.75
539.367	539.75
539.581	528.75
539.795	516.75
540.009	506.75
540.222	494.75
540.436	500.75
540.65	510.75
540.864	503.75
541.078	515.75
541.292	502.75
541.506	486.75
541.72	508.75
541.934	517.75
542.147	488.75
542.361	497.75
542.575	490.75
542.789	486.75
543.002	493.75
543.216	508.75
543.43	520.75
543.644	499.75
543.857	503.75
544.071	487.75
544.285	510.75
544.498	489.75
544.712	518.75
544.925	494.75
545.139	511.75
545.352	497.75
545.566	498.75
545.779	506.75
545.993	491.75
546.206	503.75
546.42	524.75
546.633	482.75
546.847	488.75
547.06	476.75
547.274	498.75
547.487	469.75
547.7	478.75
547.914	498.75
548.127	487.75
548.34	474.75
548.554	482.75
548.767	495.75
548.98	450.75
549.193	487.75
549.407	503.75
549.62	482.75
549.833	487.75
550.046	479.75
550.259	481.75
550.473	485.75
550.686	493.75
550.899	477.75
551.112	474.75
551.325	472.75
551.538	479.75
551.751	486.75
551.964	473.75
552.177	472.75
552.39	508.75
552.603	478.75
552.816	515.75
553.029	510.75
553.242	500.75
553.455	493.75
553.667	511.75
553.88	526.75
554.093	506.75
554.306	485.75
554.519	464.75
554.732	472.75
554.944	473.75
555.157	466.75
555.37	468.75
555.583	469.75
555.795	481.75
556.008	442.75
556.221	426.75
556.433	437.75
556.646	458.75
556.859	447.75
557.071	456.75
557.284	460.75
557.496	459.75
557.709	448.75
557.921	452.75
558.134	424.75
558.346	446.75
558.559	427.75
558.771	438.75
558.984	422.75
559.196	447.75
559.409	445.75
559.621	437.75
559.833	422.75
560.046	427.75
560.258	421.75
560.47	425.75
560.683	445.75
560.895	435.75
561.107	441.75
561.32	415.75
561.532	435.75
561.744	445.75
561.956	440.75
562.168	432.75
562.381	423.75
562.593	447.75
562.805	454.75
563.017	439.75
563.229	427.75
563.441	436.75
563.653	451.75
563.865	418.75
564.077	444.75
564.289	449.75
564.501	443.75
564.713	448.75
564.925	451.75
565.137	477.75
565.349	490.75
565.561	473.75
565.773	476.75
565.985	498.75
566.197	487.75
566.408	521.75
566.62	498.75
566.832	524.75
567.044	541.75
567.255	534.75
567.467	556.75
567.679	554.75
567.891	549.75
568.102	549.75
568.314	557.75
568.526	532.75
568.737	526.75
568.949	511.75
569.161	472.75
569.372	479.75
569.584	458.75
569.795	478.75
570.007	444.75
570.218	483.75
570.43	447.75
570.641	430.75
570.853	424.75
571.064	449.75
571.276	441.75
571.487	418.75
571.698	411.75
571.91	401.75
572.121	388.75
572.333	424.75
572.544	399.75
572.755	396.75
572.966	411.75
573.178	404.75
573.389	384.75
573.6	375.75
573.811	377.75
574.023	382.75
574.234	371.75
574.445	385.75
574.656	384.75
574.867	382.75
575.078	379.75
575.289	371.75
575.501	386.75
575.712	364.75
575.923	386.75
576.134	372.75
576.345	375.75
576.556	363.75
576.767	360.75
576.978	377.75
577.188	359.75
577.399	363.75
577.61	374.75
577.821	359.75
578.032	380.75
578.243	396.75
578.454	551.75
578.665	440.75
578.875	371.75
579.086	366.75
579.297	367.75
579.508	367.75
579.718	356.75
579.929	350.75
580.14	361.75
580.35	335.75
580.561	341.75
580.772	340.75
580.982	357.75
581.193	334.75
581.403	346.75
581.614	348.75
581.825	342.75
582.035	332.75
582.246	340.75
582.456	345.75
582.667	348.75
582.877	333.75
583.087	324.75
583.298	343.75
583.508	354.75
583.719	341.75
583.929	323.75
584.139	340.75
584.35	333.75
584.56	336.75
584.77	342.75
584.981	356.75
585.191	346.75
585.401	347.75
585.611	360.75
585.821	341.75
586.032	341.75
586.242	349.75
586.452	344.75
586.662	321.75
586.872	339.75
587.082	347.75
587.292	331.75
587.502	325.75
587.713	318.75
587.923	316.75
588.133	331.75
588.343	335.75
588.553	320.75
588.762	329.75
588.972	331.75
589.182	330.75
589.392	325.75
589.602	320.75
589.812	326.75
590.022	338.75
590.232	324.75
590.441	322.75
590.651	322.75
590.861	329.75
591.071	336.75
591.281	333.75
591.49	322.75
591.7	343.75
591.91	336.75
592.119	331.75
592.329	338.75
592.539	328.75
592.748	340.75
592.958	339.75
593.167	350.75
593.377	358.75
593.587	342.75
593.796	342.75
594.006	350.75
594.215	351.75
594.424	348.75
594.634	351.75
594.843	347.75
595.053	327.75
595.262	342.75
595.472	324.75
595.681	330.75
595.89	327.75
596.1	314.75
596.309	330.75
596.518	316.75
596.727	299.75
596.937	312.75
597.146	318.75
597.355	303.75
597.564	296.75
597.774	282.75
597.983	287.75
598.192	294.75
598.401	319.75
598.61	306.75
598.819	322.75
599.028	322.75
599.237	284.75
599.446	281.75
599.655	308.75
599.864	300.75
600.073	308.75
600.282	302.75
600.491	298.75
600.7	307.75
600.909	297.75
601.118	309.75
601.327	281.75
601.536	276.75
601.745	293.75
601.953	272.75
602.162	284.75
602.371	255.75
602.58	287.75
602.789	272.75
602.997	286.75
603.206	285.75
603.415	285.75
603.623	273.75
603.832	275.75
604.041	278.75
604.249	281.75
604.458	270.75
604.666	262.75
604.875	273.75
605.084	282.75
605.292	282.75
605.501	267.75
605.709	278.75
605.918	276.75
606.126	285.75
606.334	290.75
606.543	268.75
606.751	269.75
606.96	259.75
607.168	267.75
607.376	259.75
607.585	266.75
607.793	286.75
608.001	278.75
608.21	243.75
608.418	272.75
608.626	272.75
608.834	287.75
609.043	277.75
609.251	267.75
609.459	267.75
609.667	235.75
609.875	264.75
610.083	259.75
610.291	269.75
610.499	265.75
610.707	266.75
610.916	269.75
611.124	287.75
611.332	272.75
611.54	262.75
611.748	266.75
611.955	276.75
612.163	265.75
612.371	267.75
612.579	263.75
612.787	277.75
612.995	262.75
613.203	250.75
613.411	273.75
613.618	264.75
613.826	255.75
614.034	276.75
614.242	256.75
614.449	258.75
614.657	262.75
614.865	272.75
615.072	258.75
615.28	240.75
615.488	238.75
615.695	262.75
615.903	258.75
616.111	251.75
616.318	250.75
616.526	263.75
616.733	263.75
616.941	252.75
617.148	242.75
617.356	261.75
617.563	260.75
617.771	258.75
617.978	246.75
618.185	245.75
618.393	252.75
618.6	259.75
618.807	232.75
619.015	266.75
619.222	258.75
619.429	257.75
619.637	255.75
619.844	242.75
620.051	238.75
620.258	243.75
620.466	227.75
620.673	231.75
620.88	245.75
621.087	233.75
621.294	248.75
621.501	226.75
621.708	246.75
621.915	237.75
622.122	256.75
622.329	239.75
622.536	249.75
622.743	230.75
622.95	248.75
623.157	247.75
623.364	244.75
623.571	245.75
623.778	235.75
623.985	235.75
624.192	213.75
624.399	221.75
624.606	226.75
624.812	207.75
625.019	232.75
625.226	245.75
625.433	249.75
625.639	221.75
625.846	226.75
626.053	211.75
626.259	226.75
626.466	215.75
626.673	219.75
626.879	232.75
627.086	203.75
627.293	222.75
627.499	235.75
627.706	232.75
627.912	233.75
628.119	234.75
628.325	207.75
628.532	219.75
628.738	216.75
628.945	223.75
629.151	214.75
629.357	211.75
629.564	224.75
629.77	218.75
629.976	202.75
630.183	217.75
630.389	213.75
630.595	229.75
630.802	210.75
631.008	214.75
631.214	227.75
631.42	211.75
631.627	203.75
631.833	213.75
632.039	220.75
632.245	214.75
632.451	207.75
632.657	198.75
632.863	212.75
633.069	188.75
633.275	199.75
633.481	188.75
633.688	215.75
633.893	210.75
634.099	209.75
634.305	205.75
634.511	193.75
634.717	197.75
634.923	189.75
635.129	212.75
635.335	184.75
635.541	216.75
635.747	204.75
635.952	201.75
636.158	194.75
636.364	210.75
636.57	198.75
636.775	196.75
636.981	190.75
637.187	196.75
637.392	214.75
637.598	200.75
637.804	210.75
638.009	179.75
638.215	201.75
638.421	201.75
638.626	186.75
638.832	185.75
639.037	192.75
639.243	183.75
639.448	191.75
639.654	190.75
639.859	180.75
640.065	181.75
640.27	174.75
640.475	188.75
640.681	167.75
640.886	196.75
641.091	186.75
641.297	200.75
641.502	182.75
641.707	199.75
641.913	202.75
642.118	192.75
642.323	172.75
642.528	192.75
642.733	191.75
642.939	174.75
643.144	182.75
643.349	164.75
643.554	166.75
643.759	175.75
643.964	194.75
644.169	192.75
644.374	194.75
644.579	186.75
644.784	180.75
644.989	179.75
645.194	175.75
645.399	168.75
645.604	175.75
645.809	184.75
646.014	168.75
646.219	171.75
646.423	174.75
646.628	164.75
646.833	176.75
647.038	176.75
647.243	170.75
647.447	183.75
647.652	189.75
647.857	166.75
648.062	186.75
648.266	174.75
648.471	184.75
648.676	192.75
648.88	173.75
649.085	180.75
649.289	189.75
649.494	186.75
649.698	195.75
649.903	199.75
650.107	187.75
650.312	189.75
650.516	185.75
650.721	165.75
650.925	174.75
651.13	162.75
651.334	156.75
651.539	170.75
651.743	166.75
651.947	159.75
652.152	164.75
652.356	150.75
652.56	158.75
652.764	158.75
652.969	165.75
653.173	162.75
653.377	145.75
653.581	147.75
653.785	160.75
653.99	172.75
654.194	146.75
654.398	150.75
654.602	144.75
654.806	140.75
655.01	146.75
655.214	143.75
655.418	118.75
655.622	144.75
655.826	156.75
656.03	146.75
656.234	146.75
656.438	139.75
656.642	142.75
656.846	133.75
657.049	128.75
657.253	139.75
657.457	122.75
657.661	126.75
657.865	121.75
658.068	111.75
658.272	110.75
658.476	122.75
658.68	119.75
658.883	116.75
659.087	104.75
659.291	102.75
659.494	94.75
659.698	102.75
659.901	111.75
660.105	113.75
660.309	109.75
660.512	110.75
660.716	99.75
660.919	104.75
661.123	92.75
661.326	99.75
661.53	78.75
661.733	94.75
661.936	100.75
662.14	78.75
662.343	87.75
662.546	87.75
662.75	96.75
662.953	94.75
663.156	83.75
663.36	78.75
663.563	85.75
663.766	80.75
663.969	79.75
664.173	77.75
664.376	81.75
664.579	82.75
664.782	83.75
664.985	87.75
665.188	85.75
665.391	78.75
665.594	76.75
665.797	85.75
666	84.75
666.203	79.75
666.406	86.75
666.609	91.75
666.812	92.75
667.015	91.75
667.218	68.75
667.421	93.75
667.624	87.75
667.827	93.75
668.03	91.75
668.232	95.75
668.435	96.75
668.638	84.75
668.841	81.75
669.043	84.75
669.246	79.75
669.449	59.75
669.651	91.75
669.854	84.75
670.057	87.75
670.259	80.75
670.462	75.75
670.665	91.75
670.867	80.75
671.07	89.75
671.272	89.75
671.475	95.75
671.677	70.75
671.88	75.75
672.082	89.75
672.284	86.75
672.487	81.75
672.689	71.75
672.892	80.75
