Data from 1978.PennyLincolnUp.Lamp.En5.5.200Scan.071719.P1_HRD10591_16-13-19-864.txt Node
Date: Thu Jul 18 16:13:19 EDT 2019
User: cochatt
Spectrometer: HR+D1059
Trigger mode: 1
Integration Time (sec): 1.000000E-1
Scans to average: 1
Electric dark correction enabled: true
Nonlinearity correction enabled: false
Boxcar width: 0
XAxis mode: Wavelengths
Number of Pixels in Spectrum: 2048
>>>>>Begin Spectral Data<<<<<
223.165	-19.62
223.4	-19.62
223.635	-19.62
223.869	-7.62
224.104	-18.62
224.338	-25.62
224.573	-12.62
224.808	-2.62
225.042	-12.62
225.277	-9.62
225.511	-16.62
225.746	-10.62
225.98	4.38
226.215	23.38
226.449	21.38
226.683	28.38
226.918	28.38
227.152	30.38
227.387	33.38
227.621	54.38
227.856	36.38
228.09	44.38
228.324	35.38
228.559	46.38
228.793	67.38
229.027	94.38
229.262	99.38
229.496	123.38
229.73	122.38
229.964	148.38
230.199	136.38
230.433	115.38
230.667	120.38
230.901	107.38
231.136	104.38
231.37	100.38
231.604	107.38
231.838	121.38
232.072	116.38
232.306	111.38
232.541	131.38
232.775	127.38
233.009	127.38
233.243	106.38
233.477	110.38
233.711	102.38
233.945	108.38
234.179	130.38
234.413	118.38
234.647	111.38
234.881	118.38
235.115	120.38
235.349	123.38
235.583	118.38
235.817	117.38
236.051	122.38
236.285	125.38
236.519	117.38
236.753	137.38
236.987	148.38
237.221	173.38
237.455	236.38
237.689	173.38
237.922	153.38
238.156	142.38
238.39	139.38
238.624	116.38
238.858	142.38
239.091	108.38
239.325	132.38
239.559	116.38
239.793	132.38
240.027	128.38
240.26	147.38
240.494	140.38
240.728	159.38
240.961	142.38
241.195	150.38
241.429	134.38
241.662	125.38
241.896	131.38
242.13	135.38
242.363	143.38
242.597	141.38
242.83	146.38
243.064	139.38
243.298	142.38
243.531	136.38
243.765	147.38
243.998	146.38
244.232	151.38
244.465	140.38
244.699	134.38
244.932	155.38
245.166	155.38
245.399	142.38
245.633	127.38
245.866	126.38
246.099	150.38
246.333	151.38
246.566	163.38
246.8	169.38
247.033	150.38
247.266	160.38
247.5	157.38
247.733	162.38
247.966	159.38
248.2	164.38
248.433	178.38
248.666	163.38
248.899	170.38
249.133	194.38
249.366	214.38
249.599	204.38
249.832	183.38
250.066	178.38
250.299	171.38
250.532	192.38
250.765	198.38
250.998	207.38
251.231	196.38
251.465	195.38
251.698	202.38
251.931	186.38
252.164	186.38
252.397	195.38
252.63	191.38
252.863	186.38
253.096	210.38
253.329	216.38
253.562	217.38
253.795	222.38
254.028	204.38
254.261	211.38
254.494	214.38
254.727	240.38
254.96	255.38
255.193	246.38
255.426	230.38
255.659	229.38
255.892	221.38
256.124	223.38
256.357	213.38
256.59	212.38
256.823	197.38
257.056	214.38
257.289	180.38
257.521	214.38
257.754	208.38
257.987	209.38
258.22	216.38
258.452	202.38
258.685	208.38
258.918	195.38
259.151	197.38
259.383	218.38
259.616	215.38
259.849	213.38
260.081	221.38
260.314	228.38
260.547	243.38
260.779	232.38
261.012	228.38
261.244	208.38
261.477	224.38
261.71	215.38
261.942	217.38
262.175	219.38
262.407	234.38
262.64	212.38
262.872	219.38
263.105	216.38
263.337	227.38
263.57	216.38
263.802	208.38
264.035	222.38
264.267	214.38
264.499	206.38
264.732	227.38
264.964	208.38
265.197	207.38
265.429	210.38
265.661	199.38
265.894	206.38
266.126	214.38
266.358	216.38
266.591	220.38
266.823	216.38
267.055	223.38
267.287	210.38
267.52	217.38
267.752	213.38
267.984	225.38
268.216	226.38
268.448	224.38
268.681	245.38
268.913	240.38
269.145	249.38
269.377	268.38
269.609	273.38
269.841	260.38
270.073	264.38
270.306	276.38
270.538	286.38
270.77	298.38
271.002	286.38
271.234	281.38
271.466	269.38
271.698	285.38
271.93	315.38
272.162	297.38
272.394	310.38
272.626	295.38
272.858	286.38
273.09	270.38
273.322	279.38
273.553	251.38
273.785	252.38
274.017	258.38
274.249	251.38
274.481	266.38
274.713	287.38
274.945	267.38
275.176	263.38
275.408	263.38
275.64	259.38
275.872	260.38
276.104	264.38
276.335	267.38
276.567	254.38
276.799	276.38
277.031	291.38
277.262	296.38
277.494	303.38
277.726	296.38
277.957	278.38
278.189	266.38
278.421	269.38
278.652	259.38
278.884	271.38
279.115	271.38
279.347	268.38
279.579	250.38
279.81	255.38
280.042	256.38
280.273	249.38
280.505	282.38
280.736	254.38
280.968	265.38
281.199	262.38
281.431	258.38
281.662	260.38
281.894	279.38
282.125	267.38
282.356	299.38
282.588	309.38
282.819	302.38
283.051	277.38
283.282	264.38
283.513	275.38
283.745	269.38
283.976	270.38
284.207	283.38
284.439	271.38
284.67	295.38
284.901	289.38
285.132	267.38
285.364	271.38
285.595	269.38
285.826	272.38
286.057	270.38
286.288	282.38
286.52	280.38
286.751	288.38
286.982	274.38
287.213	281.38
287.444	266.38
287.675	273.38
287.906	270.38
288.138	310.38
288.369	300.38
288.6	303.38
288.831	293.38
289.062	291.38
289.293	295.38
289.524	290.38
289.755	263.38
289.986	312.38
290.217	281.38
290.448	294.38
290.679	282.38
290.91	294.38
291.141	286.38
291.371	285.38
291.602	279.38
291.833	279.38
292.064	293.38
292.295	286.38
292.526	279.38
292.757	288.38
292.987	298.38
293.218	296.38
293.449	286.38
293.68	280.38
293.91	280.38
294.141	292.38
294.372	298.38
294.603	283.38
294.833	284.38
295.064	291.38
295.295	291.38
295.525	273.38
295.756	297.38
295.987	303.38
296.217	332.38
296.448	338.38
296.679	318.38
296.909	295.38
297.14	293.38
297.37	297.38
297.601	299.38
297.831	296.38
298.062	299.38
298.292	326.38
298.523	316.38
298.753	331.38
298.984	301.38
299.214	301.38
299.445	302.38
299.675	315.38
299.905	325.38
300.136	300.38
300.366	302.38
300.597	308.38
300.827	310.38
301.057	316.38
301.288	343.38
301.518	329.38
301.748	313.38
301.979	336.38
302.209	325.38
302.439	324.38
302.669	341.38
302.9	320.38
303.13	324.38
303.36	337.38
303.59	325.38
303.82	343.38
304.051	319.38
304.281	341.38
304.511	348.38
304.741	317.38
304.971	329.38
305.201	333.38
305.431	325.38
305.661	329.38
305.891	327.38
306.121	337.38
306.352	326.38
306.582	320.38
306.812	328.38
307.042	331.38
307.272	351.38
307.502	344.38
307.731	332.38
307.961	332.38
308.191	343.38
308.421	318.38
308.651	320.38
308.881	341.38
309.111	345.38
309.341	326.38
309.571	347.38
309.8	352.38
310.03	364.38
310.26	378.38
310.49	388.38
310.72	380.38
310.949	392.38
311.179	399.38
311.409	343.38
311.639	378.38
311.868	382.38
312.098	364.38
312.328	371.38
312.557	382.38
312.787	400.38
313.017	408.38
313.246	386.38
313.476	372.38
313.706	367.38
313.935	386.38
314.165	390.38
314.394	399.38
314.624	384.38
314.853	386.38
315.083	379.38
315.312	366.38
315.542	355.38
315.771	362.38
316.001	372.38
316.23	370.38
316.46	361.38
316.689	399.38
316.919	373.38
317.148	386.38
317.377	391.38
317.607	380.38
317.836	392.38
318.065	385.38
318.295	383.38
318.524	378.38
318.753	373.38
318.983	380.38
319.212	375.38
319.441	391.38
319.67	373.38
319.9	373.38
320.129	387.38
320.358	396.38
320.587	395.38
320.816	400.38
321.046	414.38
321.275	401.38
321.504	409.38
321.733	396.38
321.962	422.38
322.191	416.38
322.42	436.38
322.649	434.38
322.878	449.38
323.108	455.38
323.337	478.38
323.566	498.38
323.795	548.38
324.024	577.38
324.253	706.38
324.482	934.38
324.71	1519.38
324.939	2340.38
325.168	2042.38
325.397	979.38
325.626	652.38
325.855	562.38
326.084	516.38
326.313	519.38
326.542	504.38
326.77	566.38
326.999	646.38
327.228	873.38
327.457	1354.38
327.686	1747.38
327.914	1143.38
328.143	729.38
328.372	616.38
328.6	573.38
328.829	536.38
329.058	558.38
329.287	582.38
329.515	553.38
329.744	529.38
329.972	496.38
330.201	514.38
330.43	548.38
330.658	590.38
330.887	582.38
331.115	584.38
331.344	520.38
331.572	494.38
331.801	476.38
332.03	478.38
332.258	486.38
332.486	449.38
332.715	442.38
332.943	466.38
333.172	463.38
333.4	472.38
333.629	458.38
333.857	510.38
334.085	516.38
334.314	509.38
334.542	524.38
334.771	540.38
334.999	515.38
335.227	464.38
335.455	491.38
335.684	458.38
335.912	450.38
336.14	470.38
336.369	450.38
336.597	478.38
336.825	492.38
337.053	460.38
337.281	464.38
337.51	450.38
337.738	440.38
337.966	455.38
338.194	455.38
338.422	463.38
338.65	465.38
338.878	438.38
339.106	421.38
339.334	450.38
339.562	442.38
339.79	425.38
340.018	440.38
340.246	465.38
340.474	446.38
340.702	460.38
340.93	438.38
341.158	418.38
341.386	450.38
341.614	434.38
341.842	459.38
342.07	405.38
342.298	436.38
342.526	455.38
342.754	430.38
342.981	450.38
343.209	426.38
343.437	463.38
343.665	444.38
343.893	445.38
344.12	462.38
344.348	442.38
344.576	445.38
344.804	482.38
345.031	463.38
345.259	445.38
345.487	448.38
345.714	453.38
345.942	453.38
346.17	451.38
346.397	423.38
346.625	428.38
346.853	432.38
347.08	435.38
347.308	434.38
347.535	435.38
347.763	446.38
347.99	444.38
348.218	447.38
348.445	434.38
348.673	460.38
348.9	441.38
349.128	435.38
349.355	427.38
349.583	414.38
349.81	415.38
350.037	419.38
350.265	415.38
350.492	405.38
350.72	403.38
350.947	432.38
351.174	428.38
351.402	438.38
351.629	427.38
351.856	454.38
352.083	438.38
352.311	433.38
352.538	439.38
352.765	421.38
352.992	416.38
353.22	416.38
353.447	424.38
353.674	415.38
353.901	404.38
354.128	419.38
354.355	417.38
354.583	414.38
354.81	407.38
355.037	425.38
355.264	424.38
355.491	401.38
355.718	392.38
355.945	398.38
356.172	404.38
356.399	414.38
356.626	396.38
356.853	408.38
357.08	399.38
357.307	412.38
357.534	406.38
357.761	413.38
357.988	387.38
358.215	394.38
358.441	396.38
358.668	402.38
358.895	406.38
359.122	425.38
359.349	442.38
359.576	445.38
359.802	459.38
360.029	474.38
360.256	468.38
360.483	440.38
360.709	429.38
360.936	416.38
361.163	443.38
361.39	450.38
361.616	426.38
361.843	395.38
362.07	429.38
362.296	434.38
362.523	420.38
362.749	442.38
362.976	415.38
363.203	420.38
363.429	410.38
363.656	426.38
363.882	409.38
364.109	402.38
364.335	430.38
364.562	425.38
364.788	438.38
365.015	420.38
365.241	425.38
365.468	422.38
365.694	428.38
365.92	418.38
366.147	400.38
366.373	423.38
366.599	408.38
366.826	418.38
367.052	416.38
367.278	427.38
367.505	421.38
367.731	424.38
367.957	409.38
368.184	425.38
368.41	409.38
368.636	438.38
368.862	419.38
369.089	429.38
369.315	413.38
369.541	435.38
369.767	407.38
369.993	417.38
370.219	400.38
370.445	426.38
370.672	412.38
370.898	423.38
371.124	428.38
371.35	421.38
371.576	435.38
371.802	438.38
372.028	406.38
372.254	418.38
372.48	406.38
372.706	417.38
372.932	432.38
373.158	425.38
373.384	431.38
373.61	431.38
373.835	431.38
374.061	434.38
374.287	429.38
374.513	430.38
374.739	421.38
374.965	463.38
375.191	417.38
375.416	420.38
375.642	427.38
375.868	438.38
376.094	431.38
376.319	415.38
376.545	414.38
376.771	446.38
376.997	412.38
377.222	425.38
377.448	422.38
377.674	422.38
377.899	415.38
378.125	440.38
378.35	421.38
378.576	407.38
378.802	422.38
379.027	423.38
379.253	420.38
379.478	410.38
379.704	449.38
379.929	424.38
380.155	416.38
380.38	416.38
380.606	439.38
380.831	431.38
381.057	426.38
381.282	452.38
381.507	434.38
381.733	422.38
381.958	427.38
382.184	425.38
382.409	432.38
382.634	438.38
382.86	426.38
383.085	453.38
383.31	440.38
383.535	439.38
383.761	434.38
383.986	460.38
384.211	454.38
384.436	461.38
384.662	462.38
384.887	462.38
385.112	465.38
385.337	449.38
385.562	452.38
385.787	460.38
386.013	470.38
386.238	486.38
386.463	462.38
386.688	467.38
386.913	480.38
387.138	480.38
387.363	460.38
387.588	467.38
387.813	453.38
388.038	471.38
388.263	478.38
388.488	470.38
388.713	485.38
388.938	493.38
389.163	471.38
389.387	477.38
389.612	474.38
389.837	483.38
390.062	482.38
390.287	469.38
390.512	457.38
390.736	468.38
390.961	478.38
391.186	464.38
391.411	492.38
391.636	494.38
391.86	478.38
392.085	505.38
392.31	502.38
392.534	482.38
392.759	489.38
392.984	485.38
393.208	479.38
393.433	484.38
393.658	463.38
393.882	486.38
394.107	477.38
394.331	489.38
394.556	467.38
394.78	487.38
395.005	504.38
395.229	492.38
395.454	492.38
395.678	517.38
395.903	514.38
396.127	523.38
396.352	531.38
396.576	504.38
396.801	488.38
397.025	519.38
397.249	522.38
397.474	533.38
397.698	521.38
397.922	532.38
398.147	562.38
398.371	551.38
398.595	551.38
398.82	550.38
399.044	554.38
399.268	580.38
399.492	618.38
399.717	649.38
399.941	638.38
400.165	698.38
400.389	715.38
400.613	642.38
400.837	586.38
401.062	591.38
401.286	570.38
401.51	557.38
401.734	562.38
401.958	572.38
402.182	538.38
402.406	572.38
402.63	593.38
402.854	598.38
403.078	565.38
403.302	564.38
403.526	603.38
403.75	595.38
403.974	575.38
404.198	586.38
404.422	579.38
404.645	564.38
404.869	592.38
405.093	618.38
405.317	649.38
405.541	704.38
405.765	651.38
405.988	607.38
406.212	618.38
406.436	625.38
406.66	632.38
406.883	630.38
407.107	627.38
407.331	688.38
407.555	780.38
407.778	763.38
408.002	684.38
408.226	645.38
408.449	623.38
408.673	659.38
408.896	680.38
409.12	699.38
409.344	688.38
409.567	615.38
409.791	600.38
410.014	602.38
410.238	613.38
410.461	604.38
410.685	623.38
410.908	605.38
411.132	645.38
411.355	676.38
411.578	666.38
411.802	596.38
412.025	572.38
412.249	604.38
412.472	616.38
412.695	623.38
412.919	656.38
413.142	606.38
413.365	581.38
413.589	570.38
413.812	570.38
414.035	564.38
414.258	553.38
414.482	548.38
414.705	570.38
414.928	549.38
415.151	563.38
415.374	535.38
415.597	554.38
415.821	564.38
416.044	568.38
416.267	544.38
416.49	550.38
416.713	540.38
416.936	547.38
417.159	546.38
417.382	540.38
417.605	540.38
417.828	569.38
418.051	574.38
418.274	545.38
418.497	538.38
418.72	552.38
418.943	556.38
419.166	564.38
419.389	591.38
419.611	588.38
419.834	584.38
420.057	592.38
420.28	560.38
420.503	574.38
420.726	578.38
420.948	560.38
421.171	619.38
421.394	663.38
421.617	593.38
421.839	574.38
422.062	590.38
422.285	590.38
422.507	638.38
422.73	718.38
422.953	706.38
423.175	631.38
423.398	590.38
423.621	596.38
423.843	608.38
424.066	615.38
424.288	630.38
424.511	632.38
424.733	657.38
424.956	793.38
425.178	744.38
425.401	735.38
425.623	741.38
425.846	640.38
426.068	631.38
426.291	611.38
426.513	590.38
426.735	614.38
426.958	662.38
427.18	732.38
427.402	880.38
427.625	994.38
427.847	870.38
428.069	735.38
428.292	652.38
428.514	606.38
428.736	597.38
428.958	611.38
429.181	574.38
429.403	566.38
429.625	582.38
429.847	613.38
430.069	665.38
430.292	683.38
430.514	589.38
430.736	572.38
430.958	559.38
431.18	558.38
431.402	561.38
431.624	538.38
431.846	542.38
432.068	530.38
432.29	524.38
432.512	541.38
432.734	534.38
432.956	539.38
433.178	540.38
433.4	557.38
433.622	565.38
433.844	528.38
434.066	526.38
434.287	529.38
434.509	574.38
434.731	565.38
434.953	574.38
435.175	592.38
435.397	594.38
435.618	613.38
435.84	678.38
436.062	761.38
436.284	839.38
436.505	694.38
436.727	648.38
436.949	605.38
437.17	586.38
437.392	559.38
437.614	572.38
437.835	629.38
438.057	696.38
438.278	830.38
438.5	823.38
438.721	926.38
438.943	885.38
439.165	670.38
439.386	632.38
439.608	613.38
439.829	610.38
440.05	660.38
440.272	675.38
440.493	641.38
440.715	613.38
440.936	581.38
441.158	583.38
441.379	557.38
441.6	578.38
441.822	604.38
442.043	640.38
442.264	754.38
442.486	811.38
442.707	672.38
442.928	621.38
443.149	647.38
443.371	655.38
443.592	705.38
443.813	826.38
444.034	886.38
444.255	708.38
444.476	625.38
444.698	620.38
444.919	618.38
445.14	736.38
445.361	670.38
445.582	651.38
445.803	704.38
446.024	878.38
446.245	876.38
446.466	775.38
446.687	657.38
446.908	629.38
447.129	593.38
447.35	556.38
447.571	575.38
447.792	546.38
448.013	582.38
448.234	573.38
448.455	641.38
448.675	783.38
448.896	920.38
449.117	754.38
449.338	721.38
449.559	835.38
449.779	956.38
450	757.38
450.221	609.38
450.442	559.38
450.662	563.38
450.883	554.38
451.104	569.38
451.324	581.38
451.545	546.38
451.766	526.38
451.986	506.38
452.207	506.38
452.428	528.38
452.648	506.38
452.869	495.38
453.089	521.38
453.31	526.38
453.53	523.38
453.751	536.38
453.971	516.38
454.192	536.38
454.412	491.38
454.633	506.38
454.853	520.38
455.073	508.38
455.294	550.38
455.514	603.38
455.734	600.38
455.955	494.38
456.175	482.38
456.395	504.38
456.616	502.38
456.836	499.38
457.056	481.38
457.276	465.38
457.497	487.38
457.717	501.38
457.937	495.38
458.157	498.38
458.377	511.38
458.598	547.38
458.818	567.38
459.038	656.38
459.258	664.38
459.478	592.38
459.698	582.38
459.918	538.38
460.138	567.38
460.358	542.38
460.578	552.38
460.798	565.38
461.018	562.38
461.238	570.38
461.458	556.38
461.678	578.38
461.898	554.38
462.118	561.38
462.338	580.38
462.558	584.38
462.777	579.38
462.997	605.38
463.217	614.38
463.437	606.38
463.657	608.38
463.876	608.38
464.096	607.38
464.316	590.38
464.536	600.38
464.755	607.38
464.975	614.38
465.195	639.38
465.414	690.38
465.634	637.38
465.854	605.38
466.073	570.38
466.293	545.38
466.512	517.38
466.732	530.38
466.951	523.38
467.171	512.38
467.391	544.38
467.61	549.38
467.829	546.38
468.049	547.38
468.268	546.38
468.488	524.38
468.707	503.38
468.927	520.38
469.146	516.38
469.365	519.38
469.585	534.38
469.804	519.38
470.023	527.38
470.243	542.38
470.462	546.38
470.681	557.38
470.901	541.38
471.12	541.38
471.339	525.38
471.558	541.38
471.777	539.38
471.997	540.38
472.216	555.38
472.435	556.38
472.654	530.38
472.873	530.38
473.092	555.38
473.311	524.38
473.53	552.38
473.749	568.38
473.968	549.38
474.187	667.38
474.406	726.38
474.625	607.38
474.844	526.38
475.063	534.38
475.282	534.38
475.501	543.38
475.72	534.38
475.939	519.38
476.158	526.38
476.377	547.38
476.596	537.38
476.814	556.38
477.033	566.38
477.252	562.38
477.471	582.38
477.69	576.38
477.908	564.38
478.127	574.38
478.346	590.38
478.564	615.38
478.783	592.38
479.002	602.38
479.22	598.38
479.439	632.38
479.658	638.38
479.876	641.38
480.095	666.38
480.313	684.38
480.532	657.38
480.751	649.38
480.969	669.38
481.188	684.38
481.406	725.38
481.624	676.38
481.843	638.38
482.061	617.38
482.28	646.38
482.498	612.38
482.717	638.38
482.935	621.38
483.153	609.38
483.372	640.38
483.59	622.38
483.808	622.38
484.027	617.38
484.245	630.38
484.463	614.38
484.681	629.38
484.9	629.38
485.118	627.38
485.336	640.38
485.554	641.38
485.772	622.38
485.99	633.38
486.209	671.38
486.427	636.38
486.645	666.38
486.863	667.38
487.081	665.38
487.299	662.38
487.517	670.38
487.735	692.38
487.953	660.38
488.171	677.38
488.389	651.38
488.607	667.38
488.825	676.38
489.043	653.38
489.261	676.38
489.479	680.38
489.696	661.38
489.914	662.38
490.132	685.38
490.35	682.38
490.568	689.38
490.786	670.38
491.003	705.38
491.221	707.38
491.439	726.38
491.657	744.38
491.874	723.38
492.092	761.38
492.31	742.38
492.527	766.38
492.745	736.38
492.963	758.38
493.18	735.38
493.398	742.38
493.615	778.38
493.833	759.38
494.05	774.38
494.268	760.38
494.485	732.38
494.703	797.38
494.92	783.38
495.138	785.38
495.355	766.38
495.573	789.38
495.79	806.38
496.008	766.38
496.225	785.38
496.442	775.38
496.66	780.38
496.877	796.38
497.094	785.38
497.312	804.38
497.529	812.38
497.746	806.38
497.963	836.38
498.181	867.38
498.398	859.38
498.615	885.38
498.832	882.38
499.049	908.38
499.267	947.38
499.484	957.38
499.701	1007.38
499.918	1029.38
500.135	1070.38
500.352	1105.38
500.569	1131.38
500.786	1158.38
501.003	1128.38
501.22	1125.38
501.437	1062.38
501.654	1071.38
501.871	1038.38
502.088	1006.38
502.305	942.38
502.522	893.38
502.739	906.38
502.956	860.38
503.172	847.38
503.389	832.38
503.606	824.38
503.823	808.38
504.04	839.38
504.256	797.38
504.473	809.38
504.69	821.38
504.907	814.38
505.123	813.38
505.34	754.38
505.557	733.38
505.773	768.38
505.99	758.38
506.207	734.38
506.423	720.38
506.64	743.38
506.856	723.38
507.073	735.38
507.289	731.38
507.506	735.38
507.722	748.38
507.939	755.38
508.155	710.38
508.372	712.38
508.588	685.38
508.805	666.38
509.021	691.38
509.238	732.38
509.454	714.38
509.67	698.38
509.887	679.38
510.103	690.38
510.319	715.38
510.536	779.38
510.752	1192.38
510.968	1052.38
511.184	707.38
511.401	707.38
511.617	707.38
511.833	687.38
512.049	687.38
512.265	653.38
512.481	657.38
512.698	655.38
512.914	666.38
513.13	666.38
513.346	637.38
513.562	671.38
513.778	679.38
513.994	671.38
514.21	670.38
514.426	700.38
514.642	758.38
514.858	774.38
515.074	783.38
515.29	909.38
515.506	1244.38
515.721	1079.38
515.937	792.38
516.153	738.38
516.369	729.38
516.585	707.38
516.801	703.38
517.016	721.38
517.232	719.38
517.448	728.38
517.664	709.38
517.879	694.38
518.095	699.38
518.311	702.38
518.527	689.38
518.742	700.38
518.958	713.38
519.173	666.38
519.389	685.38
519.605	663.38
519.82	686.38
520.036	663.38
520.251	681.38
520.467	700.38
520.682	704.38
520.898	739.38
521.113	747.38
521.329	781.38
521.544	841.38
521.76	999.38
521.975	1566.38
522.19	1563.38
522.406	886.38
522.621	720.38
522.836	664.38
523.052	674.38
523.267	648.38
523.482	651.38
523.698	620.38
523.913	611.38
524.128	619.38
524.343	602.38
524.559	586.38
524.774	624.38
524.989	608.38
525.204	612.38
525.419	604.38
525.634	570.38
525.849	578.38
526.064	596.38
526.28	573.38
526.495	583.38
526.71	562.38
526.925	565.38
527.14	554.38
527.355	568.38
527.57	566.38
527.785	560.38
527.999	549.38
528.214	570.38
528.429	582.38
528.644	558.38
528.859	562.38
529.074	559.38
529.289	560.38
529.503	661.38
529.718	631.38
529.933	592.38
530.148	564.38
530.363	557.38
530.577	568.38
530.792	584.38
531.007	565.38
531.221	568.38
531.436	557.38
531.651	538.38
531.865	568.38
532.08	543.38
532.295	562.38
532.509	534.38
532.724	521.38
532.938	514.38
533.153	523.38
533.367	542.38
533.582	527.38
533.796	558.38
534.011	563.38
534.225	517.38
534.44	528.38
534.654	532.38
534.868	547.38
535.083	543.38
535.297	538.38
535.511	529.38
535.726	548.38
535.94	556.38
536.154	541.38
536.369	534.38
536.583	521.38
536.797	520.38
537.011	504.38
537.225	536.38
537.44	517.38
537.654	517.38
537.868	522.38
538.082	514.38
538.296	519.38
538.51	525.38
538.724	514.38
538.938	504.38
539.153	497.38
539.367	526.38
539.581	538.38
539.795	499.38
540.009	503.38
540.222	512.38
540.436	519.38
540.65	506.38
540.864	520.38
541.078	500.38
541.292	517.38
541.506	504.38
541.72	506.38
541.934	494.38
542.147	509.38
542.361	514.38
542.575	485.38
542.789	506.38
543.002	514.38
543.216	509.38
543.43	533.38
543.644	502.38
543.857	483.38
544.071	527.38
544.285	537.38
544.498	518.38
544.712	498.38
544.925	499.38
545.139	511.38
545.352	490.38
545.566	482.38
545.779	513.38
545.993	476.38
546.206	490.38
546.42	492.38
546.633	494.38
546.847	517.38
547.06	491.38
547.274	495.38
547.487	484.38
547.7	493.38
547.914	483.38
548.127	489.38
548.34	486.38
548.554	489.38
548.767	489.38
548.98	487.38
549.193	500.38
549.407	480.38
549.62	478.38
549.833	495.38
550.046	491.38
550.259	486.38
550.473	476.38
550.686	485.38
550.899	502.38
551.112	487.38
551.325	482.38
551.538	503.38
551.751	483.38
551.964	462.38
552.177	476.38
552.39	508.38
552.603	514.38
552.816	527.38
553.029	518.38
553.242	500.38
553.455	491.38
553.667	511.38
553.88	493.38
554.093	511.38
554.306	490.38
554.519	481.38
554.732	489.38
554.944	492.38
555.157	482.38
555.37	472.38
555.583	460.38
555.795	456.38
556.008	455.38
556.221	438.38
556.433	454.38
556.646	450.38
556.859	428.38
557.071	445.38
557.284	452.38
557.496	434.38
557.709	425.38
557.921	456.38
558.134	442.38
558.346	438.38
558.559	426.38
558.771	444.38
558.984	446.38
559.196	461.38
559.409	443.38
559.621	442.38
559.833	442.38
560.046	428.38
560.258	418.38
560.47	422.38
560.683	440.38
560.895	445.38
561.107	441.38
561.32	433.38
561.532	417.38
561.744	442.38
561.956	439.38
562.168	453.38
562.381	454.38
562.593	441.38
562.805	449.38
563.017	459.38
563.229	448.38
563.441	451.38
563.653	453.38
563.865	448.38
564.077	428.38
564.289	448.38
564.501	461.38
564.713	462.38
564.925	479.38
565.137	472.38
565.349	494.38
565.561	501.38
565.773	492.38
565.985	501.38
566.197	497.38
566.408	539.38
566.62	529.38
566.832	539.38
567.044	550.38
567.255	558.38
567.467	544.38
567.679	566.38
567.891	577.38
568.102	604.38
568.314	544.38
568.526	526.38
568.737	513.38
568.949	496.38
569.161	476.38
569.372	481.38
569.584	447.38
569.795	454.38
570.007	470.38
570.218	464.38
570.43	492.38
570.641	441.38
570.853	446.38
571.064	451.38
571.276	443.38
571.487	420.38
571.698	423.38
571.91	417.38
572.121	412.38
572.333	429.38
572.544	407.38
572.755	404.38
572.966	393.38
573.178	376.38
573.389	393.38
573.6	386.38
573.811	389.38
574.023	384.38
574.234	392.38
574.445	394.38
574.656	403.38
574.867	383.38
575.078	387.38
575.289	377.38
575.501	371.38
575.712	379.38
575.923	381.38
576.134	381.38
576.345	371.38
576.556	400.38
576.767	367.38
576.978	378.38
577.188	374.38
577.399	377.38
577.61	361.38
577.821	361.38
578.032	381.38
578.243	396.38
578.454	587.38
578.665	464.38
578.875	383.38
579.086	368.38
579.297	356.38
579.508	379.38
579.718	362.38
579.929	352.38
580.14	360.38
580.35	364.38
580.561	350.38
580.772	326.38
580.982	343.38
581.193	363.38
581.403	370.38
581.614	342.38
581.825	333.38
582.035	344.38
582.246	349.38
582.456	337.38
582.667	328.38
582.877	343.38
583.087	338.38
583.298	338.38
583.508	341.38
583.719	341.38
583.929	350.38
584.139	328.38
584.35	351.38
584.56	366.38
584.77	337.38
584.981	334.38
585.191	334.38
585.401	342.38
585.611	318.38
585.821	346.38
586.032	341.38
586.242	344.38
586.452	360.38
586.662	353.38
586.872	329.38
587.082	335.38
587.292	327.38
587.502	338.38
587.713	326.38
587.923	355.38
588.133	344.38
588.343	359.38
588.553	335.38
588.762	339.38
588.972	343.38
589.182	321.38
589.392	325.38
589.602	329.38
589.812	306.38
590.022	326.38
590.232	336.38
590.441	334.38
590.651	333.38
590.861	347.38
591.071	326.38
591.281	346.38
591.49	349.38
591.7	324.38
591.91	346.38
592.119	357.38
592.329	352.38
592.539	346.38
592.748	365.38
592.958	357.38
593.167	363.38
593.377	375.38
593.587	359.38
593.796	361.38
594.006	341.38
594.215	364.38
594.424	358.38
594.634	351.38
594.843	334.38
595.053	345.38
595.262	321.38
595.472	333.38
595.681	332.38
595.89	341.38
596.1	323.38
596.309	297.38
596.518	309.38
596.727	331.38
596.937	327.38
597.146	322.38
597.355	315.38
597.564	301.38
597.774	289.38
597.983	313.38
598.192	304.38
598.401	298.38
598.61	311.38
598.819	280.38
599.028	299.38
599.237	291.38
599.446	298.38
599.655	305.38
599.864	286.38
600.073	298.38
600.282	322.38
600.491	279.38
600.7	285.38
600.909	278.38
601.118	285.38
601.327	281.38
601.536	294.38
601.745	283.38
601.953	297.38
602.162	293.38
602.371	295.38
602.58	284.38
602.789	281.38
602.997	279.38
603.206	264.38
603.415	282.38
603.623	284.38
603.832	286.38
604.041	278.38
604.249	285.38
604.458	273.38
604.666	283.38
604.875	280.38
605.084	274.38
605.292	276.38
605.501	267.38
605.709	265.38
605.918	273.38
606.126	274.38
606.334	279.38
606.543	282.38
606.751	279.38
606.96	255.38
607.168	291.38
607.376	272.38
607.585	289.38
607.793	272.38
608.001	278.38
608.21	276.38
608.418	260.38
608.626	275.38
608.834	260.38
609.043	272.38
609.251	253.38
609.459	255.38
609.667	269.38
609.875	267.38
610.083	263.38
610.291	266.38
610.499	272.38
610.707	266.38
610.916	257.38
611.124	271.38
611.332	270.38
611.54	256.38
611.748	269.38
611.955	264.38
612.163	268.38
612.371	255.38
612.579	266.38
612.787	256.38
612.995	268.38
613.203	270.38
613.411	271.38
613.618	279.38
613.826	264.38
614.034	277.38
614.242	262.38
614.449	248.38
614.657	247.38
614.865	251.38
615.072	278.38
615.28	264.38
615.488	260.38
615.695	250.38
615.903	278.38
616.111	248.38
616.318	247.38
616.526	256.38
616.733	272.38
616.941	277.38
617.148	244.38
617.356	265.38
617.563	262.38
617.771	260.38
617.978	268.38
618.185	246.38
618.393	269.38
618.6	260.38
618.807	255.38
619.015	253.38
619.222	254.38
619.429	266.38
619.637	236.38
619.844	259.38
620.051	262.38
620.258	250.38
620.466	248.38
620.673	216.38
620.88	247.38
621.087	242.38
621.294	235.38
621.501	232.38
621.708	227.38
621.915	247.38
622.122	245.38
622.329	255.38
622.536	240.38
622.743	216.38
622.95	259.38
623.157	244.38
623.364	240.38
623.571	221.38
623.778	261.38
623.985	240.38
624.192	252.38
624.399	223.38
624.606	222.38
624.812	235.38
625.019	228.38
625.226	231.38
625.433	253.38
625.639	247.38
625.846	240.38
626.053	246.38
626.259	220.38
626.466	215.38
626.673	246.38
626.879	231.38
627.086	226.38
627.293	222.38
627.499	234.38
627.706	220.38
627.912	219.38
628.119	220.38
628.325	230.38
628.532	227.38
628.738	223.38
628.945	218.38
629.151	207.38
629.357	210.38
629.564	211.38
629.77	198.38
629.976	196.38
630.183	223.38
630.389	216.38
630.595	214.38
630.802	204.38
631.008	214.38
631.214	212.38
631.42	228.38
631.627	209.38
631.833	205.38
632.039	212.38
632.245	203.38
632.451	204.38
632.657	216.38
632.863	192.38
633.069	208.38
633.275	220.38
633.481	212.38
633.688	208.38
633.893	209.38
634.099	201.38
634.305	198.38
634.511	216.38
634.717	187.38
634.923	187.38
635.129	198.38
635.335	200.38
635.541	211.38
635.747	191.38
635.952	210.38
636.158	200.38
636.364	218.38
636.57	186.38
636.775	195.38
636.981	199.38
637.187	197.38
637.392	196.38
637.598	190.38
637.804	203.38
638.009	203.38
638.215	200.38
638.421	195.38
638.626	208.38
638.832	195.38
639.037	182.38
639.243	193.38
639.448	185.38
639.654	188.38
639.859	188.38
640.065	202.38
640.27	199.38
640.475	187.38
640.681	170.38
640.886	189.38
641.091	175.38
641.297	188.38
641.502	194.38
641.707	204.38
641.913	198.38
642.118	190.38
642.323	182.38
642.528	190.38
642.733	184.38
642.939	191.38
643.144	183.38
643.349	188.38
643.554	191.38
643.759	175.38
643.964	196.38
644.169	197.38
644.374	183.38
644.579	179.38
644.784	187.38
644.989	184.38
645.194	183.38
645.399	167.38
645.604	171.38
645.809	183.38
646.014	192.38
646.219	197.38
646.423	171.38
646.628	162.38
646.833	192.38
647.038	180.38
647.243	180.38
647.447	172.38
647.652	180.38
647.857	182.38
648.062	180.38
648.266	186.38
648.471	194.38
648.676	188.38
648.88	194.38
649.085	187.38
649.289	196.38
649.494	184.38
649.698	196.38
649.903	184.38
650.107	179.38
650.312	180.38
650.516	189.38
650.721	163.38
650.925	168.38
651.13	174.38
651.334	168.38
651.539	166.38
651.743	153.38
651.947	167.38
652.152	177.38
652.356	164.38
652.56	175.38
652.764	160.38
652.969	147.38
653.173	148.38
653.377	136.38
653.581	152.38
653.785	152.38
653.99	142.38
654.194	156.38
654.398	149.38
654.602	143.38
654.806	136.38
655.01	156.38
655.214	143.38
655.418	139.38
655.622	137.38
655.826	153.38
656.03	127.38
656.234	139.38
656.438	159.38
656.642	147.38
656.846	146.38
657.049	141.38
657.253	137.38
657.457	137.38
657.661	126.38
657.865	127.38
658.068	126.38
658.272	126.38
658.476	126.38
658.68	108.38
658.883	114.38
659.087	108.38
659.291	102.38
659.494	102.38
659.698	109.38
659.901	114.38
660.105	108.38
660.309	99.38
660.512	105.38
660.716	95.38
660.919	87.38
661.123	92.38
661.326	90.38
661.53	100.38
661.733	105.38
661.936	94.38
662.14	101.38
662.343	95.38
662.546	89.38
662.75	98.38
662.953	88.38
663.156	83.38
663.36	95.38
663.563	85.38
663.766	76.38
663.969	71.38
664.173	74.38
664.376	74.38
664.579	88.38
664.782	85.38
664.985	94.38
665.188	74.38
665.391	76.38
665.594	80.38
665.797	75.38
666	91.38
666.203	86.38
666.406	83.38
666.609	94.38
666.812	84.38
667.015	77.38
667.218	77.38
667.421	88.38
667.624	79.38
667.827	104.38
668.03	95.38
668.232	83.38
668.435	86.38
668.638	85.38
668.841	96.38
669.043	84.38
669.246	84.38
669.449	79.38
669.651	76.38
669.854	76.38
670.057	79.38
670.259	91.38
670.462	82.38
670.665	91.38
670.867	87.38
671.07	80.38
671.272	88.38
671.475	87.38
671.677	77.38
671.88	71.38
672.082	86.38
672.284	88.38
672.487	92.38
672.689	80.38
672.892	70.38
