Data from 1978.PennyLincolnUp.Lamp.En5.5.200Scan.071719.P1_HRD10591_16-13-00-864.txt Node
Date: Thu Jul 18 16:13:00 EDT 2019
User: cochatt
Spectrometer: HR+D1059
Trigger mode: 1
Integration Time (sec): 1.000000E-1
Scans to average: 1
Electric dark correction enabled: true
Nonlinearity correction enabled: false
Boxcar width: 0
XAxis mode: Wavelengths
Number of Pixels in Spectrum: 2048
>>>>>Begin Spectral Data<<<<<
223.165	-1.12
223.4	-1.12
223.635	-1.12
223.869	-10.12
224.104	-33.12
224.338	-17.12
224.573	-18.12
224.808	-17.12
225.042	0.88
225.277	-5.12
225.511	5.88
225.746	-3.12
225.98	4.88
226.215	11.88
226.449	12.88
226.683	17.88
226.918	34.88
227.152	15.88
227.387	45.88
227.621	44.88
227.856	49.88
228.09	38.88
228.324	55.88
228.559	69.88
228.793	73.88
229.027	106.88
229.262	99.88
229.496	93.88
229.73	121.88
229.964	142.88
230.199	124.88
230.433	105.88
230.667	81.88
230.901	118.88
231.136	98.88
231.37	100.88
231.604	110.88
231.838	109.88
232.072	106.88
232.306	118.88
232.541	113.88
232.775	114.88
233.009	122.88
233.243	115.88
233.477	112.88
233.711	108.88
233.945	112.88
234.179	132.88
234.413	118.88
234.647	123.88
234.881	113.88
235.115	109.88
235.349	120.88
235.583	109.88
235.817	101.88
236.051	114.88
236.285	103.88
236.519	115.88
236.753	114.88
236.987	147.88
237.221	156.88
237.455	227.88
237.689	170.88
237.922	141.88
238.156	122.88
238.39	131.88
238.624	115.88
238.858	118.88
239.091	108.88
239.325	121.88
239.559	125.88
239.793	127.88
240.027	143.88
240.26	137.88
240.494	154.88
240.728	129.88
240.961	134.88
241.195	136.88
241.429	126.88
241.662	135.88
241.896	130.88
242.13	130.88
242.363	139.88
242.597	126.88
242.83	138.88
243.064	135.88
243.298	134.88
243.531	143.88
243.765	141.88
243.998	134.88
244.232	121.88
244.465	151.88
244.699	125.88
244.932	136.88
245.166	137.88
245.399	142.88
245.633	152.88
245.866	143.88
246.099	143.88
246.333	132.88
246.566	149.88
246.8	143.88
247.033	142.88
247.266	147.88
247.5	142.88
247.733	171.88
247.966	146.88
248.2	159.88
248.433	181.88
248.666	165.88
248.899	158.88
249.133	183.88
249.366	189.88
249.599	175.88
249.832	174.88
250.066	171.88
250.299	171.88
250.532	169.88
250.765	173.88
250.998	205.88
251.231	206.88
251.465	189.88
251.698	179.88
251.931	195.88
252.164	177.88
252.397	170.88
252.63	172.88
252.863	182.88
253.096	214.88
253.329	208.88
253.562	193.88
253.795	192.88
254.028	176.88
254.261	191.88
254.494	207.88
254.727	228.88
254.96	245.88
255.193	232.88
255.426	225.88
255.659	202.88
255.892	207.88
256.124	196.88
256.357	201.88
256.59	197.88
256.823	196.88
257.056	181.88
257.289	187.88
257.521	200.88
257.754	207.88
257.987	189.88
258.22	196.88
258.452	206.88
258.685	194.88
258.918	194.88
259.151	195.88
259.383	204.88
259.616	204.88
259.849	209.88
260.081	217.88
260.314	234.88
260.547	242.88
260.779	221.88
261.012	224.88
261.244	205.88
261.477	205.88
261.71	189.88
261.942	211.88
262.175	213.88
262.407	213.88
262.64	214.88
262.872	196.88
263.105	215.88
263.337	201.88
263.57	200.88
263.802	206.88
264.035	207.88
264.267	196.88
264.499	210.88
264.732	197.88
264.964	208.88
265.197	234.88
265.429	182.88
265.661	203.88
265.894	195.88
266.126	194.88
266.358	188.88
266.591	210.88
266.823	212.88
267.055	227.88
267.287	224.88
267.52	202.88
267.752	193.88
267.984	226.88
268.216	217.88
268.448	224.88
268.681	213.88
268.913	233.88
269.145	226.88
269.377	240.88
269.609	221.88
269.841	243.88
270.073	233.88
270.306	255.88
270.538	258.88
270.77	293.88
271.002	282.88
271.234	266.88
271.466	286.88
271.698	284.88
271.93	274.88
272.162	275.88
272.394	289.88
272.626	271.88
272.858	254.88
273.09	246.88
273.322	260.88
273.553	251.88
273.785	259.88
274.017	255.88
274.249	235.88
274.481	259.88
274.713	237.88
274.945	251.88
275.176	237.88
275.408	265.88
275.64	230.88
275.872	239.88
276.104	248.88
276.335	235.88
276.567	263.88
276.799	280.88
277.031	291.88
277.262	271.88
277.494	284.88
277.726	272.88
277.957	268.88
278.189	267.88
278.421	246.88
278.652	261.88
278.884	256.88
279.115	261.88
279.347	243.88
279.579	233.88
279.81	251.88
280.042	257.88
280.273	248.88
280.505	271.88
280.736	268.88
280.968	243.88
281.199	236.88
281.431	257.88
281.662	241.88
281.894	266.88
282.125	267.88
282.356	274.88
282.588	299.88
282.819	297.88
283.051	266.88
283.282	280.88
283.513	263.88
283.745	266.88
283.976	269.88
284.207	255.88
284.439	269.88
284.67	267.88
284.901	268.88
285.132	253.88
285.364	266.88
285.595	259.88
285.826	275.88
286.057	282.88
286.288	276.88
286.52	260.88
286.751	263.88
286.982	254.88
287.213	269.88
287.444	281.88
287.675	271.88
287.906	278.88
288.138	297.88
288.369	295.88
288.6	289.88
288.831	275.88
289.062	276.88
289.293	282.88
289.524	254.88
289.755	262.88
289.986	270.88
290.217	291.88
290.448	274.88
290.679	278.88
290.91	259.88
291.141	259.88
291.371	277.88
291.602	272.88
291.833	282.88
292.064	279.88
292.295	275.88
292.526	268.88
292.757	278.88
292.987	269.88
293.218	267.88
293.449	266.88
293.68	289.88
293.91	282.88
294.141	284.88
294.372	286.88
294.603	275.88
294.833	275.88
295.064	279.88
295.295	279.88
295.525	259.88
295.756	288.88
295.987	291.88
296.217	303.88
296.448	315.88
296.679	289.88
296.909	271.88
297.14	295.88
297.37	289.88
297.601	269.88
297.831	297.88
298.062	284.88
298.292	288.88
298.523	287.88
298.753	302.88
298.984	293.88
299.214	296.88
299.445	282.88
299.675	303.88
299.905	301.88
300.136	299.88
300.366	305.88
300.597	290.88
300.827	300.88
301.057	312.88
301.288	307.88
301.518	300.88
301.748	317.88
301.979	307.88
302.209	309.88
302.439	306.88
302.669	301.88
302.9	300.88
303.13	296.88
303.36	306.88
303.59	312.88
303.82	312.88
304.051	298.88
304.281	288.88
304.511	306.88
304.741	301.88
304.971	316.88
305.201	317.88
305.431	315.88
305.661	319.88
305.891	318.88
306.121	308.88
306.352	317.88
306.582	317.88
306.812	338.88
307.042	322.88
307.272	318.88
307.502	321.88
307.731	330.88
307.961	334.88
308.191	327.88
308.421	320.88
308.651	322.88
308.881	326.88
309.111	327.88
309.341	316.88
309.571	305.88
309.8	325.88
310.03	352.88
310.26	339.88
310.49	344.88
310.72	351.88
310.949	360.88
311.179	385.88
311.409	334.88
311.639	346.88
311.868	371.88
312.098	362.88
312.328	357.88
312.557	365.88
312.787	378.88
313.017	383.88
313.246	345.88
313.476	345.88
313.706	345.88
313.935	348.88
314.165	350.88
314.394	374.88
314.624	359.88
314.853	370.88
315.083	352.88
315.312	366.88
315.542	365.88
315.771	361.88
316.001	349.88
316.23	365.88
316.46	344.88
316.689	363.88
316.919	374.88
317.148	377.88
317.377	380.88
317.607	363.88
317.836	358.88
318.065	366.88
318.295	353.88
318.524	355.88
318.753	348.88
318.983	374.88
319.212	365.88
319.441	373.88
319.67	369.88
319.9	362.88
320.129	365.88
320.358	359.88
320.587	360.88
320.816	384.88
321.046	400.88
321.275	386.88
321.504	376.88
321.733	374.88
321.962	383.88
322.191	400.88
322.42	399.88
322.649	420.88
322.878	419.88
323.108	419.88
323.337	440.88
323.566	459.88
323.795	476.88
324.024	509.88
324.253	641.88
324.482	899.88
324.71	1387.88
324.939	2126.88
325.168	1841.88
325.397	919.88
325.626	605.88
325.855	518.88
326.084	491.88
326.313	469.88
326.542	483.88
326.77	521.88
326.999	581.88
327.228	810.88
327.457	1254.88
327.686	1575.88
327.914	1029.88
328.143	655.88
328.372	582.88
328.6	555.88
328.829	525.88
329.058	530.88
329.287	534.88
329.515	515.88
329.744	458.88
329.972	464.88
330.201	473.88
330.43	516.88
330.658	542.88
330.887	572.88
331.115	541.88
331.344	502.88
331.572	462.88
331.801	461.88
332.03	441.88
332.258	440.88
332.486	427.88
332.715	437.88
332.943	415.88
333.172	437.88
333.4	454.88
333.629	446.88
333.857	484.88
334.085	468.88
334.314	490.88
334.542	503.88
334.771	519.88
334.999	484.88
335.227	452.88
335.455	466.88
335.684	414.88
335.912	434.88
336.14	428.88
336.369	426.88
336.597	438.88
336.825	452.88
337.053	446.88
337.281	434.88
337.51	418.88
337.738	411.88
337.966	433.88
338.194	459.88
338.422	435.88
338.65	421.88
338.878	427.88
339.106	413.88
339.334	419.88
339.562	410.88
339.79	424.88
340.018	423.88
340.246	428.88
340.474	437.88
340.702	406.88
340.93	401.88
341.158	415.88
341.386	420.88
341.614	412.88
341.842	422.88
342.07	426.88
342.298	416.88
342.526	405.88
342.754	411.88
342.981	413.88
343.209	402.88
343.437	418.88
343.665	428.88
343.893	434.88
344.12	429.88
344.348	422.88
344.576	431.88
344.804	428.88
345.031	474.88
345.259	431.88
345.487	438.88
345.714	425.88
345.942	393.88
346.17	393.88
346.397	410.88
346.625	403.88
346.853	425.88
347.08	404.88
347.308	415.88
347.535	415.88
347.763	416.88
347.99	425.88
348.218	422.88
348.445	421.88
348.673	431.88
348.9	425.88
349.128	408.88
349.355	394.88
349.583	398.88
349.81	408.88
350.037	394.88
350.265	393.88
350.492	395.88
350.72	392.88
350.947	402.88
351.174	401.88
351.402	408.88
351.629	414.88
351.856	392.88
352.083	413.88
352.311	426.88
352.538	412.88
352.765	421.88
352.992	419.88
353.22	430.88
353.447	410.88
353.674	408.88
353.901	401.88
354.128	390.88
354.355	385.88
354.583	408.88
354.81	380.88
355.037	390.88
355.264	380.88
355.491	377.88
355.718	376.88
355.945	382.88
356.172	376.88
356.399	378.88
356.626	371.88
356.853	381.88
357.08	402.88
357.307	385.88
357.534	381.88
357.761	379.88
357.988	388.88
358.215	395.88
358.441	375.88
358.668	408.88
358.895	385.88
359.122	399.88
359.349	393.88
359.576	419.88
359.802	435.88
360.029	443.88
360.256	454.88
360.483	449.88
360.709	420.88
360.936	418.88
361.163	399.88
361.39	411.88
361.616	397.88
361.843	400.88
362.07	397.88
362.296	424.88
362.523	390.88
362.749	414.88
362.976	403.88
363.203	403.88
363.429	393.88
363.656	385.88
363.882	416.88
364.109	409.88
364.335	385.88
364.562	402.88
364.788	399.88
365.015	399.88
365.241	408.88
365.468	398.88
365.694	415.88
365.92	381.88
366.147	402.88
366.373	412.88
366.599	393.88
366.826	402.88
367.052	396.88
367.278	415.88
367.505	394.88
367.731	400.88
367.957	409.88
368.184	379.88
368.41	398.88
368.636	399.88
368.862	416.88
369.089	448.88
369.315	387.88
369.541	421.88
369.767	415.88
369.993	421.88
370.219	416.88
370.445	409.88
370.672	397.88
370.898	390.88
371.124	416.88
371.35	408.88
371.576	390.88
371.802	425.88
372.028	409.88
372.254	392.88
372.48	407.88
372.706	421.88
372.932	409.88
373.158	425.88
373.384	418.88
373.61	415.88
373.835	426.88
374.061	423.88
374.287	412.88
374.513	424.88
374.739	406.88
374.965	402.88
375.191	411.88
375.416	411.88
375.642	406.88
375.868	415.88
376.094	414.88
376.319	398.88
376.545	406.88
376.771	409.88
376.997	423.88
377.222	403.88
377.448	405.88
377.674	399.88
377.899	401.88
378.125	403.88
378.35	413.88
378.576	407.88
378.802	419.88
379.027	410.88
379.253	394.88
379.478	415.88
379.704	426.88
379.929	407.88
380.155	400.88
380.38	417.88
380.606	392.88
380.831	414.88
381.057	417.88
381.282	405.88
381.507	408.88
381.733	443.88
381.958	425.88
382.184	421.88
382.409	417.88
382.634	420.88
382.86	418.88
383.085	415.88
383.31	422.88
383.535	413.88
383.761	426.88
383.986	437.88
384.211	437.88
384.436	441.88
384.662	440.88
384.887	425.88
385.112	431.88
385.337	448.88
385.562	438.88
385.787	454.88
386.013	453.88
386.238	443.88
386.463	437.88
386.688	454.88
386.913	453.88
387.138	465.88
387.363	469.88
387.588	455.88
387.813	445.88
388.038	455.88
388.263	442.88
388.488	443.88
388.713	447.88
388.938	458.88
389.163	460.88
389.387	469.88
389.612	476.88
389.837	441.88
390.062	454.88
390.287	448.88
390.512	458.88
390.736	462.88
390.961	467.88
391.186	482.88
391.411	473.88
391.636	469.88
391.86	476.88
392.085	462.88
392.31	451.88
392.534	456.88
392.759	455.88
392.984	485.88
393.208	450.88
393.433	451.88
393.658	465.88
393.882	458.88
394.107	461.88
394.331	468.88
394.556	463.88
394.78	468.88
395.005	469.88
395.229	463.88
395.454	473.88
395.678	474.88
395.903	481.88
396.127	504.88
396.352	484.88
396.576	476.88
396.801	478.88
397.025	490.88
397.249	474.88
397.474	487.88
397.698	501.88
397.922	519.88
398.147	536.88
398.371	512.88
398.595	529.88
398.82	523.88
399.044	521.88
399.268	554.88
399.492	578.88
399.717	619.88
399.941	632.88
400.165	654.88
400.389	651.88
400.613	627.88
400.837	582.88
401.062	533.88
401.286	556.88
401.51	563.88
401.734	502.88
401.958	537.88
402.182	549.88
402.406	533.88
402.63	566.88
402.854	523.88
403.078	522.88
403.302	550.88
403.526	554.88
403.75	577.88
403.974	552.88
404.198	536.88
404.422	561.88
404.645	553.88
404.869	579.88
405.093	606.88
405.317	642.88
405.541	668.88
405.765	627.88
405.988	565.88
406.212	579.88
406.436	589.88
406.66	620.88
406.883	602.88
407.107	634.88
407.331	658.88
407.555	727.88
407.778	733.88
408.002	666.88
408.226	630.88
408.449	621.88
408.673	614.88
408.896	644.88
409.12	669.88
409.344	655.88
409.567	589.88
409.791	569.88
410.014	565.88
410.238	560.88
410.461	546.88
410.685	582.88
410.908	592.88
411.132	602.88
411.355	637.88
411.578	627.88
411.802	579.88
412.025	540.88
412.249	565.88
412.472	577.88
412.695	623.88
412.919	609.88
413.142	564.88
413.365	564.88
413.589	545.88
413.812	523.88
414.035	537.88
414.258	532.88
414.482	513.88
414.705	525.88
414.928	543.88
415.151	518.88
415.374	523.88
415.597	536.88
415.821	528.88
416.044	547.88
416.267	526.88
416.49	534.88
416.713	525.88
416.936	499.88
417.159	519.88
417.382	524.88
417.605	501.88
417.828	497.88
418.051	541.88
418.274	530.88
418.497	521.88
418.72	535.88
418.943	520.88
419.166	548.88
419.389	577.88
419.611	548.88
419.834	548.88
420.057	546.88
420.28	571.88
420.503	549.88
420.726	544.88
420.948	561.88
421.171	579.88
421.394	641.88
421.617	561.88
421.839	541.88
422.062	543.88
422.285	551.88
422.507	606.88
422.73	689.88
422.953	670.88
423.175	583.88
423.398	538.88
423.621	561.88
423.843	604.88
424.066	573.88
424.288	554.88
424.511	617.88
424.733	630.88
424.956	738.88
425.178	696.88
425.401	710.88
425.623	719.88
425.846	618.88
426.068	580.88
426.291	572.88
426.513	592.88
426.735	590.88
426.958	635.88
427.18	707.88
427.402	844.88
427.625	941.88
427.847	803.88
428.069	696.88
428.292	639.88
428.514	571.88
428.736	541.88
428.958	550.88
429.181	554.88
429.403	532.88
429.625	536.88
429.847	566.88
430.069	641.88
430.292	649.88
430.514	566.88
430.736	538.88
430.958	524.88
431.18	504.88
431.402	520.88
431.624	526.88
431.846	485.88
432.068	499.88
432.29	517.88
432.512	513.88
432.734	522.88
432.956	538.88
433.178	514.88
433.4	541.88
433.622	522.88
433.844	506.88
434.066	513.88
434.287	516.88
434.509	496.88
434.731	530.88
434.953	545.88
435.175	563.88
435.397	583.88
435.618	561.88
435.84	620.88
436.062	727.88
436.284	785.88
436.505	658.88
436.727	645.88
436.949	558.88
437.17	534.88
437.392	538.88
437.614	557.88
437.835	595.88
438.057	673.88
438.278	786.88
438.5	795.88
438.721	830.88
438.943	846.88
439.165	655.88
439.386	611.88
439.608	607.88
439.829	556.88
440.05	615.88
440.272	653.88
440.493	610.88
440.715	575.88
440.936	548.88
441.158	571.88
441.379	544.88
441.6	535.88
441.822	565.88
442.043	634.88
442.264	697.88
442.486	757.88
442.707	643.88
442.928	576.88
443.149	611.88
443.371	634.88
443.592	658.88
443.813	761.88
444.034	844.88
444.255	691.88
444.476	601.88
444.698	574.88
444.919	610.88
445.14	695.88
445.361	661.88
445.582	629.88
445.803	701.88
446.024	806.88
446.245	821.88
446.466	724.88
446.687	634.88
446.908	606.88
447.129	556.88
447.35	546.88
447.571	531.88
447.792	510.88
448.013	542.88
448.234	533.88
448.455	589.88
448.675	719.88
448.896	861.88
449.117	703.88
449.338	668.88
449.559	789.88
449.779	925.88
450	702.88
450.221	569.88
450.442	558.88
450.662	541.88
450.883	519.88
451.104	527.88
451.324	513.88
451.545	515.88
451.766	502.88
451.986	487.88
452.207	489.88
452.428	466.88
452.648	499.88
452.869	481.88
453.089	487.88
453.31	500.88
453.53	478.88
453.751	464.88
453.971	499.88
454.192	492.88
454.412	478.88
454.633	485.88
454.853	492.88
455.073	477.88
455.294	511.88
455.514	573.88
455.734	552.88
455.955	504.88
456.175	464.88
456.395	451.88
456.616	441.88
456.836	478.88
457.056	444.88
457.276	456.88
457.497	457.88
457.717	469.88
457.937	464.88
458.157	470.88
458.377	473.88
458.598	480.88
458.818	544.88
459.038	639.88
459.258	655.88
459.478	568.88
459.698	524.88
459.918	519.88
460.138	503.88
460.358	530.88
460.578	524.88
460.798	525.88
461.018	532.88
461.238	531.88
461.458	526.88
461.678	531.88
461.898	531.88
462.118	540.88
462.338	543.88
462.558	567.88
462.777	563.88
462.997	585.88
463.217	579.88
463.437	577.88
463.657	594.88
463.876	578.88
464.096	550.88
464.316	571.88
464.536	573.88
464.755	574.88
464.975	580.88
465.195	597.88
465.414	615.88
465.634	601.88
465.854	561.88
466.073	537.88
466.293	539.88
466.512	498.88
466.732	524.88
466.951	493.88
467.171	499.88
467.391	503.88
467.61	526.88
467.829	511.88
468.049	523.88
468.268	497.88
468.488	507.88
468.707	500.88
468.927	486.88
469.146	489.88
469.365	491.88
469.585	499.88
469.804	498.88
470.023	518.88
470.243	503.88
470.462	497.88
470.681	522.88
470.901	512.88
471.12	499.88
471.339	518.88
471.558	516.88
471.777	506.88
471.997	493.88
472.216	501.88
472.435	508.88
472.654	525.88
472.873	492.88
473.092	487.88
473.311	501.88
473.53	515.88
473.749	507.88
473.968	560.88
474.187	656.88
474.406	663.88
474.625	571.88
474.844	517.88
475.063	531.88
475.282	538.88
475.501	488.88
475.72	527.88
475.939	532.88
476.158	511.88
476.377	543.88
476.596	532.88
476.814	530.88
477.033	521.88
477.252	524.88
477.471	546.88
477.69	559.88
477.908	544.88
478.127	528.88
478.346	557.88
478.564	550.88
478.783	579.88
479.002	568.88
479.22	571.88
479.439	606.88
479.658	619.88
479.876	621.88
480.095	601.88
480.313	637.88
480.532	614.88
480.751	635.88
480.969	611.88
481.188	670.88
481.406	676.88
481.624	630.88
481.843	610.88
482.061	605.88
482.28	598.88
482.498	614.88
482.717	600.88
482.935	575.88
483.153	603.88
483.372	578.88
483.59	591.88
483.808	589.88
484.027	582.88
484.245	594.88
484.463	594.88
484.681	602.88
484.9	599.88
485.118	621.88
485.336	613.88
485.554	586.88
485.772	607.88
485.99	625.88
486.209	591.88
486.427	622.88
486.645	633.88
486.863	643.88
487.081	626.88
487.299	642.88
487.517	616.88
487.735	626.88
487.953	639.88
488.171	633.88
488.389	653.88
488.607	640.88
488.825	641.88
489.043	639.88
489.261	641.88
489.479	652.88
489.696	636.88
489.914	648.88
490.132	668.88
490.35	626.88
490.568	669.88
490.786	669.88
491.003	662.88
491.221	682.88
491.439	695.88
491.657	682.88
491.874	695.88
492.092	700.88
492.31	714.88
492.527	718.88
492.745	743.88
492.963	711.88
493.18	743.88
493.398	740.88
493.615	714.88
493.833	725.88
494.05	747.88
494.268	747.88
494.485	700.88
494.703	743.88
494.92	713.88
495.138	717.88
495.355	723.88
495.573	738.88
495.79	748.88
496.008	764.88
496.225	741.88
496.442	762.88
496.66	737.88
496.877	759.88
497.094	776.88
497.312	759.88
497.529	775.88
497.746	791.88
497.963	777.88
498.181	796.88
498.398	823.88
498.615	833.88
498.832	857.88
499.049	855.88
499.267	899.88
499.484	925.88
499.701	970.88
499.918	977.88
500.135	1003.88
500.352	1074.88
500.569	1090.88
500.786	1091.88
501.003	1105.88
501.22	1050.88
501.437	1019.88
501.654	969.88
501.871	970.88
502.088	941.88
502.305	908.88
502.522	850.88
502.739	844.88
502.956	805.88
503.172	834.88
503.389	813.88
503.606	830.88
503.823	802.88
504.04	789.88
504.256	773.88
504.473	759.88
504.69	753.88
504.907	755.88
505.123	736.88
505.34	756.88
505.557	720.88
505.773	728.88
505.99	720.88
506.207	719.88
506.423	713.88
506.64	726.88
506.856	716.88
507.073	652.88
507.289	682.88
507.506	681.88
507.722	680.88
507.939	691.88
508.155	669.88
508.372	655.88
508.588	645.88
508.805	636.88
509.021	675.88
509.238	677.88
509.454	701.88
509.67	678.88
509.887	672.88
510.103	647.88
510.319	649.88
510.536	757.88
510.752	1122.88
510.968	963.88
511.184	686.88
511.401	667.88
511.617	663.88
511.833	665.88
512.049	638.88
512.265	658.88
512.481	638.88
512.698	625.88
512.914	607.88
513.13	609.88
513.346	626.88
513.562	631.88
513.778	649.88
513.994	632.88
514.21	647.88
514.426	655.88
514.642	693.88
514.858	727.88
515.074	743.88
515.29	825.88
515.506	1143.88
515.721	983.88
515.937	744.88
516.153	703.88
516.369	697.88
516.585	641.88
516.801	685.88
517.016	696.88
517.232	648.88
517.448	679.88
517.664	674.88
517.879	684.88
518.095	679.88
518.311	643.88
518.527	674.88
518.742	641.88
518.958	639.88
519.173	643.88
519.389	660.88
519.605	643.88
519.82	656.88
520.036	665.88
520.251	674.88
520.467	695.88
520.682	675.88
520.898	702.88
521.113	683.88
521.329	714.88
521.544	757.88
521.76	947.88
521.975	1434.88
522.19	1393.88
522.406	866.88
522.621	697.88
522.836	633.88
523.052	623.88
523.267	616.88
523.482	575.88
523.698	586.88
523.913	593.88
524.128	577.88
524.343	581.88
524.559	570.88
524.774	561.88
524.989	566.88
525.204	556.88
525.419	555.88
525.634	544.88
525.849	549.88
526.064	568.88
526.28	539.88
526.495	536.88
526.71	549.88
526.925	538.88
527.14	525.88
527.355	539.88
527.57	534.88
527.785	546.88
527.999	542.88
528.214	547.88
528.429	524.88
528.644	546.88
528.859	531.88
529.074	530.88
529.289	556.88
529.503	631.88
529.718	602.88
529.933	561.88
530.148	570.88
530.363	538.88
530.577	537.88
530.792	532.88
531.007	549.88
531.221	549.88
531.436	507.88
531.651	514.88
531.865	520.88
532.08	518.88
532.295	522.88
532.509	533.88
532.724	519.88
532.938	511.88
533.153	513.88
533.367	516.88
533.582	495.88
533.796	515.88
534.011	506.88
534.225	522.88
534.44	496.88
534.654	524.88
534.868	494.88
535.083	490.88
535.297	515.88
535.511	505.88
535.726	509.88
535.94	517.88
536.154	504.88
536.369	485.88
536.583	503.88
536.797	493.88
537.011	499.88
537.225	487.88
537.44	484.88
537.654	498.88
537.868	483.88
538.082	505.88
538.296	500.88
538.51	494.88
538.724	497.88
538.938	502.88
539.153	470.88
539.367	506.88
539.581	488.88
539.795	500.88
540.009	489.88
540.222	486.88
540.436	486.88
540.65	481.88
540.864	500.88
541.078	490.88
541.292	512.88
541.506	484.88
541.72	485.88
541.934	493.88
542.147	493.88
542.361	472.88
542.575	490.88
542.789	477.88
543.002	497.88
543.216	478.88
543.43	509.88
543.644	497.88
543.857	494.88
544.071	476.88
544.285	485.88
544.498	480.88
544.712	486.88
544.925	484.88
545.139	492.88
545.352	481.88
545.566	480.88
545.779	477.88
545.993	477.88
546.206	477.88
546.42	473.88
546.633	474.88
546.847	483.88
547.06	487.88
547.274	489.88
547.487	463.88
547.7	482.88
547.914	474.88
548.127	450.88
548.34	464.88
548.554	457.88
548.767	478.88
548.98	465.88
549.193	457.88
549.407	456.88
549.62	478.88
549.833	483.88
550.046	469.88
550.259	453.88
550.473	467.88
550.686	486.88
550.899	457.88
551.112	449.88
551.325	466.88
551.538	456.88
551.751	464.88
551.964	454.88
552.177	451.88
552.39	456.88
552.603	461.88
552.816	468.88
553.029	478.88
553.242	491.88
553.455	479.88
553.667	489.88
553.88	486.88
554.093	473.88
554.306	491.88
554.519	458.88
554.732	457.88
554.944	472.88
555.157	451.88
555.37	432.88
555.583	446.88
555.795	446.88
556.008	446.88
556.221	435.88
556.433	435.88
556.646	457.88
556.859	423.88
557.071	428.88
557.284	428.88
557.496	448.88
557.709	433.88
557.921	414.88
558.134	421.88
558.346	428.88
558.559	412.88
558.771	398.88
558.984	393.88
559.196	427.88
559.409	430.88
559.621	423.88
559.833	416.88
560.046	435.88
560.258	419.88
560.47	407.88
560.683	422.88
560.895	413.88
561.107	437.88
561.32	407.88
561.532	424.88
561.744	429.88
561.956	415.88
562.168	440.88
562.381	428.88
562.593	433.88
562.805	415.88
563.017	424.88
563.229	421.88
563.441	429.88
563.653	452.88
563.865	430.88
564.077	425.88
564.289	447.88
564.501	444.88
564.713	443.88
564.925	454.88
565.137	459.88
565.349	440.88
565.561	450.88
565.773	461.88
565.985	464.88
566.197	473.88
566.408	497.88
566.62	489.88
566.832	522.88
567.044	537.88
567.255	517.88
567.467	532.88
567.679	545.88
567.891	549.88
568.102	529.88
568.314	542.88
568.526	522.88
568.737	512.88
568.949	503.88
569.161	478.88
569.372	463.88
569.584	459.88
569.795	450.88
570.007	445.88
570.218	461.88
570.43	458.88
570.641	442.88
570.853	420.88
571.064	413.88
571.276	396.88
571.487	417.88
571.698	393.88
571.91	402.88
572.121	412.88
572.333	391.88
572.544	382.88
572.755	379.88
572.966	394.88
573.178	389.88
573.389	394.88
573.6	382.88
573.811	390.88
574.023	378.88
574.234	359.88
574.445	385.88
574.656	365.88
574.867	357.88
575.078	361.88
575.289	368.88
575.501	369.88
575.712	370.88
575.923	372.88
576.134	377.88
576.345	348.88
576.556	367.88
576.767	369.88
576.978	333.88
577.188	375.88
577.399	371.88
577.61	375.88
577.821	348.88
578.032	348.88
578.243	382.88
578.454	531.88
578.665	423.88
578.875	383.88
579.086	348.88
579.297	342.88
579.508	351.88
579.718	354.88
579.929	359.88
580.14	337.88
580.35	335.88
580.561	335.88
580.772	347.88
580.982	351.88
581.193	327.88
581.403	334.88
581.614	332.88
581.825	327.88
582.035	341.88
582.246	339.88
582.456	339.88
582.667	328.88
582.877	334.88
583.087	316.88
583.298	337.88
583.508	337.88
583.719	329.88
583.929	309.88
584.139	328.88
584.35	321.88
584.56	317.88
584.77	347.88
584.981	332.88
585.191	318.88
585.401	317.88
585.611	321.88
585.821	339.88
586.032	319.88
586.242	318.88
586.452	306.88
586.662	316.88
586.872	322.88
587.082	324.88
587.292	323.88
587.502	331.88
587.713	318.88
587.923	315.88
588.133	319.88
588.343	326.88
588.553	336.88
588.762	327.88
588.972	315.88
589.182	325.88
589.392	317.88
589.602	329.88
589.812	316.88
590.022	307.88
590.232	337.88
590.441	330.88
590.651	322.88
590.861	315.88
591.071	309.88
591.281	320.88
591.49	325.88
591.7	342.88
591.91	318.88
592.119	329.88
592.329	335.88
592.539	340.88
592.748	327.88
592.958	339.88
593.167	332.88
593.377	346.88
593.587	335.88
593.796	353.88
594.006	334.88
594.215	347.88
594.424	331.88
594.634	326.88
594.843	326.88
595.053	332.88
595.262	339.88
595.472	332.88
595.681	303.88
595.89	298.88
596.1	317.88
596.309	326.88
596.518	297.88
596.727	316.88
596.937	307.88
597.146	300.88
597.355	305.88
597.564	305.88
597.774	307.88
597.983	291.88
598.192	281.88
598.401	287.88
598.61	297.88
598.819	285.88
599.028	292.88
599.237	291.88
599.446	284.88
599.655	286.88
599.864	285.88
600.073	286.88
600.282	284.88
600.491	290.88
600.7	288.88
600.909	269.88
601.118	275.88
601.327	295.88
601.536	280.88
601.745	269.88
601.953	265.88
602.162	273.88
602.371	277.88
602.58	273.88
602.789	284.88
602.997	261.88
603.206	270.88
603.415	271.88
603.623	277.88
603.832	254.88
604.041	270.88
604.249	265.88
604.458	273.88
604.666	266.88
604.875	263.88
605.084	257.88
605.292	267.88
605.501	277.88
605.709	253.88
605.918	272.88
606.126	273.88
606.334	267.88
606.543	260.88
606.751	267.88
606.96	265.88
607.168	245.88
607.376	272.88
607.585	268.88
607.793	270.88
608.001	270.88
608.21	262.88
608.418	252.88
608.626	256.88
608.834	261.88
609.043	259.88
609.251	257.88
609.459	261.88
609.667	259.88
609.875	230.88
610.083	268.88
610.291	262.88
610.499	252.88
610.707	252.88
610.916	272.88
611.124	268.88
611.332	277.88
611.54	262.88
611.748	258.88
611.955	245.88
612.163	245.88
612.371	260.88
612.579	263.88
612.787	255.88
612.995	266.88
613.203	261.88
613.411	264.88
613.618	275.88
613.826	249.88
614.034	256.88
614.242	257.88
614.449	228.88
614.657	256.88
614.865	260.88
615.072	253.88
615.28	245.88
615.488	253.88
615.695	250.88
615.903	247.88
616.111	232.88
616.318	253.88
616.526	235.88
616.733	252.88
616.941	253.88
617.148	243.88
617.356	269.88
617.563	237.88
617.771	236.88
617.978	230.88
618.185	226.88
618.393	234.88
618.6	223.88
618.807	237.88
619.015	231.88
619.222	246.88
619.429	237.88
619.637	245.88
619.844	253.88
620.051	242.88
620.258	244.88
620.466	225.88
620.673	257.88
620.88	227.88
621.087	227.88
621.294	233.88
621.501	230.88
621.708	230.88
621.915	224.88
622.122	236.88
622.329	227.88
622.536	228.88
622.743	229.88
622.95	226.88
623.157	251.88
623.364	220.88
623.571	235.88
623.778	223.88
623.985	242.88
624.192	214.88
624.399	229.88
624.606	214.88
624.812	228.88
625.019	236.88
625.226	231.88
625.433	241.88
625.639	209.88
625.846	206.88
626.053	227.88
626.259	231.88
626.466	213.88
626.673	228.88
626.879	211.88
627.086	219.88
627.293	228.88
627.499	208.88
627.706	217.88
627.912	216.88
628.119	216.88
628.325	221.88
628.532	204.88
628.738	211.88
628.945	232.88
629.151	204.88
629.357	212.88
629.564	201.88
629.77	207.88
629.976	219.88
630.183	217.88
630.389	210.88
630.595	209.88
630.802	221.88
631.008	208.88
631.214	194.88
631.42	220.88
631.627	206.88
631.833	199.88
632.039	209.88
632.245	220.88
632.451	206.88
632.657	200.88
632.863	197.88
633.069	210.88
633.275	199.88
633.481	211.88
633.688	205.88
633.893	209.88
634.099	187.88
634.305	210.88
634.511	195.88
634.717	197.88
634.923	196.88
635.129	182.88
635.335	200.88
635.541	194.88
635.747	210.88
635.952	189.88
636.158	182.88
636.364	192.88
636.57	210.88
636.775	201.88
636.981	204.88
637.187	190.88
637.392	180.88
637.598	177.88
637.804	182.88
638.009	197.88
638.215	187.88
638.421	188.88
638.626	193.88
638.832	201.88
639.037	165.88
639.243	184.88
639.448	185.88
639.654	184.88
639.859	174.88
640.065	174.88
640.27	182.88
640.475	191.88
640.681	177.88
640.886	193.88
641.091	168.88
641.297	185.88
641.502	181.88
641.707	193.88
641.913	179.88
642.118	181.88
642.323	175.88
642.528	173.88
642.733	174.88
642.939	182.88
643.144	175.88
643.349	162.88
643.554	167.88
643.759	175.88
643.964	184.88
644.169	163.88
644.374	171.88
644.579	182.88
644.784	157.88
644.989	172.88
645.194	159.88
645.399	155.88
645.604	178.88
645.809	180.88
646.014	182.88
646.219	172.88
646.423	190.88
646.628	177.88
646.833	199.88
647.038	169.88
647.243	181.88
647.447	185.88
647.652	164.88
647.857	169.88
648.062	179.88
648.266	175.88
648.471	181.88
648.676	177.88
648.88	173.88
649.085	194.88
649.289	184.88
649.494	187.88
649.698	191.88
649.903	195.88
650.107	191.88
650.312	168.88
650.516	167.88
650.721	164.88
650.925	153.88
651.13	174.88
651.334	161.88
651.539	145.88
651.743	146.88
651.947	161.88
652.152	152.88
652.356	160.88
652.56	161.88
652.764	146.88
652.969	157.88
653.173	142.88
653.377	149.88
653.581	143.88
653.785	148.88
653.99	141.88
654.194	133.88
654.398	143.88
654.602	145.88
654.806	151.88
655.01	132.88
655.214	137.88
655.418	127.88
655.622	141.88
655.826	140.88
656.03	142.88
656.234	128.88
656.438	140.88
656.642	141.88
656.846	137.88
657.049	129.88
657.253	137.88
657.457	124.88
657.661	138.88
657.865	123.88
658.068	112.88
658.272	108.88
658.476	101.88
658.68	115.88
658.883	100.88
659.087	125.88
659.291	104.88
659.494	104.88
659.698	109.88
659.901	87.88
660.105	80.88
660.309	95.88
660.512	110.88
660.716	92.88
660.919	92.88
661.123	92.88
661.326	101.88
661.53	91.88
661.733	103.88
661.936	90.88
662.14	93.88
662.343	82.88
662.546	97.88
662.75	94.88
662.953	87.88
663.156	84.88
663.36	81.88
663.563	93.88
663.766	73.88
663.969	81.88
664.173	79.88
664.376	87.88
664.579	66.88
664.782	80.88
664.985	79.88
665.188	89.88
665.391	78.88
665.594	84.88
665.797	91.88
666	86.88
666.203	78.88
666.406	84.88
666.609	87.88
666.812	90.88
667.015	89.88
667.218	65.88
667.421	91.88
667.624	75.88
667.827	90.88
668.03	85.88
668.232	82.88
668.435	76.88
668.638	93.88
668.841	87.88
669.043	86.88
669.246	90.88
669.449	90.88
669.651	91.88
669.854	75.88
670.057	80.88
670.259	99.88
670.462	84.88
670.665	87.88
670.867	86.88
671.07	96.88
671.272	78.88
671.475	86.88
671.677	80.88
671.88	100.88
672.082	80.88
672.284	85.88
672.487	89.88
672.689	78.88
672.892	77.88
