Data from 1978.PennyLincolnUp.Lamp.En5.5.200Scan.071719.P1_HRD10591_16-12-59-864.txt Node
Date: Thu Jul 18 16:12:59 EDT 2019
User: cochatt
Spectrometer: HR+D1059
Trigger mode: 1
Integration Time (sec): 1.000000E-1
Scans to average: 1
Electric dark correction enabled: true
Nonlinearity correction enabled: false
Boxcar width: 0
XAxis mode: Wavelengths
Number of Pixels in Spectrum: 2048
>>>>>Begin Spectral Data<<<<<
223.165	-18.31
223.4	-18.31
223.635	-18.31
223.869	-8.31
224.104	-14.31
224.338	-15.31
224.573	-15.31
224.808	-26.31
225.042	-17.31
225.277	-2.31
225.511	-10.31
225.746	6.69
225.98	17.69
226.215	10.69
226.449	0.69
226.683	21.69
226.918	32.69
227.152	37.69
227.387	39.69
227.621	23.69
227.856	46.69
228.09	40.69
228.324	39.69
228.559	55.69
228.793	73.69
229.027	88.69
229.262	100.69
229.496	106.69
229.73	116.69
229.964	144.69
230.199	122.69
230.433	97.69
230.667	109.69
230.901	117.69
231.136	112.69
231.37	96.69
231.604	112.69
231.838	112.69
232.072	99.69
232.306	117.69
232.541	100.69
232.775	102.69
233.009	103.69
233.243	108.69
233.477	112.69
233.711	114.69
233.945	107.69
234.179	109.69
234.413	118.69
234.647	125.69
234.881	122.69
235.115	98.69
235.349	111.69
235.583	97.69
235.817	102.69
236.051	104.69
236.285	120.69
236.519	118.69
236.753	122.69
236.987	126.69
237.221	169.69
237.455	213.69
237.689	165.69
237.922	130.69
238.156	127.69
238.39	127.69
238.624	111.69
238.858	113.69
239.091	128.69
239.325	119.69
239.559	105.69
239.793	125.69
240.027	120.69
240.26	131.69
240.494	157.69
240.728	157.69
240.961	141.69
241.195	139.69
241.429	129.69
241.662	121.69
241.896	125.69
242.13	129.69
242.363	132.69
242.597	143.69
242.83	128.69
243.064	127.69
243.298	127.69
243.531	129.69
243.765	134.69
243.998	128.69
244.232	148.69
244.465	141.69
244.699	138.69
244.932	139.69
245.166	142.69
245.399	135.69
245.633	129.69
245.866	155.69
246.099	146.69
246.333	140.69
246.566	141.69
246.8	143.69
247.033	152.69
247.266	169.69
247.5	154.69
247.733	145.69
247.966	155.69
248.2	149.69
248.433	149.69
248.666	168.69
248.899	170.69
249.133	184.69
249.366	165.69
249.599	168.69
249.832	159.69
250.066	162.69
250.299	166.69
250.532	169.69
250.765	171.69
250.998	189.69
251.231	202.69
251.465	181.69
251.698	193.69
251.931	183.69
252.164	181.69
252.397	192.69
252.63	173.69
252.863	174.69
253.096	193.69
253.329	207.69
253.562	199.69
253.795	212.69
254.028	209.69
254.261	202.69
254.494	213.69
254.727	225.69
254.96	223.69
255.193	223.69
255.426	239.69
255.659	212.69
255.892	209.69
256.124	194.69
256.357	210.69
256.59	213.69
256.823	194.69
257.056	189.69
257.289	198.69
257.521	195.69
257.754	177.69
257.987	186.69
258.22	180.69
258.452	179.69
258.685	185.69
258.918	178.69
259.151	196.69
259.383	200.69
259.616	209.69
259.849	209.69
260.081	213.69
260.314	230.69
260.547	234.69
260.779	210.69
261.012	190.69
261.244	217.69
261.477	218.69
261.71	199.69
261.942	213.69
262.175	207.69
262.407	201.69
262.64	207.69
262.872	199.69
263.105	199.69
263.337	197.69
263.57	197.69
263.802	187.69
264.035	203.69
264.267	186.69
264.499	195.69
264.732	198.69
264.964	199.69
265.197	179.69
265.429	211.69
265.661	203.69
265.894	193.69
266.126	195.69
266.358	210.69
266.591	206.69
266.823	220.69
267.055	213.69
267.287	209.69
267.52	214.69
267.752	204.69
267.984	211.69
268.216	207.69
268.448	202.69
268.681	209.69
268.913	222.69
269.145	246.69
269.377	243.69
269.609	255.69
269.841	249.69
270.073	252.69
270.306	261.69
270.538	267.69
270.77	278.69
271.002	273.69
271.234	266.69
271.466	261.69
271.698	252.69
271.93	281.69
272.162	291.69
272.394	284.69
272.626	258.69
272.858	274.69
273.09	262.69
273.322	241.69
273.553	251.69
273.785	239.69
274.017	255.69
274.249	248.69
274.481	247.69
274.713	253.69
274.945	242.69
275.176	251.69
275.408	241.69
275.64	240.69
275.872	233.69
276.104	247.69
276.335	241.69
276.567	226.69
276.799	259.69
277.031	287.69
277.262	291.69
277.494	285.69
277.726	290.69
277.957	268.69
278.189	273.69
278.421	246.69
278.652	240.69
278.884	259.69
279.115	262.69
279.347	263.69
279.579	254.69
279.81	242.69
280.042	246.69
280.273	235.69
280.505	249.69
280.736	248.69
280.968	237.69
281.199	257.69
281.431	256.69
281.662	246.69
281.894	265.69
282.125	255.69
282.356	273.69
282.588	292.69
282.819	281.69
283.051	257.69
283.282	249.69
283.513	268.69
283.745	244.69
283.976	266.69
284.207	261.69
284.439	258.69
284.67	257.69
284.901	279.69
285.132	261.69
285.364	265.69
285.595	246.69
285.826	271.69
286.057	253.69
286.288	272.69
286.52	261.69
286.751	247.69
286.982	286.69
287.213	267.69
287.444	262.69
287.675	257.69
287.906	259.69
288.138	267.69
288.369	294.69
288.6	296.69
288.831	281.69
289.062	268.69
289.293	287.69
289.524	281.69
289.755	269.69
289.986	294.69
290.217	280.69
290.448	273.69
290.679	282.69
290.91	270.69
291.141	280.69
291.371	277.69
291.602	280.69
291.833	277.69
292.064	266.69
292.295	286.69
292.526	279.69
292.757	288.69
292.987	287.69
293.218	265.69
293.449	271.69
293.68	282.69
293.91	274.69
294.141	286.69
294.372	267.69
294.603	261.69
294.833	281.69
295.064	266.69
295.295	273.69
295.525	290.69
295.756	288.69
295.987	293.69
296.217	314.69
296.448	325.69
296.679	298.69
296.909	295.69
297.14	293.69
297.37	302.69
297.601	281.69
297.831	277.69
298.062	254.69
298.292	301.69
298.523	285.69
298.753	291.69
298.984	281.69
299.214	295.69
299.445	297.69
299.675	282.69
299.905	298.69
300.136	304.69
300.366	303.69
300.597	296.69
300.827	295.69
301.057	317.69
301.288	315.69
301.518	302.69
301.748	299.69
301.979	301.69
302.209	313.69
302.439	314.69
302.669	328.69
302.9	318.69
303.13	313.69
303.36	312.69
303.59	296.69
303.82	311.69
304.051	304.69
304.281	321.69
304.511	320.69
304.741	318.69
304.971	303.69
305.201	301.69
305.431	315.69
305.661	313.69
305.891	320.69
306.121	287.69
306.352	317.69
306.582	326.69
306.812	325.69
307.042	326.69
307.272	313.69
307.502	321.69
307.731	314.69
307.961	331.69
308.191	323.69
308.421	317.69
308.651	327.69
308.881	320.69
309.111	343.69
309.341	330.69
309.571	334.69
309.8	343.69
310.03	351.69
310.26	369.69
310.49	365.69
310.72	363.69
310.949	363.69
311.179	371.69
311.409	360.69
311.639	358.69
311.868	374.69
312.098	352.69
312.328	369.69
312.557	373.69
312.787	370.69
313.017	385.69
313.246	365.69
313.476	374.69
313.706	375.69
313.935	370.69
314.165	373.69
314.394	397.69
314.624	385.69
314.853	358.69
315.083	349.69
315.312	352.69
315.542	362.69
315.771	360.69
316.001	337.69
316.23	360.69
316.46	340.69
316.689	363.69
316.919	359.69
317.148	363.69
317.377	370.69
317.607	369.69
317.836	361.69
318.065	379.69
318.295	345.69
318.524	351.69
318.753	344.69
318.983	360.69
319.212	367.69
319.441	377.69
319.67	375.69
319.9	361.69
320.129	362.69
320.358	362.69
320.587	374.69
320.816	366.69
321.046	372.69
321.275	401.69
321.504	377.69
321.733	385.69
321.962	396.69
322.191	413.69
322.42	393.69
322.649	405.69
322.878	433.69
323.108	429.69
323.337	454.69
323.566	467.69
323.795	467.69
324.024	542.69
324.253	655.69
324.482	893.69
324.71	1445.69
324.939	2209.69
325.168	1948.69
325.397	964.69
325.626	633.69
325.855	531.69
326.084	497.69
326.313	464.69
326.542	460.69
326.77	520.69
326.999	628.69
327.228	856.69
327.457	1348.69
327.686	1681.69
327.914	1091.69
328.143	663.69
328.372	580.69
328.6	547.69
328.829	538.69
329.058	532.69
329.287	552.69
329.515	529.69
329.744	470.69
329.972	474.69
330.201	500.69
330.43	505.69
330.658	554.69
330.887	563.69
331.115	566.69
331.344	502.69
331.572	465.69
331.801	475.69
332.03	465.69
332.258	458.69
332.486	453.69
332.715	437.69
332.943	449.69
333.172	436.69
333.4	453.69
333.629	446.69
333.857	465.69
334.085	462.69
334.314	475.69
334.542	477.69
334.771	501.69
334.999	465.69
335.227	489.69
335.455	447.69
335.684	454.69
335.912	416.69
336.14	448.69
336.369	441.69
336.597	468.69
336.825	454.69
337.053	439.69
337.281	435.69
337.51	423.69
337.738	425.69
337.966	427.69
338.194	422.69
338.422	441.69
338.65	418.69
338.878	424.69
339.106	426.69
339.334	425.69
339.562	399.69
339.79	425.69
340.018	415.69
340.246	416.69
340.474	403.69
340.702	426.69
340.93	395.69
341.158	439.69
341.386	410.69
341.614	432.69
341.842	426.69
342.07	438.69
342.298	404.69
342.526	425.69
342.754	420.69
342.981	410.69
343.209	398.69
343.437	433.69
343.665	411.69
343.893	438.69
344.12	422.69
344.348	417.69
344.576	445.69
344.804	437.69
345.031	444.69
345.259	446.69
345.487	434.69
345.714	430.69
345.942	433.69
346.17	415.69
346.397	433.69
346.625	411.69
346.853	406.69
347.08	381.69
347.308	413.69
347.535	406.69
347.763	422.69
347.99	412.69
348.218	415.69
348.445	416.69
348.673	416.69
348.9	417.69
349.128	402.69
349.355	385.69
349.583	420.69
349.81	399.69
350.037	396.69
350.265	396.69
350.492	386.69
350.72	396.69
350.947	398.69
351.174	407.69
351.402	418.69
351.629	409.69
351.856	420.69
352.083	407.69
352.311	435.69
352.538	427.69
352.765	420.69
352.992	426.69
353.22	417.69
353.447	429.69
353.674	416.69
353.901	407.69
354.128	393.69
354.355	397.69
354.583	419.69
354.81	375.69
355.037	398.69
355.264	397.69
355.491	411.69
355.718	387.69
355.945	376.69
356.172	386.69
356.399	379.69
356.626	393.69
356.853	392.69
357.08	395.69
357.307	383.69
357.534	384.69
357.761	411.69
357.988	389.69
358.215	384.69
358.441	385.69
358.668	386.69
358.895	404.69
359.122	394.69
359.349	400.69
359.576	391.69
359.802	423.69
360.029	451.69
360.256	456.69
360.483	434.69
360.709	426.69
360.936	419.69
361.163	408.69
361.39	403.69
361.616	424.69
361.843	419.69
362.07	411.69
362.296	420.69
362.523	407.69
362.749	403.69
362.976	403.69
363.203	391.69
363.429	400.69
363.656	393.69
363.882	400.69
364.109	389.69
364.335	387.69
364.562	399.69
364.788	384.69
365.015	413.69
365.241	398.69
365.468	400.69
365.694	430.69
365.92	408.69
366.147	407.69
366.373	404.69
366.599	384.69
366.826	405.69
367.052	391.69
367.278	395.69
367.505	393.69
367.731	403.69
367.957	400.69
368.184	408.69
368.41	414.69
368.636	399.69
368.862	420.69
369.089	431.69
369.315	415.69
369.541	385.69
369.767	404.69
369.993	419.69
370.219	409.69
370.445	418.69
370.672	422.69
370.898	417.69
371.124	409.69
371.35	374.69
371.576	414.69
371.802	407.69
372.028	417.69
372.254	401.69
372.48	407.69
372.706	409.69
372.932	399.69
373.158	405.69
373.384	387.69
373.61	398.69
373.835	405.69
374.061	391.69
374.287	427.69
374.513	419.69
374.739	429.69
374.965	414.69
375.191	414.69
375.416	425.69
375.642	409.69
375.868	398.69
376.094	403.69
376.319	415.69
376.545	402.69
376.771	421.69
376.997	408.69
377.222	404.69
377.448	395.69
377.674	393.69
377.899	416.69
378.125	418.69
378.35	403.69
378.576	383.69
378.802	408.69
379.027	382.69
379.253	408.69
379.478	418.69
379.704	414.69
379.929	410.69
380.155	424.69
380.38	406.69
380.606	412.69
380.831	403.69
381.057	395.69
381.282	412.69
381.507	394.69
381.733	407.69
381.958	408.69
382.184	423.69
382.409	429.69
382.634	427.69
382.86	424.69
383.085	403.69
383.31	417.69
383.535	421.69
383.761	429.69
383.986	435.69
384.211	430.69
384.436	424.69
384.662	439.69
384.887	431.69
385.112	445.69
385.337	446.69
385.562	449.69
385.787	423.69
386.013	452.69
386.238	448.69
386.463	434.69
386.688	462.69
386.913	436.69
387.138	462.69
387.363	459.69
387.588	461.69
387.813	446.69
388.038	468.69
388.263	469.69
388.488	468.69
388.713	441.69
388.938	459.69
389.163	455.69
389.387	446.69
389.612	445.69
389.837	456.69
390.062	461.69
390.287	481.69
390.512	456.69
390.736	447.69
390.961	458.69
391.186	471.69
391.411	466.69
391.636	474.69
391.86	467.69
392.085	461.69
392.31	484.69
392.534	465.69
392.759	477.69
392.984	450.69
393.208	462.69
393.433	490.69
393.658	472.69
393.882	464.69
394.107	469.69
394.331	470.69
394.556	470.69
394.78	470.69
395.005	484.69
395.229	471.69
395.454	484.69
395.678	482.69
395.903	486.69
396.127	537.69
396.352	530.69
396.576	471.69
396.801	492.69
397.025	507.69
397.249	464.69
397.474	494.69
397.698	483.69
397.922	502.69
398.147	526.69
398.371	539.69
398.595	514.69
398.82	515.69
399.044	548.69
399.268	535.69
399.492	571.69
399.717	612.69
399.941	633.69
400.165	665.69
400.389	669.69
400.613	602.69
400.837	568.69
401.062	547.69
401.286	547.69
401.51	543.69
401.734	529.69
401.958	543.69
402.182	544.69
402.406	548.69
402.63	541.69
402.854	509.69
403.078	536.69
403.302	557.69
403.526	562.69
403.75	581.69
403.974	553.69
404.198	542.69
404.422	549.69
404.645	553.69
404.869	544.69
405.093	601.69
405.317	610.69
405.541	674.69
405.765	608.69
405.988	595.69
406.212	599.69
406.436	591.69
406.66	617.69
406.883	595.69
407.107	619.69
407.331	664.69
407.555	728.69
407.778	737.69
408.002	665.69
408.226	607.69
408.449	623.69
408.673	623.69
408.896	634.69
409.12	693.69
409.344	641.69
409.567	594.69
409.791	581.69
410.014	549.69
410.238	573.69
410.461	573.69
410.685	586.69
410.908	580.69
411.132	588.69
411.355	664.69
411.578	628.69
411.802	579.69
412.025	522.69
412.249	568.69
412.472	581.69
412.695	620.69
412.919	614.69
413.142	576.69
413.365	564.69
413.589	549.69
413.812	552.69
414.035	512.69
414.258	555.69
414.482	560.69
414.705	541.69
414.928	527.69
415.151	503.69
415.374	536.69
415.597	527.69
415.821	521.69
416.044	501.69
416.267	533.69
416.49	518.69
416.713	542.69
416.936	517.69
417.159	527.69
417.382	529.69
417.605	531.69
417.828	531.69
418.051	573.69
418.274	543.69
418.497	516.69
418.72	514.69
418.943	516.69
419.166	513.69
419.389	560.69
419.611	568.69
419.834	567.69
420.057	551.69
420.28	545.69
420.503	532.69
420.726	539.69
420.948	549.69
421.171	590.69
421.394	643.69
421.617	555.69
421.839	538.69
422.062	560.69
422.285	551.69
422.507	622.69
422.73	706.69
422.953	655.69
423.175	590.69
423.398	573.69
423.621	569.69
423.843	586.69
424.066	582.69
424.288	584.69
424.511	600.69
424.733	635.69
424.956	746.69
425.178	712.69
425.401	707.69
425.623	731.69
425.846	629.69
426.068	595.69
426.291	581.69
426.513	590.69
426.735	589.69
426.958	642.69
427.18	715.69
427.402	849.69
427.625	951.69
427.847	807.69
428.069	723.69
428.292	628.69
428.514	581.69
428.736	572.69
428.958	555.69
429.181	525.69
429.403	543.69
429.625	543.69
429.847	590.69
430.069	668.69
430.292	677.69
430.514	558.69
430.736	527.69
430.958	544.69
431.18	537.69
431.402	534.69
431.624	501.69
431.846	503.69
432.068	538.69
432.29	524.69
432.512	527.69
432.734	515.69
432.956	517.69
433.178	547.69
433.4	558.69
433.622	532.69
433.844	530.69
434.066	495.69
434.287	507.69
434.509	528.69
434.731	526.69
434.953	538.69
435.175	551.69
435.397	568.69
435.618	557.69
435.84	631.69
436.062	725.69
436.284	826.69
436.505	659.69
436.727	596.69
436.949	529.69
437.17	561.69
437.392	557.69
437.614	558.69
437.835	595.69
438.057	673.69
438.278	782.69
438.5	799.69
438.721	886.69
438.943	849.69
439.165	661.69
439.386	578.69
439.608	601.69
439.829	589.69
440.05	612.69
440.272	676.69
440.493	625.69
440.715	553.69
440.936	573.69
441.158	546.69
441.379	555.69
441.6	567.69
441.822	567.69
442.043	621.69
442.264	704.69
442.486	775.69
442.707	660.69
442.928	593.69
443.149	634.69
443.371	622.69
443.592	665.69
443.813	796.69
444.034	823.69
444.255	675.69
444.476	619.69
444.698	612.69
444.919	600.69
445.14	728.69
445.361	651.69
445.582	627.69
445.803	697.69
446.024	803.69
446.245	828.69
446.466	765.69
446.687	648.69
446.908	588.69
447.129	561.69
447.35	538.69
447.571	527.69
447.792	509.69
448.013	548.69
448.234	559.69
448.455	600.69
448.675	712.69
448.896	831.69
449.117	712.69
449.338	693.69
449.559	784.69
449.779	930.69
450	712.69
450.221	590.69
450.442	552.69
450.662	547.69
450.883	522.69
451.104	530.69
451.324	532.69
451.545	502.69
451.766	493.69
451.986	486.69
452.207	474.69
452.428	479.69
452.648	498.69
452.869	471.69
453.089	484.69
453.31	506.69
453.53	483.69
453.751	471.69
453.971	483.69
454.192	486.69
454.412	488.69
454.633	486.69
454.853	476.69
455.073	476.69
455.294	499.69
455.514	575.69
455.734	565.69
455.955	499.69
456.175	473.69
456.395	475.69
456.616	463.69
456.836	461.69
457.056	466.69
457.276	454.69
457.497	472.69
457.717	450.69
457.937	462.69
458.157	457.69
458.377	497.69
458.598	503.69
458.818	542.69
459.038	612.69
459.258	639.69
459.478	578.69
459.698	542.69
459.918	536.69
460.138	530.69
460.358	545.69
460.578	504.69
460.798	550.69
461.018	544.69
461.238	560.69
461.458	538.69
461.678	523.69
461.898	548.69
462.118	524.69
462.338	546.69
462.558	555.69
462.777	557.69
462.997	575.69
463.217	591.69
463.437	584.69
463.657	568.69
463.876	570.69
464.096	578.69
464.316	584.69
464.536	603.69
464.755	567.69
464.975	558.69
465.195	618.69
465.414	663.69
465.634	606.69
465.854	560.69
466.073	555.69
466.293	533.69
466.512	517.69
466.732	529.69
466.951	533.69
467.171	485.69
467.391	529.69
467.61	522.69
467.829	525.69
468.049	509.69
468.268	528.69
468.488	487.69
468.707	506.69
468.927	511.69
469.146	490.69
469.365	521.69
469.585	479.69
469.804	491.69
470.023	524.69
470.243	513.69
470.462	516.69
470.681	527.69
470.901	529.69
471.12	485.69
471.339	515.69
471.558	511.69
471.777	512.69
471.997	524.69
472.216	503.69
472.435	537.69
472.654	535.69
472.873	528.69
473.092	503.69
473.311	527.69
473.53	508.69
473.749	514.69
473.968	547.69
474.187	655.69
474.406	703.69
474.625	568.69
474.844	529.69
475.063	526.69
475.282	497.69
475.501	516.69
475.72	530.69
475.939	543.69
476.158	516.69
476.377	535.69
476.596	529.69
476.814	558.69
477.033	543.69
477.252	536.69
477.471	533.69
477.69	551.69
477.908	569.69
478.127	540.69
478.346	573.69
478.564	567.69
478.783	583.69
479.002	593.69
479.22	582.69
479.439	601.69
479.658	611.69
479.876	610.69
480.095	624.69
480.313	635.69
480.532	637.69
480.751	641.69
480.969	628.69
481.188	658.69
481.406	687.69
481.624	655.69
481.843	630.69
482.061	607.69
482.28	603.69
482.498	600.69
482.717	585.69
482.935	600.69
483.153	595.69
483.372	605.69
483.59	595.69
483.808	602.69
484.027	610.69
484.245	606.69
484.463	615.69
484.681	616.69
484.9	601.69
485.118	606.69
485.336	597.69
485.554	626.69
485.772	651.69
485.99	623.69
486.209	611.69
486.427	611.69
486.645	621.69
486.863	647.69
487.081	652.69
487.299	634.69
487.517	637.69
487.735	634.69
487.953	637.69
488.171	632.69
488.389	643.69
488.607	631.69
488.825	638.69
489.043	631.69
489.261	618.69
489.479	633.69
489.696	655.69
489.914	655.69
490.132	661.69
490.35	664.69
490.568	662.69
490.786	674.69
491.003	671.69
491.221	691.69
491.439	704.69
491.657	708.69
491.874	702.69
492.092	697.69
492.31	706.69
492.527	735.69
492.745	719.69
492.963	711.69
493.18	735.69
493.398	733.69
493.615	713.69
493.833	727.69
494.05	745.69
494.268	762.69
494.485	746.69
494.703	749.69
494.92	731.69
495.138	757.69
495.355	743.69
495.573	728.69
495.79	726.69
496.008	743.69
496.225	756.69
496.442	748.69
496.66	742.69
496.877	749.69
497.094	761.69
497.312	744.69
497.529	771.69
497.746	787.69
497.963	809.69
498.181	842.69
498.398	849.69
498.615	842.69
498.832	855.69
499.049	879.69
499.267	917.69
499.484	932.69
499.701	982.69
499.918	965.69
500.135	1056.69
500.352	1092.69
500.569	1089.69
500.786	1113.69
501.003	1074.69
501.22	1039.69
501.437	1016.69
501.654	1011.69
501.871	977.69
502.088	953.69
502.305	914.69
502.522	872.69
502.739	850.69
502.956	877.69
503.172	806.69
503.389	804.69
503.606	790.69
503.823	798.69
504.04	802.69
504.256	806.69
504.473	764.69
504.69	774.69
504.907	775.69
505.123	750.69
505.34	733.69
505.557	731.69
505.773	715.69
505.99	731.69
506.207	717.69
506.423	729.69
506.64	705.69
506.856	720.69
507.073	692.69
507.289	703.69
507.506	707.69
507.722	704.69
507.939	704.69
508.155	698.69
508.372	667.69
508.588	691.69
508.805	672.69
509.021	655.69
509.238	689.69
509.454	681.69
509.67	688.69
509.887	687.69
510.103	641.69
510.319	639.69
510.536	761.69
510.752	1145.69
510.968	1005.69
511.184	682.69
511.401	663.69
511.617	659.69
511.833	655.69
512.049	639.69
512.265	629.69
512.481	659.69
512.698	644.69
512.914	633.69
513.13	649.69
513.346	640.69
513.562	625.69
513.778	648.69
513.994	635.69
514.21	677.69
514.426	688.69
514.642	716.69
514.858	729.69
515.074	773.69
515.29	844.69
515.506	1171.69
515.721	1032.69
515.937	767.69
516.153	719.69
516.369	679.69
516.585	665.69
516.801	682.69
517.016	670.69
517.232	672.69
517.448	689.69
517.664	695.69
517.879	693.69
518.095	697.69
518.311	675.69
518.527	653.69
518.742	671.69
518.958	661.69
519.173	649.69
519.389	645.69
519.605	649.69
519.82	659.69
520.036	670.69
520.251	675.69
520.467	693.69
520.682	661.69
520.898	712.69
521.113	719.69
521.329	733.69
521.544	817.69
521.76	974.69
521.975	1479.69
522.19	1472.69
522.406	894.69
522.621	717.69
522.836	659.69
523.052	630.69
523.267	602.69
523.482	610.69
523.698	592.69
523.913	600.69
524.128	600.69
524.343	606.69
524.559	579.69
524.774	571.69
524.989	582.69
525.204	592.69
525.419	552.69
525.634	564.69
525.849	560.69
526.064	561.69
526.28	535.69
526.495	539.69
526.71	546.69
526.925	531.69
527.14	545.69
527.355	546.69
527.57	535.69
527.785	531.69
527.999	525.69
528.214	560.69
528.429	534.69
528.644	547.69
528.859	547.69
529.074	537.69
529.289	553.69
529.503	622.69
529.718	618.69
529.933	565.69
530.148	560.69
530.363	549.69
530.577	538.69
530.792	538.69
531.007	548.69
531.221	533.69
531.436	522.69
531.651	524.69
531.865	536.69
532.08	548.69
532.295	530.69
532.509	532.69
532.724	521.69
532.938	528.69
533.153	502.69
533.367	521.69
533.582	523.69
533.796	513.69
534.011	510.69
534.225	528.69
534.44	512.69
534.654	522.69
534.868	519.69
535.083	523.69
535.297	516.69
535.511	505.69
535.726	529.69
535.94	521.69
536.154	513.69
536.369	516.69
536.583	494.69
536.797	502.69
537.011	486.69
537.225	514.69
537.44	471.69
537.654	493.69
537.868	495.69
538.082	494.69
538.296	499.69
538.51	480.69
538.724	493.69
538.938	511.69
539.153	481.69
539.367	508.69
539.581	495.69
539.795	506.69
540.009	515.69
540.222	486.69
540.436	498.69
540.65	486.69
540.864	506.69
541.078	508.69
541.292	494.69
541.506	494.69
541.72	481.69
541.934	471.69
542.147	496.69
542.361	493.69
542.575	475.69
542.789	482.69
543.002	483.69
543.216	481.69
543.43	497.69
543.644	485.69
543.857	506.69
544.071	495.69
544.285	501.69
544.498	470.69
544.712	489.69
544.925	473.69
545.139	490.69
545.352	507.69
545.566	461.69
545.779	466.69
545.993	469.69
546.206	489.69
546.42	496.69
546.633	473.69
546.847	465.69
547.06	460.69
547.274	478.69
547.487	479.69
547.7	457.69
547.914	465.69
548.127	469.69
548.34	475.69
548.554	455.69
548.767	479.69
548.98	470.69
549.193	482.69
549.407	496.69
549.62	464.69
549.833	468.69
550.046	480.69
550.259	480.69
550.473	448.69
550.686	453.69
550.899	463.69
551.112	461.69
551.325	480.69
551.538	463.69
551.751	464.69
551.964	464.69
552.177	463.69
552.39	472.69
552.603	475.69
552.816	459.69
553.029	456.69
553.242	484.69
553.455	466.69
553.667	488.69
553.88	506.69
554.093	503.69
554.306	481.69
554.519	469.69
554.732	454.69
554.944	454.69
555.157	442.69
555.37	459.69
555.583	455.69
555.795	456.69
556.008	450.69
556.221	463.69
556.433	451.69
556.646	434.69
556.859	429.69
557.071	424.69
557.284	433.69
557.496	431.69
557.709	419.69
557.921	438.69
558.134	433.69
558.346	436.69
558.559	434.69
558.771	427.69
558.984	405.69
559.196	399.69
559.409	430.69
559.621	430.69
559.833	433.69
560.046	434.69
560.258	407.69
560.47	398.69
560.683	432.69
560.895	424.69
561.107	417.69
561.32	421.69
561.532	416.69
561.744	425.69
561.956	418.69
562.168	432.69
562.381	416.69
562.593	418.69
562.805	421.69
563.017	435.69
563.229	419.69
563.441	421.69
563.653	418.69
563.865	423.69
564.077	431.69
564.289	444.69
564.501	421.69
564.713	448.69
564.925	434.69
565.137	450.69
565.349	473.69
565.561	467.69
565.773	491.69
565.985	453.69
566.197	478.69
566.408	499.69
566.62	509.69
566.832	523.69
567.044	529.69
567.255	527.69
567.467	552.69
567.679	531.69
567.891	552.69
568.102	538.69
568.314	541.69
568.526	518.69
568.737	491.69
568.949	475.69
569.161	452.69
569.372	449.69
569.584	453.69
569.795	437.69
570.007	454.69
570.218	472.69
570.43	439.69
570.641	433.69
570.853	426.69
571.064	421.69
571.276	409.69
571.487	431.69
571.698	418.69
571.91	425.69
572.121	419.69
572.333	399.69
572.544	404.69
572.755	381.69
572.966	380.69
573.178	393.69
573.389	368.69
573.6	380.69
573.811	383.69
574.023	359.69
574.234	373.69
574.445	366.69
574.656	351.69
574.867	367.69
575.078	365.69
575.289	366.69
575.501	365.69
575.712	345.69
575.923	358.69
576.134	366.69
576.345	355.69
576.556	361.69
576.767	357.69
576.978	382.69
577.188	360.69
577.399	377.69
577.61	356.69
577.821	370.69
578.032	367.69
578.243	371.69
578.454	552.69
578.665	429.69
578.875	369.69
579.086	368.69
579.297	354.69
579.508	345.69
579.718	355.69
579.929	341.69
580.14	332.69
580.35	337.69
580.561	352.69
580.772	352.69
580.982	361.69
581.193	347.69
581.403	321.69
581.614	328.69
581.825	331.69
582.035	306.69
582.246	333.69
582.456	343.69
582.667	330.69
582.877	334.69
583.087	321.69
583.298	307.69
583.508	339.69
583.719	327.69
583.929	331.69
584.139	326.69
584.35	297.69
584.56	327.69
584.77	340.69
584.981	330.69
585.191	337.69
585.401	319.69
585.611	338.69
585.821	337.69
586.032	327.69
586.242	320.69
586.452	336.69
586.662	312.69
586.872	321.69
587.082	322.69
587.292	316.69
587.502	317.69
587.713	309.69
587.923	297.69
588.133	313.69
588.343	319.69
588.553	315.69
588.762	319.69
588.972	311.69
589.182	316.69
589.392	344.69
589.602	333.69
589.812	321.69
590.022	329.69
590.232	301.69
590.441	323.69
590.651	322.69
590.861	323.69
591.071	310.69
591.281	322.69
591.49	305.69
591.7	316.69
591.91	325.69
592.119	319.69
592.329	327.69
592.539	343.69
592.748	336.69
592.958	331.69
593.167	334.69
593.377	353.69
593.587	346.69
593.796	310.69
594.006	341.69
594.215	337.69
594.424	340.69
594.634	326.69
594.843	340.69
595.053	330.69
595.262	331.69
595.472	331.69
595.681	303.69
595.89	308.69
596.1	322.69
596.309	317.69
596.518	304.69
596.727	316.69
596.937	287.69
597.146	301.69
597.355	287.69
597.564	319.69
597.774	299.69
597.983	293.69
598.192	291.69
598.401	299.69
598.61	276.69
598.819	302.69
599.028	287.69
599.237	297.69
599.446	287.69
599.655	302.69
599.864	275.69
600.073	263.69
600.282	289.69
600.491	277.69
600.7	267.69
600.909	276.69
601.118	263.69
601.327	289.69
601.536	272.69
601.745	291.69
601.953	270.69
602.162	267.69
602.371	278.69
602.58	251.69
602.789	264.69
602.997	263.69
603.206	258.69
603.415	273.69
603.623	280.69
603.832	262.69
604.041	268.69
604.249	263.69
604.458	271.69
604.666	244.69
604.875	267.69
605.084	261.69
605.292	269.69
605.501	262.69
605.709	251.69
605.918	249.69
606.126	245.69
606.334	257.69
606.543	256.69
606.751	266.69
606.96	264.69
607.168	252.69
607.376	261.69
607.585	247.69
607.793	260.69
608.001	258.69
608.21	244.69
608.418	237.69
608.626	272.69
608.834	263.69
609.043	251.69
609.251	260.69
609.459	255.69
609.667	253.69
609.875	269.69
610.083	246.69
610.291	239.69
610.499	259.69
610.707	244.69
610.916	263.69
611.124	271.69
611.332	253.69
611.54	259.69
611.748	258.69
611.955	257.69
612.163	265.69
612.371	261.69
612.579	258.69
612.787	249.69
612.995	237.69
613.203	258.69
613.411	238.69
613.618	242.69
613.826	241.69
614.034	228.69
614.242	241.69
614.449	258.69
614.657	253.69
614.865	236.69
615.072	245.69
615.28	249.69
615.488	226.69
615.695	242.69
615.903	242.69
616.111	234.69
616.318	240.69
616.526	248.69
616.733	245.69
616.941	221.69
617.148	237.69
617.356	220.69
617.563	244.69
617.771	256.69
617.978	250.69
618.185	237.69
618.393	242.69
618.6	237.69
618.807	242.69
619.015	255.69
619.222	237.69
619.429	237.69
619.637	244.69
619.844	239.69
620.051	239.69
620.258	226.69
620.466	228.69
620.673	228.69
620.88	235.69
621.087	223.69
621.294	225.69
621.501	234.69
621.708	255.69
621.915	242.69
622.122	231.69
622.329	233.69
622.536	225.69
622.743	250.69
622.95	221.69
623.157	225.69
623.364	211.69
623.571	243.69
623.778	230.69
623.985	229.69
624.192	220.69
624.399	226.69
624.606	232.69
624.812	211.69
625.019	224.69
625.226	221.69
625.433	221.69
625.639	212.69
625.846	235.69
626.053	211.69
626.259	216.69
626.466	229.69
626.673	201.69
626.879	221.69
627.086	222.69
627.293	223.69
627.499	219.69
627.706	214.69
627.912	209.69
628.119	217.69
628.325	207.69
628.532	191.69
628.738	223.69
628.945	214.69
629.151	224.69
629.357	213.69
629.564	213.69
629.77	198.69
629.976	199.69
630.183	206.69
630.389	207.69
630.595	199.69
630.802	199.69
631.008	207.69
631.214	211.69
631.42	205.69
631.627	202.69
631.833	195.69
632.039	200.69
632.245	198.69
632.451	214.69
632.657	189.69
632.863	200.69
633.069	219.69
633.275	189.69
633.481	198.69
633.688	185.69
633.893	197.69
634.099	193.69
634.305	189.69
634.511	200.69
634.717	200.69
634.923	198.69
635.129	196.69
635.335	195.69
635.541	179.69
635.747	184.69
635.952	183.69
636.158	194.69
636.364	193.69
636.57	188.69
636.775	202.69
636.981	195.69
637.187	185.69
637.392	185.69
637.598	185.69
637.804	200.69
638.009	183.69
638.215	169.69
638.421	191.69
638.626	177.69
638.832	186.69
639.037	185.69
639.243	177.69
639.448	190.69
639.654	185.69
639.859	169.69
640.065	165.69
640.27	189.69
640.475	177.69
640.681	175.69
640.886	198.69
641.091	179.69
641.297	181.69
641.502	180.69
641.707	171.69
641.913	191.69
642.118	179.69
642.323	172.69
642.528	169.69
642.733	166.69
642.939	173.69
643.144	167.69
643.349	173.69
643.554	174.69
643.759	177.69
643.964	155.69
644.169	162.69
644.374	163.69
644.579	157.69
644.784	171.69
644.989	172.69
645.194	179.69
645.399	161.69
645.604	159.69
645.809	185.69
646.014	167.69
646.219	149.69
646.423	173.69
646.628	159.69
646.833	175.69
647.038	159.69
647.243	189.69
647.447	154.69
647.652	177.69
647.857	159.69
648.062	175.69
648.266	175.69
648.471	178.69
648.676	188.69
648.88	186.69
649.085	179.69
649.289	171.69
649.494	179.69
649.698	205.69
649.903	187.69
650.107	174.69
650.312	173.69
650.516	163.69
650.721	153.69
650.925	142.69
651.13	163.69
651.334	149.69
651.539	160.69
651.743	172.69
651.947	147.69
652.152	149.69
652.356	137.69
652.56	144.69
652.764	145.69
652.969	157.69
653.173	140.69
653.377	136.69
653.581	147.69
653.785	129.69
653.99	139.69
654.194	131.69
654.398	131.69
654.602	135.69
654.806	144.69
655.01	147.69
655.214	153.69
655.418	147.69
655.622	140.69
655.826	140.69
656.03	128.69
656.234	150.69
656.438	138.69
656.642	133.69
656.846	121.69
657.049	121.69
657.253	117.69
657.457	134.69
657.661	135.69
657.865	115.69
658.068	101.69
658.272	109.69
658.476	127.69
658.68	112.69
658.883	104.69
659.087	95.69
659.291	108.69
659.494	105.69
659.698	89.69
659.901	98.69
660.105	86.69
660.309	72.69
660.512	96.69
660.716	86.69
660.919	80.69
661.123	84.69
661.326	74.69
661.53	83.69
661.733	86.69
661.936	89.69
662.14	83.69
662.343	80.69
662.546	84.69
662.75	83.69
662.953	80.69
663.156	75.69
663.36	89.69
663.563	79.69
663.766	72.69
663.969	84.69
664.173	77.69
664.376	74.69
664.579	94.69
664.782	87.69
664.985	84.69
665.188	104.69
665.391	79.69
665.594	89.69
665.797	71.69
666	86.69
666.203	72.69
666.406	76.69
666.609	74.69
666.812	85.69
667.015	81.69
667.218	84.69
667.421	71.69
667.624	90.69
667.827	81.69
668.03	63.69
668.232	67.69
668.435	69.69
668.638	69.69
668.841	74.69
669.043	66.69
669.246	80.69
669.449	65.69
669.651	81.69
669.854	91.69
670.057	73.69
670.259	63.69
670.462	72.69
670.665	88.69
670.867	68.69
671.07	83.69
671.272	79.69
671.475	88.69
671.677	66.69
671.88	75.69
672.082	75.69
672.284	81.69
672.487	70.69
672.689	86.69
672.892	81.69
