Data from 1978.PennyLincolnUp.Lamp.En5.5.200Scan.071719.P1_HRD10591_16-11-45-865.txt Node
Date: Thu Jul 18 16:11:45 EDT 2019
User: cochatt
Spectrometer: HR+D1059
Trigger mode: 1
Integration Time (sec): 1.000000E-1
Scans to average: 1
Electric dark correction enabled: true
Nonlinearity correction enabled: false
Boxcar width: 0
XAxis mode: Wavelengths
Number of Pixels in Spectrum: 2048
>>>>>Begin Spectral Data<<<<<
223.165	-14.94
223.4	-14.94
223.635	-14.94
223.869	-15.94
224.104	-15.94
224.338	-17.94
224.573	-25.94
224.808	-8.94
225.042	-19.94
225.277	-1.94
225.511	-8.94
225.746	13.06
225.98	16.06
226.215	16.06
226.449	19.06
226.683	20.06
226.918	20.06
227.152	26.06
227.387	23.06
227.621	40.06
227.856	47.06
228.09	44.06
228.324	53.06
228.559	62.06
228.793	72.06
229.027	78.06
229.262	102.06
229.496	101.06
229.73	103.06
229.964	127.06
230.199	105.06
230.433	94.06
230.667	113.06
230.901	104.06
231.136	103.06
231.37	112.06
231.604	107.06
231.838	97.06
232.072	88.06
232.306	102.06
232.541	119.06
232.775	103.06
233.009	109.06
233.243	106.06
233.477	115.06
233.711	99.06
233.945	117.06
234.179	121.06
234.413	96.06
234.647	104.06
234.881	112.06
235.115	102.06
235.349	109.06
235.583	105.06
235.817	110.06
236.051	107.06
236.285	113.06
236.519	105.06
236.753	110.06
236.987	130.06
237.221	143.06
237.455	179.06
237.689	149.06
237.922	129.06
238.156	140.06
238.39	109.06
238.624	124.06
238.858	117.06
239.091	110.06
239.325	108.06
239.559	131.06
239.793	118.06
240.027	121.06
240.26	126.06
240.494	141.06
240.728	108.06
240.961	127.06
241.195	127.06
241.429	128.06
241.662	127.06
241.896	125.06
242.13	124.06
242.363	125.06
242.597	125.06
242.83	124.06
243.064	125.06
243.298	123.06
243.531	123.06
243.765	137.06
243.998	133.06
244.232	133.06
244.465	140.06
244.699	135.06
244.932	132.06
245.166	144.06
245.399	141.06
245.633	128.06
245.866	119.06
246.099	133.06
246.333	150.06
246.566	133.06
246.8	142.06
247.033	135.06
247.266	150.06
247.5	124.06
247.733	152.06
247.966	145.06
248.2	151.06
248.433	143.06
248.666	146.06
248.899	155.06
249.133	160.06
249.366	165.06
249.599	164.06
249.832	150.06
250.066	151.06
250.299	153.06
250.532	171.06
250.765	155.06
250.998	160.06
251.231	166.06
251.465	167.06
251.698	175.06
251.931	166.06
252.164	161.06
252.397	163.06
252.63	162.06
252.863	149.06
253.096	173.06
253.329	186.06
253.562	178.06
253.795	172.06
254.028	172.06
254.261	187.06
254.494	175.06
254.727	197.06
254.96	209.06
255.193	213.06
255.426	183.06
255.659	192.06
255.892	199.06
256.124	186.06
256.357	180.06
256.59	175.06
256.823	174.06
257.056	149.06
257.289	155.06
257.521	180.06
257.754	176.06
257.987	176.06
258.22	173.06
258.452	155.06
258.685	185.06
258.918	186.06
259.151	183.06
259.383	177.06
259.616	176.06
259.849	184.06
260.081	207.06
260.314	178.06
260.547	202.06
260.779	191.06
261.012	177.06
261.244	201.06
261.477	196.06
261.71	194.06
261.942	174.06
262.175	179.06
262.407	198.06
262.64	184.06
262.872	188.06
263.105	183.06
263.337	191.06
263.57	167.06
263.802	192.06
264.035	177.06
264.267	183.06
264.499	183.06
264.732	186.06
264.964	193.06
265.197	191.06
265.429	183.06
265.661	191.06
265.894	181.06
266.126	171.06
266.358	187.06
266.591	190.06
266.823	182.06
267.055	200.06
267.287	207.06
267.52	187.06
267.752	199.06
267.984	192.06
268.216	202.06
268.448	185.06
268.681	194.06
268.913	203.06
269.145	222.06
269.377	217.06
269.609	225.06
269.841	217.06
270.073	215.06
270.306	239.06
270.538	228.06
270.77	230.06
271.002	228.06
271.234	217.06
271.466	230.06
271.698	219.06
271.93	224.06
272.162	235.06
272.394	248.06
272.626	235.06
272.858	223.06
273.09	224.06
273.322	217.06
273.553	226.06
273.785	207.06
274.017	217.06
274.249	216.06
274.481	246.06
274.713	225.06
274.945	241.06
275.176	217.06
275.408	238.06
275.64	221.06
275.872	215.06
276.104	214.06
276.335	217.06
276.567	230.06
276.799	234.06
277.031	251.06
277.262	250.06
277.494	246.06
277.726	233.06
277.957	215.06
278.189	232.06
278.421	220.06
278.652	240.06
278.884	234.06
279.115	223.06
279.347	248.06
279.579	250.06
279.81	223.06
280.042	223.06
280.273	228.06
280.505	242.06
280.736	263.06
280.968	235.06
281.199	234.06
281.431	234.06
281.662	245.06
281.894	238.06
282.125	227.06
282.356	230.06
282.588	240.06
282.819	260.06
283.051	243.06
283.282	247.06
283.513	244.06
283.745	230.06
283.976	239.06
284.207	235.06
284.439	241.06
284.67	241.06
284.901	247.06
285.132	253.06
285.364	230.06
285.595	245.06
285.826	243.06
286.057	234.06
286.288	248.06
286.52	232.06
286.751	237.06
286.982	265.06
287.213	231.06
287.444	230.06
287.675	239.06
287.906	250.06
288.138	267.06
288.369	255.06
288.6	266.06
288.831	259.06
289.062	254.06
289.293	239.06
289.524	238.06
289.755	267.06
289.986	260.06
290.217	252.06
290.448	261.06
290.679	273.06
290.91	270.06
291.141	251.06
291.371	267.06
291.602	252.06
291.833	254.06
292.064	269.06
292.295	267.06
292.526	248.06
292.757	264.06
292.987	249.06
293.218	227.06
293.449	248.06
293.68	249.06
293.91	273.06
294.141	265.06
294.372	249.06
294.603	263.06
294.833	257.06
295.064	281.06
295.295	265.06
295.525	279.06
295.756	252.06
295.987	271.06
296.217	271.06
296.448	271.06
296.679	273.06
296.909	281.06
297.14	277.06
297.37	262.06
297.601	271.06
297.831	272.06
298.062	252.06
298.292	269.06
298.523	273.06
298.753	264.06
298.984	268.06
299.214	269.06
299.445	280.06
299.675	274.06
299.905	272.06
300.136	287.06
300.366	277.06
300.597	282.06
300.827	289.06
301.057	287.06
301.288	285.06
301.518	274.06
301.748	283.06
301.979	301.06
302.209	290.06
302.439	286.06
302.669	282.06
302.9	274.06
303.13	289.06
303.36	300.06
303.59	288.06
303.82	300.06
304.051	311.06
304.281	292.06
304.511	279.06
304.741	290.06
304.971	298.06
305.201	293.06
305.431	279.06
305.661	282.06
305.891	284.06
306.121	274.06
306.352	283.06
306.582	286.06
306.812	288.06
307.042	296.06
307.272	296.06
307.502	280.06
307.731	279.06
307.961	295.06
308.191	284.06
308.421	273.06
308.651	299.06
308.881	299.06
309.111	286.06
309.341	302.06
309.571	299.06
309.8	301.06
310.03	292.06
310.26	303.06
310.49	309.06
310.72	319.06
310.949	327.06
311.179	336.06
311.409	319.06
311.639	313.06
311.868	318.06
312.098	330.06
312.328	336.06
312.557	325.06
312.787	339.06
313.017	330.06
313.246	339.06
313.476	329.06
313.706	332.06
313.935	319.06
314.165	321.06
314.394	325.06
314.624	332.06
314.853	316.06
315.083	327.06
315.312	342.06
315.542	298.06
315.771	315.06
316.001	295.06
316.23	336.06
316.46	328.06
316.689	345.06
316.919	323.06
317.148	315.06
317.377	343.06
317.607	329.06
317.836	324.06
318.065	327.06
318.295	317.06
318.524	332.06
318.753	328.06
318.983	332.06
319.212	315.06
319.441	338.06
319.67	341.06
319.9	317.06
320.129	342.06
320.358	339.06
320.587	348.06
320.816	318.06
321.046	330.06
321.275	344.06
321.504	349.06
321.733	358.06
321.962	335.06
322.191	341.06
322.42	350.06
322.649	355.06
322.878	362.06
323.108	374.06
323.337	385.06
323.566	366.06
323.795	407.06
324.024	422.06
324.253	504.06
324.482	632.06
324.71	941.06
324.939	1367.06
325.168	1233.06
325.397	618.06
325.626	445.06
325.855	410.06
326.084	399.06
326.313	382.06
326.542	395.06
326.77	408.06
326.999	465.06
327.228	568.06
327.457	865.06
327.686	1082.06
327.914	713.06
328.143	486.06
328.372	450.06
328.6	424.06
328.829	393.06
329.058	403.06
329.287	439.06
329.515	424.06
329.744	401.06
329.972	391.06
330.201	386.06
330.43	402.06
330.658	401.06
330.887	445.06
331.115	428.06
331.344	385.06
331.572	399.06
331.801	393.06
332.03	407.06
332.258	394.06
332.486	390.06
332.715	372.06
332.943	393.06
333.172	379.06
333.4	392.06
333.629	377.06
333.857	420.06
334.085	427.06
334.314	420.06
334.542	437.06
334.771	422.06
334.999	407.06
335.227	409.06
335.455	391.06
335.684	427.06
335.912	397.06
336.14	391.06
336.369	394.06
336.597	423.06
336.825	405.06
337.053	379.06
337.281	413.06
337.51	384.06
337.738	391.06
337.966	377.06
338.194	393.06
338.422	384.06
338.65	381.06
338.878	397.06
339.106	374.06
339.334	391.06
339.562	385.06
339.79	372.06
340.018	383.06
340.246	394.06
340.474	391.06
340.702	377.06
340.93	377.06
341.158	358.06
341.386	387.06
341.614	371.06
341.842	362.06
342.07	375.06
342.298	376.06
342.526	397.06
342.754	368.06
342.981	356.06
343.209	389.06
343.437	367.06
343.665	392.06
343.893	406.06
344.12	398.06
344.348	406.06
344.576	395.06
344.804	395.06
345.031	404.06
345.259	411.06
345.487	391.06
345.714	391.06
345.942	379.06
346.17	377.06
346.397	377.06
346.625	369.06
346.853	371.06
347.08	380.06
347.308	368.06
347.535	362.06
347.763	374.06
347.99	373.06
348.218	369.06
348.445	377.06
348.673	357.06
348.9	368.06
349.128	372.06
349.355	359.06
349.583	355.06
349.81	374.06
350.037	351.06
350.265	344.06
350.492	387.06
350.72	345.06
350.947	357.06
351.174	380.06
351.402	371.06
351.629	373.06
351.856	359.06
352.083	381.06
352.311	394.06
352.538	368.06
352.765	377.06
352.992	362.06
353.22	373.06
353.447	367.06
353.674	360.06
353.901	359.06
354.128	376.06
354.355	345.06
354.583	361.06
354.81	352.06
355.037	359.06
355.264	349.06
355.491	365.06
355.718	367.06
355.945	369.06
356.172	351.06
356.399	356.06
356.626	360.06
356.853	363.06
357.08	345.06
357.307	356.06
357.534	375.06
357.761	363.06
357.988	367.06
358.215	360.06
358.441	375.06
358.668	354.06
358.895	355.06
359.122	369.06
359.349	375.06
359.576	386.06
359.802	374.06
360.029	383.06
360.256	401.06
360.483	396.06
360.709	381.06
360.936	363.06
361.163	356.06
361.39	367.06
361.616	371.06
361.843	377.06
362.07	373.06
362.296	377.06
362.523	365.06
362.749	383.06
362.976	371.06
363.203	377.06
363.429	353.06
363.656	379.06
363.882	371.06
364.109	352.06
364.335	363.06
364.562	377.06
364.788	375.06
365.015	362.06
365.241	359.06
365.468	378.06
365.694	356.06
365.92	373.06
366.147	367.06
366.373	372.06
366.599	365.06
366.826	371.06
367.052	355.06
367.278	364.06
367.505	377.06
367.731	377.06
367.957	361.06
368.184	370.06
368.41	379.06
368.636	392.06
368.862	375.06
369.089	371.06
369.315	391.06
369.541	384.06
369.767	372.06
369.993	381.06
370.219	372.06
370.445	379.06
370.672	380.06
370.898	389.06
371.124	379.06
371.35	378.06
371.576	373.06
371.802	380.06
372.028	391.06
372.254	383.06
372.48	392.06
372.706	402.06
372.932	397.06
373.158	379.06
373.384	381.06
373.61	376.06
373.835	410.06
374.061	401.06
374.287	393.06
374.513	405.06
374.739	387.06
374.965	403.06
375.191	390.06
375.416	387.06
375.642	369.06
375.868	373.06
376.094	388.06
376.319	389.06
376.545	390.06
376.771	393.06
376.997	388.06
377.222	388.06
377.448	374.06
377.674	381.06
377.899	404.06
378.125	382.06
378.35	364.06
378.576	381.06
378.802	391.06
379.027	378.06
379.253	377.06
379.478	387.06
379.704	380.06
379.929	403.06
380.155	388.06
380.38	395.06
380.606	396.06
380.831	399.06
381.057	407.06
381.282	405.06
381.507	376.06
381.733	386.06
381.958	395.06
382.184	394.06
382.409	415.06
382.634	403.06
382.86	394.06
383.085	387.06
383.31	417.06
383.535	389.06
383.761	405.06
383.986	397.06
384.211	400.06
384.436	407.06
384.662	409.06
384.887	421.06
385.112	428.06
385.337	417.06
385.562	419.06
385.787	439.06
386.013	435.06
386.238	428.06
386.463	433.06
386.688	430.06
386.913	431.06
387.138	430.06
387.363	451.06
387.588	437.06
387.813	448.06
388.038	437.06
388.263	449.06
388.488	435.06
388.713	441.06
388.938	423.06
389.163	423.06
389.387	441.06
389.612	429.06
389.837	437.06
390.062	422.06
390.287	442.06
390.512	418.06
390.736	443.06
390.961	430.06
391.186	422.06
391.411	460.06
391.636	435.06
391.86	459.06
392.085	438.06
392.31	457.06
392.534	441.06
392.759	458.06
392.984	440.06
393.208	433.06
393.433	426.06
393.658	482.06
393.882	425.06
394.107	447.06
394.331	455.06
394.556	429.06
394.78	457.06
395.005	451.06
395.229	426.06
395.454	442.06
395.678	449.06
395.903	474.06
396.127	469.06
396.352	483.06
396.576	469.06
396.801	463.06
397.025	484.06
397.249	472.06
397.474	465.06
397.698	491.06
397.922	491.06
398.147	474.06
398.371	468.06
398.595	473.06
398.82	484.06
399.044	509.06
399.268	520.06
399.492	547.06
399.717	582.06
399.941	614.06
400.165	604.06
400.389	612.06
400.613	591.06
400.837	526.06
401.062	513.06
401.286	523.06
401.51	515.06
401.734	487.06
401.958	511.06
402.182	501.06
402.406	504.06
402.63	507.06
402.854	496.06
403.078	494.06
403.302	520.06
403.526	527.06
403.75	545.06
403.974	503.06
404.198	501.06
404.422	518.06
404.645	541.06
404.869	524.06
405.093	549.06
405.317	580.06
405.541	615.06
405.765	567.06
405.988	531.06
406.212	545.06
406.436	526.06
406.66	569.06
406.883	572.06
407.107	595.06
407.331	617.06
407.555	673.06
407.778	653.06
408.002	625.06
408.226	580.06
408.449	561.06
408.673	572.06
408.896	583.06
409.12	631.06
409.344	591.06
409.567	551.06
409.791	548.06
410.014	536.06
410.238	499.06
410.461	510.06
410.685	528.06
410.908	540.06
411.132	539.06
411.355	581.06
411.578	547.06
411.802	526.06
412.025	525.06
412.249	527.06
412.472	551.06
412.695	551.06
412.919	555.06
413.142	537.06
413.365	528.06
413.589	507.06
413.812	490.06
414.035	496.06
414.258	499.06
414.482	488.06
414.705	515.06
414.928	529.06
415.151	483.06
415.374	498.06
415.597	480.06
415.821	486.06
416.044	491.06
416.267	496.06
416.49	488.06
416.713	497.06
416.936	484.06
417.159	464.06
417.382	477.06
417.605	487.06
417.828	490.06
418.051	486.06
418.274	501.06
418.497	475.06
418.72	515.06
418.943	483.06
419.166	509.06
419.389	525.06
419.611	538.06
419.834	524.06
420.057	510.06
420.28	501.06
420.503	485.06
420.726	496.06
420.948	510.06
421.171	540.06
421.394	547.06
421.617	518.06
421.839	499.06
422.062	499.06
422.285	509.06
422.507	574.06
422.73	615.06
422.953	603.06
423.175	523.06
423.398	517.06
423.621	496.06
423.843	532.06
424.066	524.06
424.288	521.06
424.511	540.06
424.733	569.06
424.956	645.06
425.178	629.06
425.401	614.06
425.623	639.06
425.846	549.06
426.068	525.06
426.291	516.06
426.513	522.06
426.735	538.06
426.958	544.06
427.18	609.06
427.402	725.06
427.625	787.06
427.847	686.06
428.069	563.06
428.292	533.06
428.514	528.06
428.736	501.06
428.958	529.06
429.181	473.06
429.403	490.06
429.625	495.06
429.847	520.06
430.069	575.06
430.292	567.06
430.514	510.06
430.736	499.06
430.958	475.06
431.18	471.06
431.402	467.06
431.624	452.06
431.846	476.06
432.068	466.06
432.29	496.06
432.512	487.06
432.734	489.06
432.956	468.06
433.178	483.06
433.4	479.06
433.622	503.06
433.844	491.06
434.066	475.06
434.287	476.06
434.509	479.06
434.731	501.06
434.953	504.06
435.175	504.06
435.397	524.06
435.618	533.06
435.84	535.06
436.062	619.06
436.284	676.06
436.505	572.06
436.727	535.06
436.949	502.06
437.17	496.06
437.392	487.06
437.614	507.06
437.835	527.06
438.057	583.06
438.278	662.06
438.5	657.06
438.721	739.06
438.943	742.06
439.165	561.06
439.386	502.06
439.608	519.06
439.829	538.06
440.05	547.06
440.272	573.06
440.493	541.06
440.715	527.06
440.936	497.06
441.158	515.06
441.379	499.06
441.6	519.06
441.822	522.06
442.043	561.06
442.264	615.06
442.486	635.06
442.707	561.06
442.928	545.06
443.149	545.06
443.371	550.06
443.592	581.06
443.813	643.06
444.034	706.06
444.255	596.06
444.476	559.06
444.698	553.06
444.919	533.06
445.14	668.06
445.361	593.06
445.582	571.06
445.803	593.06
446.024	672.06
446.245	669.06
446.466	612.06
446.687	535.06
446.908	526.06
447.129	513.06
447.35	507.06
447.571	499.06
447.792	484.06
448.013	494.06
448.234	460.06
448.455	521.06
448.675	592.06
448.896	711.06
449.117	621.06
449.338	583.06
449.559	689.06
449.779	792.06
450	619.06
450.221	523.06
450.442	462.06
450.662	475.06
450.883	487.06
451.104	486.06
451.324	461.06
451.545	455.06
451.766	470.06
451.986	432.06
452.207	418.06
452.428	453.06
452.648	439.06
452.869	422.06
453.089	450.06
453.31	447.06
453.53	436.06
453.751	430.06
453.971	431.06
454.192	445.06
454.412	439.06
454.633	423.06
454.853	452.06
455.073	443.06
455.294	462.06
455.514	486.06
455.734	495.06
455.955	448.06
456.175	432.06
456.395	427.06
456.616	428.06
456.836	447.06
457.056	427.06
457.276	419.06
457.497	430.06
457.717	425.06
457.937	427.06
458.157	445.06
458.377	423.06
458.598	472.06
458.818	475.06
459.038	543.06
459.258	533.06
459.478	507.06
459.698	493.06
459.918	473.06
460.138	469.06
460.358	497.06
460.578	503.06
460.798	537.06
461.018	512.06
461.238	511.06
461.458	511.06
461.678	515.06
461.898	527.06
462.118	498.06
462.338	555.06
462.558	536.06
462.777	508.06
462.997	545.06
463.217	558.06
463.437	572.06
463.657	547.06
463.876	533.06
464.096	557.06
464.316	546.06
464.536	531.06
464.755	541.06
464.975	535.06
465.195	537.06
465.414	568.06
465.634	539.06
465.854	504.06
466.073	503.06
466.293	493.06
466.512	471.06
466.732	481.06
466.951	473.06
467.171	480.06
467.391	491.06
467.61	479.06
467.829	471.06
468.049	480.06
468.268	469.06
468.488	470.06
468.707	449.06
468.927	437.06
469.146	428.06
469.365	468.06
469.585	450.06
469.804	473.06
470.023	457.06
470.243	453.06
470.462	473.06
470.681	468.06
470.901	469.06
471.12	474.06
471.339	476.06
471.558	480.06
471.777	496.06
471.997	466.06
472.216	469.06
472.435	479.06
472.654	473.06
472.873	449.06
473.092	452.06
473.311	457.06
473.53	475.06
473.749	480.06
473.968	508.06
474.187	554.06
474.406	575.06
474.625	485.06
474.844	498.06
475.063	475.06
475.282	481.06
475.501	463.06
475.72	467.06
475.939	485.06
476.158	488.06
476.377	495.06
476.596	479.06
476.814	485.06
477.033	475.06
477.252	525.06
477.471	524.06
477.69	523.06
477.908	523.06
478.127	511.06
478.346	518.06
478.564	539.06
478.783	524.06
479.002	546.06
479.22	542.06
479.439	557.06
479.658	574.06
479.876	551.06
480.095	565.06
480.313	595.06
480.532	590.06
480.751	589.06
480.969	582.06
481.188	603.06
481.406	591.06
481.624	560.06
481.843	571.06
482.061	588.06
482.28	560.06
482.498	560.06
482.717	580.06
482.935	549.06
483.153	545.06
483.372	584.06
483.59	541.06
483.808	557.06
484.027	570.06
484.245	557.06
484.463	561.06
484.681	571.06
484.9	552.06
485.118	571.06
485.336	576.06
485.554	564.06
485.772	559.06
485.99	563.06
486.209	567.06
486.427	585.06
486.645	559.06
486.863	587.06
487.081	599.06
487.299	584.06
487.517	575.06
487.735	574.06
487.953	584.06
488.171	607.06
488.389	585.06
488.607	595.06
488.825	579.06
489.043	569.06
489.261	569.06
489.479	600.06
489.696	588.06
489.914	596.06
490.132	591.06
490.35	592.06
490.568	605.06
490.786	597.06
491.003	619.06
491.221	612.06
491.439	585.06
491.657	646.06
491.874	634.06
492.092	629.06
492.31	620.06
492.527	608.06
492.745	622.06
492.963	649.06
493.18	643.06
493.398	640.06
493.615	663.06
493.833	631.06
494.05	642.06
494.268	669.06
494.485	663.06
494.703	639.06
494.92	674.06
495.138	641.06
495.355	659.06
495.573	665.06
495.79	668.06
496.008	691.06
496.225	668.06
496.442	676.06
496.66	697.06
496.877	687.06
497.094	697.06
497.312	669.06
497.529	703.06
497.746	747.06
497.963	722.06
498.181	779.06
498.398	769.06
498.615	771.06
498.832	825.06
499.049	850.06
499.267	828.06
499.484	858.06
499.701	915.06
499.918	957.06
500.135	979.06
500.352	1040.06
500.569	1037.06
500.786	1042.06
501.003	1040.06
501.22	992.06
501.437	959.06
501.654	902.06
501.871	864.06
502.088	888.06
502.305	853.06
502.522	811.06
502.739	797.06
502.956	767.06
503.172	752.06
503.389	751.06
503.606	739.06
503.823	737.06
504.04	732.06
504.256	712.06
504.473	685.06
504.69	697.06
504.907	699.06
505.123	677.06
505.34	671.06
505.557	648.06
505.773	652.06
505.99	656.06
506.207	652.06
506.423	636.06
506.64	638.06
506.856	631.06
507.073	640.06
507.289	639.06
507.506	646.06
507.722	631.06
507.939	639.06
508.155	613.06
508.372	608.06
508.588	619.06
508.805	595.06
509.021	599.06
509.238	581.06
509.454	596.06
509.67	579.06
509.887	598.06
510.103	604.06
510.319	577.06
510.536	643.06
510.752	815.06
510.968	724.06
511.184	586.06
511.401	579.06
511.617	573.06
511.833	600.06
512.049	577.06
512.265	577.06
512.481	584.06
512.698	568.06
512.914	575.06
513.13	589.06
513.346	588.06
513.562	569.06
513.778	573.06
513.994	600.06
514.21	597.06
514.426	588.06
514.642	597.06
514.858	609.06
515.074	636.06
515.29	663.06
515.506	813.06
515.721	743.06
515.937	643.06
516.153	593.06
516.369	611.06
516.585	615.06
516.801	625.06
517.016	613.06
517.232	631.06
517.448	614.06
517.664	617.06
517.879	622.06
518.095	620.06
518.311	608.06
518.527	614.06
518.742	614.06
518.958	593.06
519.173	603.06
519.389	595.06
519.605	566.06
519.82	587.06
520.036	572.06
520.251	590.06
520.467	592.06
520.682	586.06
520.898	599.06
521.113	599.06
521.329	627.06
521.544	639.06
521.76	723.06
521.975	983.06
522.19	956.06
522.406	667.06
522.621	597.06
522.836	568.06
523.052	557.06
523.267	563.06
523.482	541.06
523.698	529.06
523.913	540.06
524.128	544.06
524.343	527.06
524.559	526.06
524.774	527.06
524.989	524.06
525.204	551.06
525.419	528.06
525.634	509.06
525.849	524.06
526.064	509.06
526.28	524.06
526.495	530.06
526.71	510.06
526.925	501.06
527.14	482.06
527.355	500.06
527.57	491.06
527.785	499.06
527.999	506.06
528.214	496.06
528.429	497.06
528.644	501.06
528.859	533.06
529.074	495.06
529.289	509.06
529.503	520.06
529.718	525.06
529.933	517.06
530.148	496.06
530.363	497.06
530.577	497.06
530.792	478.06
531.007	473.06
531.221	511.06
531.436	473.06
531.651	479.06
531.865	486.06
532.08	496.06
532.295	463.06
532.509	486.06
532.724	490.06
532.938	477.06
533.153	511.06
533.367	486.06
533.582	505.06
533.796	492.06
534.011	465.06
534.225	469.06
534.44	496.06
534.654	457.06
534.868	509.06
535.083	483.06
535.297	490.06
535.511	486.06
535.726	491.06
535.94	497.06
536.154	489.06
536.369	454.06
536.583	456.06
536.797	485.06
537.011	477.06
537.225	475.06
537.44	466.06
537.654	467.06
537.868	479.06
538.082	453.06
538.296	449.06
538.51	462.06
538.724	463.06
538.938	473.06
539.153	446.06
539.367	463.06
539.581	480.06
539.795	457.06
540.009	483.06
540.222	466.06
540.436	476.06
540.65	464.06
540.864	460.06
541.078	447.06
541.292	451.06
541.506	469.06
541.72	460.06
541.934	464.06
542.147	462.06
542.361	464.06
542.575	465.06
542.789	455.06
543.002	454.06
543.216	468.06
543.43	448.06
543.644	471.06
543.857	458.06
544.071	443.06
544.285	450.06
544.498	439.06
544.712	479.06
544.925	459.06
545.139	468.06
545.352	456.06
545.566	449.06
545.779	464.06
545.993	472.06
546.206	455.06
546.42	481.06
546.633	480.06
546.847	453.06
547.06	454.06
547.274	456.06
547.487	444.06
547.7	436.06
547.914	452.06
548.127	455.06
548.34	472.06
548.554	452.06
548.767	453.06
548.98	449.06
549.193	464.06
549.407	448.06
549.62	458.06
549.833	477.06
550.046	447.06
550.259	439.06
550.473	432.06
550.686	441.06
550.899	466.06
551.112	455.06
551.325	440.06
551.538	454.06
551.751	439.06
551.964	425.06
552.177	459.06
552.39	447.06
552.603	475.06
552.816	463.06
553.029	461.06
553.242	472.06
553.455	476.06
553.667	474.06
553.88	460.06
554.093	459.06
554.306	455.06
554.519	438.06
554.732	443.06
554.944	453.06
555.157	425.06
555.37	425.06
555.583	456.06
555.795	463.06
556.008	433.06
556.221	436.06
556.433	419.06
556.646	423.06
556.859	413.06
557.071	413.06
557.284	426.06
557.496	410.06
557.709	403.06
557.921	410.06
558.134	394.06
558.346	422.06
558.559	390.06
558.771	392.06
558.984	393.06
559.196	412.06
559.409	400.06
559.621	404.06
559.833	408.06
560.046	405.06
560.258	415.06
560.47	407.06
560.683	404.06
560.895	401.06
561.107	411.06
561.32	403.06
561.532	416.06
561.744	405.06
561.956	413.06
562.168	406.06
562.381	416.06
562.593	399.06
562.805	404.06
563.017	403.06
563.229	405.06
563.441	424.06
563.653	421.06
563.865	409.06
564.077	414.06
564.289	418.06
564.501	423.06
564.713	443.06
564.925	441.06
565.137	440.06
565.349	436.06
565.561	440.06
565.773	473.06
565.985	468.06
566.197	471.06
566.408	485.06
566.62	490.06
566.832	540.06
567.044	538.06
567.255	529.06
567.467	541.06
567.679	533.06
567.891	522.06
568.102	554.06
568.314	541.06
568.526	507.06
568.737	513.06
568.949	486.06
569.161	475.06
569.372	461.06
569.584	454.06
569.795	456.06
570.007	444.06
570.218	453.06
570.43	437.06
570.641	421.06
570.853	395.06
571.064	397.06
571.276	418.06
571.487	408.06
571.698	390.06
571.91	389.06
572.121	401.06
572.333	372.06
572.544	356.06
572.755	387.06
572.966	385.06
573.178	387.06
573.389	383.06
573.6	379.06
573.811	374.06
574.023	369.06
574.234	385.06
574.445	381.06
574.656	373.06
574.867	349.06
575.078	369.06
575.289	377.06
575.501	342.06
575.712	344.06
575.923	368.06
576.134	375.06
576.345	337.06
576.556	356.06
576.767	348.06
576.978	355.06
577.188	364.06
577.399	349.06
577.61	338.06
577.821	355.06
578.032	344.06
578.243	371.06
578.454	452.06
578.665	383.06
578.875	357.06
579.086	356.06
579.297	346.06
579.508	360.06
579.718	347.06
579.929	352.06
580.14	331.06
580.35	336.06
580.561	332.06
580.772	313.06
580.982	320.06
581.193	341.06
581.403	332.06
581.614	334.06
581.825	321.06
582.035	334.06
582.246	320.06
582.456	349.06
582.667	316.06
582.877	333.06
583.087	324.06
583.298	320.06
583.508	320.06
583.719	330.06
583.929	334.06
584.139	316.06
584.35	328.06
584.56	321.06
584.77	348.06
584.981	329.06
585.191	323.06
585.401	315.06
585.611	316.06
585.821	340.06
586.032	313.06
586.242	333.06
586.452	331.06
586.662	299.06
586.872	321.06
587.082	319.06
587.292	315.06
587.502	320.06
587.713	315.06
587.923	314.06
588.133	316.06
588.343	316.06
588.553	308.06
588.762	337.06
588.972	323.06
589.182	328.06
589.392	321.06
589.602	303.06
589.812	324.06
590.022	311.06
590.232	323.06
590.441	313.06
590.651	317.06
590.861	311.06
591.071	307.06
591.281	332.06
591.49	317.06
591.7	332.06
591.91	313.06
592.119	330.06
592.329	328.06
592.539	323.06
592.748	354.06
592.958	324.06
593.167	318.06
593.377	360.06
593.587	358.06
593.796	350.06
594.006	332.06
594.215	341.06
594.424	341.06
594.634	349.06
594.843	343.06
595.053	333.06
595.262	326.06
595.472	322.06
595.681	327.06
595.89	310.06
596.1	305.06
596.309	309.06
596.518	300.06
596.727	309.06
596.937	282.06
597.146	295.06
597.355	280.06
597.564	295.06
597.774	307.06
597.983	279.06
598.192	295.06
598.401	289.06
598.61	293.06
598.819	292.06
599.028	288.06
599.237	294.06
599.446	277.06
599.655	292.06
599.864	275.06
600.073	265.06
600.282	285.06
600.491	288.06
600.7	294.06
600.909	283.06
601.118	285.06
601.327	271.06
601.536	269.06
601.745	289.06
601.953	267.06
602.162	270.06
602.371	250.06
602.58	288.06
602.789	285.06
602.997	254.06
603.206	279.06
603.415	259.06
603.623	283.06
603.832	248.06
604.041	254.06
604.249	263.06
604.458	271.06
604.666	262.06
604.875	266.06
605.084	263.06
605.292	248.06
605.501	276.06
605.709	271.06
605.918	275.06
606.126	249.06
606.334	252.06
606.543	268.06
606.751	259.06
606.96	244.06
607.168	265.06
607.376	260.06
607.585	243.06
607.793	263.06
608.001	269.06
608.21	269.06
608.418	267.06
608.626	245.06
608.834	256.06
609.043	271.06
609.251	246.06
609.459	252.06
609.667	244.06
609.875	264.06
610.083	252.06
610.291	256.06
610.499	259.06
610.707	274.06
610.916	264.06
611.124	265.06
611.332	272.06
611.54	268.06
611.748	259.06
611.955	257.06
612.163	240.06
612.371	238.06
612.579	236.06
612.787	252.06
612.995	268.06
613.203	254.06
613.411	242.06
613.618	260.06
613.826	257.06
614.034	266.06
614.242	247.06
614.449	254.06
614.657	255.06
614.865	244.06
615.072	269.06
615.28	256.06
615.488	238.06
615.695	270.06
615.903	249.06
616.111	253.06
616.318	263.06
616.526	251.06
616.733	253.06
616.941	248.06
617.148	263.06
617.356	253.06
617.563	259.06
617.771	251.06
617.978	263.06
618.185	239.06
618.393	257.06
618.6	263.06
618.807	253.06
619.015	263.06
619.222	251.06
619.429	240.06
619.637	249.06
619.844	252.06
620.051	224.06
620.258	244.06
620.466	227.06
620.673	239.06
620.88	229.06
621.087	236.06
621.294	239.06
621.501	240.06
621.708	228.06
621.915	240.06
622.122	232.06
622.329	227.06
622.536	244.06
622.743	231.06
622.95	228.06
623.157	246.06
623.364	229.06
623.571	229.06
623.778	232.06
623.985	233.06
624.192	230.06
624.399	218.06
624.606	225.06
624.812	219.06
625.019	225.06
625.226	214.06
625.433	215.06
625.639	225.06
625.846	244.06
626.053	228.06
626.259	216.06
626.466	225.06
626.673	205.06
626.879	208.06
627.086	225.06
627.293	216.06
627.499	224.06
627.706	227.06
627.912	211.06
628.119	220.06
628.325	209.06
628.532	229.06
628.738	211.06
628.945	212.06
629.151	208.06
629.357	218.06
629.564	215.06
629.77	206.06
629.976	208.06
630.183	211.06
630.389	214.06
630.595	212.06
630.802	191.06
631.008	200.06
631.214	210.06
631.42	203.06
631.627	206.06
631.833	202.06
632.039	199.06
632.245	205.06
632.451	187.06
632.657	203.06
632.863	216.06
633.069	204.06
633.275	189.06
633.481	193.06
633.688	192.06
633.893	195.06
634.099	206.06
634.305	190.06
634.511	199.06
634.717	206.06
634.923	179.06
635.129	197.06
635.335	199.06
635.541	184.06
635.747	184.06
635.952	197.06
636.158	187.06
636.364	197.06
636.57	202.06
636.775	188.06
636.981	196.06
637.187	190.06
637.392	200.06
637.598	174.06
637.804	181.06
638.009	181.06
638.215	199.06
638.421	179.06
638.626	179.06
638.832	197.06
639.037	189.06
639.243	177.06
639.448	187.06
639.654	191.06
639.859	181.06
640.065	189.06
640.27	184.06
640.475	186.06
640.681	185.06
640.886	189.06
641.091	172.06
641.297	181.06
641.502	177.06
641.707	194.06
641.913	198.06
642.118	185.06
642.323	176.06
642.528	174.06
642.733	192.06
642.939	191.06
643.144	174.06
643.349	160.06
643.554	174.06
643.759	175.06
643.964	182.06
644.169	172.06
644.374	169.06
644.579	181.06
644.784	170.06
644.989	169.06
645.194	170.06
645.399	185.06
645.604	163.06
645.809	183.06
646.014	189.06
646.219	179.06
646.423	185.06
646.628	187.06
646.833	165.06
647.038	193.06
647.243	187.06
647.447	191.06
647.652	182.06
647.857	176.06
648.062	182.06
648.266	181.06
648.471	179.06
648.676	191.06
648.88	188.06
649.085	179.06
649.289	159.06
649.494	159.06
649.698	204.06
649.903	170.06
650.107	180.06
650.312	179.06
650.516	180.06
650.721	174.06
650.925	165.06
651.13	147.06
651.334	161.06
651.539	170.06
651.743	170.06
651.947	161.06
652.152	168.06
652.356	162.06
652.56	155.06
652.764	165.06
652.969	167.06
653.173	144.06
653.377	150.06
653.581	146.06
653.785	153.06
653.99	152.06
654.194	148.06
654.398	140.06
654.602	155.06
654.806	140.06
655.01	143.06
655.214	147.06
655.418	150.06
655.622	141.06
655.826	145.06
656.03	145.06
656.234	153.06
656.438	155.06
656.642	157.06
656.846	135.06
657.049	137.06
657.253	138.06
657.457	139.06
657.661	121.06
657.865	119.06
658.068	124.06
658.272	116.06
658.476	101.06
658.68	105.06
658.883	127.06
659.087	108.06
659.291	108.06
659.494	96.06
659.698	98.06
659.901	109.06
660.105	102.06
660.309	100.06
660.512	99.06
660.716	99.06
660.919	84.06
661.123	92.06
661.326	95.06
661.53	82.06
661.733	100.06
661.936	87.06
662.14	92.06
662.343	89.06
662.546	85.06
662.75	76.06
662.953	80.06
663.156	88.06
663.36	85.06
663.563	84.06
663.766	72.06
663.969	88.06
664.173	93.06
664.376	80.06
664.579	89.06
664.782	83.06
664.985	85.06
665.188	72.06
665.391	84.06
665.594	92.06
665.797	89.06
666	74.06
666.203	91.06
666.406	94.06
666.609	86.06
666.812	96.06
667.015	85.06
667.218	82.06
667.421	79.06
667.624	89.06
667.827	83.06
668.03	77.06
668.232	85.06
668.435	87.06
668.638	91.06
668.841	86.06
669.043	98.06
669.246	80.06
669.449	85.06
669.651	83.06
669.854	81.06
670.057	82.06
670.259	93.06
670.462	76.06
670.665	101.06
670.867	93.06
671.07	80.06
671.272	94.06
671.475	85.06
671.677	77.06
671.88	83.06
672.082	78.06
672.284	78.06
672.487	85.06
672.689	71.06
672.892	72.06
