Data from 1978.PennyLincolnUp.Lamp.En5.5.200Scan.071719.P1_HRD10591_16-12-05-864.txt Node
Date: Thu Jul 18 16:12:05 EDT 2019
User: cochatt
Spectrometer: HR+D1059
Trigger mode: 1
Integration Time (sec): 1.000000E-1
Scans to average: 1
Electric dark correction enabled: true
Nonlinearity correction enabled: false
Boxcar width: 0
XAxis mode: Wavelengths
Number of Pixels in Spectrum: 2048
>>>>>Begin Spectral Data<<<<<
223.165	-10.31
223.4	-10.31
223.635	-10.31
223.869	-10.31
224.104	-13.31
224.338	-23.31
224.573	-6.31
224.808	-18.31
225.042	-1.31
225.277	-5.31
225.511	-0.31
225.746	4.69
225.98	12.69
226.215	5.69
226.449	6.69
226.683	12.69
226.918	25.69
227.152	20.69
227.387	26.69
227.621	38.69
227.856	25.69
228.09	44.69
228.324	58.69
228.559	57.69
228.793	47.69
229.027	91.69
229.262	115.69
229.496	103.69
229.73	126.69
229.964	123.69
230.199	115.69
230.433	109.69
230.667	103.69
230.901	109.69
231.136	98.69
231.37	98.69
231.604	112.69
231.838	112.69
232.072	115.69
232.306	107.69
232.541	110.69
232.775	108.69
233.009	116.69
233.243	109.69
233.477	103.69
233.711	105.69
233.945	119.69
234.179	117.69
234.413	107.69
234.647	116.69
234.881	118.69
235.115	108.69
235.349	114.69
235.583	114.69
235.817	123.69
236.051	120.69
236.285	120.69
236.519	126.69
236.753	120.69
236.987	123.69
237.221	160.69
237.455	212.69
237.689	166.69
237.922	130.69
238.156	119.69
238.39	123.69
238.624	100.69
238.858	102.69
239.091	114.69
239.325	128.69
239.559	119.69
239.793	124.69
240.027	134.69
240.26	136.69
240.494	117.69
240.728	138.69
240.961	140.69
241.195	134.69
241.429	125.69
241.662	120.69
241.896	136.69
242.13	129.69
242.363	128.69
242.597	132.69
242.83	130.69
243.064	122.69
243.298	124.69
243.531	126.69
243.765	126.69
243.998	129.69
244.232	131.69
244.465	118.69
244.699	121.69
244.932	145.69
245.166	126.69
245.399	124.69
245.633	138.69
245.866	139.69
246.099	129.69
246.333	141.69
246.566	146.69
246.8	140.69
247.033	148.69
247.266	143.69
247.5	150.69
247.733	153.69
247.966	157.69
248.2	141.69
248.433	149.69
248.666	152.69
248.899	160.69
249.133	184.69
249.366	182.69
249.599	161.69
249.832	152.69
250.066	170.69
250.299	172.69
250.532	171.69
250.765	173.69
250.998	181.69
251.231	169.69
251.465	184.69
251.698	182.69
251.931	164.69
252.164	168.69
252.397	176.69
252.63	167.69
252.863	174.69
253.096	174.69
253.329	175.69
253.562	190.69
253.795	173.69
254.028	189.69
254.261	182.69
254.494	189.69
254.727	197.69
254.96	230.69
255.193	212.69
255.426	193.69
255.659	202.69
255.892	214.69
256.124	194.69
256.357	210.69
256.59	199.69
256.823	188.69
257.056	184.69
257.289	195.69
257.521	194.69
257.754	176.69
257.987	167.69
258.22	191.69
258.452	183.69
258.685	188.69
258.918	185.69
259.151	201.69
259.383	196.69
259.616	200.69
259.849	181.69
260.081	201.69
260.314	223.69
260.547	203.69
260.779	215.69
261.012	197.69
261.244	188.69
261.477	216.69
261.71	199.69
261.942	202.69
262.175	224.69
262.407	209.69
262.64	195.69
262.872	205.69
263.105	181.69
263.337	182.69
263.57	187.69
263.802	184.69
264.035	184.69
264.267	203.69
264.499	188.69
264.732	186.69
264.964	199.69
265.197	194.69
265.429	183.69
265.661	168.69
265.894	189.69
266.126	204.69
266.358	207.69
266.591	204.69
266.823	209.69
267.055	211.69
267.287	205.69
267.52	215.69
267.752	192.69
267.984	193.69
268.216	204.69
268.448	204.69
268.681	202.69
268.913	218.69
269.145	242.69
269.377	228.69
269.609	248.69
269.841	226.69
270.073	242.69
270.306	254.69
270.538	245.69
270.77	249.69
271.002	239.69
271.234	248.69
271.466	242.69
271.698	263.69
271.93	257.69
272.162	261.69
272.394	275.69
272.626	260.69
272.858	241.69
273.09	238.69
273.322	230.69
273.553	219.69
273.785	226.69
274.017	250.69
274.249	244.69
274.481	232.69
274.713	239.69
274.945	240.69
275.176	225.69
275.408	227.69
275.64	230.69
275.872	236.69
276.104	237.69
276.335	212.69
276.567	249.69
276.799	240.69
277.031	284.69
277.262	271.69
277.494	249.69
277.726	238.69
277.957	256.69
278.189	243.69
278.421	242.69
278.652	231.69
278.884	242.69
279.115	235.69
279.347	247.69
279.579	242.69
279.81	240.69
280.042	242.69
280.273	242.69
280.505	236.69
280.736	262.69
280.968	234.69
281.199	252.69
281.431	240.69
281.662	246.69
281.894	249.69
282.125	236.69
282.356	251.69
282.588	269.69
282.819	266.69
283.051	245.69
283.282	243.69
283.513	247.69
283.745	243.69
283.976	266.69
284.207	254.69
284.439	231.69
284.67	254.69
284.901	254.69
285.132	266.69
285.364	259.69
285.595	254.69
285.826	255.69
286.057	249.69
286.288	255.69
286.52	262.69
286.751	242.69
286.982	260.69
287.213	261.69
287.444	266.69
287.675	252.69
287.906	269.69
288.138	262.69
288.369	270.69
288.6	261.69
288.831	266.69
289.062	273.69
289.293	276.69
289.524	292.69
289.755	279.69
289.986	273.69
290.217	269.69
290.448	262.69
290.679	268.69
290.91	278.69
291.141	249.69
291.371	276.69
291.602	249.69
291.833	264.69
292.064	274.69
292.295	273.69
292.526	270.69
292.757	290.69
292.987	265.69
293.218	280.69
293.449	284.69
293.68	280.69
293.91	274.69
294.141	289.69
294.372	265.69
294.603	277.69
294.833	286.69
295.064	280.69
295.295	261.69
295.525	269.69
295.756	278.69
295.987	309.69
296.217	286.69
296.448	300.69
296.679	287.69
296.909	269.69
297.14	284.69
297.37	278.69
297.601	291.69
297.831	275.69
298.062	281.69
298.292	286.69
298.523	290.69
298.753	282.69
298.984	281.69
299.214	285.69
299.445	303.69
299.675	299.69
299.905	290.69
300.136	283.69
300.366	299.69
300.597	293.69
300.827	286.69
301.057	297.69
301.288	301.69
301.518	297.69
301.748	309.69
301.979	290.69
302.209	303.69
302.439	304.69
302.669	300.69
302.9	306.69
303.13	313.69
303.36	290.69
303.59	317.69
303.82	308.69
304.051	299.69
304.281	313.69
304.511	301.69
304.741	306.69
304.971	310.69
305.201	300.69
305.431	317.69
305.661	299.69
305.891	306.69
306.121	288.69
306.352	312.69
306.582	324.69
306.812	301.69
307.042	309.69
307.272	287.69
307.502	298.69
307.731	296.69
307.961	327.69
308.191	308.69
308.421	310.69
308.651	326.69
308.881	327.69
309.111	334.69
309.341	317.69
309.571	317.69
309.8	329.69
310.03	318.69
310.26	345.69
310.49	332.69
310.72	330.69
310.949	358.69
311.179	372.69
311.409	318.69
311.639	308.69
311.868	345.69
312.098	319.69
312.328	345.69
312.557	350.69
312.787	359.69
313.017	360.69
313.246	356.69
313.476	337.69
313.706	347.69
313.935	347.69
314.165	351.69
314.394	354.69
314.624	351.69
314.853	356.69
315.083	342.69
315.312	345.69
315.542	352.69
315.771	328.69
316.001	334.69
316.23	332.69
316.46	341.69
316.689	352.69
316.919	342.69
317.148	356.69
317.377	369.69
317.607	343.69
317.836	364.69
318.065	340.69
318.295	346.69
318.524	358.69
318.753	345.69
318.983	349.69
319.212	340.69
319.441	361.69
319.67	360.69
319.9	368.69
320.129	342.69
320.358	362.69
320.587	361.69
320.816	358.69
321.046	363.69
321.275	376.69
321.504	371.69
321.733	349.69
321.962	378.69
322.191	373.69
322.42	382.69
322.649	382.69
322.878	399.69
323.108	424.69
323.337	398.69
323.566	427.69
323.795	445.69
324.024	479.69
324.253	558.69
324.482	754.69
324.71	1184.69
324.939	1735.69
325.168	1503.69
325.397	748.69
325.626	551.69
325.855	467.69
326.084	445.69
326.313	437.69
326.542	420.69
326.77	469.69
326.999	543.69
327.228	739.69
327.457	1061.69
327.686	1334.69
327.914	872.69
328.143	580.69
328.372	515.69
328.6	478.69
328.829	455.69
329.058	483.69
329.287	483.69
329.515	464.69
329.744	430.69
329.972	451.69
330.201	444.69
330.43	464.69
330.658	483.69
330.887	498.69
331.115	502.69
331.344	440.69
331.572	429.69
331.801	436.69
332.03	442.69
332.258	430.69
332.486	416.69
332.715	406.69
332.943	424.69
333.172	428.69
333.4	424.69
333.629	439.69
333.857	447.69
334.085	445.69
334.314	461.69
334.542	476.69
334.771	472.69
334.999	459.69
335.227	432.69
335.455	434.69
335.684	444.69
335.912	442.69
336.14	413.69
336.369	407.69
336.597	405.69
336.825	436.69
337.053	427.69
337.281	407.69
337.51	411.69
337.738	403.69
337.966	426.69
338.194	410.69
338.422	406.69
338.65	414.69
338.878	419.69
339.106	410.69
339.334	414.69
339.562	416.69
339.79	396.69
340.018	398.69
340.246	420.69
340.474	408.69
340.702	408.69
340.93	398.69
341.158	395.69
341.386	402.69
341.614	406.69
341.842	395.69
342.07	410.69
342.298	397.69
342.526	404.69
342.754	393.69
342.981	396.69
343.209	403.69
343.437	422.69
343.665	413.69
343.893	417.69
344.12	430.69
344.348	429.69
344.576	428.69
344.804	421.69
345.031	427.69
345.259	421.69
345.487	409.69
345.714	406.69
345.942	396.69
346.17	396.69
346.397	420.69
346.625	387.69
346.853	386.69
347.08	383.69
347.308	396.69
347.535	397.69
347.763	409.69
347.99	407.69
348.218	406.69
348.445	403.69
348.673	392.69
348.9	386.69
349.128	390.69
349.355	386.69
349.583	381.69
349.81	373.69
350.037	368.69
350.265	378.69
350.492	376.69
350.72	384.69
350.947	396.69
351.174	372.69
351.402	378.69
351.629	396.69
351.856	405.69
352.083	409.69
352.311	397.69
352.538	404.69
352.765	394.69
352.992	400.69
353.22	413.69
353.447	394.69
353.674	388.69
353.901	376.69
354.128	389.69
354.355	375.69
354.583	363.69
354.81	377.69
355.037	387.69
355.264	386.69
355.491	375.69
355.718	359.69
355.945	373.69
356.172	380.69
356.399	378.69
356.626	382.69
356.853	391.69
357.08	383.69
357.307	382.69
357.534	374.69
357.761	378.69
357.988	392.69
358.215	374.69
358.441	384.69
358.668	388.69
358.895	367.69
359.122	399.69
359.349	376.69
359.576	382.69
359.802	399.69
360.029	422.69
360.256	426.69
360.483	408.69
360.709	380.69
360.936	403.69
361.163	396.69
361.39	413.69
361.616	382.69
361.843	406.69
362.07	379.69
362.296	418.69
362.523	378.69
362.749	402.69
362.976	391.69
363.203	376.69
363.429	368.69
363.656	400.69
363.882	395.69
364.109	370.69
364.335	400.69
364.562	384.69
364.788	389.69
365.015	399.69
365.241	380.69
365.468	398.69
365.694	387.69
365.92	395.69
366.147	396.69
366.373	390.69
366.599	383.69
366.826	399.69
367.052	389.69
367.278	381.69
367.505	393.69
367.731	400.69
367.957	390.69
368.184	385.69
368.41	386.69
368.636	397.69
368.862	387.69
369.089	391.69
369.315	399.69
369.541	411.69
369.767	386.69
369.993	400.69
370.219	387.69
370.445	401.69
370.672	400.69
370.898	401.69
371.124	378.69
371.35	412.69
371.576	380.69
371.802	396.69
372.028	392.69
372.254	393.69
372.48	402.69
372.706	400.69
372.932	418.69
373.158	409.69
373.384	410.69
373.61	386.69
373.835	399.69
374.061	398.69
374.287	416.69
374.513	405.69
374.739	398.69
374.965	397.69
375.191	408.69
375.416	405.69
375.642	412.69
375.868	430.69
376.094	400.69
376.319	419.69
376.545	396.69
376.771	403.69
376.997	390.69
377.222	420.69
377.448	399.69
377.674	398.69
377.899	383.69
378.125	397.69
378.35	412.69
378.576	398.69
378.802	401.69
379.027	384.69
379.253	410.69
379.478	392.69
379.704	395.69
379.929	403.69
380.155	400.69
380.38	402.69
380.606	408.69
380.831	415.69
381.057	395.69
381.282	388.69
381.507	402.69
381.733	398.69
381.958	401.69
382.184	400.69
382.409	394.69
382.634	403.69
382.86	429.69
383.085	430.69
383.31	413.69
383.535	436.69
383.761	398.69
383.986	420.69
384.211	412.69
384.436	414.69
384.662	426.69
384.887	438.69
385.112	440.69
385.337	443.69
385.562	438.69
385.787	432.69
386.013	444.69
386.238	454.69
386.463	461.69
386.688	434.69
386.913	453.69
387.138	443.69
387.363	468.69
387.588	446.69
387.813	448.69
388.038	435.69
388.263	448.69
388.488	460.69
388.713	453.69
388.938	461.69
389.163	484.69
389.387	455.69
389.612	472.69
389.837	446.69
390.062	456.69
390.287	462.69
390.512	444.69
390.736	447.69
390.961	430.69
391.186	450.69
391.411	462.69
391.636	464.69
391.86	455.69
392.085	465.69
392.31	470.69
392.534	454.69
392.759	463.69
392.984	454.69
393.208	470.69
393.433	447.69
393.658	480.69
393.882	483.69
394.107	454.69
394.331	466.69
394.556	459.69
394.78	461.69
395.005	440.69
395.229	460.69
395.454	466.69
395.678	487.69
395.903	495.69
396.127	509.69
396.352	503.69
396.576	475.69
396.801	470.69
397.025	492.69
397.249	497.69
397.474	465.69
397.698	488.69
397.922	518.69
398.147	495.69
398.371	511.69
398.595	524.69
398.82	529.69
399.044	536.69
399.268	537.69
399.492	580.69
399.717	624.69
399.941	644.69
400.165	644.69
400.389	650.69
400.613	606.69
400.837	535.69
401.062	549.69
401.286	538.69
401.51	521.69
401.734	522.69
401.958	518.69
402.182	517.69
402.406	551.69
402.63	531.69
402.854	539.69
403.078	526.69
403.302	532.69
403.526	523.69
403.75	543.69
403.974	520.69
404.198	542.69
404.422	562.69
404.645	552.69
404.869	541.69
405.093	559.69
405.317	615.69
405.541	654.69
405.765	595.69
405.988	553.69
406.212	579.69
406.436	578.69
406.66	604.69
406.883	600.69
407.107	616.69
407.331	644.69
407.555	711.69
407.778	708.69
408.002	653.69
408.226	612.69
408.449	599.69
408.673	590.69
408.896	619.69
409.12	677.69
409.344	609.69
409.567	583.69
409.791	560.69
410.014	563.69
410.238	524.69
410.461	538.69
410.685	533.69
410.908	577.69
411.132	589.69
411.355	630.69
411.578	602.69
411.802	570.69
412.025	573.69
412.249	550.69
412.472	571.69
412.695	599.69
412.919	604.69
413.142	565.69
413.365	537.69
413.589	546.69
413.812	534.69
414.035	543.69
414.258	546.69
414.482	504.69
414.705	514.69
414.928	537.69
415.151	532.69
415.374	537.69
415.597	521.69
415.821	495.69
416.044	507.69
416.267	526.69
416.49	525.69
416.713	522.69
416.936	535.69
417.159	520.69
417.382	494.69
417.605	508.69
417.828	512.69
418.051	535.69
418.274	543.69
418.497	507.69
418.72	499.69
418.943	493.69
419.166	516.69
419.389	551.69
419.611	564.69
419.834	543.69
420.057	548.69
420.28	522.69
420.503	524.69
420.726	519.69
420.948	522.69
421.171	567.69
421.394	582.69
421.617	566.69
421.839	519.69
422.062	522.69
422.285	557.69
422.507	588.69
422.73	662.69
422.953	642.69
423.175	574.69
423.398	552.69
423.621	550.69
423.843	537.69
424.066	578.69
424.288	546.69
424.511	554.69
424.733	614.69
424.956	688.69
425.178	657.69
425.401	653.69
425.623	681.69
425.846	600.69
426.068	580.69
426.291	562.69
426.513	530.69
426.735	564.69
426.958	597.69
427.18	688.69
427.402	772.69
427.625	882.69
427.847	754.69
428.069	636.69
428.292	597.69
428.514	578.69
428.736	529.69
428.958	522.69
429.181	532.69
429.403	524.69
429.625	525.69
429.847	542.69
430.069	616.69
430.292	611.69
430.514	530.69
430.736	521.69
430.958	506.69
431.18	489.69
431.402	501.69
431.624	480.69
431.846	500.69
432.068	522.69
432.29	520.69
432.512	491.69
432.734	506.69
432.956	508.69
433.178	521.69
433.4	523.69
433.622	493.69
433.844	507.69
434.066	506.69
434.287	506.69
434.509	520.69
434.731	515.69
434.953	524.69
435.175	532.69
435.397	564.69
435.618	551.69
435.84	602.69
436.062	679.69
436.284	764.69
436.505	636.69
436.727	563.69
436.949	551.69
437.17	517.69
437.392	502.69
437.614	551.69
437.835	542.69
438.057	635.69
438.278	729.69
438.5	721.69
438.721	828.69
438.943	784.69
439.165	622.69
439.386	565.69
439.608	545.69
439.829	560.69
440.05	598.69
440.272	621.69
440.493	580.69
440.715	544.69
440.936	546.69
441.158	523.69
441.379	532.69
441.6	526.69
441.822	543.69
442.043	576.69
442.264	662.69
442.486	688.69
442.707	605.69
442.928	577.69
443.149	591.69
443.371	611.69
443.592	624.69
443.813	708.69
444.034	778.69
444.255	649.69
444.476	579.69
444.698	568.69
444.919	574.69
445.14	690.69
445.361	636.69
445.582	595.69
445.803	648.69
446.024	746.69
446.245	745.69
446.466	678.69
446.687	583.69
446.908	556.69
447.129	528.69
447.35	527.69
447.571	527.69
447.792	525.69
448.013	491.69
448.234	525.69
448.455	559.69
448.675	664.69
448.896	776.69
449.117	683.69
449.338	606.69
449.559	768.69
449.779	840.69
450	663.69
450.221	559.69
450.442	519.69
450.662	481.69
450.883	517.69
451.104	518.69
451.324	489.69
451.545	479.69
451.766	487.69
451.986	458.69
452.207	482.69
452.428	453.69
452.648	474.69
452.869	460.69
453.089	446.69
453.31	483.69
453.53	460.69
453.751	490.69
453.971	488.69
454.192	481.69
454.412	476.69
454.633	467.69
454.853	466.69
455.073	458.69
455.294	473.69
455.514	521.69
455.734	514.69
455.955	445.69
456.175	446.69
456.395	446.69
456.616	461.69
456.836	445.69
457.056	438.69
457.276	441.69
457.497	463.69
457.717	453.69
457.937	462.69
458.157	453.69
458.377	481.69
458.598	470.69
458.818	501.69
459.038	578.69
459.258	598.69
459.478	541.69
459.698	508.69
459.918	504.69
460.138	499.69
460.358	514.69
460.578	500.69
460.798	531.69
461.018	543.69
461.238	534.69
461.458	528.69
461.678	518.69
461.898	516.69
462.118	532.69
462.338	529.69
462.558	566.69
462.777	551.69
462.997	558.69
463.217	590.69
463.437	586.69
463.657	569.69
463.876	590.69
464.096	557.69
464.316	582.69
464.536	586.69
464.755	565.69
464.975	586.69
465.195	559.69
465.414	602.69
465.634	554.69
465.854	531.69
466.073	512.69
466.293	502.69
466.512	518.69
466.732	490.69
466.951	480.69
467.171	487.69
467.391	497.69
467.61	508.69
467.829	515.69
468.049	499.69
468.268	476.69
468.488	470.69
468.707	480.69
468.927	468.69
469.146	473.69
469.365	477.69
469.585	476.69
469.804	487.69
470.023	488.69
470.243	489.69
470.462	508.69
470.681	517.69
470.901	509.69
471.12	492.69
471.339	482.69
471.558	508.69
471.777	480.69
471.997	483.69
472.216	520.69
472.435	522.69
472.654	515.69
472.873	507.69
473.092	519.69
473.311	492.69
473.53	481.69
473.749	500.69
473.968	536.69
474.187	615.69
474.406	633.69
474.625	546.69
474.844	490.69
475.063	505.69
475.282	506.69
475.501	488.69
475.72	502.69
475.939	526.69
476.158	527.69
476.377	536.69
476.596	516.69
476.814	516.69
477.033	522.69
477.252	531.69
477.471	535.69
477.69	538.69
477.908	550.69
478.127	543.69
478.346	536.69
478.564	563.69
478.783	534.69
479.002	572.69
479.22	573.69
479.439	591.69
479.658	585.69
479.876	582.69
480.095	600.69
480.313	626.69
480.532	592.69
480.751	596.69
480.969	604.69
481.188	631.69
481.406	638.69
481.624	630.69
481.843	570.69
482.061	582.69
482.28	589.69
482.498	580.69
482.717	559.69
482.935	582.69
483.153	590.69
483.372	558.69
483.59	566.69
483.808	576.69
484.027	568.69
484.245	589.69
484.463	594.69
484.681	598.69
484.9	592.69
485.118	597.69
485.336	597.69
485.554	584.69
485.772	616.69
485.99	588.69
486.209	596.69
486.427	590.69
486.645	616.69
486.863	620.69
487.081	627.69
487.299	595.69
487.517	600.69
487.735	622.69
487.953	621.69
488.171	603.69
488.389	609.69
488.607	616.69
488.825	588.69
489.043	627.69
489.261	615.69
489.479	627.69
489.696	623.69
489.914	626.69
490.132	638.69
490.35	640.69
490.568	636.69
490.786	642.69
491.003	644.69
491.221	678.69
491.439	666.69
491.657	662.69
491.874	679.69
492.092	679.69
492.31	687.69
492.527	673.69
492.745	662.69
492.963	702.69
493.18	686.69
493.398	684.69
493.615	701.69
493.833	688.69
494.05	710.69
494.268	679.69
494.485	668.69
494.703	692.69
494.92	682.69
495.138	696.69
495.355	682.69
495.573	704.69
495.79	705.69
496.008	711.69
496.225	704.69
496.442	696.69
496.66	711.69
496.877	723.69
497.094	739.69
497.312	730.69
497.529	732.69
497.746	745.69
497.963	782.69
498.181	796.69
498.398	806.69
498.615	799.69
498.832	826.69
499.049	841.69
499.267	868.69
499.484	899.69
499.701	917.69
499.918	993.69
500.135	1021.69
500.352	1076.69
500.569	1071.69
500.786	1113.69
501.003	1039.69
501.22	1038.69
501.437	993.69
501.654	963.69
501.871	940.69
502.088	912.69
502.305	891.69
502.522	860.69
502.739	839.69
502.956	815.69
503.172	795.69
503.389	770.69
503.606	766.69
503.823	761.69
504.04	751.69
504.256	743.69
504.473	738.69
504.69	742.69
504.907	741.69
505.123	738.69
505.34	693.69
505.557	700.69
505.773	701.69
505.99	690.69
506.207	690.69
506.423	700.69
506.64	662.69
506.856	671.69
507.073	666.69
507.289	690.69
507.506	664.69
507.722	656.69
507.939	670.69
508.155	640.69
508.372	637.69
508.588	622.69
508.805	609.69
509.021	648.69
509.238	641.69
509.454	648.69
509.67	635.69
509.887	624.69
510.103	640.69
510.319	627.69
510.536	680.69
510.752	993.69
510.968	860.69
511.184	637.69
511.401	621.69
511.617	638.69
511.833	617.69
512.049	610.69
512.265	628.69
512.481	595.69
512.698	588.69
512.914	618.69
513.13	576.69
513.346	605.69
513.562	597.69
513.778	604.69
513.994	591.69
514.21	634.69
514.426	628.69
514.642	651.69
514.858	662.69
515.074	688.69
515.29	754.69
515.506	994.69
515.721	884.69
515.937	669.69
516.153	662.69
516.369	638.69
516.585	671.69
516.801	635.69
517.016	654.69
517.232	642.69
517.448	631.69
517.664	638.69
517.879	659.69
518.095	632.69
518.311	662.69
518.527	621.69
518.742	620.69
518.958	641.69
519.173	625.69
519.389	619.69
519.605	624.69
519.82	616.69
520.036	622.69
520.251	630.69
520.467	638.69
520.682	626.69
520.898	631.69
521.113	650.69
521.329	675.69
521.544	720.69
521.76	823.69
521.975	1192.69
522.19	1214.69
522.406	762.69
522.621	659.69
522.836	607.69
523.052	557.69
523.267	588.69
523.482	558.69
523.698	573.69
523.913	560.69
524.128	554.69
524.343	591.69
524.559	583.69
524.774	562.69
524.989	540.69
525.204	554.69
525.419	535.69
525.634	525.69
525.849	558.69
526.064	521.69
526.28	536.69
526.495	533.69
526.71	536.69
526.925	509.69
527.14	528.69
527.355	511.69
527.57	509.69
527.785	523.69
527.999	519.69
528.214	500.69
528.429	518.69
528.644	511.69
528.859	525.69
529.074	516.69
529.289	538.69
529.503	591.69
529.718	574.69
529.933	555.69
530.148	526.69
530.363	540.69
530.577	525.69
530.792	503.69
531.007	543.69
531.221	525.69
531.436	520.69
531.651	515.69
531.865	507.69
532.08	511.69
532.295	503.69
532.509	517.69
532.724	489.69
532.938	504.69
533.153	540.69
533.367	498.69
533.582	506.69
533.796	487.69
534.011	512.69
534.225	486.69
534.44	520.69
534.654	486.69
534.868	492.69
535.083	494.69
535.297	511.69
535.511	516.69
535.726	518.69
535.94	513.69
536.154	501.69
536.369	515.69
536.583	474.69
536.797	498.69
537.011	484.69
537.225	477.69
537.44	496.69
537.654	479.69
537.868	498.69
538.082	469.69
538.296	490.69
538.51	472.69
538.724	469.69
538.938	479.69
539.153	479.69
539.367	470.69
539.581	471.69
539.795	474.69
540.009	468.69
540.222	486.69
540.436	492.69
540.65	480.69
540.864	475.69
541.078	485.69
541.292	484.69
541.506	468.69
541.72	477.69
541.934	463.69
542.147	464.69
542.361	479.69
542.575	466.69
542.789	468.69
543.002	475.69
543.216	466.69
543.43	491.69
543.644	462.69
543.857	476.69
544.071	472.69
544.285	472.69
544.498	486.69
544.712	456.69
544.925	460.69
545.139	478.69
545.352	485.69
545.566	461.69
545.779	490.69
545.993	471.69
546.206	456.69
546.42	462.69
546.633	477.69
546.847	474.69
547.06	473.69
547.274	459.69
547.487	466.69
547.7	443.69
547.914	472.69
548.127	455.69
548.34	477.69
548.554	481.69
548.767	453.69
548.98	455.69
549.193	483.69
549.407	479.69
549.62	472.69
549.833	452.69
550.046	456.69
550.259	467.69
550.473	446.69
550.686	481.69
550.899	481.69
551.112	428.69
551.325	445.69
551.538	463.69
551.751	477.69
551.964	481.69
552.177	471.69
552.39	474.69
552.603	478.69
552.816	472.69
553.029	461.69
553.242	471.69
553.455	487.69
553.667	485.69
553.88	491.69
554.093	479.69
554.306	469.69
554.519	457.69
554.732	470.69
554.944	458.69
555.157	448.69
555.37	439.69
555.583	437.69
555.795	457.69
556.008	455.69
556.221	427.69
556.433	437.69
556.646	425.69
556.859	447.69
557.071	439.69
557.284	437.69
557.496	450.69
557.709	411.69
557.921	440.69
558.134	436.69
558.346	424.69
558.559	401.69
558.771	441.69
558.984	424.69
559.196	389.69
559.409	430.69
559.621	411.69
559.833	399.69
560.046	416.69
560.258	404.69
560.47	413.69
560.683	415.69
560.895	419.69
561.107	394.69
561.32	413.69
561.532	416.69
561.744	419.69
561.956	412.69
562.168	429.69
562.381	425.69
562.593	430.69
562.805	411.69
563.017	435.69
563.229	418.69
563.441	414.69
563.653	431.69
563.865	413.69
564.077	438.69
564.289	431.69
564.501	427.69
564.713	423.69
564.925	438.69
565.137	472.69
565.349	474.69
565.561	466.69
565.773	479.69
565.985	467.69
566.197	473.69
566.408	488.69
566.62	506.69
566.832	510.69
567.044	541.69
567.255	535.69
567.467	533.69
567.679	548.69
567.891	531.69
568.102	530.69
568.314	522.69
568.526	515.69
568.737	480.69
568.949	471.69
569.161	451.69
569.372	454.69
569.584	436.69
569.795	460.69
570.007	426.69
570.218	429.69
570.43	454.69
570.641	437.69
570.853	419.69
571.064	407.69
571.276	407.69
571.487	428.69
571.698	399.69
571.91	398.69
572.121	378.69
572.333	390.69
572.544	392.69
572.755	380.69
572.966	390.69
573.178	377.69
573.389	370.69
573.6	392.69
573.811	366.69
574.023	362.69
574.234	380.69
574.445	360.69
574.656	364.69
574.867	362.69
575.078	368.69
575.289	362.69
575.501	368.69
575.712	364.69
575.923	362.69
576.134	372.69
576.345	354.69
576.556	346.69
576.767	349.69
576.978	357.69
577.188	371.69
577.399	380.69
577.61	340.69
577.821	365.69
578.032	365.69
578.243	360.69
578.454	486.69
578.665	406.69
578.875	382.69
579.086	355.69
579.297	357.69
579.508	364.69
579.718	349.69
579.929	335.69
580.14	329.69
580.35	352.69
580.561	322.69
580.772	338.69
580.982	340.69
581.193	334.69
581.403	330.69
581.614	330.69
581.825	340.69
582.035	328.69
582.246	328.69
582.456	325.69
582.667	342.69
582.877	308.69
583.087	317.69
583.298	320.69
583.508	327.69
583.719	331.69
583.929	331.69
584.139	303.69
584.35	334.69
584.56	334.69
584.77	318.69
584.981	324.69
585.191	318.69
585.401	327.69
585.611	300.69
585.821	346.69
586.032	324.69
586.242	321.69
586.452	320.69
586.662	316.69
586.872	322.69
587.082	313.69
587.292	313.69
587.502	306.69
587.713	331.69
587.923	311.69
588.133	313.69
588.343	315.69
588.553	315.69
588.762	319.69
588.972	307.69
589.182	312.69
589.392	324.69
589.602	315.69
589.812	311.69
590.022	328.69
590.232	318.69
590.441	339.69
590.651	330.69
590.861	336.69
591.071	308.69
591.281	324.69
591.49	325.69
591.7	335.69
591.91	319.69
592.119	318.69
592.329	324.69
592.539	342.69
592.748	343.69
592.958	347.69
593.167	368.69
593.377	332.69
593.587	351.69
593.796	340.69
594.006	349.69
594.215	344.69
594.424	322.69
594.634	355.69
594.843	336.69
595.053	336.69
595.262	326.69
595.472	322.69
595.681	325.69
595.89	325.69
596.1	314.69
596.309	299.69
596.518	306.69
596.727	310.69
596.937	286.69
597.146	302.69
597.355	309.69
597.564	314.69
597.774	296.69
597.983	304.69
598.192	286.69
598.401	279.69
598.61	290.69
598.819	286.69
599.028	285.69
599.237	289.69
599.446	280.69
599.655	276.69
599.864	289.69
600.073	288.69
600.282	289.69
600.491	282.69
600.7	295.69
600.909	278.69
601.118	272.69
601.327	275.69
601.536	286.69
601.745	278.69
601.953	276.69
602.162	277.69
602.371	278.69
602.58	260.69
602.789	283.69
602.997	285.69
603.206	278.69
603.415	275.69
603.623	274.69
603.832	249.69
604.041	268.69
604.249	263.69
604.458	275.69
604.666	262.69
604.875	264.69
605.084	250.69
605.292	266.69
605.501	278.69
605.709	247.69
605.918	257.69
606.126	258.69
606.334	270.69
606.543	273.69
606.751	262.69
606.96	262.69
607.168	255.69
607.376	253.69
607.585	250.69
607.793	263.69
608.001	250.69
608.21	244.69
608.418	263.69
608.626	252.69
608.834	262.69
609.043	264.69
609.251	243.69
609.459	246.69
609.667	283.69
609.875	277.69
610.083	253.69
610.291	258.69
610.499	246.69
610.707	273.69
610.916	270.69
611.124	278.69
611.332	268.69
611.54	286.69
611.748	263.69
611.955	269.69
612.163	258.69
612.371	258.69
612.579	265.69
612.787	270.69
612.995	238.69
613.203	239.69
613.411	232.69
613.618	259.69
613.826	260.69
614.034	248.69
614.242	236.69
614.449	248.69
614.657	262.69
614.865	251.69
615.072	235.69
615.28	238.69
615.488	270.69
615.695	239.69
615.903	233.69
616.111	238.69
616.318	231.69
616.526	253.69
616.733	251.69
616.941	250.69
617.148	249.69
617.356	240.69
617.563	247.69
617.771	263.69
617.978	236.69
618.185	247.69
618.393	249.69
618.6	249.69
618.807	251.69
619.015	232.69
619.222	231.69
619.429	248.69
619.637	244.69
619.844	236.69
620.051	243.69
620.258	216.69
620.466	231.69
620.673	230.69
620.88	224.69
621.087	241.69
621.294	244.69
621.501	231.69
621.708	232.69
621.915	235.69
622.122	229.69
622.329	240.69
622.536	254.69
622.743	233.69
622.95	235.69
623.157	237.69
623.364	238.69
623.571	221.69
623.778	225.69
623.985	214.69
624.192	211.69
624.399	227.69
624.606	246.69
624.812	215.69
625.019	224.69
625.226	229.69
625.433	250.69
625.639	228.69
625.846	223.69
626.053	220.69
626.259	228.69
626.466	221.69
626.673	202.69
626.879	226.69
627.086	203.69
627.293	223.69
627.499	217.69
627.706	207.69
627.912	202.69
628.119	209.69
628.325	219.69
628.532	216.69
628.738	196.69
628.945	219.69
629.151	209.69
629.357	223.69
629.564	190.69
629.77	200.69
629.976	207.69
630.183	191.69
630.389	211.69
630.595	209.69
630.802	202.69
631.008	207.69
631.214	199.69
631.42	202.69
631.627	205.69
631.833	210.69
632.039	203.69
632.245	199.69
632.451	210.69
632.657	197.69
632.863	202.69
633.069	195.69
633.275	196.69
633.481	222.69
633.688	196.69
633.893	204.69
634.099	202.69
634.305	199.69
634.511	190.69
634.717	195.69
634.923	190.69
635.129	190.69
635.335	190.69
635.541	197.69
635.747	196.69
635.952	187.69
636.158	174.69
636.364	194.69
636.57	206.69
636.775	187.69
636.981	194.69
637.187	203.69
637.392	181.69
637.598	197.69
637.804	196.69
638.009	199.69
638.215	189.69
638.421	184.69
638.626	181.69
638.832	189.69
639.037	178.69
639.243	187.69
639.448	197.69
639.654	188.69
639.859	178.69
640.065	172.69
640.27	166.69
640.475	192.69
640.681	200.69
640.886	168.69
641.091	190.69
641.297	199.69
641.502	194.69
641.707	181.69
641.913	159.69
642.118	187.69
642.323	190.69
642.528	194.69
642.733	185.69
642.939	186.69
643.144	172.69
643.349	182.69
643.554	180.69
643.759	170.69
643.964	171.69
644.169	167.69
644.374	164.69
644.579	190.69
644.784	162.69
644.989	178.69
645.194	167.69
645.399	184.69
645.604	181.69
645.809	170.69
646.014	199.69
646.219	177.69
646.423	183.69
646.628	182.69
646.833	184.69
647.038	171.69
647.243	173.69
647.447	186.69
647.652	181.69
647.857	172.69
648.062	180.69
648.266	196.69
648.471	184.69
648.676	175.69
648.88	175.69
649.085	171.69
649.289	186.69
649.494	197.69
649.698	202.69
649.903	180.69
650.107	197.69
650.312	175.69
650.516	168.69
650.721	164.69
650.925	169.69
651.13	152.69
651.334	154.69
651.539	159.69
651.743	164.69
651.947	157.69
652.152	156.69
652.356	143.69
652.56	144.69
652.764	159.69
652.969	140.69
653.173	139.69
653.377	150.69
653.581	154.69
653.785	147.69
653.99	140.69
654.194	148.69
654.398	154.69
654.602	129.69
654.806	147.69
655.01	146.69
655.214	153.69
655.418	130.69
655.622	133.69
655.826	146.69
656.03	159.69
656.234	143.69
656.438	137.69
656.642	135.69
656.846	127.69
657.049	128.69
657.253	143.69
657.457	127.69
657.661	130.69
657.865	113.69
658.068	111.69
658.272	111.69
658.476	105.69
658.68	102.69
658.883	85.69
659.087	102.69
659.291	108.69
659.494	106.69
659.698	108.69
659.901	107.69
660.105	111.69
660.309	109.69
660.512	97.69
660.716	96.69
660.919	98.69
661.123	104.69
661.326	100.69
661.53	80.69
661.733	82.69
661.936	83.69
662.14	88.69
662.343	89.69
662.546	61.69
662.75	100.69
662.953	92.69
663.156	74.69
663.36	76.69
663.563	76.69
663.766	83.69
663.969	86.69
664.173	88.69
664.376	83.69
664.579	77.69
664.782	88.69
664.985	88.69
665.188	76.69
665.391	71.69
665.594	86.69
665.797	80.69
666	86.69
666.203	77.69
666.406	67.69
666.609	78.69
666.812	68.69
667.015	77.69
667.218	81.69
667.421	74.69
667.624	74.69
667.827	84.69
668.03	82.69
668.232	81.69
668.435	80.69
668.638	86.69
668.841	81.69
669.043	70.69
669.246	75.69
669.449	88.69
669.651	64.69
669.854	81.69
670.057	80.69
670.259	86.69
670.462	83.69
670.665	75.69
670.867	77.69
671.07	94.69
671.272	84.69
671.475	107.69
671.677	73.69
671.88	84.69
672.082	87.69
672.284	83.69
672.487	90.69
672.689	73.69
672.892	73.69
