Data from 1978.PennyLincolnUp.Lamp.En5.5.200Scan.071719.P1_HRD10591_16-14-15-863.txt Node
Date: Thu Jul 18 16:14:15 EDT 2019
User: cochatt
Spectrometer: HR+D1059
Trigger mode: 1
Integration Time (sec): 1.000000E-1
Scans to average: 1
Electric dark correction enabled: true
Nonlinearity correction enabled: false
Boxcar width: 0
XAxis mode: Wavelengths
Number of Pixels in Spectrum: 2048
>>>>>Begin Spectral Data<<<<<
223.165	-17.31
223.4	-17.31
223.635	-17.31
223.869	-1.31
224.104	-26.31
224.338	-14.31
224.573	-38.31
224.808	-6.31
225.042	-1.31
225.277	1.69
225.511	-9.31
225.746	11.69
225.98	14.69
226.215	14.69
226.449	7.69
226.683	19.69
226.918	21.69
227.152	22.69
227.387	32.69
227.621	19.69
227.856	34.69
228.09	41.69
228.324	48.69
228.559	53.69
228.793	59.69
229.027	76.69
229.262	114.69
229.496	108.69
229.73	129.69
229.964	143.69
230.199	125.69
230.433	103.69
230.667	107.69
230.901	106.69
231.136	109.69
231.37	112.69
231.604	112.69
231.838	125.69
232.072	122.69
232.306	99.69
232.541	106.69
232.775	108.69
233.009	117.69
233.243	120.69
233.477	105.69
233.711	101.69
233.945	98.69
234.179	104.69
234.413	94.69
234.647	122.69
234.881	114.69
235.115	116.69
235.349	104.69
235.583	119.69
235.817	130.69
236.051	135.69
236.285	117.69
236.519	120.69
236.753	110.69
236.987	147.69
237.221	176.69
237.455	219.69
237.689	178.69
237.922	154.69
238.156	138.69
238.39	128.69
238.624	120.69
238.858	123.69
239.091	114.69
239.325	118.69
239.559	124.69
239.793	139.69
240.027	139.69
240.26	142.69
240.494	143.69
240.728	134.69
240.961	140.69
241.195	132.69
241.429	135.69
241.662	124.69
241.896	137.69
242.13	126.69
242.363	130.69
242.597	122.69
242.83	125.69
243.064	122.69
243.298	132.69
243.531	126.69
243.765	139.69
243.998	134.69
244.232	132.69
244.465	139.69
244.699	140.69
244.932	135.69
245.166	130.69
245.399	141.69
245.633	134.69
245.866	138.69
246.099	139.69
246.333	155.69
246.566	136.69
246.8	151.69
247.033	148.69
247.266	142.69
247.5	149.69
247.733	159.69
247.966	161.69
248.2	153.69
248.433	171.69
248.666	152.69
248.899	169.69
249.133	186.69
249.366	195.69
249.599	170.69
249.832	165.69
250.066	169.69
250.299	178.69
250.532	200.69
250.765	193.69
250.998	216.69
251.231	208.69
251.465	202.69
251.698	194.69
251.931	176.69
252.164	182.69
252.397	196.69
252.63	187.69
252.863	201.69
253.096	204.69
253.329	209.69
253.562	226.69
253.795	217.69
254.028	199.69
254.261	205.69
254.494	208.69
254.727	234.69
254.96	258.69
255.193	259.69
255.426	232.69
255.659	208.69
255.892	219.69
256.124	201.69
256.357	213.69
256.59	215.69
256.823	201.69
257.056	195.69
257.289	200.69
257.521	182.69
257.754	216.69
257.987	204.69
258.22	208.69
258.452	197.69
258.685	204.69
258.918	208.69
259.151	209.69
259.383	224.69
259.616	212.69
259.849	211.69
260.081	233.69
260.314	251.69
260.547	235.69
260.779	237.69
261.012	231.69
261.244	203.69
261.477	223.69
261.71	219.69
261.942	206.69
262.175	234.69
262.407	214.69
262.64	203.69
262.872	225.69
263.105	224.69
263.337	209.69
263.57	202.69
263.802	218.69
264.035	192.69
264.267	197.69
264.499	210.69
264.732	212.69
264.964	204.69
265.197	220.69
265.429	216.69
265.661	207.69
265.894	202.69
266.126	215.69
266.358	210.69
266.591	207.69
266.823	223.69
267.055	223.69
267.287	218.69
267.52	207.69
267.752	217.69
267.984	231.69
268.216	216.69
268.448	214.69
268.681	216.69
268.913	222.69
269.145	257.69
269.377	234.69
269.609	260.69
269.841	248.69
270.073	251.69
270.306	274.69
270.538	280.69
270.77	298.69
271.002	288.69
271.234	277.69
271.466	282.69
271.698	289.69
271.93	283.69
272.162	296.69
272.394	286.69
272.626	290.69
272.858	284.69
273.09	258.69
273.322	259.69
273.553	244.69
273.785	261.69
274.017	240.69
274.249	247.69
274.481	252.69
274.713	266.69
274.945	278.69
275.176	244.69
275.408	250.69
275.64	265.69
275.872	271.69
276.104	270.69
276.335	246.69
276.567	261.69
276.799	281.69
277.031	304.69
277.262	307.69
277.494	291.69
277.726	279.69
277.957	266.69
278.189	270.69
278.421	265.69
278.652	279.69
278.884	275.69
279.115	266.69
279.347	249.69
279.579	267.69
279.81	254.69
280.042	268.69
280.273	290.69
280.505	257.69
280.736	285.69
280.968	255.69
281.199	257.69
281.431	258.69
281.662	263.69
281.894	243.69
282.125	286.69
282.356	282.69
282.588	307.69
282.819	315.69
283.051	259.69
283.282	265.69
283.513	266.69
283.745	256.69
283.976	293.69
284.207	270.69
284.439	268.69
284.67	262.69
284.901	271.69
285.132	280.69
285.364	261.69
285.595	278.69
285.826	278.69
286.057	282.69
286.288	261.69
286.52	279.69
286.751	297.69
286.982	275.69
287.213	281.69
287.444	281.69
287.675	260.69
287.906	286.69
288.138	302.69
288.369	292.69
288.6	290.69
288.831	288.69
289.062	300.69
289.293	297.69
289.524	268.69
289.755	298.69
289.986	298.69
290.217	286.69
290.448	282.69
290.679	293.69
290.91	296.69
291.141	288.69
291.371	277.69
291.602	268.69
291.833	280.69
292.064	288.69
292.295	281.69
292.526	279.69
292.757	291.69
292.987	279.69
293.218	266.69
293.449	278.69
293.68	274.69
293.91	282.69
294.141	283.69
294.372	274.69
294.603	300.69
294.833	286.69
295.064	281.69
295.295	299.69
295.525	302.69
295.756	294.69
295.987	294.69
296.217	311.69
296.448	328.69
296.679	305.69
296.909	303.69
297.14	300.69
297.37	317.69
297.601	303.69
297.831	306.69
298.062	290.69
298.292	291.69
298.523	292.69
298.753	294.69
298.984	306.69
299.214	295.69
299.445	316.69
299.675	314.69
299.905	314.69
300.136	295.69
300.366	304.69
300.597	313.69
300.827	313.69
301.057	327.69
301.288	324.69
301.518	325.69
301.748	326.69
301.979	306.69
302.209	314.69
302.439	315.69
302.669	316.69
302.9	340.69
303.13	316.69
303.36	318.69
303.59	345.69
303.82	330.69
304.051	320.69
304.281	318.69
304.511	338.69
304.741	346.69
304.971	308.69
305.201	336.69
305.431	322.69
305.661	331.69
305.891	330.69
306.121	326.69
306.352	321.69
306.582	326.69
306.812	338.69
307.042	332.69
307.272	327.69
307.502	324.69
307.731	333.69
307.961	354.69
308.191	337.69
308.421	317.69
308.651	325.69
308.881	334.69
309.111	364.69
309.341	342.69
309.571	326.69
309.8	354.69
310.03	355.69
310.26	362.69
310.49	378.69
310.72	383.69
310.949	376.69
311.179	391.69
311.409	370.69
311.639	360.69
311.868	371.69
312.098	376.69
312.328	386.69
312.557	391.69
312.787	419.69
313.017	420.69
313.246	382.69
313.476	355.69
313.706	375.69
313.935	381.69
314.165	363.69
314.394	406.69
314.624	410.69
314.853	377.69
315.083	395.69
315.312	379.69
315.542	389.69
315.771	352.69
316.001	377.69
316.23	360.69
316.46	355.69
316.689	365.69
316.919	372.69
317.148	386.69
317.377	373.69
317.607	374.69
317.836	368.69
318.065	378.69
318.295	356.69
318.524	395.69
318.753	338.69
318.983	374.69
319.212	387.69
319.441	383.69
319.67	389.69
319.9	404.69
320.129	384.69
320.358	369.69
320.587	384.69
320.816	387.69
321.046	376.69
321.275	405.69
321.504	404.69
321.733	384.69
321.962	397.69
322.191	403.69
322.42	424.69
322.649	432.69
322.878	437.69
323.108	461.69
323.337	479.69
323.566	487.69
323.795	529.69
324.024	569.69
324.253	669.69
324.482	966.69
324.71	1556.69
324.939	2287.69
325.168	2045.69
325.397	990.69
325.626	682.69
325.855	566.69
326.084	494.69
326.313	501.69
326.542	479.69
326.77	528.69
326.999	668.69
327.228	909.69
327.457	1398.69
327.686	1799.69
327.914	1114.69
328.143	712.69
328.372	606.69
328.6	578.69
328.829	544.69
329.058	556.69
329.287	556.69
329.515	535.69
329.744	521.69
329.972	480.69
330.201	533.69
330.43	536.69
330.658	589.69
330.887	599.69
331.115	587.69
331.344	518.69
331.572	491.69
331.801	486.69
332.03	479.69
332.258	476.69
332.486	459.69
332.715	448.69
332.943	460.69
333.172	474.69
333.4	464.69
333.629	485.69
333.857	484.69
334.085	497.69
334.314	524.69
334.542	499.69
334.771	543.69
334.999	515.69
335.227	497.69
335.455	470.69
335.684	462.69
335.912	443.69
336.14	459.69
336.369	450.69
336.597	455.69
336.825	442.69
337.053	458.69
337.281	469.69
337.51	427.69
337.738	458.69
337.966	456.69
338.194	457.69
338.422	464.69
338.65	440.69
338.878	435.69
339.106	434.69
339.334	431.69
339.562	442.69
339.79	436.69
340.018	441.69
340.246	424.69
340.474	444.69
340.702	433.69
340.93	439.69
341.158	436.69
341.386	459.69
341.614	458.69
341.842	448.69
342.07	447.69
342.298	443.69
342.526	407.69
342.754	423.69
342.981	404.69
343.209	430.69
343.437	447.69
343.665	419.69
343.893	459.69
344.12	437.69
344.348	450.69
344.576	464.69
344.804	474.69
345.031	457.69
345.259	460.69
345.487	453.69
345.714	432.69
345.942	430.69
346.17	431.69
346.397	424.69
346.625	435.69
346.853	414.69
347.08	407.69
347.308	425.69
347.535	421.69
347.763	430.69
347.99	443.69
348.218	430.69
348.445	459.69
348.673	449.69
348.9	436.69
349.128	433.69
349.355	400.69
349.583	408.69
349.81	424.69
350.037	396.69
350.265	407.69
350.492	406.69
350.72	406.69
350.947	417.69
351.174	406.69
351.402	446.69
351.629	423.69
351.856	425.69
352.083	457.69
352.311	438.69
352.538	438.69
352.765	434.69
352.992	439.69
353.22	407.69
353.447	426.69
353.674	406.69
353.901	402.69
354.128	380.69
354.355	390.69
354.583	395.69
354.81	391.69
355.037	409.69
355.264	413.69
355.491	408.69
355.718	401.69
355.945	378.69
356.172	411.69
356.399	408.69
356.626	414.69
356.853	379.69
357.08	408.69
357.307	389.69
357.534	383.69
357.761	409.69
357.988	400.69
358.215	400.69
358.441	387.69
358.668	404.69
358.895	407.69
359.122	418.69
359.349	404.69
359.576	423.69
359.802	458.69
360.029	458.69
360.256	471.69
360.483	467.69
360.709	475.69
360.936	449.69
361.163	428.69
361.39	404.69
361.616	415.69
361.843	440.69
362.07	430.69
362.296	427.69
362.523	430.69
362.749	420.69
362.976	423.69
363.203	418.69
363.429	398.69
363.656	405.69
363.882	403.69
364.109	426.69
364.335	435.69
364.562	397.69
364.788	430.69
365.015	417.69
365.241	420.69
365.468	418.69
365.694	433.69
365.92	419.69
366.147	419.69
366.373	439.69
366.599	425.69
366.826	410.69
367.052	399.69
367.278	411.69
367.505	430.69
367.731	416.69
367.957	406.69
368.184	416.69
368.41	422.69
368.636	424.69
368.862	443.69
369.089	426.69
369.315	422.69
369.541	409.69
369.767	407.69
369.993	440.69
370.219	411.69
370.445	410.69
370.672	425.69
370.898	414.69
371.124	406.69
371.35	418.69
371.576	419.69
371.802	408.69
372.028	418.69
372.254	416.69
372.48	422.69
372.706	417.69
372.932	420.69
373.158	422.69
373.384	431.69
373.61	420.69
373.835	418.69
374.061	451.69
374.287	424.69
374.513	430.69
374.739	423.69
374.965	415.69
375.191	444.69
375.416	442.69
375.642	434.69
375.868	443.69
376.094	451.69
376.319	414.69
376.545	436.69
376.771	400.69
376.997	408.69
377.222	430.69
377.448	396.69
377.674	400.69
377.899	416.69
378.125	414.69
378.35	437.69
378.576	423.69
378.802	415.69
379.027	414.69
379.253	419.69
379.478	417.69
379.704	405.69
379.929	420.69
380.155	412.69
380.38	411.69
380.606	422.69
380.831	424.69
381.057	424.69
381.282	419.69
381.507	425.69
381.733	453.69
381.958	419.69
382.184	415.69
382.409	422.69
382.634	425.69
382.86	427.69
383.085	434.69
383.31	418.69
383.535	461.69
383.761	432.69
383.986	426.69
384.211	461.69
384.436	443.69
384.662	434.69
384.887	446.69
385.112	464.69
385.337	456.69
385.562	454.69
385.787	457.69
386.013	478.69
386.238	486.69
386.463	470.69
386.688	478.69
386.913	456.69
387.138	472.69
387.363	471.69
387.588	459.69
387.813	450.69
388.038	456.69
388.263	475.69
388.488	447.69
388.713	465.69
388.938	487.69
389.163	479.69
389.387	480.69
389.612	497.69
389.837	498.69
390.062	451.69
390.287	474.69
390.512	472.69
390.736	491.69
390.961	481.69
391.186	465.69
391.411	481.69
391.636	511.69
391.86	487.69
392.085	486.69
392.31	484.69
392.534	485.69
392.759	459.69
392.984	480.69
393.208	492.69
393.433	475.69
393.658	482.69
393.882	475.69
394.107	459.69
394.331	476.69
394.556	478.69
394.78	478.69
395.005	487.69
395.229	494.69
395.454	482.69
395.678	496.69
395.903	507.69
396.127	543.69
396.352	524.69
396.576	503.69
396.801	480.69
397.025	506.69
397.249	495.69
397.474	510.69
397.698	502.69
397.922	515.69
398.147	538.69
398.371	551.69
398.595	539.69
398.82	551.69
399.044	544.69
399.268	571.69
399.492	615.69
399.717	642.69
399.941	638.69
400.165	680.69
400.389	694.69
400.613	631.69
400.837	608.69
401.062	591.69
401.286	570.69
401.51	543.69
401.734	558.69
401.958	545.69
402.182	552.69
402.406	564.69
402.63	550.69
402.854	536.69
403.078	547.69
403.302	546.69
403.526	563.69
403.75	591.69
403.974	583.69
404.198	552.69
404.422	575.69
404.645	597.69
404.869	574.69
405.093	620.69
405.317	649.69
405.541	697.69
405.765	628.69
405.988	586.69
406.212	600.69
406.436	603.69
406.66	652.69
406.883	618.69
407.107	659.69
407.331	697.69
407.555	776.69
407.778	784.69
408.002	694.69
408.226	626.69
408.449	658.69
408.673	642.69
408.896	647.69
409.12	721.69
409.344	668.69
409.567	579.69
409.791	577.69
410.014	571.69
410.238	568.69
410.461	582.69
410.685	598.69
410.908	593.69
411.132	644.69
411.355	664.69
411.578	635.69
411.802	580.69
412.025	572.69
412.249	572.69
412.472	628.69
412.695	648.69
412.919	647.69
413.142	598.69
413.365	568.69
413.589	553.69
413.812	578.69
414.035	568.69
414.258	555.69
414.482	542.69
414.705	526.69
414.928	556.69
415.151	551.69
415.374	562.69
415.597	558.69
415.821	553.69
416.044	549.69
416.267	545.69
416.49	549.69
416.713	553.69
416.936	525.69
417.159	522.69
417.382	552.69
417.605	567.69
417.828	564.69
418.051	581.69
418.274	568.69
418.497	536.69
418.72	552.69
418.943	556.69
419.166	565.69
419.389	599.69
419.611	584.69
419.834	588.69
420.057	572.69
420.28	579.69
420.503	555.69
420.726	554.69
420.948	580.69
421.171	626.69
421.394	670.69
421.617	599.69
421.839	560.69
422.062	567.69
422.285	563.69
422.507	652.69
422.73	731.69
422.953	710.69
423.175	615.69
423.398	615.69
423.621	581.69
423.843	610.69
424.066	598.69
424.288	604.69
424.511	620.69
424.733	691.69
424.956	786.69
425.178	736.69
425.401	717.69
425.623	759.69
425.846	648.69
426.068	609.69
426.291	594.69
426.513	577.69
426.735	592.69
426.958	640.69
427.18	766.69
427.402	882.69
427.625	971.69
427.847	862.69
428.069	707.69
428.292	661.69
428.514	585.69
428.736	596.69
428.958	560.69
429.181	557.69
429.403	548.69
429.625	580.69
429.847	607.69
430.069	670.69
430.292	662.69
430.514	571.69
430.736	545.69
430.958	569.69
431.18	562.69
431.402	543.69
431.624	547.69
431.846	517.69
432.068	537.69
432.29	534.69
432.512	532.69
432.734	531.69
432.956	526.69
433.178	534.69
433.4	558.69
433.622	550.69
433.844	551.69
434.066	543.69
434.287	531.69
434.509	510.69
434.731	555.69
434.953	554.69
435.175	578.69
435.397	596.69
435.618	585.69
435.84	658.69
436.062	734.69
436.284	848.69
436.505	697.69
436.727	596.69
436.949	582.69
437.17	579.69
437.392	561.69
437.614	570.69
437.835	600.69
438.057	684.69
438.278	847.69
438.5	832.69
438.721	919.69
438.943	871.69
439.165	698.69
439.386	622.69
439.608	611.69
439.829	608.69
440.05	651.69
440.272	690.69
440.493	638.69
440.715	609.69
440.936	601.69
441.158	579.69
441.379	560.69
441.6	570.69
441.822	588.69
442.043	655.69
442.264	732.69
442.486	784.69
442.707	686.69
442.928	624.69
443.149	640.69
443.371	640.69
443.592	690.69
443.813	793.69
444.034	855.69
444.255	710.69
444.476	630.69
444.698	630.69
444.919	623.69
445.14	719.69
445.361	674.69
445.582	649.69
445.803	760.69
446.024	888.69
446.245	883.69
446.466	760.69
446.687	648.69
446.908	627.69
447.129	605.69
447.35	576.69
447.571	563.69
447.792	543.69
448.013	559.69
448.234	576.69
448.455	629.69
448.675	756.69
448.896	886.69
449.117	728.69
449.338	707.69
449.559	823.69
449.779	967.69
450	746.69
450.221	611.69
450.442	585.69
450.662	560.69
450.883	549.69
451.104	558.69
451.324	536.69
451.545	522.69
451.766	503.69
451.986	509.69
452.207	495.69
452.428	487.69
452.648	494.69
452.869	498.69
453.089	511.69
453.31	530.69
453.53	518.69
453.751	510.69
453.971	507.69
454.192	537.69
454.412	523.69
454.633	515.69
454.853	504.69
455.073	501.69
455.294	534.69
455.514	578.69
455.734	579.69
455.955	506.69
456.175	490.69
456.395	483.69
456.616	484.69
456.836	483.69
457.056	476.69
457.276	476.69
457.497	478.69
457.717	466.69
457.937	492.69
458.157	486.69
458.377	503.69
458.598	504.69
458.818	562.69
459.038	645.69
459.258	648.69
459.478	611.69
459.698	544.69
459.918	519.69
460.138	549.69
460.358	530.69
460.578	547.69
460.798	563.69
461.018	535.69
461.238	559.69
461.458	538.69
461.678	538.69
461.898	545.69
462.118	530.69
462.338	573.69
462.558	567.69
462.777	590.69
462.997	598.69
463.217	623.69
463.437	632.69
463.657	578.69
463.876	614.69
464.096	604.69
464.316	596.69
464.536	604.69
464.755	587.69
464.975	592.69
465.195	626.69
465.414	687.69
465.634	623.69
465.854	592.69
466.073	551.69
466.293	545.69
466.512	546.69
466.732	505.69
466.951	514.69
467.171	513.69
467.391	523.69
467.61	540.69
467.829	522.69
468.049	516.69
468.268	545.69
468.488	520.69
468.707	516.69
468.927	550.69
469.146	500.69
469.365	511.69
469.585	500.69
469.804	521.69
470.023	526.69
470.243	520.69
470.462	524.69
470.681	554.69
470.901	578.69
471.12	525.69
471.339	527.69
471.558	531.69
471.777	519.69
471.997	510.69
472.216	543.69
472.435	585.69
472.654	545.69
472.873	537.69
473.092	551.69
473.311	559.69
473.53	538.69
473.749	541.69
473.968	572.69
474.187	708.69
474.406	704.69
474.625	596.69
474.844	538.69
475.063	510.69
475.282	524.69
475.501	539.69
475.72	544.69
475.939	543.69
476.158	508.69
476.377	539.69
476.596	529.69
476.814	563.69
477.033	571.69
477.252	550.69
477.471	551.69
477.69	576.69
477.908	584.69
478.127	589.69
478.346	577.69
478.564	584.69
478.783	597.69
479.002	585.69
479.22	644.69
479.439	612.69
479.658	630.69
479.876	631.69
480.095	642.69
480.313	651.69
480.532	636.69
480.751	616.69
480.969	642.69
481.188	704.69
481.406	746.69
481.624	669.69
481.843	642.69
482.061	636.69
482.28	641.69
482.498	607.69
482.717	615.69
482.935	606.69
483.153	617.69
483.372	603.69
483.59	601.69
483.808	597.69
484.027	633.69
484.245	624.69
484.463	615.69
484.681	634.69
484.9	634.69
485.118	636.69
485.336	630.69
485.554	655.69
485.772	647.69
485.99	618.69
486.209	646.69
486.427	620.69
486.645	642.69
486.863	669.69
487.081	686.69
487.299	668.69
487.517	634.69
487.735	635.69
487.953	656.69
488.171	663.69
488.389	666.69
488.607	639.69
488.825	684.69
489.043	665.69
489.261	663.69
489.479	674.69
489.696	687.69
489.914	646.69
490.132	683.69
490.35	698.69
490.568	680.69
490.786	692.69
491.003	703.69
491.221	721.69
491.439	720.69
491.657	716.69
491.874	743.69
492.092	723.69
492.31	722.69
492.527	766.69
492.745	741.69
492.963	753.69
493.18	761.69
493.398	752.69
493.615	773.69
493.833	774.69
494.05	781.69
494.268	775.69
494.485	770.69
494.703	746.69
494.92	783.69
495.138	769.69
495.355	767.69
495.573	748.69
495.79	762.69
496.008	760.69
496.225	754.69
496.442	773.69
496.66	777.69
496.877	782.69
497.094	814.69
497.312	812.69
497.529	788.69
497.746	832.69
497.963	818.69
498.181	854.69
498.398	865.69
498.615	886.69
498.832	896.69
499.049	935.69
499.267	943.69
499.484	966.69
499.701	979.69
499.918	1025.69
500.135	1080.69
500.352	1097.69
500.569	1143.69
500.786	1142.69
501.003	1129.69
501.22	1097.69
501.437	1034.69
501.654	1036.69
501.871	984.69
502.088	953.69
502.305	958.69
502.522	923.69
502.739	898.69
502.956	848.69
503.172	862.69
503.389	846.69
503.606	847.69
503.823	827.69
504.04	788.69
504.256	812.69
504.473	812.69
504.69	794.69
504.907	763.69
505.123	760.69
505.34	770.69
505.557	776.69
505.773	782.69
505.99	743.69
506.207	777.69
506.423	740.69
506.64	722.69
506.856	722.69
507.073	736.69
507.289	727.69
507.506	717.69
507.722	748.69
507.939	699.69
508.155	693.69
508.372	707.69
508.588	679.69
508.805	698.69
509.021	699.69
509.238	714.69
509.454	740.69
509.67	731.69
509.887	678.69
510.103	664.69
510.319	693.69
510.536	780.69
510.752	1237.69
510.968	1024.69
511.184	708.69
511.401	670.69
511.617	672.69
511.833	676.69
512.049	666.69
512.265	644.69
512.481	645.69
512.698	649.69
512.914	663.69
513.13	655.69
513.346	663.69
513.562	633.69
513.778	686.69
513.994	656.69
514.21	700.69
514.426	721.69
514.642	714.69
514.858	783.69
515.074	768.69
515.29	923.69
515.506	1224.69
515.721	1080.69
515.937	806.69
516.153	732.69
516.369	708.69
516.585	690.69
516.801	712.69
517.016	695.69
517.232	712.69
517.448	727.69
517.664	733.69
517.879	699.69
518.095	693.69
518.311	693.69
518.527	693.69
518.742	673.69
518.958	654.69
519.173	670.69
519.389	669.69
519.605	672.69
519.82	670.69
520.036	679.69
520.251	705.69
520.467	733.69
520.682	733.69
520.898	703.69
521.113	733.69
521.329	777.69
521.544	855.69
521.76	1011.69
521.975	1552.69
522.19	1576.69
522.406	931.69
522.621	728.69
522.836	692.69
523.052	680.69
523.267	636.69
523.482	631.69
523.698	628.69
523.913	617.69
524.128	610.69
524.343	600.69
524.559	600.69
524.774	576.69
524.989	603.69
525.204	598.69
525.419	612.69
525.634	595.69
525.849	580.69
526.064	570.69
526.28	574.69
526.495	564.69
526.71	555.69
526.925	566.69
527.14	551.69
527.355	560.69
527.57	556.69
527.785	562.69
527.999	554.69
528.214	550.69
528.429	552.69
528.644	573.69
528.859	537.69
529.074	551.69
529.289	561.69
529.503	642.69
529.718	625.69
529.933	584.69
530.148	566.69
530.363	559.69
530.577	562.69
530.792	554.69
531.007	565.69
531.221	544.69
531.436	556.69
531.651	554.69
531.865	550.69
532.08	541.69
532.295	544.69
532.509	549.69
532.724	546.69
532.938	542.69
533.153	534.69
533.367	522.69
533.582	535.69
533.796	530.69
534.011	526.69
534.225	529.69
534.44	513.69
534.654	521.69
534.868	522.69
535.083	533.69
535.297	536.69
535.511	513.69
535.726	531.69
535.94	558.69
536.154	544.69
536.369	529.69
536.583	538.69
536.797	531.69
537.011	505.69
537.225	501.69
537.44	529.69
537.654	514.69
537.868	488.69
538.082	507.69
538.296	521.69
538.51	486.69
538.724	508.69
538.938	516.69
539.153	502.69
539.367	534.69
539.581	521.69
539.795	504.69
540.009	515.69
540.222	535.69
540.436	505.69
540.65	486.69
540.864	516.69
541.078	534.69
541.292	517.69
541.506	516.69
541.72	522.69
541.934	503.69
542.147	506.69
542.361	508.69
542.575	485.69
542.789	507.69
543.002	520.69
543.216	515.69
543.43	536.69
543.644	495.69
543.857	487.69
544.071	514.69
544.285	497.69
544.498	498.69
544.712	492.69
544.925	495.69
545.139	508.69
545.352	508.69
545.566	512.69
545.779	501.69
545.993	504.69
546.206	507.69
546.42	514.69
546.633	517.69
546.847	492.69
547.06	483.69
547.274	496.69
547.487	481.69
547.7	494.69
547.914	491.69
548.127	475.69
548.34	483.69
548.554	483.69
548.767	499.69
548.98	483.69
549.193	496.69
549.407	481.69
549.62	499.69
549.833	485.69
550.046	490.69
550.259	498.69
550.473	490.69
550.686	482.69
550.899	482.69
551.112	464.69
551.325	466.69
551.538	494.69
551.751	495.69
551.964	478.69
552.177	486.69
552.39	480.69
552.603	456.69
552.816	494.69
553.029	485.69
553.242	491.69
553.455	493.69
553.667	502.69
553.88	508.69
554.093	490.69
554.306	456.69
554.519	487.69
554.732	466.69
554.944	466.69
555.157	468.69
555.37	479.69
555.583	472.69
555.795	458.69
556.008	451.69
556.221	437.69
556.433	453.69
556.646	448.69
556.859	431.69
557.071	432.69
557.284	437.69
557.496	436.69
557.709	430.69
557.921	442.69
558.134	446.69
558.346	439.69
558.559	430.69
558.771	428.69
558.984	427.69
559.196	451.69
559.409	434.69
559.621	430.69
559.833	439.69
560.046	417.69
560.258	448.69
560.47	455.69
560.683	421.69
560.895	432.69
561.107	421.69
561.32	442.69
561.532	441.69
561.744	423.69
561.956	458.69
562.168	432.69
562.381	438.69
562.593	448.69
562.805	434.69
563.017	439.69
563.229	450.69
563.441	444.69
563.653	445.69
563.865	432.69
564.077	435.69
564.289	442.69
564.501	469.69
564.713	463.69
564.925	478.69
565.137	472.69
565.349	473.69
565.561	481.69
565.773	480.69
565.985	480.69
566.197	491.69
566.408	495.69
566.62	544.69
566.832	544.69
567.044	540.69
567.255	539.69
567.467	569.69
567.679	555.69
567.891	560.69
568.102	549.69
568.314	550.69
568.526	536.69
568.737	504.69
568.949	488.69
569.161	487.69
569.372	474.69
569.584	467.69
569.795	476.69
570.007	464.69
570.218	457.69
570.43	471.69
570.641	427.69
570.853	426.69
571.064	418.69
571.276	415.69
571.487	422.69
571.698	403.69
571.91	406.69
572.121	440.69
572.333	404.69
572.544	377.69
572.755	387.69
572.966	404.69
573.178	390.69
573.389	403.69
573.6	398.69
573.811	397.69
574.023	395.69
574.234	373.69
574.445	360.69
574.656	386.69
574.867	358.69
575.078	394.69
575.289	379.69
575.501	358.69
575.712	356.69
575.923	376.69
576.134	368.69
576.345	357.69
576.556	352.69
576.767	355.69
576.978	373.69
577.188	374.69
577.399	377.69
577.61	354.69
577.821	357.69
578.032	350.69
578.243	405.69
578.454	575.69
578.665	458.69
578.875	379.69
579.086	348.69
579.297	360.69
579.508	352.69
579.718	355.69
579.929	333.69
580.14	335.69
580.35	330.69
580.561	363.69
580.772	345.69
580.982	359.69
581.193	350.69
581.403	358.69
581.614	343.69
581.825	339.69
582.035	322.69
582.246	326.69
582.456	315.69
582.667	320.69
582.877	322.69
583.087	340.69
583.298	340.69
583.508	327.69
583.719	328.69
583.929	330.69
584.139	332.69
584.35	330.69
584.56	329.69
584.77	338.69
584.981	324.69
585.191	317.69
585.401	335.69
585.611	326.69
585.821	345.69
586.032	339.69
586.242	338.69
586.452	339.69
586.662	326.69
586.872	316.69
587.082	326.69
587.292	330.69
587.502	328.69
587.713	332.69
587.923	308.69
588.133	324.69
588.343	327.69
588.553	322.69
588.762	318.69
588.972	318.69
589.182	308.69
589.392	326.69
589.602	327.69
589.812	330.69
590.022	345.69
590.232	338.69
590.441	327.69
590.651	331.69
590.861	335.69
591.071	336.69
591.281	336.69
591.49	319.69
591.7	337.69
591.91	338.69
592.119	327.69
592.329	337.69
592.539	344.69
592.748	340.69
592.958	358.69
593.167	337.69
593.377	344.69
593.587	340.69
593.796	333.69
594.006	336.69
594.215	340.69
594.424	361.69
594.634	344.69
594.843	344.69
595.053	339.69
595.262	343.69
595.472	336.69
595.681	327.69
595.89	324.69
596.1	331.69
596.309	318.69
596.518	307.69
596.727	302.69
596.937	313.69
597.146	299.69
597.355	322.69
597.564	312.69
597.774	308.69
597.983	308.69
598.192	288.69
598.401	318.69
598.61	305.69
598.819	306.69
599.028	293.69
599.237	297.69
599.446	299.69
599.655	291.69
599.864	313.69
600.073	292.69
600.282	274.69
600.491	294.69
600.7	273.69
600.909	280.69
601.118	292.69
601.327	271.69
601.536	277.69
601.745	300.69
601.953	305.69
602.162	286.69
602.371	272.69
602.58	270.69
602.789	278.69
602.997	284.69
603.206	279.69
603.415	269.69
603.623	262.69
603.832	275.69
604.041	280.69
604.249	287.69
604.458	267.69
604.666	306.69
604.875	268.69
605.084	269.69
605.292	280.69
605.501	282.69
605.709	271.69
605.918	260.69
606.126	268.69
606.334	262.69
606.543	266.69
606.751	283.69
606.96	272.69
607.168	274.69
607.376	269.69
607.585	265.69
607.793	263.69
608.001	246.69
608.21	256.69
608.418	253.69
608.626	263.69
608.834	272.69
609.043	266.69
609.251	254.69
609.459	271.69
609.667	266.69
609.875	252.69
610.083	274.69
610.291	247.69
610.499	259.69
610.707	261.69
610.916	280.69
611.124	280.69
611.332	267.69
611.54	277.69
611.748	243.69
611.955	256.69
612.163	266.69
612.371	270.69
612.579	261.69
612.787	264.69
612.995	263.69
613.203	260.69
613.411	252.69
613.618	255.69
613.826	239.69
614.034	263.69
614.242	257.69
614.449	262.69
614.657	250.69
614.865	265.69
615.072	252.69
615.28	256.69
615.488	265.69
615.695	256.69
615.903	245.69
616.111	263.69
616.318	249.69
616.526	256.69
616.733	262.69
616.941	259.69
617.148	247.69
617.356	264.69
617.563	248.69
617.771	239.69
617.978	245.69
618.185	256.69
618.393	247.69
618.6	254.69
618.807	251.69
619.015	244.69
619.222	241.69
619.429	242.69
619.637	246.69
619.844	240.69
620.051	236.69
620.258	249.69
620.466	235.69
620.673	246.69
620.88	241.69
621.087	217.69
621.294	244.69
621.501	240.69
621.708	236.69
621.915	250.69
622.122	235.69
622.329	245.69
622.536	244.69
622.743	227.69
622.95	222.69
623.157	253.69
623.364	218.69
623.571	243.69
623.778	237.69
623.985	252.69
624.192	244.69
624.399	219.69
624.606	213.69
624.812	235.69
625.019	246.69
625.226	235.69
625.433	233.69
625.639	214.69
625.846	224.69
626.053	227.69
626.259	217.69
626.466	223.69
626.673	248.69
626.879	227.69
627.086	228.69
627.293	227.69
627.499	209.69
627.706	222.69
627.912	226.69
628.119	219.69
628.325	217.69
628.532	229.69
628.738	205.69
628.945	222.69
629.151	207.69
629.357	220.69
629.564	211.69
629.77	201.69
629.976	199.69
630.183	220.69
630.389	216.69
630.595	195.69
630.802	214.69
631.008	202.69
631.214	221.69
631.42	209.69
631.627	188.69
631.833	207.69
632.039	201.69
632.245	200.69
632.451	222.69
632.657	212.69
632.863	197.69
633.069	210.69
633.275	193.69
633.481	204.69
633.688	196.69
633.893	197.69
634.099	211.69
634.305	193.69
634.511	200.69
634.717	196.69
634.923	182.69
635.129	176.69
635.335	195.69
635.541	194.69
635.747	182.69
635.952	184.69
636.158	208.69
636.364	187.69
636.57	175.69
636.775	182.69
636.981	172.69
637.187	199.69
637.392	188.69
637.598	202.69
637.804	190.69
638.009	194.69
638.215	195.69
638.421	201.69
638.626	195.69
638.832	185.69
639.037	184.69
639.243	182.69
639.448	181.69
639.654	188.69
639.859	163.69
640.065	191.69
640.27	200.69
640.475	190.69
640.681	172.69
640.886	178.69
641.091	175.69
641.297	193.69
641.502	171.69
641.707	186.69
641.913	164.69
642.118	172.69
642.323	171.69
642.528	167.69
642.733	178.69
642.939	166.69
643.144	168.69
643.349	176.69
643.554	191.69
643.759	182.69
643.964	182.69
644.169	177.69
644.374	184.69
644.579	181.69
644.784	178.69
644.989	171.69
645.194	156.69
645.399	167.69
645.604	163.69
645.809	172.69
646.014	177.69
646.219	170.69
646.423	167.69
646.628	177.69
646.833	191.69
647.038	166.69
647.243	170.69
647.447	166.69
647.652	187.69
647.857	189.69
648.062	176.69
648.266	182.69
648.471	194.69
648.676	180.69
648.88	171.69
649.085	160.69
649.289	181.69
649.494	190.69
649.698	195.69
649.903	199.69
650.107	189.69
650.312	186.69
650.516	170.69
650.721	174.69
650.925	172.69
651.13	152.69
651.334	163.69
651.539	160.69
651.743	158.69
651.947	152.69
652.152	162.69
652.356	166.69
652.56	147.69
652.764	152.69
652.969	147.69
653.173	154.69
653.377	155.69
653.581	148.69
653.785	131.69
653.99	144.69
654.194	134.69
654.398	140.69
654.602	155.69
654.806	147.69
655.01	162.69
655.214	156.69
655.418	133.69
655.622	156.69
655.826	134.69
656.03	152.69
656.234	143.69
656.438	153.69
656.642	142.69
656.846	139.69
657.049	130.69
657.253	126.69
657.457	131.69
657.661	119.69
657.865	112.69
658.068	112.69
658.272	113.69
658.476	120.69
658.68	95.69
658.883	94.69
659.087	102.69
659.291	98.69
659.494	102.69
659.698	76.69
659.901	76.69
660.105	97.69
660.309	103.69
660.512	91.69
660.716	103.69
660.919	81.69
661.123	102.69
661.326	90.69
661.53	86.69
661.733	110.69
661.936	86.69
662.14	100.69
662.343	77.69
662.546	95.69
662.75	85.69
662.953	87.69
663.156	80.69
663.36	98.69
663.563	82.69
663.766	86.69
663.969	70.69
664.173	95.69
664.376	92.69
664.579	76.69
664.782	71.69
664.985	82.69
665.188	72.69
665.391	76.69
665.594	72.69
665.797	67.69
666	78.69
666.203	78.69
666.406	81.69
666.609	75.69
666.812	73.69
667.015	87.69
667.218	95.69
667.421	81.69
667.624	81.69
667.827	69.69
668.03	73.69
668.232	61.69
668.435	75.69
668.638	83.69
668.841	94.69
669.043	82.69
669.246	69.69
669.449	86.69
669.651	78.69
669.854	74.69
670.057	76.69
670.259	75.69
670.462	72.69
670.665	88.69
670.867	82.69
671.07	77.69
671.272	88.69
671.475	83.69
671.677	87.69
671.88	72.69
672.082	74.69
672.284	80.69
672.487	81.69
672.689	80.69
672.892	94.69
