Data from 1978.PennyLincolnUp.Lamp.En5.5.200Scan.071719.P1_HRD10591_16-11-46-864.txt Node
Date: Thu Jul 18 16:11:46 EDT 2019
User: cochatt
Spectrometer: HR+D1059
Trigger mode: 1
Integration Time (sec): 1.000000E-1
Scans to average: 1
Electric dark correction enabled: true
Nonlinearity correction enabled: false
Boxcar width: 0
XAxis mode: Wavelengths
Number of Pixels in Spectrum: 2048
>>>>>Begin Spectral Data<<<<<
223.165	-19.31
223.4	-19.31
223.635	-19.31
223.869	-27.31
224.104	-21.31
224.338	-11.31
224.573	-9.31
224.808	-8.31
225.042	-11.31
225.277	-11.31
225.511	-18.31
225.746	9.69
225.98	1.69
226.215	17.69
226.449	18.69
226.683	27.69
226.918	28.69
227.152	33.69
227.387	26.69
227.621	44.69
227.856	42.69
228.09	43.69
228.324	34.69
228.559	57.69
228.793	61.69
229.027	89.69
229.262	95.69
229.496	93.69
229.73	104.69
229.964	113.69
230.199	114.69
230.433	90.69
230.667	102.69
230.901	103.69
231.136	105.69
231.37	98.69
231.604	107.69
231.838	116.69
232.072	115.69
232.306	98.69
232.541	112.69
232.775	106.69
233.009	118.69
233.243	111.69
233.477	97.69
233.711	110.69
233.945	110.69
234.179	107.69
234.413	114.69
234.647	105.69
234.881	97.69
235.115	94.69
235.349	95.69
235.583	107.69
235.817	121.69
236.051	105.69
236.285	93.69
236.519	116.69
236.753	103.69
236.987	130.69
237.221	150.69
237.455	191.69
237.689	127.69
237.922	114.69
238.156	113.69
238.39	123.69
238.624	116.69
238.858	115.69
239.091	102.69
239.325	93.69
239.559	101.69
239.793	103.69
240.027	119.69
240.26	105.69
240.494	117.69
240.728	123.69
240.961	113.69
241.195	131.69
241.429	133.69
241.662	119.69
241.896	122.69
242.13	132.69
242.363	121.69
242.597	113.69
242.83	126.69
243.064	108.69
243.298	125.69
243.531	125.69
243.765	123.69
243.998	126.69
244.232	118.69
244.465	133.69
244.699	118.69
244.932	138.69
245.166	123.69
245.399	134.69
245.633	122.69
245.866	138.69
246.099	136.69
246.333	141.69
246.566	152.69
246.8	117.69
247.033	120.69
247.266	137.69
247.5	149.69
247.733	151.69
247.966	152.69
248.2	149.69
248.433	136.69
248.666	154.69
248.899	156.69
249.133	159.69
249.366	178.69
249.599	161.69
249.832	137.69
250.066	153.69
250.299	152.69
250.532	161.69
250.765	156.69
250.998	173.69
251.231	177.69
251.465	170.69
251.698	173.69
251.931	158.69
252.164	161.69
252.397	162.69
252.63	167.69
252.863	174.69
253.096	186.69
253.329	182.69
253.562	166.69
253.795	166.69
254.028	177.69
254.261	181.69
254.494	175.69
254.727	200.69
254.96	196.69
255.193	193.69
255.426	176.69
255.659	170.69
255.892	174.69
256.124	168.69
256.357	171.69
256.59	191.69
256.823	172.69
257.056	179.69
257.289	149.69
257.521	174.69
257.754	172.69
257.987	187.69
258.22	189.69
258.452	168.69
258.685	182.69
258.918	169.69
259.151	170.69
259.383	186.69
259.616	175.69
259.849	182.69
260.081	184.69
260.314	203.69
260.547	205.69
260.779	173.69
261.012	176.69
261.244	185.69
261.477	180.69
261.71	208.69
261.942	190.69
262.175	177.69
262.407	190.69
262.64	179.69
262.872	173.69
263.105	174.69
263.337	188.69
263.57	192.69
263.802	186.69
264.035	170.69
264.267	185.69
264.499	163.69
264.732	190.69
264.964	171.69
265.197	187.69
265.429	193.69
265.661	186.69
265.894	184.69
266.126	188.69
266.358	201.69
266.591	190.69
266.823	189.69
267.055	195.69
267.287	181.69
267.52	189.69
267.752	182.69
267.984	188.69
268.216	194.69
268.448	200.69
268.681	200.69
268.913	184.69
269.145	213.69
269.377	230.69
269.609	230.69
269.841	205.69
270.073	217.69
270.306	220.69
270.538	247.69
270.77	235.69
271.002	231.69
271.234	232.69
271.466	219.69
271.698	227.69
271.93	230.69
272.162	219.69
272.394	229.69
272.626	234.69
272.858	216.69
273.09	207.69
273.322	224.69
273.553	215.69
273.785	223.69
274.017	230.69
274.249	232.69
274.481	227.69
274.713	222.69
274.945	225.69
275.176	221.69
275.408	221.69
275.64	215.69
275.872	211.69
276.104	207.69
276.335	220.69
276.567	227.69
276.799	232.69
277.031	240.69
277.262	253.69
277.494	245.69
277.726	235.69
277.957	241.69
278.189	229.69
278.421	224.69
278.652	223.69
278.884	235.69
279.115	221.69
279.347	215.69
279.579	221.69
279.81	220.69
280.042	218.69
280.273	215.69
280.505	213.69
280.736	253.69
280.968	232.69
281.199	213.69
281.431	227.69
281.662	229.69
281.894	234.69
282.125	239.69
282.356	249.69
282.588	259.69
282.819	271.69
283.051	229.69
283.282	210.69
283.513	241.69
283.745	226.69
283.976	257.69
284.207	237.69
284.439	236.69
284.67	222.69
284.901	242.69
285.132	224.69
285.364	251.69
285.595	241.69
285.826	260.69
286.057	251.69
286.288	236.69
286.52	247.69
286.751	246.69
286.982	235.69
287.213	250.69
287.444	248.69
287.675	242.69
287.906	262.69
288.138	247.69
288.369	258.69
288.6	258.69
288.831	238.69
289.062	239.69
289.293	263.69
289.524	263.69
289.755	257.69
289.986	253.69
290.217	258.69
290.448	249.69
290.679	234.69
290.91	248.69
291.141	263.69
291.371	265.69
291.602	247.69
291.833	265.69
292.064	248.69
292.295	247.69
292.526	254.69
292.757	260.69
292.987	255.69
293.218	242.69
293.449	261.69
293.68	262.69
293.91	271.69
294.141	261.69
294.372	256.69
294.603	245.69
294.833	247.69
295.064	260.69
295.295	257.69
295.525	261.69
295.756	267.69
295.987	259.69
296.217	258.69
296.448	280.69
296.679	271.69
296.909	257.69
297.14	265.69
297.37	253.69
297.601	243.69
297.831	260.69
298.062	265.69
298.292	271.69
298.523	284.69
298.753	264.69
298.984	270.69
299.214	284.69
299.445	259.69
299.675	259.69
299.905	270.69
300.136	278.69
300.366	259.69
300.597	270.69
300.827	270.69
301.057	278.69
301.288	292.69
301.518	261.69
301.748	289.69
301.979	283.69
302.209	283.69
302.439	285.69
302.669	269.69
302.9	282.69
303.13	297.69
303.36	273.69
303.59	284.69
303.82	270.69
304.051	285.69
304.281	311.69
304.511	289.69
304.741	293.69
304.971	299.69
305.201	295.69
305.431	289.69
305.661	278.69
305.891	268.69
306.121	290.69
306.352	298.69
306.582	305.69
306.812	275.69
307.042	270.69
307.272	300.69
307.502	289.69
307.731	289.69
307.961	300.69
308.191	278.69
308.421	271.69
308.651	300.69
308.881	276.69
309.111	301.69
309.341	297.69
309.571	307.69
309.8	302.69
310.03	298.69
310.26	308.69
310.49	295.69
310.72	313.69
310.949	299.69
311.179	313.69
311.409	311.69
311.639	319.69
311.868	312.69
312.098	325.69
312.328	320.69
312.557	311.69
312.787	325.69
313.017	333.69
313.246	338.69
313.476	307.69
313.706	309.69
313.935	312.69
314.165	325.69
314.394	350.69
314.624	336.69
314.853	336.69
315.083	318.69
315.312	329.69
315.542	305.69
315.771	319.69
316.001	297.69
316.23	312.69
316.46	320.69
316.689	326.69
316.919	339.69
317.148	333.69
317.377	321.69
317.607	318.69
317.836	341.69
318.065	327.69
318.295	337.69
318.524	299.69
318.753	323.69
318.983	328.69
319.212	335.69
319.441	335.69
319.67	340.69
319.9	332.69
320.129	307.69
320.358	321.69
320.587	314.69
320.816	328.69
321.046	327.69
321.275	340.69
321.504	328.69
321.733	326.69
321.962	328.69
322.191	327.69
322.42	334.69
322.649	322.69
322.878	361.69
323.108	340.69
323.337	378.69
323.566	387.69
323.795	379.69
324.024	411.69
324.253	468.69
324.482	635.69
324.71	959.69
324.939	1390.69
325.168	1203.69
325.397	640.69
325.626	451.69
325.855	424.69
326.084	405.69
326.313	389.69
326.542	376.69
326.77	410.69
326.999	483.69
327.228	574.69
327.457	888.69
327.686	1064.69
327.914	695.69
328.143	509.69
328.372	417.69
328.6	421.69
328.829	434.69
329.058	429.69
329.287	420.69
329.515	418.69
329.744	379.69
329.972	397.69
330.201	420.69
330.43	424.69
330.658	413.69
330.887	426.69
331.115	441.69
331.344	395.69
331.572	414.69
331.801	378.69
332.03	408.69
332.258	370.69
332.486	369.69
332.715	379.69
332.943	369.69
333.172	385.69
333.4	378.69
333.629	406.69
333.857	406.69
334.085	402.69
334.314	397.69
334.542	413.69
334.771	414.69
334.999	403.69
335.227	391.69
335.455	396.69
335.684	391.69
335.912	381.69
336.14	373.69
336.369	371.69
336.597	380.69
336.825	394.69
337.053	374.69
337.281	385.69
337.51	392.69
337.738	381.69
337.966	387.69
338.194	370.69
338.422	393.69
338.65	371.69
338.878	373.69
339.106	376.69
339.334	382.69
339.562	369.69
339.79	384.69
340.018	376.69
340.246	369.69
340.474	390.69
340.702	381.69
340.93	369.69
341.158	375.69
341.386	385.69
341.614	364.69
341.842	373.69
342.07	377.69
342.298	381.69
342.526	383.69
342.754	366.69
342.981	379.69
343.209	361.69
343.437	372.69
343.665	387.69
343.893	405.69
344.12	377.69
344.348	378.69
344.576	381.69
344.804	387.69
345.031	393.69
345.259	382.69
345.487	382.69
345.714	383.69
345.942	366.69
346.17	383.69
346.397	358.69
346.625	369.69
346.853	366.69
347.08	352.69
347.308	367.69
347.535	352.69
347.763	383.69
347.99	356.69
348.218	355.69
348.445	366.69
348.673	372.69
348.9	368.69
349.128	377.69
349.355	349.69
349.583	369.69
349.81	360.69
350.037	380.69
350.265	353.69
350.492	357.69
350.72	381.69
350.947	363.69
351.174	366.69
351.402	364.69
351.629	357.69
351.856	357.69
352.083	366.69
352.311	379.69
352.538	362.69
352.765	365.69
352.992	362.69
353.22	353.69
353.447	351.69
353.674	356.69
353.901	360.69
354.128	369.69
354.355	345.69
354.583	348.69
354.81	362.69
355.037	367.69
355.264	335.69
355.491	334.69
355.718	336.69
355.945	348.69
356.172	343.69
356.399	333.69
356.626	350.69
356.853	344.69
357.08	340.69
357.307	356.69
357.534	356.69
357.761	363.69
357.988	342.69
358.215	357.69
358.441	338.69
358.668	348.69
358.895	359.69
359.122	339.69
359.349	359.69
359.576	375.69
359.802	372.69
360.029	386.69
360.256	373.69
360.483	394.69
360.709	351.69
360.936	364.69
361.163	367.69
361.39	354.69
361.616	365.69
361.843	364.69
362.07	371.69
362.296	358.69
362.523	380.69
362.749	369.69
362.976	361.69
363.203	360.69
363.429	342.69
363.656	375.69
363.882	371.69
364.109	363.69
364.335	333.69
364.562	356.69
364.788	345.69
365.015	352.69
365.241	372.69
365.468	355.69
365.694	359.69
365.92	378.69
366.147	370.69
366.373	367.69
366.599	349.69
366.826	358.69
367.052	362.69
367.278	357.69
367.505	352.69
367.731	373.69
367.957	362.69
368.184	369.69
368.41	393.69
368.636	385.69
368.862	365.69
369.089	379.69
369.315	364.69
369.541	357.69
369.767	375.69
369.993	375.69
370.219	374.69
370.445	393.69
370.672	353.69
370.898	356.69
371.124	354.69
371.35	378.69
371.576	378.69
371.802	374.69
372.028	366.69
372.254	368.69
372.48	375.69
372.706	365.69
372.932	377.69
373.158	395.69
373.384	374.69
373.61	366.69
373.835	391.69
374.061	387.69
374.287	375.69
374.513	379.69
374.739	382.69
374.965	375.69
375.191	394.69
375.416	380.69
375.642	378.69
375.868	387.69
376.094	383.69
376.319	387.69
376.545	395.69
376.771	398.69
376.997	386.69
377.222	384.69
377.448	370.69
377.674	380.69
377.899	373.69
378.125	366.69
378.35	364.69
378.576	351.69
378.802	382.69
379.027	381.69
379.253	375.69
379.478	380.69
379.704	389.69
379.929	390.69
380.155	386.69
380.38	376.69
380.606	383.69
380.831	378.69
381.057	391.69
381.282	381.69
381.507	386.69
381.733	389.69
381.958	383.69
382.184	375.69
382.409	397.69
382.634	390.69
382.86	389.69
383.085	399.69
383.31	371.69
383.535	405.69
383.761	412.69
383.986	386.69
384.211	406.69
384.436	412.69
384.662	403.69
384.887	427.69
385.112	423.69
385.337	398.69
385.562	405.69
385.787	419.69
386.013	429.69
386.238	426.69
386.463	431.69
386.688	446.69
386.913	417.69
387.138	423.69
387.363	427.69
387.588	435.69
387.813	416.69
388.038	433.69
388.263	415.69
388.488	414.69
388.713	429.69
388.938	403.69
389.163	427.69
389.387	447.69
389.612	424.69
389.837	444.69
390.062	421.69
390.287	416.69
390.512	427.69
390.736	435.69
390.961	429.69
391.186	437.69
391.411	417.69
391.636	421.69
391.86	445.69
392.085	443.69
392.31	456.69
392.534	437.69
392.759	456.69
392.984	429.69
393.208	426.69
393.433	443.69
393.658	437.69
393.882	429.69
394.107	422.69
394.331	420.69
394.556	448.69
394.78	419.69
395.005	446.69
395.229	429.69
395.454	455.69
395.678	449.69
395.903	447.69
396.127	469.69
396.352	471.69
396.576	442.69
396.801	464.69
397.025	451.69
397.249	445.69
397.474	462.69
397.698	481.69
397.922	499.69
398.147	481.69
398.371	494.69
398.595	480.69
398.82	492.69
399.044	520.69
399.268	514.69
399.492	550.69
399.717	576.69
399.941	606.69
400.165	598.69
400.389	592.69
400.613	534.69
400.837	508.69
401.062	527.69
401.286	501.69
401.51	501.69
401.734	514.69
401.958	511.69
402.182	487.69
402.406	500.69
402.63	494.69
402.854	495.69
403.078	505.69
403.302	507.69
403.526	495.69
403.75	519.69
403.974	525.69
404.198	516.69
404.422	513.69
404.645	537.69
404.869	516.69
405.093	548.69
405.317	546.69
405.541	604.69
405.765	553.69
405.988	514.69
406.212	543.69
406.436	536.69
406.66	569.69
406.883	551.69
407.107	565.69
407.331	585.69
407.555	649.69
407.778	646.69
408.002	591.69
408.226	571.69
408.449	558.69
408.673	562.69
408.896	589.69
409.12	609.69
409.344	586.69
409.567	521.69
409.791	531.69
410.014	515.69
410.238	508.69
410.461	498.69
410.685	516.69
410.908	543.69
411.132	563.69
411.355	577.69
411.578	552.69
411.802	521.69
412.025	522.69
412.249	521.69
412.472	537.69
412.695	544.69
412.919	535.69
413.142	515.69
413.365	512.69
413.589	493.69
413.812	479.69
414.035	493.69
414.258	479.69
414.482	485.69
414.705	482.69
414.928	507.69
415.151	492.69
415.374	487.69
415.597	483.69
415.821	486.69
416.044	482.69
416.267	488.69
416.49	476.69
416.713	461.69
416.936	468.69
417.159	491.69
417.382	481.69
417.605	486.69
417.828	495.69
418.051	479.69
418.274	482.69
418.497	470.69
418.72	479.69
418.943	476.69
419.166	488.69
419.389	506.69
419.611	551.69
419.834	511.69
420.057	519.69
420.28	498.69
420.503	510.69
420.726	487.69
420.948	487.69
421.171	515.69
421.394	555.69
421.617	495.69
421.839	489.69
422.062	507.69
422.285	505.69
422.507	540.69
422.73	614.69
422.953	572.69
423.175	521.69
423.398	516.69
423.621	513.69
423.843	525.69
424.066	517.69
424.288	513.69
424.511	515.69
424.733	556.69
424.956	649.69
425.178	601.69
425.401	616.69
425.623	643.69
425.846	557.69
426.068	544.69
426.291	513.69
426.513	541.69
426.735	554.69
426.958	549.69
427.18	598.69
427.402	722.69
427.625	798.69
427.847	660.69
428.069	583.69
428.292	558.69
428.514	509.69
428.736	505.69
428.958	492.69
429.181	491.69
429.403	484.69
429.625	478.69
429.847	511.69
430.069	558.69
430.292	563.69
430.514	482.69
430.736	479.69
430.958	491.69
431.18	479.69
431.402	468.69
431.624	439.69
431.846	462.69
432.068	455.69
432.29	471.69
432.512	469.69
432.734	496.69
432.956	453.69
433.178	462.69
433.4	486.69
433.622	497.69
433.844	461.69
434.066	457.69
434.287	486.69
434.509	481.69
434.731	478.69
434.953	511.69
435.175	513.69
435.397	540.69
435.618	507.69
435.84	542.69
436.062	603.69
436.284	670.69
436.505	593.69
436.727	515.69
436.949	492.69
437.17	477.69
437.392	492.69
437.614	509.69
437.835	509.69
438.057	578.69
438.278	665.69
438.5	676.69
438.721	721.69
438.943	708.69
439.165	556.69
439.386	525.69
439.608	532.69
439.829	489.69
440.05	534.69
440.272	531.69
440.493	528.69
440.715	501.69
440.936	485.69
441.158	476.69
441.379	492.69
441.6	501.69
441.822	495.69
442.043	527.69
442.264	589.69
442.486	645.69
442.707	557.69
442.928	535.69
443.149	521.69
443.371	535.69
443.592	549.69
443.813	652.69
444.034	719.69
444.255	595.69
444.476	527.69
444.698	529.69
444.919	537.69
445.14	650.69
445.361	583.69
445.582	556.69
445.803	579.69
446.024	649.69
446.245	672.69
446.466	610.69
446.687	533.69
446.908	510.69
447.129	472.69
447.35	498.69
447.571	490.69
447.792	462.69
448.013	474.69
448.234	478.69
448.455	531.69
448.675	631.69
448.896	715.69
449.117	579.69
449.338	538.69
449.559	643.69
449.779	787.69
450	629.69
450.221	520.69
450.442	494.69
450.662	470.69
450.883	477.69
451.104	464.69
451.324	447.69
451.545	453.69
451.766	457.69
451.986	446.69
452.207	439.69
452.428	445.69
452.648	450.69
452.869	429.69
453.089	437.69
453.31	434.69
453.53	437.69
453.751	421.69
453.971	433.69
454.192	450.69
454.412	437.69
454.633	442.69
454.853	425.69
455.073	426.69
455.294	446.69
455.514	496.69
455.734	476.69
455.955	427.69
456.175	445.69
456.395	422.69
456.616	418.69
456.836	410.69
457.056	406.69
457.276	407.69
457.497	425.69
457.717	434.69
457.937	436.69
458.157	426.69
458.377	419.69
458.598	425.69
458.818	480.69
459.038	515.69
459.258	547.69
459.478	489.69
459.698	464.69
459.918	469.69
460.138	462.69
460.358	499.69
460.578	496.69
460.798	479.69
461.018	511.69
461.238	484.69
461.458	507.69
461.678	507.69
461.898	526.69
462.118	513.69
462.338	539.69
462.558	513.69
462.777	531.69
462.997	530.69
463.217	557.69
463.437	565.69
463.657	545.69
463.876	548.69
464.096	542.69
464.316	562.69
464.536	524.69
464.755	531.69
464.975	524.69
465.195	535.69
465.414	549.69
465.634	534.69
465.854	501.69
466.073	476.69
466.293	474.69
466.512	488.69
466.732	478.69
466.951	463.69
467.171	469.69
467.391	467.69
467.61	489.69
467.829	479.69
468.049	460.69
468.268	449.69
468.488	475.69
468.707	452.69
468.927	449.69
469.146	449.69
469.365	445.69
469.585	454.69
469.804	475.69
470.023	469.69
470.243	475.69
470.462	453.69
470.681	471.69
470.901	486.69
471.12	470.69
471.339	469.69
471.558	484.69
471.777	471.69
471.997	476.69
472.216	489.69
472.435	490.69
472.654	477.69
472.873	465.69
473.092	463.69
473.311	449.69
473.53	449.69
473.749	465.69
473.968	498.69
474.187	574.69
474.406	571.69
474.625	506.69
474.844	492.69
475.063	460.69
475.282	469.69
475.501	460.69
475.72	482.69
475.939	471.69
476.158	492.69
476.377	472.69
476.596	500.69
476.814	492.69
477.033	504.69
477.252	515.69
477.471	510.69
477.69	503.69
477.908	514.69
478.127	503.69
478.346	504.69
478.564	519.69
478.783	527.69
479.002	517.69
479.22	518.69
479.439	545.69
479.658	561.69
479.876	565.69
480.095	556.69
480.313	597.69
480.532	578.69
480.751	562.69
480.969	567.69
481.188	586.69
481.406	588.69
481.624	570.69
481.843	561.69
482.061	563.69
482.28	558.69
482.498	531.69
482.717	537.69
482.935	539.69
483.153	532.69
483.372	540.69
483.59	531.69
483.808	553.69
484.027	550.69
484.245	563.69
484.463	539.69
484.681	575.69
484.9	557.69
485.118	556.69
485.336	583.69
485.554	580.69
485.772	555.69
485.99	555.69
486.209	575.69
486.427	566.69
486.645	562.69
486.863	568.69
487.081	600.69
487.299	578.69
487.517	570.69
487.735	569.69
487.953	566.69
488.171	575.69
488.389	587.69
488.607	573.69
488.825	577.69
489.043	587.69
489.261	575.69
489.479	589.69
489.696	592.69
489.914	591.69
490.132	585.69
490.35	592.69
490.568	604.69
490.786	584.69
491.003	602.69
491.221	601.69
491.439	631.69
491.657	609.69
491.874	644.69
492.092	643.69
492.31	641.69
492.527	622.69
492.745	620.69
492.963	642.69
493.18	615.69
493.398	658.69
493.615	637.69
493.833	631.69
494.05	667.69
494.268	675.69
494.485	662.69
494.703	672.69
494.92	668.69
495.138	633.69
495.355	660.69
495.573	658.69
495.79	662.69
496.008	672.69
496.225	686.69
496.442	674.69
496.66	697.69
496.877	682.69
497.094	712.69
497.312	709.69
497.529	716.69
497.746	727.69
497.963	743.69
498.181	759.69
498.398	763.69
498.615	762.69
498.832	802.69
499.049	817.69
499.267	829.69
499.484	868.69
499.701	891.69
499.918	923.69
500.135	1014.69
500.352	1014.69
500.569	1023.69
500.786	1041.69
501.003	1002.69
501.22	988.69
501.437	955.69
501.654	876.69
501.871	890.69
502.088	830.69
502.305	827.69
502.522	818.69
502.739	780.69
502.956	758.69
503.172	765.69
503.389	739.69
503.606	717.69
503.823	711.69
504.04	711.69
504.256	709.69
504.473	708.69
504.69	678.69
504.907	689.69
505.123	667.69
505.34	680.69
505.557	645.69
505.773	642.69
505.99	649.69
506.207	622.69
506.423	647.69
506.64	621.69
506.856	621.69
507.073	608.69
507.289	600.69
507.506	633.69
507.722	609.69
507.939	615.69
508.155	611.69
508.372	586.69
508.588	596.69
508.805	615.69
509.021	576.69
509.238	597.69
509.454	596.69
509.67	595.69
509.887	583.69
510.103	597.69
510.319	610.69
510.536	620.69
510.752	831.69
510.968	738.69
511.184	586.69
511.401	575.69
511.617	592.69
511.833	571.69
512.049	568.69
512.265	563.69
512.481	581.69
512.698	556.69
512.914	545.69
513.13	556.69
513.346	562.69
513.562	578.69
513.778	546.69
513.994	582.69
514.21	568.69
514.426	579.69
514.642	605.69
514.858	605.69
515.074	631.69
515.29	671.69
515.506	826.69
515.721	739.69
515.937	629.69
516.153	602.69
516.369	591.69
516.585	596.69
516.801	589.69
517.016	591.69
517.232	620.69
517.448	616.69
517.664	611.69
517.879	610.69
518.095	632.69
518.311	627.69
518.527	597.69
518.742	609.69
518.958	589.69
519.173	581.69
519.389	588.69
519.605	588.69
519.82	568.69
520.036	581.69
520.251	592.69
520.467	589.69
520.682	558.69
520.898	596.69
521.113	593.69
521.329	599.69
521.544	652.69
521.76	708.69
521.975	957.69
522.19	951.69
522.406	663.69
522.621	613.69
522.836	550.69
523.052	536.69
523.267	536.69
523.482	524.69
523.698	523.69
523.913	518.69
524.128	542.69
524.343	526.69
524.559	524.69
524.774	521.69
524.989	519.69
525.204	512.69
525.419	507.69
525.634	519.69
525.849	486.69
526.064	514.69
526.28	507.69
526.495	487.69
526.71	490.69
526.925	511.69
527.14	490.69
527.355	491.69
527.57	479.69
527.785	497.69
527.999	481.69
528.214	482.69
528.429	475.69
528.644	499.69
528.859	492.69
529.074	513.69
529.289	490.69
529.503	543.69
529.718	511.69
529.933	544.69
530.148	489.69
530.363	497.69
530.577	479.69
530.792	462.69
531.007	504.69
531.221	507.69
531.436	494.69
531.651	493.69
531.865	482.69
532.08	473.69
532.295	497.69
532.509	485.69
532.724	482.69
532.938	488.69
533.153	482.69
533.367	472.69
533.582	473.69
533.796	483.69
534.011	503.69
534.225	482.69
534.44	475.69
534.654	461.69
534.868	483.69
535.083	478.69
535.297	454.69
535.511	476.69
535.726	471.69
535.94	467.69
536.154	459.69
536.369	470.69
536.583	453.69
536.797	462.69
537.011	467.69
537.225	466.69
537.44	469.69
537.654	451.69
537.868	440.69
538.082	456.69
538.296	471.69
538.51	484.69
538.724	471.69
538.938	463.69
539.153	447.69
539.367	487.69
539.581	470.69
539.795	465.69
540.009	467.69
540.222	463.69
540.436	466.69
540.65	439.69
540.864	450.69
541.078	452.69
541.292	466.69
541.506	468.69
541.72	461.69
541.934	458.69
542.147	450.69
542.361	452.69
542.575	453.69
542.789	439.69
543.002	459.69
543.216	460.69
543.43	435.69
543.644	473.69
543.857	462.69
544.071	454.69
544.285	450.69
544.498	461.69
544.712	453.69
544.925	462.69
545.139	451.69
545.352	457.69
545.566	442.69
545.779	458.69
545.993	443.69
546.206	461.69
546.42	452.69
546.633	448.69
546.847	442.69
547.06	439.69
547.274	460.69
547.487	463.69
547.7	462.69
547.914	456.69
548.127	443.69
548.34	449.69
548.554	441.69
548.767	445.69
548.98	452.69
549.193	455.69
549.407	432.69
549.62	461.69
549.833	454.69
550.046	446.69
550.259	447.69
550.473	426.69
550.686	446.69
550.899	445.69
551.112	437.69
551.325	433.69
551.538	442.69
551.751	459.69
551.964	450.69
552.177	425.69
552.39	447.69
552.603	431.69
552.816	453.69
553.029	462.69
553.242	466.69
553.455	451.69
553.667	472.69
553.88	464.69
554.093	441.69
554.306	455.69
554.519	445.69
554.732	431.69
554.944	424.69
555.157	444.69
555.37	414.69
555.583	427.69
555.795	439.69
556.008	417.69
556.221	419.69
556.433	418.69
556.646	431.69
556.859	422.69
557.071	406.69
557.284	396.69
557.496	397.69
557.709	412.69
557.921	418.69
558.134	404.69
558.346	414.69
558.559	398.69
558.771	407.69
558.984	383.69
559.196	400.69
559.409	393.69
559.621	403.69
559.833	396.69
560.046	409.69
560.258	376.69
560.47	393.69
560.683	391.69
560.895	405.69
561.107	397.69
561.32	410.69
561.532	406.69
561.744	405.69
561.956	408.69
562.168	409.69
562.381	394.69
562.593	395.69
562.805	418.69
563.017	409.69
563.229	386.69
563.441	391.69
563.653	404.69
563.865	393.69
564.077	398.69
564.289	405.69
564.501	405.69
564.713	415.69
564.925	437.69
565.137	458.69
565.349	444.69
565.561	442.69
565.773	449.69
565.985	447.69
566.197	470.69
566.408	507.69
566.62	495.69
566.832	499.69
567.044	509.69
567.255	524.69
567.467	507.69
567.679	522.69
567.891	553.69
568.102	517.69
568.314	493.69
568.526	515.69
568.737	513.69
568.949	490.69
569.161	446.69
569.372	429.69
569.584	435.69
569.795	430.69
570.007	419.69
570.218	450.69
570.43	431.69
570.641	409.69
570.853	387.69
571.064	408.69
571.276	400.69
571.487	408.69
571.698	383.69
571.91	393.69
572.121	372.69
572.333	377.69
572.544	375.69
572.755	374.69
572.966	369.69
573.178	365.69
573.389	368.69
573.6	362.69
573.811	377.69
574.023	360.69
574.234	362.69
574.445	367.69
574.656	364.69
574.867	348.69
575.078	362.69
575.289	350.69
575.501	374.69
575.712	326.69
575.923	342.69
576.134	356.69
576.345	346.69
576.556	343.69
576.767	367.69
576.978	360.69
577.188	363.69
577.399	328.69
577.61	347.69
577.821	333.69
578.032	334.69
578.243	356.69
578.454	439.69
578.665	389.69
578.875	330.69
579.086	321.69
579.297	332.69
579.508	322.69
579.718	341.69
579.929	329.69
580.14	343.69
580.35	344.69
580.561	350.69
580.772	322.69
580.982	330.69
581.193	314.69
581.403	315.69
581.614	332.69
581.825	311.69
582.035	309.69
582.246	325.69
582.456	332.69
582.667	323.69
582.877	326.69
583.087	318.69
583.298	339.69
583.508	340.69
583.719	316.69
583.929	317.69
584.139	315.69
584.35	314.69
584.56	305.69
584.77	309.69
584.981	323.69
585.191	329.69
585.401	318.69
585.611	321.69
585.821	326.69
586.032	316.69
586.242	301.69
586.452	315.69
586.662	319.69
586.872	310.69
587.082	302.69
587.292	309.69
587.502	305.69
587.713	323.69
587.923	332.69
588.133	305.69
588.343	299.69
588.553	315.69
588.762	286.69
588.972	306.69
589.182	314.69
589.392	310.69
589.602	301.69
589.812	305.69
590.022	309.69
590.232	315.69
590.441	307.69
590.651	300.69
590.861	337.69
591.071	309.69
591.281	326.69
591.49	319.69
591.7	348.69
591.91	328.69
592.119	327.69
592.329	311.69
592.539	325.69
592.748	338.69
592.958	342.69
593.167	341.69
593.377	331.69
593.587	334.69
593.796	319.69
594.006	335.69
594.215	338.69
594.424	333.69
594.634	320.69
594.843	335.69
595.053	319.69
595.262	309.69
595.472	307.69
595.681	302.69
595.89	317.69
596.1	324.69
596.309	309.69
596.518	309.69
596.727	309.69
596.937	308.69
597.146	306.69
597.355	305.69
597.564	299.69
597.774	287.69
597.983	297.69
598.192	289.69
598.401	279.69
598.61	293.69
598.819	290.69
599.028	287.69
599.237	296.69
599.446	277.69
599.655	283.69
599.864	285.69
600.073	289.69
600.282	284.69
600.491	286.69
600.7	260.69
600.909	253.69
601.118	271.69
601.327	268.69
601.536	270.69
601.745	262.69
601.953	266.69
602.162	277.69
602.371	264.69
602.58	275.69
602.789	277.69
602.997	265.69
603.206	264.69
603.415	257.69
603.623	261.69
603.832	264.69
604.041	277.69
604.249	261.69
604.458	260.69
604.666	261.69
604.875	254.69
605.084	284.69
605.292	279.69
605.501	256.69
605.709	256.69
605.918	260.69
606.126	263.69
606.334	260.69
606.543	269.69
606.751	261.69
606.96	255.69
607.168	275.69
607.376	265.69
607.585	261.69
607.793	264.69
608.001	276.69
608.21	260.69
608.418	262.69
608.626	245.69
608.834	269.69
609.043	242.69
609.251	247.69
609.459	260.69
609.667	236.69
609.875	254.69
610.083	245.69
610.291	237.69
610.499	251.69
610.707	259.69
610.916	250.69
611.124	259.69
611.332	268.69
611.54	247.69
611.748	259.69
611.955	249.69
612.163	266.69
612.371	244.69
612.579	242.69
612.787	230.69
612.995	267.69
613.203	247.69
613.411	245.69
613.618	245.69
613.826	250.69
614.034	249.69
614.242	254.69
614.449	252.69
614.657	243.69
614.865	246.69
615.072	250.69
615.28	235.69
615.488	247.69
615.695	247.69
615.903	236.69
616.111	255.69
616.318	238.69
616.526	244.69
616.733	255.69
616.941	236.69
617.148	234.69
617.356	245.69
617.563	246.69
617.771	237.69
617.978	242.69
618.185	226.69
618.393	237.69
618.6	228.69
618.807	235.69
619.015	239.69
619.222	242.69
619.429	259.69
619.637	237.69
619.844	238.69
620.051	236.69
620.258	227.69
620.466	223.69
620.673	228.69
620.88	243.69
621.087	240.69
621.294	236.69
621.501	216.69
621.708	228.69
621.915	243.69
622.122	229.69
622.329	238.69
622.536	225.69
622.743	217.69
622.95	228.69
623.157	223.69
623.364	222.69
623.571	230.69
623.778	236.69
623.985	227.69
624.192	226.69
624.399	228.69
624.606	227.69
624.812	213.69
625.019	210.69
625.226	217.69
625.433	210.69
625.639	218.69
625.846	226.69
626.053	203.69
626.259	212.69
626.466	215.69
626.673	225.69
626.879	201.69
627.086	215.69
627.293	212.69
627.499	214.69
627.706	215.69
627.912	223.69
628.119	205.69
628.325	222.69
628.532	207.69
628.738	209.69
628.945	207.69
629.151	212.69
629.357	212.69
629.564	195.69
629.77	213.69
629.976	206.69
630.183	193.69
630.389	201.69
630.595	203.69
630.802	199.69
631.008	196.69
631.214	197.69
631.42	209.69
631.627	208.69
631.833	205.69
632.039	209.69
632.245	183.69
632.451	191.69
632.657	195.69
632.863	188.69
633.069	194.69
633.275	202.69
633.481	185.69
633.688	185.69
633.893	193.69
634.099	198.69
634.305	190.69
634.511	196.69
634.717	171.69
634.923	191.69
635.129	193.69
635.335	202.69
635.541	201.69
635.747	204.69
635.952	180.69
636.158	184.69
636.364	186.69
636.57	186.69
636.775	186.69
636.981	209.69
637.187	186.69
637.392	206.69
637.598	172.69
637.804	199.69
638.009	185.69
638.215	196.69
638.421	199.69
638.626	174.69
638.832	171.69
639.037	171.69
639.243	172.69
639.448	181.69
639.654	182.69
639.859	164.69
640.065	195.69
640.27	200.69
640.475	174.69
640.681	186.69
640.886	197.69
641.091	192.69
641.297	170.69
641.502	182.69
641.707	179.69
641.913	165.69
642.118	189.69
642.323	173.69
642.528	182.69
642.733	189.69
642.939	169.69
643.144	175.69
643.349	185.69
643.554	163.69
643.759	179.69
643.964	183.69
644.169	159.69
644.374	182.69
644.579	187.69
644.784	169.69
644.989	158.69
645.194	179.69
645.399	187.69
645.604	175.69
645.809	166.69
646.014	182.69
646.219	175.69
646.423	172.69
646.628	166.69
646.833	180.69
647.038	168.69
647.243	149.69
647.447	167.69
647.652	187.69
647.857	161.69
648.062	168.69
648.266	161.69
648.471	166.69
648.676	173.69
648.88	194.69
649.085	161.69
649.289	172.69
649.494	169.69
649.698	187.69
649.903	183.69
650.107	181.69
650.312	191.69
650.516	168.69
650.721	161.69
650.925	160.69
651.13	159.69
651.334	155.69
651.539	156.69
651.743	152.69
651.947	156.69
652.152	163.69
652.356	139.69
652.56	156.69
652.764	157.69
652.969	151.69
653.173	154.69
653.377	133.69
653.581	146.69
653.785	149.69
653.99	139.69
654.194	146.69
654.398	121.69
654.602	139.69
654.806	139.69
655.01	154.69
655.214	139.69
655.418	136.69
655.622	134.69
655.826	137.69
656.03	131.69
656.234	149.69
656.438	157.69
656.642	160.69
656.846	141.69
657.049	137.69
657.253	120.69
657.457	131.69
657.661	137.69
657.865	125.69
658.068	130.69
658.272	110.69
658.476	118.69
658.68	108.69
658.883	105.69
659.087	106.69
659.291	95.69
659.494	117.69
659.698	105.69
659.901	103.69
660.105	84.69
660.309	96.69
660.512	108.69
660.716	106.69
660.919	119.69
661.123	97.69
661.326	94.69
661.53	104.69
661.733	99.69
661.936	94.69
662.14	84.69
662.343	86.69
662.546	85.69
662.75	87.69
662.953	86.69
663.156	99.69
663.36	88.69
663.563	88.69
663.766	78.69
663.969	93.69
664.173	81.69
664.376	82.69
664.579	70.69
664.782	85.69
664.985	91.69
665.188	83.69
665.391	75.69
665.594	83.69
665.797	92.69
666	81.69
666.203	79.69
666.406	78.69
666.609	87.69
666.812	92.69
667.015	90.69
667.218	78.69
667.421	65.69
667.624	87.69
667.827	78.69
668.03	94.69
668.232	96.69
668.435	74.69
668.638	69.69
668.841	89.69
669.043	85.69
669.246	67.69
669.449	91.69
669.651	88.69
669.854	86.69
670.057	90.69
670.259	79.69
670.462	79.69
670.665	77.69
670.867	75.69
671.07	82.69
671.272	92.69
671.475	80.69
671.677	83.69
671.88	88.69
672.082	83.69
672.284	82.69
672.487	90.69
672.689	80.69
672.892	89.69
