Data from 1978.PennyLincolnUp.Lamp.En5.5.200Scan.071719.P1_HRD10591_16-14-24-864.txt Node
Date: Thu Jul 18 16:14:24 EDT 2019
User: cochatt
Spectrometer: HR+D1059
Trigger mode: 1
Integration Time (sec): 1.000000E-1
Scans to average: 1
Electric dark correction enabled: true
Nonlinearity correction enabled: false
Boxcar width: 0
XAxis mode: Wavelengths
Number of Pixels in Spectrum: 2048
>>>>>Begin Spectral Data<<<<<
223.165	-23.94
223.4	-23.94
223.635	-23.94
223.869	-10.94
224.104	-18.94
224.338	-25.94
224.573	-21.94
224.808	-12.94
225.042	-13.94
225.277	-5.94
225.511	4.06
225.746	13.06
225.98	10.06
226.215	12.06
226.449	12.06
226.683	17.06
226.918	21.06
227.152	45.06
227.387	28.06
227.621	53.06
227.856	45.06
228.09	38.06
228.324	45.06
228.559	41.06
228.793	63.06
229.027	93.06
229.262	87.06
229.496	108.06
229.73	140.06
229.964	160.06
230.199	134.06
230.433	123.06
230.667	112.06
230.901	120.06
231.136	117.06
231.37	115.06
231.604	97.06
231.838	106.06
232.072	114.06
232.306	126.06
232.541	117.06
232.775	110.06
233.009	101.06
233.243	112.06
233.477	98.06
233.711	120.06
233.945	108.06
234.179	126.06
234.413	106.06
234.647	123.06
234.881	125.06
235.115	122.06
235.349	114.06
235.583	112.06
235.817	128.06
236.051	127.06
236.285	112.06
236.519	129.06
236.753	145.06
236.987	137.06
237.221	184.06
237.455	245.06
237.689	196.06
237.922	143.06
238.156	138.06
238.39	128.06
238.624	112.06
238.858	124.06
239.091	120.06
239.325	118.06
239.559	132.06
239.793	118.06
240.027	151.06
240.26	148.06
240.494	154.06
240.728	148.06
240.961	144.06
241.195	142.06
241.429	126.06
241.662	121.06
241.896	118.06
242.13	125.06
242.363	134.06
242.597	136.06
242.83	138.06
243.064	139.06
243.298	144.06
243.531	135.06
243.765	128.06
243.998	140.06
244.232	143.06
244.465	132.06
244.699	144.06
244.932	148.06
245.166	133.06
245.399	132.06
245.633	147.06
245.866	140.06
246.099	152.06
246.333	134.06
246.566	145.06
246.8	157.06
247.033	139.06
247.266	165.06
247.5	150.06
247.733	167.06
247.966	156.06
248.2	167.06
248.433	169.06
248.666	174.06
248.899	181.06
249.133	174.06
249.366	193.06
249.599	190.06
249.832	169.06
250.066	171.06
250.299	171.06
250.532	190.06
250.765	194.06
250.998	216.06
251.231	209.06
251.465	216.06
251.698	173.06
251.931	193.06
252.164	177.06
252.397	182.06
252.63	196.06
252.863	198.06
253.096	205.06
253.329	214.06
253.562	216.06
253.795	205.06
254.028	199.06
254.261	208.06
254.494	210.06
254.727	240.06
254.96	249.06
255.193	266.06
255.426	243.06
255.659	231.06
255.892	215.06
256.124	218.06
256.357	228.06
256.59	215.06
256.823	227.06
257.056	187.06
257.289	185.06
257.521	190.06
257.754	200.06
257.987	211.06
258.22	213.06
258.452	208.06
258.685	206.06
258.918	211.06
259.151	211.06
259.383	217.06
259.616	208.06
259.849	192.06
260.081	206.06
260.314	252.06
260.547	242.06
260.779	250.06
261.012	217.06
261.244	209.06
261.477	224.06
261.71	220.06
261.942	225.06
262.175	241.06
262.407	207.06
262.64	197.06
262.872	209.06
263.105	207.06
263.337	220.06
263.57	205.06
263.802	215.06
264.035	203.06
264.267	228.06
264.499	214.06
264.732	218.06
264.964	213.06
265.197	211.06
265.429	195.06
265.661	196.06
265.894	214.06
266.126	202.06
266.358	226.06
266.591	218.06
266.823	209.06
267.055	231.06
267.287	223.06
267.52	234.06
267.752	210.06
267.984	224.06
268.216	240.06
268.448	218.06
268.681	233.06
268.913	242.06
269.145	246.06
269.377	276.06
269.609	269.06
269.841	257.06
270.073	253.06
270.306	283.06
270.538	294.06
270.77	304.06
271.002	295.06
271.234	275.06
271.466	295.06
271.698	304.06
271.93	298.06
272.162	300.06
272.394	296.06
272.626	289.06
272.858	293.06
273.09	269.06
273.322	269.06
273.553	244.06
273.785	272.06
274.017	263.06
274.249	254.06
274.481	273.06
274.713	266.06
274.945	267.06
275.176	267.06
275.408	270.06
275.64	252.06
275.872	248.06
276.104	256.06
276.335	268.06
276.567	261.06
276.799	274.06
277.031	288.06
277.262	311.06
277.494	319.06
277.726	295.06
277.957	289.06
278.189	268.06
278.421	275.06
278.652	261.06
278.884	275.06
279.115	238.06
279.347	258.06
279.579	257.06
279.81	263.06
280.042	240.06
280.273	275.06
280.505	283.06
280.736	252.06
280.968	282.06
281.199	279.06
281.431	259.06
281.662	264.06
281.894	270.06
282.125	284.06
282.356	296.06
282.588	305.06
282.819	300.06
283.051	293.06
283.282	281.06
283.513	277.06
283.745	265.06
283.976	268.06
284.207	290.06
284.439	270.06
284.67	278.06
284.901	285.06
285.132	257.06
285.364	278.06
285.595	298.06
285.826	274.06
286.057	288.06
286.288	271.06
286.52	266.06
286.751	295.06
286.982	284.06
287.213	275.06
287.444	285.06
287.675	287.06
287.906	312.06
288.138	291.06
288.369	300.06
288.6	289.06
288.831	296.06
289.062	292.06
289.293	284.06
289.524	291.06
289.755	292.06
289.986	276.06
290.217	294.06
290.448	282.06
290.679	282.06
290.91	291.06
291.141	289.06
291.371	292.06
291.602	267.06
291.833	295.06
292.064	280.06
292.295	289.06
292.526	292.06
292.757	270.06
292.987	281.06
293.218	284.06
293.449	286.06
293.68	314.06
293.91	300.06
294.141	310.06
294.372	277.06
294.603	281.06
294.833	288.06
295.064	292.06
295.295	293.06
295.525	304.06
295.756	280.06
295.987	297.06
296.217	322.06
296.448	346.06
296.679	308.06
296.909	299.06
297.14	312.06
297.37	313.06
297.601	293.06
297.831	294.06
298.062	313.06
298.292	310.06
298.523	291.06
298.753	308.06
298.984	330.06
299.214	312.06
299.445	310.06
299.675	298.06
299.905	306.06
300.136	306.06
300.366	315.06
300.597	308.06
300.827	290.06
301.057	307.06
301.288	323.06
301.518	343.06
301.748	336.06
301.979	328.06
302.209	346.06
302.439	320.06
302.669	328.06
302.9	329.06
303.13	328.06
303.36	328.06
303.59	334.06
303.82	330.06
304.051	342.06
304.281	344.06
304.511	322.06
304.741	329.06
304.971	331.06
305.201	327.06
305.431	344.06
305.661	336.06
305.891	356.06
306.121	329.06
306.352	332.06
306.582	331.06
306.812	330.06
307.042	317.06
307.272	326.06
307.502	331.06
307.731	331.06
307.961	339.06
308.191	316.06
308.421	314.06
308.651	337.06
308.881	329.06
309.111	325.06
309.341	332.06
309.571	376.06
309.8	365.06
310.03	372.06
310.26	384.06
310.49	357.06
310.72	372.06
310.949	379.06
311.179	386.06
311.409	382.06
311.639	379.06
311.868	388.06
312.098	363.06
312.328	386.06
312.557	395.06
312.787	395.06
313.017	408.06
313.246	386.06
313.476	383.06
313.706	390.06
313.935	390.06
314.165	395.06
314.394	393.06
314.624	420.06
314.853	400.06
315.083	386.06
315.312	378.06
315.542	369.06
315.771	384.06
316.001	363.06
316.23	384.06
316.46	394.06
316.689	383.06
316.919	365.06
317.148	396.06
317.377	402.06
317.607	381.06
317.836	377.06
318.065	392.06
318.295	386.06
318.524	372.06
318.753	377.06
318.983	365.06
319.212	383.06
319.441	375.06
319.67	384.06
319.9	375.06
320.129	378.06
320.358	382.06
320.587	396.06
320.816	379.06
321.046	401.06
321.275	416.06
321.504	390.06
321.733	390.06
321.962	427.06
322.191	444.06
322.42	452.06
322.649	445.06
322.878	440.06
323.108	480.06
323.337	502.06
323.566	514.06
323.795	537.06
324.024	573.06
324.253	706.06
324.482	1028.06
324.71	1633.06
324.939	2518.06
325.168	2141.06
325.397	1045.06
325.626	669.06
325.855	578.06
326.084	542.06
326.313	496.06
326.542	527.06
326.77	550.06
326.999	649.06
327.228	920.06
327.457	1497.06
327.686	1824.06
327.914	1192.06
328.143	722.06
328.372	644.06
328.6	582.06
328.829	570.06
329.058	575.06
329.287	598.06
329.515	581.06
329.744	520.06
329.972	516.06
330.201	534.06
330.43	576.06
330.658	596.06
330.887	611.06
331.115	612.06
331.344	528.06
331.572	464.06
331.801	501.06
332.03	504.06
332.258	498.06
332.486	469.06
332.715	454.06
332.943	428.06
333.172	480.06
333.4	466.06
333.629	480.06
333.857	485.06
334.085	512.06
334.314	513.06
334.542	526.06
334.771	565.06
334.999	546.06
335.227	476.06
335.455	483.06
335.684	479.06
335.912	449.06
336.14	464.06
336.369	460.06
336.597	477.06
336.825	470.06
337.053	461.06
337.281	456.06
337.51	449.06
337.738	440.06
337.966	462.06
338.194	442.06
338.422	473.06
338.65	458.06
338.878	453.06
339.106	458.06
339.334	452.06
339.562	442.06
339.79	441.06
340.018	448.06
340.246	446.06
340.474	457.06
340.702	458.06
340.93	436.06
341.158	426.06
341.386	445.06
341.614	452.06
341.842	459.06
342.07	421.06
342.298	434.06
342.526	429.06
342.754	454.06
342.981	410.06
343.209	424.06
343.437	427.06
343.665	446.06
343.893	438.06
344.12	455.06
344.348	450.06
344.576	457.06
344.804	469.06
345.031	469.06
345.259	475.06
345.487	458.06
345.714	446.06
345.942	452.06
346.17	441.06
346.397	433.06
346.625	438.06
346.853	447.06
347.08	442.06
347.308	429.06
347.535	444.06
347.763	455.06
347.99	461.06
348.218	420.06
348.445	448.06
348.673	451.06
348.9	449.06
349.128	434.06
349.355	437.06
349.583	425.06
349.81	408.06
350.037	434.06
350.265	427.06
350.492	432.06
350.72	420.06
350.947	440.06
351.174	440.06
351.402	447.06
351.629	434.06
351.856	436.06
352.083	452.06
352.311	447.06
352.538	452.06
352.765	453.06
352.992	431.06
353.22	428.06
353.447	429.06
353.674	445.06
353.901	412.06
354.128	419.06
354.355	440.06
354.583	386.06
354.81	405.06
355.037	405.06
355.264	401.06
355.491	401.06
355.718	408.06
355.945	425.06
356.172	390.06
356.399	388.06
356.626	388.06
356.853	410.06
357.08	410.06
357.307	408.06
357.534	421.06
357.761	435.06
357.988	424.06
358.215	391.06
358.441	410.06
358.668	402.06
358.895	424.06
359.122	412.06
359.349	416.06
359.576	426.06
359.802	454.06
360.029	457.06
360.256	476.06
360.483	458.06
360.709	424.06
360.936	438.06
361.163	451.06
361.39	473.06
361.616	466.06
361.843	437.06
362.07	434.06
362.296	422.06
362.523	450.06
362.749	438.06
362.976	417.06
363.203	417.06
363.429	412.06
363.656	411.06
363.882	438.06
364.109	435.06
364.335	414.06
364.562	399.06
364.788	423.06
365.015	410.06
365.241	400.06
365.468	434.06
365.694	415.06
365.92	448.06
366.147	407.06
366.373	424.06
366.599	436.06
366.826	433.06
367.052	425.06
367.278	418.06
367.505	414.06
367.731	405.06
367.957	406.06
368.184	411.06
368.41	421.06
368.636	461.06
368.862	448.06
369.089	425.06
369.315	436.06
369.541	434.06
369.767	432.06
369.993	420.06
370.219	422.06
370.445	416.06
370.672	433.06
370.898	432.06
371.124	418.06
371.35	427.06
371.576	439.06
371.802	412.06
372.028	427.06
372.254	424.06
372.48	423.06
372.706	410.06
372.932	452.06
373.158	434.06
373.384	434.06
373.61	419.06
373.835	436.06
374.061	408.06
374.287	445.06
374.513	406.06
374.739	440.06
374.965	418.06
375.191	426.06
375.416	426.06
375.642	422.06
375.868	429.06
376.094	432.06
376.319	432.06
376.545	419.06
376.771	443.06
376.997	424.06
377.222	404.06
377.448	422.06
377.674	425.06
377.899	425.06
378.125	402.06
378.35	419.06
378.576	440.06
378.802	410.06
379.027	416.06
379.253	431.06
379.478	429.06
379.704	422.06
379.929	459.06
380.155	428.06
380.38	419.06
380.606	425.06
380.831	434.06
381.057	448.06
381.282	457.06
381.507	432.06
381.733	420.06
381.958	429.06
382.184	441.06
382.409	452.06
382.634	454.06
382.86	439.06
383.085	438.06
383.31	439.06
383.535	445.06
383.761	444.06
383.986	437.06
384.211	464.06
384.436	436.06
384.662	444.06
384.887	460.06
385.112	465.06
385.337	445.06
385.562	445.06
385.787	463.06
386.013	468.06
386.238	466.06
386.463	483.06
386.688	461.06
386.913	471.06
387.138	481.06
387.363	480.06
387.588	485.06
387.813	492.06
388.038	452.06
388.263	498.06
388.488	482.06
388.713	457.06
388.938	483.06
389.163	499.06
389.387	480.06
389.612	461.06
389.837	482.06
390.062	485.06
390.287	480.06
390.512	494.06
390.736	485.06
390.961	474.06
391.186	492.06
391.411	501.06
391.636	477.06
391.86	497.06
392.085	499.06
392.31	498.06
392.534	493.06
392.759	482.06
392.984	491.06
393.208	484.06
393.433	491.06
393.658	485.06
393.882	492.06
394.107	478.06
394.331	496.06
394.556	490.06
394.78	486.06
395.005	484.06
395.229	493.06
395.454	510.06
395.678	488.06
395.903	516.06
396.127	536.06
396.352	552.06
396.576	521.06
396.801	497.06
397.025	524.06
397.249	532.06
397.474	512.06
397.698	543.06
397.922	530.06
398.147	544.06
398.371	542.06
398.595	540.06
398.82	530.06
399.044	580.06
399.268	574.06
399.492	620.06
399.717	617.06
399.941	659.06
400.165	681.06
400.389	697.06
400.613	626.06
400.837	586.06
401.062	588.06
401.286	561.06
401.51	565.06
401.734	553.06
401.958	572.06
402.182	571.06
402.406	548.06
402.63	588.06
402.854	569.06
403.078	552.06
403.302	566.06
403.526	610.06
403.75	585.06
403.974	575.06
404.198	595.06
404.422	596.06
404.645	602.06
404.869	568.06
405.093	624.06
405.317	653.06
405.541	716.06
405.765	642.06
405.988	596.06
406.212	617.06
406.436	612.06
406.66	633.06
406.883	619.06
407.107	671.06
407.331	704.06
407.555	763.06
407.778	774.06
408.002	699.06
408.226	676.06
408.449	659.06
408.673	643.06
408.896	658.06
409.12	727.06
409.344	698.06
409.567	601.06
409.791	596.06
410.014	584.06
410.238	578.06
410.461	591.06
410.685	587.06
410.908	596.06
411.132	638.06
411.355	670.06
411.578	667.06
411.802	594.06
412.025	576.06
412.249	610.06
412.472	630.06
412.695	658.06
412.919	652.06
413.142	608.06
413.365	584.06
413.589	554.06
413.812	572.06
414.035	548.06
414.258	551.06
414.482	562.06
414.705	557.06
414.928	561.06
415.151	564.06
415.374	531.06
415.597	541.06
415.821	548.06
416.044	558.06
416.267	547.06
416.49	516.06
416.713	532.06
416.936	574.06
417.159	554.06
417.382	541.06
417.605	556.06
417.828	573.06
418.051	590.06
418.274	547.06
418.497	540.06
418.72	542.06
418.943	558.06
419.166	552.06
419.389	610.06
419.611	600.06
419.834	580.06
420.057	606.06
420.28	564.06
420.503	567.06
420.726	565.06
420.948	594.06
421.171	653.06
421.394	652.06
421.617	591.06
421.839	583.06
422.062	557.06
422.285	596.06
422.507	638.06
422.73	749.06
422.953	675.06
423.175	608.06
423.398	592.06
423.621	586.06
423.843	611.06
424.066	630.06
424.288	624.06
424.511	630.06
424.733	693.06
424.956	793.06
425.178	734.06
425.401	756.06
425.623	779.06
425.846	650.06
426.068	625.06
426.291	607.06
426.513	614.06
426.735	630.06
426.958	668.06
427.18	783.06
427.402	908.06
427.625	1026.06
427.847	867.06
428.069	750.06
428.292	685.06
428.514	615.06
428.736	591.06
428.958	579.06
429.181	573.06
429.403	557.06
429.625	562.06
429.847	599.06
430.069	678.06
430.292	690.06
430.514	581.06
430.736	558.06
430.958	545.06
431.18	546.06
431.402	545.06
431.624	555.06
431.846	545.06
432.068	524.06
432.29	546.06
432.512	532.06
432.734	544.06
432.956	556.06
433.178	548.06
433.4	563.06
433.622	574.06
433.844	567.06
434.066	556.06
434.287	530.06
434.509	561.06
434.731	560.06
434.953	579.06
435.175	596.06
435.397	617.06
435.618	612.06
435.84	668.06
436.062	780.06
436.284	873.06
436.505	717.06
436.727	638.06
436.949	615.06
437.17	573.06
437.392	560.06
437.614	580.06
437.835	626.06
438.057	724.06
438.278	838.06
438.5	843.06
438.721	952.06
438.943	891.06
439.165	733.06
439.386	632.06
439.608	638.06
439.829	603.06
440.05	626.06
440.272	714.06
440.493	661.06
440.715	616.06
440.936	581.06
441.158	568.06
441.379	555.06
441.6	581.06
441.822	603.06
442.043	661.06
442.264	747.06
442.486	812.06
442.707	667.06
442.928	628.06
443.149	635.06
443.371	664.06
443.592	724.06
443.813	822.06
444.034	878.06
444.255	728.06
444.476	672.06
444.698	620.06
444.919	605.06
445.14	757.06
445.361	692.06
445.582	659.06
445.803	725.06
446.024	849.06
446.245	893.06
446.466	818.06
446.687	682.06
446.908	600.06
447.129	576.06
447.35	565.06
447.571	577.06
447.792	558.06
448.013	595.06
448.234	605.06
448.455	633.06
448.675	779.06
448.896	932.06
449.117	784.06
449.338	706.06
449.559	830.06
449.779	997.06
450	735.06
450.221	613.06
450.442	582.06
450.662	556.06
450.883	564.06
451.104	578.06
451.324	562.06
451.545	548.06
451.766	537.06
451.986	521.06
452.207	512.06
452.428	517.06
452.648	517.06
452.869	521.06
453.089	501.06
453.31	522.06
453.53	510.06
453.751	508.06
453.971	528.06
454.192	523.06
454.412	535.06
454.633	496.06
454.853	497.06
455.073	493.06
455.294	548.06
455.514	605.06
455.734	587.06
455.955	514.06
456.175	503.06
456.395	504.06
456.616	470.06
456.836	482.06
457.056	492.06
457.276	470.06
457.497	481.06
457.717	473.06
457.937	481.06
458.157	502.06
458.377	507.06
458.598	513.06
458.818	560.06
459.038	636.06
459.258	703.06
459.478	614.06
459.698	560.06
459.918	564.06
460.138	577.06
460.358	543.06
460.578	540.06
460.798	550.06
461.018	576.06
461.238	560.06
461.458	563.06
461.678	535.06
461.898	557.06
462.118	558.06
462.338	593.06
462.558	569.06
462.777	568.06
462.997	571.06
463.217	597.06
463.437	605.06
463.657	593.06
463.876	600.06
464.096	618.06
464.316	594.06
464.536	608.06
464.755	631.06
464.975	606.06
465.195	613.06
465.414	698.06
465.634	628.06
465.854	600.06
466.073	582.06
466.293	530.06
466.512	541.06
466.732	525.06
466.951	535.06
467.171	525.06
467.391	536.06
467.61	538.06
467.829	558.06
468.049	561.06
468.268	552.06
468.488	531.06
468.707	512.06
468.927	520.06
469.146	523.06
469.365	495.06
469.585	517.06
469.804	533.06
470.023	534.06
470.243	562.06
470.462	539.06
470.681	549.06
470.901	548.06
471.12	536.06
471.339	526.06
471.558	552.06
471.777	537.06
471.997	517.06
472.216	521.06
472.435	556.06
472.654	540.06
472.873	542.06
473.092	545.06
473.311	538.06
473.53	532.06
473.749	534.06
473.968	594.06
474.187	702.06
474.406	740.06
474.625	592.06
474.844	549.06
475.063	517.06
475.282	535.06
475.501	525.06
475.72	549.06
475.939	553.06
476.158	562.06
476.377	546.06
476.596	540.06
476.814	572.06
477.033	576.06
477.252	583.06
477.471	557.06
477.69	580.06
477.908	583.06
478.127	573.06
478.346	602.06
478.564	572.06
478.783	587.06
479.002	594.06
479.22	602.06
479.439	626.06
479.658	645.06
479.876	620.06
480.095	630.06
480.313	678.06
480.532	657.06
480.751	654.06
480.969	662.06
481.188	700.06
481.406	745.06
481.624	690.06
481.843	637.06
482.061	646.06
482.28	653.06
482.498	646.06
482.717	623.06
482.935	633.06
483.153	628.06
483.372	619.06
483.59	628.06
483.808	635.06
484.027	614.06
484.245	640.06
484.463	615.06
484.681	650.06
484.9	622.06
485.118	625.06
485.336	637.06
485.554	645.06
485.772	652.06
485.99	628.06
486.209	650.06
486.427	637.06
486.645	657.06
486.863	668.06
487.081	665.06
487.299	668.06
487.517	643.06
487.735	664.06
487.953	658.06
488.171	656.06
488.389	676.06
488.607	661.06
488.825	678.06
489.043	654.06
489.261	671.06
489.479	669.06
489.696	673.06
489.914	660.06
490.132	698.06
490.35	703.06
490.568	680.06
490.786	700.06
491.003	704.06
491.221	754.06
491.439	747.06
491.657	721.06
491.874	745.06
492.092	758.06
492.31	756.06
492.527	738.06
492.745	776.06
492.963	770.06
493.18	740.06
493.398	753.06
493.615	763.06
493.833	764.06
494.05	774.06
494.268	782.06
494.485	765.06
494.703	761.06
494.92	784.06
495.138	772.06
495.355	779.06
495.573	790.06
495.79	768.06
496.008	787.06
496.225	779.06
496.442	774.06
496.66	780.06
496.877	787.06
497.094	783.06
497.312	823.06
497.529	797.06
497.746	846.06
497.963	846.06
498.181	889.06
498.398	891.06
498.615	887.06
498.832	929.06
499.049	933.06
499.267	953.06
499.484	958.06
499.701	994.06
499.918	1031.06
500.135	1051.06
500.352	1128.06
500.569	1140.06
500.786	1138.06
501.003	1116.06
501.22	1072.06
501.437	1058.06
501.654	1026.06
501.871	1030.06
502.088	1005.06
502.305	940.06
502.522	935.06
502.739	893.06
502.956	855.06
503.172	887.06
503.389	830.06
503.606	870.06
503.823	845.06
504.04	818.06
504.256	816.06
504.473	807.06
504.69	801.06
504.907	804.06
505.123	789.06
505.34	773.06
505.557	747.06
505.773	753.06
505.99	752.06
506.207	770.06
506.423	770.06
506.64	745.06
506.856	723.06
507.073	757.06
507.289	759.06
507.506	715.06
507.722	724.06
507.939	748.06
508.155	747.06
508.372	710.06
508.588	719.06
508.805	702.06
509.021	728.06
509.238	699.06
509.454	735.06
509.67	719.06
509.887	701.06
510.103	672.06
510.319	707.06
510.536	803.06
510.752	1226.06
510.968	1046.06
511.184	733.06
511.401	692.06
511.617	690.06
511.833	665.06
512.049	688.06
512.265	672.06
512.481	674.06
512.698	684.06
512.914	664.06
513.13	694.06
513.346	689.06
513.562	690.06
513.778	678.06
513.994	689.06
514.21	697.06
514.426	691.06
514.642	703.06
514.858	787.06
515.074	798.06
515.29	924.06
515.506	1265.06
515.721	1118.06
515.937	795.06
516.153	738.06
516.369	724.06
516.585	697.06
516.801	704.06
517.016	716.06
517.232	702.06
517.448	720.06
517.664	708.06
517.879	701.06
518.095	710.06
518.311	729.06
518.527	690.06
518.742	678.06
518.958	702.06
519.173	688.06
519.389	683.06
519.605	698.06
519.82	706.06
520.036	697.06
520.251	713.06
520.467	713.06
520.682	718.06
520.898	717.06
521.113	729.06
521.329	761.06
521.544	867.06
521.76	1050.06
521.975	1604.06
522.19	1616.06
522.406	938.06
522.621	732.06
522.836	710.06
523.052	701.06
523.267	640.06
523.482	644.06
523.698	610.06
523.913	614.06
524.128	620.06
524.343	627.06
524.559	606.06
524.774	599.06
524.989	602.06
525.204	585.06
525.419	619.06
525.634	599.06
525.849	601.06
526.064	577.06
526.28	573.06
526.495	579.06
526.71	581.06
526.925	560.06
527.14	562.06
527.355	561.06
527.57	576.06
527.785	541.06
527.999	538.06
528.214	550.06
528.429	564.06
528.644	558.06
528.859	581.06
529.074	562.06
529.289	590.06
529.503	681.06
529.718	644.06
529.933	582.06
530.148	563.06
530.363	567.06
530.577	548.06
530.792	576.06
531.007	542.06
531.221	554.06
531.436	560.06
531.651	546.06
531.865	542.06
532.08	547.06
532.295	567.06
532.509	550.06
532.724	557.06
532.938	549.06
533.153	548.06
533.367	553.06
533.582	542.06
533.796	532.06
534.011	523.06
534.225	528.06
534.44	520.06
534.654	525.06
534.868	539.06
535.083	518.06
535.297	533.06
535.511	525.06
535.726	545.06
535.94	545.06
536.154	528.06
536.369	526.06
536.583	533.06
536.797	540.06
537.011	522.06
537.225	506.06
537.44	515.06
537.654	513.06
537.868	503.06
538.082	540.06
538.296	526.06
538.51	526.06
538.724	514.06
538.938	525.06
539.153	514.06
539.367	520.06
539.581	513.06
539.795	525.06
540.009	526.06
540.222	523.06
540.436	501.06
540.65	496.06
540.864	512.06
541.078	526.06
541.292	522.06
541.506	519.06
541.72	520.06
541.934	522.06
542.147	484.06
542.361	522.06
542.575	488.06
542.789	499.06
543.002	518.06
543.216	512.06
543.43	499.06
543.644	506.06
543.857	516.06
544.071	516.06
544.285	517.06
544.498	496.06
544.712	523.06
544.925	486.06
545.139	504.06
545.352	506.06
545.566	510.06
545.779	489.06
545.993	502.06
546.206	519.06
546.42	500.06
546.633	486.06
546.847	513.06
547.06	485.06
547.274	474.06
547.487	476.06
547.7	488.06
547.914	493.06
548.127	470.06
548.34	475.06
548.554	497.06
548.767	467.06
548.98	508.06
549.193	478.06
549.407	475.06
549.62	502.06
549.833	501.06
550.046	493.06
550.259	491.06
550.473	466.06
550.686	485.06
550.899	459.06
551.112	498.06
551.325	480.06
551.538	503.06
551.751	491.06
551.964	504.06
552.177	500.06
552.39	472.06
552.603	488.06
552.816	492.06
553.029	493.06
553.242	482.06
553.455	494.06
553.667	483.06
553.88	505.06
554.093	485.06
554.306	524.06
554.519	476.06
554.732	473.06
554.944	464.06
555.157	474.06
555.37	501.06
555.583	485.06
555.795	447.06
556.008	462.06
556.221	459.06
556.433	438.06
556.646	453.06
556.859	463.06
557.071	446.06
557.284	436.06
557.496	434.06
557.709	445.06
557.921	436.06
558.134	420.06
558.346	445.06
558.559	446.06
558.771	444.06
558.984	446.06
559.196	418.06
559.409	443.06
559.621	454.06
559.833	451.06
560.046	434.06
560.258	424.06
560.47	439.06
560.683	436.06
560.895	437.06
561.107	416.06
561.32	440.06
561.532	436.06
561.744	430.06
561.956	445.06
562.168	450.06
562.381	452.06
562.593	434.06
562.805	436.06
563.017	421.06
563.229	427.06
563.441	439.06
563.653	444.06
563.865	445.06
564.077	431.06
564.289	447.06
564.501	456.06
564.713	480.06
564.925	468.06
565.137	489.06
565.349	497.06
565.561	477.06
565.773	475.06
565.985	491.06
566.197	502.06
566.408	546.06
566.62	526.06
566.832	494.06
567.044	520.06
567.255	534.06
567.467	530.06
567.679	547.06
567.891	584.06
568.102	555.06
568.314	563.06
568.526	526.06
568.737	532.06
568.949	519.06
569.161	496.06
569.372	465.06
569.584	458.06
569.795	453.06
570.007	471.06
570.218	478.06
570.43	489.06
570.641	451.06
570.853	448.06
571.064	442.06
571.276	427.06
571.487	418.06
571.698	438.06
571.91	411.06
572.121	400.06
572.333	407.06
572.544	398.06
572.755	421.06
572.966	402.06
573.178	383.06
573.389	407.06
573.6	403.06
573.811	388.06
574.023	389.06
574.234	381.06
574.445	379.06
574.656	391.06
574.867	369.06
575.078	390.06
575.289	409.06
575.501	375.06
575.712	376.06
575.923	379.06
576.134	366.06
576.345	376.06
576.556	386.06
576.767	373.06
576.978	388.06
577.188	357.06
577.399	376.06
577.61	370.06
577.821	355.06
578.032	383.06
578.243	404.06
578.454	585.06
578.665	467.06
578.875	390.06
579.086	368.06
579.297	364.06
579.508	352.06
579.718	351.06
579.929	370.06
580.14	362.06
580.35	372.06
580.561	354.06
580.772	344.06
580.982	332.06
581.193	345.06
581.403	320.06
581.614	345.06
581.825	347.06
582.035	316.06
582.246	342.06
582.456	345.06
582.667	364.06
582.877	350.06
583.087	339.06
583.298	324.06
583.508	332.06
583.719	343.06
583.929	336.06
584.139	331.06
584.35	308.06
584.56	346.06
584.77	332.06
584.981	336.06
585.191	316.06
585.401	335.06
585.611	332.06
585.821	337.06
586.032	349.06
586.242	329.06
586.452	329.06
586.662	348.06
586.872	332.06
587.082	329.06
587.292	356.06
587.502	352.06
587.713	328.06
587.923	330.06
588.133	342.06
588.343	326.06
588.553	324.06
588.762	318.06
588.972	327.06
589.182	342.06
589.392	323.06
589.602	324.06
589.812	316.06
590.022	314.06
590.232	321.06
590.441	317.06
590.651	340.06
590.861	339.06
591.071	312.06
591.281	321.06
591.49	347.06
591.7	332.06
591.91	329.06
592.119	349.06
592.329	331.06
592.539	341.06
592.748	345.06
592.958	343.06
593.167	340.06
593.377	332.06
593.587	359.06
593.796	356.06
594.006	343.06
594.215	355.06
594.424	343.06
594.634	347.06
594.843	341.06
595.053	341.06
595.262	333.06
595.472	339.06
595.681	321.06
595.89	327.06
596.1	313.06
596.309	294.06
596.518	320.06
596.727	311.06
596.937	313.06
597.146	306.06
597.355	313.06
597.564	315.06
597.774	294.06
597.983	302.06
598.192	286.06
598.401	299.06
598.61	312.06
598.819	320.06
599.028	288.06
599.237	277.06
599.446	290.06
599.655	300.06
599.864	320.06
600.073	300.06
600.282	292.06
600.491	288.06
600.7	293.06
600.909	268.06
601.118	268.06
601.327	276.06
601.536	289.06
601.745	271.06
601.953	296.06
602.162	296.06
602.371	281.06
602.58	278.06
602.789	262.06
602.997	268.06
603.206	259.06
603.415	277.06
603.623	284.06
603.832	275.06
604.041	293.06
604.249	286.06
604.458	272.06
604.666	262.06
604.875	269.06
605.084	276.06
605.292	260.06
605.501	280.06
605.709	265.06
605.918	298.06
606.126	265.06
606.334	247.06
606.543	259.06
606.751	264.06
606.96	278.06
607.168	257.06
607.376	259.06
607.585	281.06
607.793	267.06
608.001	268.06
608.21	284.06
608.418	274.06
608.626	254.06
608.834	272.06
609.043	278.06
609.251	275.06
609.459	276.06
609.667	266.06
609.875	254.06
610.083	266.06
610.291	273.06
610.499	266.06
610.707	268.06
610.916	264.06
611.124	279.06
611.332	269.06
611.54	270.06
611.748	278.06
611.955	260.06
612.163	253.06
612.371	280.06
612.579	280.06
612.787	258.06
612.995	262.06
613.203	249.06
613.411	237.06
613.618	248.06
613.826	277.06
614.034	250.06
614.242	282.06
614.449	241.06
614.657	260.06
614.865	262.06
615.072	264.06
615.28	244.06
615.488	242.06
615.695	252.06
615.903	255.06
616.111	266.06
616.318	268.06
616.526	249.06
616.733	270.06
616.941	265.06
617.148	253.06
617.356	260.06
617.563	270.06
617.771	252.06
617.978	240.06
618.185	222.06
618.393	244.06
618.6	272.06
618.807	264.06
619.015	257.06
619.222	248.06
619.429	239.06
619.637	261.06
619.844	247.06
620.051	242.06
620.258	242.06
620.466	217.06
620.673	227.06
620.88	241.06
621.087	235.06
621.294	256.06
621.501	258.06
621.708	241.06
621.915	247.06
622.122	236.06
622.329	242.06
622.536	250.06
622.743	232.06
622.95	235.06
623.157	241.06
623.364	258.06
623.571	240.06
623.778	237.06
623.985	228.06
624.192	233.06
624.399	218.06
624.606	246.06
624.812	221.06
625.019	236.06
625.226	226.06
625.433	218.06
625.639	227.06
625.846	210.06
626.053	230.06
626.259	220.06
626.466	219.06
626.673	236.06
626.879	220.06
627.086	234.06
627.293	232.06
627.499	215.06
627.706	224.06
627.912	226.06
628.119	221.06
628.325	225.06
628.532	214.06
628.738	201.06
628.945	220.06
629.151	221.06
629.357	224.06
629.564	223.06
629.77	213.06
629.976	206.06
630.183	220.06
630.389	227.06
630.595	214.06
630.802	205.06
631.008	223.06
631.214	205.06
631.42	213.06
631.627	227.06
631.833	199.06
632.039	215.06
632.245	185.06
632.451	203.06
632.657	202.06
632.863	214.06
633.069	198.06
633.275	197.06
633.481	208.06
633.688	188.06
633.893	216.06
634.099	200.06
634.305	197.06
634.511	179.06
634.717	188.06
634.923	173.06
635.129	170.06
635.335	200.06
635.541	202.06
635.747	192.06
635.952	192.06
636.158	189.06
636.364	192.06
636.57	198.06
636.775	209.06
636.981	198.06
637.187	197.06
637.392	199.06
637.598	197.06
637.804	184.06
638.009	195.06
638.215	215.06
638.421	188.06
638.626	202.06
638.832	198.06
639.037	193.06
639.243	194.06
639.448	192.06
639.654	183.06
639.859	197.06
640.065	182.06
640.27	180.06
640.475	195.06
640.681	195.06
640.886	194.06
641.091	185.06
641.297	191.06
641.502	188.06
641.707	194.06
641.913	192.06
642.118	172.06
642.323	185.06
642.528	191.06
642.733	188.06
642.939	188.06
643.144	183.06
643.349	202.06
643.554	182.06
643.759	170.06
643.964	173.06
644.169	177.06
644.374	180.06
644.579	178.06
644.784	176.06
644.989	170.06
645.194	176.06
645.399	184.06
645.604	167.06
645.809	169.06
646.014	168.06
646.219	180.06
646.423	196.06
646.628	183.06
646.833	166.06
647.038	188.06
647.243	169.06
647.447	182.06
647.652	159.06
647.857	181.06
648.062	177.06
648.266	163.06
648.471	176.06
648.676	187.06
648.88	164.06
649.085	190.06
649.289	180.06
649.494	192.06
649.698	204.06
649.903	183.06
650.107	172.06
650.312	166.06
650.516	167.06
650.721	178.06
650.925	148.06
651.13	144.06
651.334	163.06
651.539	160.06
651.743	148.06
651.947	150.06
652.152	164.06
652.356	146.06
652.56	151.06
652.764	156.06
652.969	151.06
653.173	155.06
653.377	145.06
653.581	149.06
653.785	156.06
653.99	161.06
654.194	153.06
654.398	139.06
654.602	135.06
654.806	138.06
655.01	153.06
655.214	152.06
655.418	143.06
655.622	132.06
655.826	150.06
656.03	135.06
656.234	142.06
656.438	125.06
656.642	148.06
656.846	134.06
657.049	134.06
657.253	121.06
657.457	141.06
657.661	134.06
657.865	115.06
658.068	105.06
658.272	103.06
658.476	102.06
658.68	115.06
658.883	116.06
659.087	114.06
659.291	97.06
659.494	99.06
659.698	93.06
659.901	99.06
660.105	97.06
660.309	102.06
660.512	103.06
660.716	98.06
660.919	94.06
661.123	90.06
661.326	99.06
661.53	106.06
661.733	91.06
661.936	87.06
662.14	82.06
662.343	92.06
662.546	99.06
662.75	102.06
662.953	86.06
663.156	83.06
663.36	89.06
663.563	80.06
663.766	96.06
663.969	84.06
664.173	81.06
664.376	78.06
664.579	82.06
664.782	92.06
664.985	98.06
665.188	65.06
665.391	89.06
665.594	83.06
665.797	81.06
666	87.06
666.203	81.06
666.406	84.06
666.609	84.06
666.812	79.06
667.015	78.06
667.218	80.06
667.421	96.06
667.624	69.06
667.827	90.06
668.03	79.06
668.232	81.06
668.435	82.06
668.638	91.06
668.841	74.06
669.043	84.06
669.246	88.06
669.449	78.06
669.651	80.06
669.854	76.06
670.057	77.06
670.259	80.06
670.462	79.06
670.665	76.06
670.867	88.06
671.07	73.06
671.272	85.06
671.475	95.06
671.677	96.06
671.88	97.06
672.082	85.06
672.284	77.06
672.487	83.06
672.689	65.06
672.892	83.06
