Data from 1978.PennyLincolnUp.Lamp.En5.5.200Scan.071719.P1_HRD10591_16-12-23-865.txt Node
Date: Thu Jul 18 16:12:23 EDT 2019
User: cochatt
Spectrometer: HR+D1059
Trigger mode: 1
Integration Time (sec): 1.000000E-1
Scans to average: 1
Electric dark correction enabled: true
Nonlinearity correction enabled: false
Boxcar width: 0
XAxis mode: Wavelengths
Number of Pixels in Spectrum: 2048
>>>>>Begin Spectral Data<<<<<
223.165	-11.25
223.4	-11.25
223.635	-11.25
223.869	-15.25
224.104	-21.25
224.338	-19.25
224.573	-27.25
224.808	-9.25
225.042	-18.25
225.277	-1.25
225.511	9.75
225.746	5.75
225.98	-3.25
226.215	12.75
226.449	14.75
226.683	13.75
226.918	32.75
227.152	36.75
227.387	41.75
227.621	34.75
227.856	38.75
228.09	54.75
228.324	44.75
228.559	57.75
228.793	67.75
229.027	100.75
229.262	97.75
229.496	98.75
229.73	120.75
229.964	148.75
230.199	116.75
230.433	105.75
230.667	100.75
230.901	93.75
231.136	107.75
231.37	107.75
231.604	105.75
231.838	106.75
232.072	109.75
232.306	99.75
232.541	92.75
232.775	114.75
233.009	109.75
233.243	101.75
233.477	84.75
233.711	107.75
233.945	100.75
234.179	103.75
234.413	99.75
234.647	108.75
234.881	99.75
235.115	118.75
235.349	124.75
235.583	116.75
235.817	113.75
236.051	112.75
236.285	116.75
236.519	103.75
236.753	110.75
236.987	131.75
237.221	164.75
237.455	201.75
237.689	169.75
237.922	130.75
238.156	122.75
238.39	116.75
238.624	122.75
238.858	113.75
239.091	113.75
239.325	108.75
239.559	128.75
239.793	112.75
240.027	124.75
240.26	137.75
240.494	145.75
240.728	140.75
240.961	141.75
241.195	132.75
241.429	116.75
241.662	117.75
241.896	138.75
242.13	132.75
242.363	128.75
242.597	120.75
242.83	127.75
243.064	124.75
243.298	123.75
243.531	118.75
243.765	136.75
243.998	132.75
244.232	143.75
244.465	133.75
244.699	138.75
244.932	133.75
245.166	146.75
245.399	128.75
245.633	142.75
245.866	144.75
246.099	166.75
246.333	140.75
246.566	133.75
246.8	138.75
247.033	144.75
247.266	150.75
247.5	154.75
247.733	165.75
247.966	170.75
248.2	147.75
248.433	156.75
248.666	167.75
248.899	171.75
249.133	164.75
249.366	182.75
249.599	163.75
249.832	169.75
250.066	171.75
250.299	167.75
250.532	164.75
250.765	185.75
250.998	206.75
251.231	198.75
251.465	197.75
251.698	182.75
251.931	178.75
252.164	168.75
252.397	173.75
252.63	177.75
252.863	179.75
253.096	183.75
253.329	197.75
253.562	202.75
253.795	193.75
254.028	196.75
254.261	187.75
254.494	188.75
254.727	221.75
254.96	241.75
255.193	227.75
255.426	201.75
255.659	202.75
255.892	199.75
256.124	194.75
256.357	207.75
256.59	211.75
256.823	190.75
257.056	192.75
257.289	184.75
257.521	184.75
257.754	185.75
257.987	185.75
258.22	185.75
258.452	179.75
258.685	200.75
258.918	170.75
259.151	184.75
259.383	207.75
259.616	186.75
259.849	190.75
260.081	228.75
260.314	212.75
260.547	205.75
260.779	219.75
261.012	221.75
261.244	212.75
261.477	208.75
261.71	203.75
261.942	204.75
262.175	203.75
262.407	189.75
262.64	192.75
262.872	199.75
263.105	202.75
263.337	203.75
263.57	199.75
263.802	183.75
264.035	195.75
264.267	187.75
264.499	196.75
264.732	189.75
264.964	202.75
265.197	203.75
265.429	205.75
265.661	182.75
265.894	189.75
266.126	201.75
266.358	206.75
266.591	180.75
266.823	209.75
267.055	195.75
267.287	200.75
267.52	188.75
267.752	219.75
267.984	211.75
268.216	208.75
268.448	215.75
268.681	200.75
268.913	223.75
269.145	230.75
269.377	262.75
269.609	236.75
269.841	233.75
270.073	237.75
270.306	234.75
270.538	260.75
270.77	291.75
271.002	253.75
271.234	244.75
271.466	264.75
271.698	274.75
271.93	268.75
272.162	280.75
272.394	264.75
272.626	263.75
272.858	269.75
273.09	236.75
273.322	252.75
273.553	238.75
273.785	246.75
274.017	225.75
274.249	238.75
274.481	260.75
274.713	243.75
274.945	232.75
275.176	234.75
275.408	245.75
275.64	215.75
275.872	238.75
276.104	242.75
276.335	250.75
276.567	249.75
276.799	248.75
277.031	253.75
277.262	258.75
277.494	275.75
277.726	276.75
277.957	246.75
278.189	251.75
278.421	248.75
278.652	256.75
278.884	243.75
279.115	250.75
279.347	246.75
279.579	247.75
279.81	228.75
280.042	254.75
280.273	255.75
280.505	249.75
280.736	252.75
280.968	250.75
281.199	249.75
281.431	237.75
281.662	266.75
281.894	237.75
282.125	256.75
282.356	258.75
282.588	289.75
282.819	283.75
283.051	256.75
283.282	259.75
283.513	274.75
283.745	264.75
283.976	231.75
284.207	258.75
284.439	267.75
284.67	285.75
284.901	271.75
285.132	239.75
285.364	249.75
285.595	268.75
285.826	256.75
286.057	246.75
286.288	256.75
286.52	264.75
286.751	274.75
286.982	270.75
287.213	258.75
287.444	272.75
287.675	250.75
287.906	290.75
288.138	289.75
288.369	284.75
288.6	286.75
288.831	276.75
289.062	278.75
289.293	262.75
289.524	269.75
289.755	256.75
289.986	269.75
290.217	277.75
290.448	256.75
290.679	288.75
290.91	271.75
291.141	258.75
291.371	281.75
291.602	261.75
291.833	267.75
292.064	272.75
292.295	260.75
292.526	270.75
292.757	269.75
292.987	285.75
293.218	280.75
293.449	264.75
293.68	269.75
293.91	293.75
294.141	282.75
294.372	280.75
294.603	277.75
294.833	266.75
295.064	266.75
295.295	283.75
295.525	272.75
295.756	282.75
295.987	297.75
296.217	285.75
296.448	318.75
296.679	290.75
296.909	297.75
297.14	282.75
297.37	285.75
297.601	287.75
297.831	275.75
298.062	282.75
298.292	283.75
298.523	276.75
298.753	284.75
298.984	291.75
299.214	295.75
299.445	295.75
299.675	297.75
299.905	305.75
300.136	308.75
300.366	285.75
300.597	294.75
300.827	292.75
301.057	299.75
301.288	309.75
301.518	318.75
301.748	287.75
301.979	288.75
302.209	312.75
302.439	305.75
302.669	324.75
302.9	304.75
303.13	302.75
303.36	308.75
303.59	290.75
303.82	328.75
304.051	297.75
304.281	309.75
304.511	315.75
304.741	299.75
304.971	299.75
305.201	312.75
305.431	310.75
305.661	308.75
305.891	312.75
306.121	325.75
306.352	306.75
306.582	324.75
306.812	307.75
307.042	296.75
307.272	310.75
307.502	294.75
307.731	319.75
307.961	324.75
308.191	302.75
308.421	289.75
308.651	313.75
308.881	325.75
309.111	336.75
309.341	321.75
309.571	329.75
309.8	318.75
310.03	351.75
310.26	351.75
310.49	342.75
310.72	358.75
310.949	360.75
311.179	360.75
311.409	356.75
311.639	354.75
311.868	354.75
312.098	349.75
312.328	364.75
312.557	361.75
312.787	368.75
313.017	369.75
313.246	355.75
313.476	360.75
313.706	352.75
313.935	367.75
314.165	368.75
314.394	371.75
314.624	375.75
314.853	362.75
315.083	370.75
315.312	358.75
315.542	358.75
315.771	367.75
316.001	350.75
316.23	358.75
316.46	359.75
316.689	365.75
316.919	353.75
317.148	357.75
317.377	353.75
317.607	366.75
317.836	349.75
318.065	354.75
318.295	358.75
318.524	335.75
318.753	357.75
318.983	364.75
319.212	348.75
319.441	374.75
319.67	366.75
319.9	355.75
320.129	360.75
320.358	362.75
320.587	357.75
320.816	355.75
321.046	359.75
321.275	380.75
321.504	368.75
321.733	378.75
321.962	381.75
322.191	376.75
322.42	397.75
322.649	403.75
322.878	414.75
323.108	426.75
323.337	436.75
323.566	442.75
323.795	473.75
324.024	490.75
324.253	616.75
324.482	859.75
324.71	1292.75
324.939	1946.75
325.168	1702.75
325.397	817.75
325.626	571.75
325.855	488.75
326.084	466.75
326.313	454.75
326.542	464.75
326.77	499.75
326.999	564.75
327.228	780.75
327.457	1179.75
327.686	1446.75
327.914	980.75
328.143	622.75
328.372	548.75
328.6	508.75
328.829	491.75
329.058	494.75
329.287	505.75
329.515	484.75
329.744	451.75
329.972	453.75
330.201	467.75
330.43	498.75
330.658	524.75
330.887	553.75
331.115	541.75
331.344	453.75
331.572	445.75
331.801	453.75
332.03	453.75
332.258	434.75
332.486	427.75
332.715	403.75
332.943	426.75
333.172	425.75
333.4	408.75
333.629	452.75
333.857	458.75
334.085	446.75
334.314	465.75
334.542	487.75
334.771	503.75
334.999	460.75
335.227	457.75
335.455	441.75
335.684	433.75
335.912	450.75
336.14	441.75
336.369	448.75
336.597	437.75
336.825	439.75
337.053	425.75
337.281	424.75
337.51	426.75
337.738	425.75
337.966	401.75
338.194	432.75
338.422	420.75
338.65	415.75
338.878	421.75
339.106	412.75
339.334	414.75
339.562	417.75
339.79	425.75
340.018	413.75
340.246	411.75
340.474	412.75
340.702	426.75
340.93	411.75
341.158	403.75
341.386	430.75
341.614	401.75
341.842	418.75
342.07	400.75
342.298	413.75
342.526	407.75
342.754	408.75
342.981	404.75
343.209	384.75
343.437	411.75
343.665	408.75
343.893	445.75
344.12	443.75
344.348	427.75
344.576	429.75
344.804	426.75
345.031	438.75
345.259	436.75
345.487	429.75
345.714	430.75
345.942	409.75
346.17	410.75
346.397	404.75
346.625	402.75
346.853	387.75
347.08	404.75
347.308	402.75
347.535	410.75
347.763	415.75
347.99	390.75
348.218	408.75
348.445	426.75
348.673	416.75
348.9	404.75
349.128	420.75
349.355	405.75
349.583	387.75
349.81	389.75
350.037	383.75
350.265	404.75
350.492	403.75
350.72	393.75
350.947	382.75
351.174	411.75
351.402	417.75
351.629	407.75
351.856	393.75
352.083	420.75
352.311	403.75
352.538	407.75
352.765	420.75
352.992	401.75
353.22	405.75
353.447	401.75
353.674	412.75
353.901	388.75
354.128	389.75
354.355	398.75
354.583	397.75
354.81	381.75
355.037	391.75
355.264	377.75
355.491	396.75
355.718	402.75
355.945	396.75
356.172	382.75
356.399	398.75
356.626	391.75
356.853	378.75
357.08	369.75
357.307	388.75
357.534	385.75
357.761	401.75
357.988	388.75
358.215	389.75
358.441	400.75
358.668	381.75
358.895	403.75
359.122	398.75
359.349	397.75
359.576	384.75
359.802	425.75
360.029	437.75
360.256	434.75
360.483	458.75
360.709	415.75
360.936	414.75
361.163	408.75
361.39	416.75
361.616	406.75
361.843	401.75
362.07	404.75
362.296	409.75
362.523	392.75
362.749	404.75
362.976	382.75
363.203	412.75
363.429	395.75
363.656	410.75
363.882	394.75
364.109	380.75
364.335	394.75
364.562	396.75
364.788	388.75
365.015	382.75
365.241	405.75
365.468	397.75
365.694	390.75
365.92	401.75
366.147	396.75
366.373	399.75
366.599	406.75
366.826	385.75
367.052	388.75
367.278	374.75
367.505	382.75
367.731	416.75
367.957	384.75
368.184	401.75
368.41	410.75
368.636	404.75
368.862	418.75
369.089	388.75
369.315	400.75
369.541	387.75
369.767	410.75
369.993	426.75
370.219	388.75
370.445	388.75
370.672	412.75
370.898	401.75
371.124	405.75
371.35	412.75
371.576	394.75
371.802	421.75
372.028	398.75
372.254	385.75
372.48	408.75
372.706	418.75
372.932	417.75
373.158	390.75
373.384	413.75
373.61	412.75
373.835	396.75
374.061	406.75
374.287	420.75
374.513	413.75
374.739	414.75
374.965	411.75
375.191	413.75
375.416	410.75
375.642	414.75
375.868	417.75
376.094	412.75
376.319	402.75
376.545	406.75
376.771	408.75
376.997	399.75
377.222	419.75
377.448	411.75
377.674	409.75
377.899	397.75
378.125	409.75
378.35	421.75
378.576	407.75
378.802	405.75
379.027	398.75
379.253	400.75
379.478	388.75
379.704	410.75
379.929	411.75
380.155	396.75
380.38	404.75
380.606	425.75
380.831	421.75
381.057	413.75
381.282	403.75
381.507	406.75
381.733	433.75
381.958	411.75
382.184	415.75
382.409	417.75
382.634	425.75
382.86	408.75
383.085	407.75
383.31	426.75
383.535	421.75
383.761	444.75
383.986	432.75
384.211	417.75
384.436	440.75
384.662	429.75
384.887	446.75
385.112	468.75
385.337	439.75
385.562	419.75
385.787	445.75
386.013	457.75
386.238	453.75
386.463	465.75
386.688	469.75
386.913	438.75
387.138	422.75
387.363	453.75
387.588	425.75
387.813	451.75
388.038	457.75
388.263	470.75
388.488	454.75
388.713	466.75
388.938	464.75
389.163	457.75
389.387	441.75
389.612	444.75
389.837	452.75
390.062	462.75
390.287	456.75
390.512	426.75
390.736	461.75
390.961	450.75
391.186	444.75
391.411	460.75
391.636	458.75
391.86	457.75
392.085	487.75
392.31	471.75
392.534	481.75
392.759	473.75
392.984	463.75
393.208	471.75
393.433	467.75
393.658	459.75
393.882	481.75
394.107	453.75
394.331	465.75
394.556	468.75
394.78	458.75
395.005	472.75
395.229	452.75
395.454	468.75
395.678	507.75
395.903	488.75
396.127	510.75
396.352	488.75
396.576	476.75
396.801	472.75
397.025	485.75
397.249	498.75
397.474	477.75
397.698	507.75
397.922	511.75
398.147	518.75
398.371	518.75
398.595	511.75
398.82	498.75
399.044	560.75
399.268	586.75
399.492	564.75
399.717	613.75
399.941	651.75
400.165	661.75
400.389	674.75
400.613	628.75
400.837	574.75
401.062	561.75
401.286	533.75
401.51	540.75
401.734	536.75
401.958	522.75
402.182	533.75
402.406	552.75
402.63	517.75
402.854	546.75
403.078	541.75
403.302	520.75
403.526	548.75
403.75	549.75
403.974	534.75
404.198	538.75
404.422	557.75
404.645	547.75
404.869	577.75
405.093	587.75
405.317	613.75
405.541	648.75
405.765	611.75
405.988	570.75
406.212	578.75
406.436	574.75
406.66	612.75
406.883	569.75
407.107	613.75
407.331	654.75
407.555	706.75
407.778	724.75
408.002	667.75
408.226	604.75
408.449	612.75
408.673	604.75
408.896	626.75
409.12	667.75
409.344	628.75
409.567	576.75
409.791	555.75
410.014	568.75
410.238	566.75
410.461	544.75
410.685	580.75
410.908	562.75
411.132	606.75
411.355	635.75
411.578	603.75
411.802	566.75
412.025	567.75
412.249	574.75
412.472	572.75
412.695	603.75
412.919	615.75
413.142	555.75
413.365	541.75
413.589	548.75
413.812	536.75
414.035	525.75
414.258	527.75
414.482	524.75
414.705	522.75
414.928	536.75
415.151	525.75
415.374	507.75
415.597	526.75
415.821	530.75
416.044	522.75
416.267	530.75
416.49	539.75
416.713	514.75
416.936	524.75
417.159	519.75
417.382	527.75
417.605	547.75
417.828	527.75
418.051	542.75
418.274	510.75
418.497	531.75
418.72	516.75
418.943	500.75
419.166	527.75
419.389	546.75
419.611	558.75
419.834	544.75
420.057	539.75
420.28	549.75
420.503	508.75
420.726	522.75
420.948	556.75
421.171	569.75
421.394	614.75
421.617	549.75
421.839	541.75
422.062	553.75
422.285	576.75
422.507	592.75
422.73	663.75
422.953	658.75
423.175	583.75
423.398	584.75
423.621	560.75
423.843	577.75
424.066	571.75
424.288	553.75
424.511	597.75
424.733	609.75
424.956	682.75
425.178	700.75
425.401	664.75
425.623	692.75
425.846	619.75
426.068	564.75
426.291	571.75
426.513	582.75
426.735	577.75
426.958	596.75
427.18	694.75
427.402	825.75
427.625	900.75
427.847	790.75
428.069	664.75
428.292	595.75
428.514	564.75
428.736	544.75
428.958	567.75
429.181	518.75
429.403	518.75
429.625	551.75
429.847	582.75
430.069	658.75
430.292	626.75
430.514	520.75
430.736	521.75
430.958	511.75
431.18	511.75
431.402	521.75
431.624	510.75
431.846	512.75
432.068	492.75
432.29	506.75
432.512	523.75
432.734	538.75
432.956	524.75
433.178	530.75
433.4	519.75
433.622	512.75
433.844	501.75
434.066	519.75
434.287	504.75
434.509	495.75
434.731	510.75
434.953	538.75
435.175	534.75
435.397	573.75
435.618	545.75
435.84	593.75
436.062	700.75
436.284	794.75
436.505	639.75
436.727	611.75
436.949	560.75
437.17	537.75
437.392	539.75
437.614	566.75
437.835	548.75
438.057	658.75
438.278	763.75
438.5	747.75
438.721	851.75
438.943	805.75
439.165	635.75
439.386	587.75
439.608	570.75
439.829	563.75
440.05	590.75
440.272	642.75
440.493	600.75
440.715	572.75
440.936	541.75
441.158	540.75
441.379	548.75
441.6	544.75
441.822	561.75
442.043	597.75
442.264	689.75
442.486	700.75
442.707	634.75
442.928	583.75
443.149	574.75
443.371	586.75
443.592	635.75
443.813	712.75
444.034	806.75
444.255	656.75
444.476	593.75
444.698	594.75
444.919	602.75
445.14	680.75
445.361	616.75
445.582	615.75
445.803	654.75
446.024	746.75
446.245	804.75
446.466	702.75
446.687	617.75
446.908	578.75
447.129	534.75
447.35	545.75
447.571	551.75
447.792	512.75
448.013	529.75
448.234	552.75
448.455	591.75
448.675	708.75
448.896	840.75
449.117	683.75
449.338	636.75
449.559	763.75
449.779	870.75
450	722.75
450.221	582.75
450.442	501.75
450.662	509.75
450.883	504.75
451.104	524.75
451.324	521.75
451.545	530.75
451.766	485.75
451.986	476.75
452.207	470.75
452.428	485.75
452.648	480.75
452.869	468.75
453.089	480.75
453.31	497.75
453.53	476.75
453.751	496.75
453.971	477.75
454.192	502.75
454.412	480.75
454.633	466.75
454.853	487.75
455.073	491.75
455.294	501.75
455.514	532.75
455.734	533.75
455.955	466.75
456.175	448.75
456.395	482.75
456.616	461.75
456.836	472.75
457.056	442.75
457.276	421.75
457.497	452.75
457.717	447.75
457.937	437.75
458.157	467.75
458.377	487.75
458.598	500.75
458.818	528.75
459.038	603.75
459.258	600.75
459.478	552.75
459.698	541.75
459.918	519.75
460.138	512.75
460.358	528.75
460.578	521.75
460.798	551.75
461.018	549.75
461.238	533.75
461.458	549.75
461.678	532.75
461.898	552.75
462.118	505.75
462.338	551.75
462.558	553.75
462.777	597.75
462.997	572.75
463.217	580.75
463.437	585.75
463.657	551.75
463.876	572.75
464.096	593.75
464.316	543.75
464.536	561.75
464.755	578.75
464.975	568.75
465.195	594.75
465.414	641.75
465.634	597.75
465.854	563.75
466.073	516.75
466.293	502.75
466.512	474.75
466.732	498.75
466.951	482.75
467.171	480.75
467.391	529.75
467.61	534.75
467.829	540.75
468.049	500.75
468.268	486.75
468.488	477.75
468.707	497.75
468.927	471.75
469.146	484.75
469.365	469.75
469.585	491.75
469.804	490.75
470.023	489.75
470.243	489.75
470.462	513.75
470.681	514.75
470.901	524.75
471.12	504.75
471.339	484.75
471.558	505.75
471.777	509.75
471.997	468.75
472.216	506.75
472.435	539.75
472.654	503.75
472.873	512.75
473.092	492.75
473.311	515.75
473.53	499.75
473.749	514.75
473.968	552.75
474.187	625.75
474.406	647.75
474.625	542.75
474.844	493.75
475.063	480.75
475.282	496.75
475.501	495.75
475.72	518.75
475.939	512.75
476.158	534.75
476.377	526.75
476.596	528.75
476.814	519.75
477.033	544.75
477.252	529.75
477.471	547.75
477.69	541.75
477.908	562.75
478.127	540.75
478.346	573.75
478.564	586.75
478.783	566.75
479.002	572.75
479.22	584.75
479.439	582.75
479.658	612.75
479.876	617.75
480.095	606.75
480.313	632.75
480.532	627.75
480.751	634.75
480.969	625.75
481.188	640.75
481.406	673.75
481.624	622.75
481.843	575.75
482.061	591.75
482.28	600.75
482.498	581.75
482.717	599.75
482.935	579.75
483.153	589.75
483.372	553.75
483.59	592.75
483.808	568.75
484.027	588.75
484.245	585.75
484.463	612.75
484.681	592.75
484.9	618.75
485.118	614.75
485.336	614.75
485.554	600.75
485.772	624.75
485.99	616.75
486.209	601.75
486.427	619.75
486.645	613.75
486.863	614.75
487.081	625.75
487.299	622.75
487.517	622.75
487.735	641.75
487.953	625.75
488.171	613.75
488.389	612.75
488.607	641.75
488.825	635.75
489.043	633.75
489.261	641.75
489.479	636.75
489.696	642.75
489.914	644.75
490.132	628.75
490.35	627.75
490.568	650.75
490.786	664.75
491.003	665.75
491.221	681.75
491.439	659.75
491.657	665.75
491.874	715.75
492.092	690.75
492.31	698.75
492.527	667.75
492.745	694.75
492.963	694.75
493.18	715.75
493.398	724.75
493.615	707.75
493.833	717.75
494.05	753.75
494.268	712.75
494.485	688.75
494.703	708.75
494.92	728.75
495.138	708.75
495.355	735.75
495.573	732.75
495.79	721.75
496.008	737.75
496.225	701.75
496.442	723.75
496.66	729.75
496.877	740.75
497.094	754.75
497.312	759.75
497.529	762.75
497.746	786.75
497.963	797.75
498.181	816.75
498.398	829.75
498.615	818.75
498.832	847.75
499.049	860.75
499.267	884.75
499.484	916.75
499.701	930.75
499.918	1004.75
500.135	1022.75
500.352	1077.75
500.569	1074.75
500.786	1105.75
501.003	1096.75
501.22	1042.75
501.437	1045.75
501.654	1005.75
501.871	956.75
502.088	924.75
502.305	892.75
502.522	853.75
502.739	836.75
502.956	826.75
503.172	829.75
503.389	779.75
503.606	792.75
503.823	779.75
504.04	760.75
504.256	765.75
504.473	776.75
504.69	772.75
504.907	759.75
505.123	721.75
505.34	725.75
505.557	683.75
505.773	735.75
505.99	706.75
506.207	709.75
506.423	694.75
506.64	678.75
506.856	680.75
507.073	668.75
507.289	683.75
507.506	693.75
507.722	672.75
507.939	686.75
508.155	661.75
508.372	660.75
508.588	646.75
508.805	648.75
509.021	663.75
509.238	680.75
509.454	672.75
509.67	648.75
509.887	625.75
510.103	653.75
510.319	648.75
510.536	731.75
510.752	1056.75
510.968	911.75
511.184	665.75
511.401	652.75
511.617	624.75
511.833	636.75
512.049	642.75
512.265	634.75
512.481	610.75
512.698	632.75
512.914	625.75
513.13	632.75
513.346	625.75
513.562	646.75
513.778	610.75
513.994	617.75
514.21	607.75
514.426	642.75
514.642	676.75
514.858	705.75
515.074	722.75
515.29	813.75
515.506	1077.75
515.721	929.75
515.937	696.75
516.153	679.75
516.369	658.75
516.585	656.75
516.801	649.75
517.016	664.75
517.232	684.75
517.448	645.75
517.664	664.75
517.879	669.75
518.095	660.75
518.311	663.75
518.527	682.75
518.742	670.75
518.958	664.75
519.173	640.75
519.389	657.75
519.605	648.75
519.82	640.75
520.036	643.75
520.251	640.75
520.467	660.75
520.682	679.75
520.898	677.75
521.113	676.75
521.329	685.75
521.544	735.75
521.76	894.75
521.975	1314.75
522.19	1305.75
522.406	812.75
522.621	678.75
522.836	631.75
523.052	588.75
523.267	584.75
523.482	558.75
523.698	574.75
523.913	574.75
524.128	580.75
524.343	562.75
524.559	542.75
524.774	549.75
524.989	568.75
525.204	566.75
525.419	558.75
525.634	547.75
525.849	542.75
526.064	516.75
526.28	539.75
526.495	526.75
526.71	537.75
526.925	534.75
527.14	517.75
527.355	546.75
527.57	524.75
527.785	552.75
527.999	549.75
528.214	525.75
528.429	514.75
528.644	540.75
528.859	524.75
529.074	534.75
529.289	536.75
529.503	591.75
529.718	578.75
529.933	577.75
530.148	523.75
530.363	551.75
530.577	544.75
530.792	535.75
531.007	505.75
531.221	522.75
531.436	523.75
531.651	495.75
531.865	515.75
532.08	520.75
532.295	527.75
532.509	512.75
532.724	512.75
532.938	492.75
533.153	506.75
533.367	543.75
533.582	512.75
533.796	535.75
534.011	505.75
534.225	502.75
534.44	499.75
534.654	507.75
534.868	502.75
535.083	500.75
535.297	486.75
535.511	523.75
535.726	525.75
535.94	494.75
536.154	510.75
536.369	502.75
536.583	492.75
536.797	474.75
537.011	499.75
537.225	488.75
537.44	477.75
537.654	516.75
537.868	488.75
538.082	517.75
538.296	481.75
538.51	516.75
538.724	502.75
538.938	502.75
539.153	479.75
539.367	474.75
539.581	478.75
539.795	513.75
540.009	508.75
540.222	484.75
540.436	490.75
540.65	483.75
540.864	483.75
541.078	480.75
541.292	480.75
541.506	468.75
541.72	471.75
541.934	472.75
542.147	466.75
542.361	503.75
542.575	483.75
542.789	472.75
543.002	479.75
543.216	455.75
543.43	491.75
543.644	474.75
543.857	475.75
544.071	464.75
544.285	482.75
544.498	473.75
544.712	478.75
544.925	471.75
545.139	486.75
545.352	472.75
545.566	504.75
545.779	457.75
545.993	498.75
546.206	477.75
546.42	484.75
546.633	458.75
546.847	473.75
547.06	463.75
547.274	490.75
547.487	467.75
547.7	468.75
547.914	482.75
548.127	476.75
548.34	468.75
548.554	455.75
548.767	440.75
548.98	466.75
549.193	461.75
549.407	464.75
549.62	468.75
549.833	467.75
550.046	453.75
550.259	466.75
550.473	475.75
550.686	476.75
550.899	465.75
551.112	473.75
551.325	460.75
551.538	430.75
551.751	454.75
551.964	442.75
552.177	463.75
552.39	468.75
552.603	469.75
552.816	471.75
553.029	466.75
553.242	480.75
553.455	491.75
553.667	499.75
553.88	491.75
554.093	476.75
554.306	446.75
554.519	455.75
554.732	466.75
554.944	452.75
555.157	455.75
555.37	437.75
555.583	453.75
555.795	450.75
556.008	418.75
556.221	429.75
556.433	454.75
556.646	421.75
556.859	432.75
557.071	422.75
557.284	449.75
557.496	438.75
557.709	437.75
557.921	432.75
558.134	440.75
558.346	430.75
558.559	424.75
558.771	432.75
558.984	417.75
559.196	426.75
559.409	433.75
559.621	424.75
559.833	439.75
560.046	424.75
560.258	419.75
560.47	405.75
560.683	427.75
560.895	432.75
561.107	408.75
561.32	414.75
561.532	412.75
561.744	413.75
561.956	410.75
562.168	413.75
562.381	427.75
562.593	433.75
562.805	429.75
563.017	438.75
563.229	426.75
563.441	413.75
563.653	428.75
563.865	434.75
564.077	436.75
564.289	428.75
564.501	457.75
564.713	456.75
564.925	448.75
565.137	474.75
565.349	444.75
565.561	465.75
565.773	459.75
565.985	488.75
566.197	486.75
566.408	494.75
566.62	513.75
566.832	536.75
567.044	552.75
567.255	536.75
567.467	555.75
567.679	571.75
567.891	544.75
568.102	564.75
568.314	548.75
568.526	542.75
568.737	503.75
568.949	473.75
569.161	459.75
569.372	447.75
569.584	460.75
569.795	464.75
570.007	440.75
570.218	455.75
570.43	458.75
570.641	431.75
570.853	442.75
571.064	411.75
571.276	425.75
571.487	403.75
571.698	410.75
571.91	421.75
572.121	422.75
572.333	406.75
572.544	416.75
572.755	386.75
572.966	390.75
573.178	392.75
573.389	411.75
573.6	388.75
573.811	382.75
574.023	374.75
574.234	364.75
574.445	397.75
574.656	365.75
574.867	386.75
575.078	364.75
575.289	358.75
575.501	374.75
575.712	347.75
575.923	362.75
576.134	361.75
576.345	350.75
576.556	345.75
576.767	352.75
576.978	363.75
577.188	359.75
577.399	342.75
577.61	370.75
577.821	346.75
578.032	354.75
578.243	371.75
578.454	536.75
578.665	420.75
578.875	349.75
579.086	344.75
579.297	351.75
579.508	347.75
579.718	348.75
579.929	351.75
580.14	376.75
580.35	346.75
580.561	344.75
580.772	344.75
580.982	347.75
581.193	338.75
581.403	344.75
581.614	334.75
581.825	356.75
582.035	348.75
582.246	333.75
582.456	331.75
582.667	316.75
582.877	348.75
583.087	352.75
583.298	330.75
583.508	326.75
583.719	328.75
583.929	341.75
584.139	323.75
584.35	327.75
584.56	315.75
584.77	342.75
584.981	328.75
585.191	330.75
585.401	312.75
585.611	319.75
585.821	331.75
586.032	331.75
586.242	312.75
586.452	325.75
586.662	334.75
586.872	316.75
587.082	316.75
587.292	309.75
587.502	318.75
587.713	315.75
587.923	321.75
588.133	335.75
588.343	304.75
588.553	330.75
588.762	331.75
588.972	312.75
589.182	315.75
589.392	304.75
589.602	309.75
589.812	316.75
590.022	329.75
590.232	309.75
590.441	314.75
590.651	319.75
590.861	323.75
591.071	326.75
591.281	320.75
591.49	320.75
591.7	329.75
591.91	312.75
592.119	316.75
592.329	337.75
592.539	342.75
592.748	350.75
592.958	351.75
593.167	333.75
593.377	356.75
593.587	346.75
593.796	342.75
594.006	355.75
594.215	359.75
594.424	348.75
594.634	315.75
594.843	327.75
595.053	334.75
595.262	327.75
595.472	331.75
595.681	323.75
595.89	324.75
596.1	307.75
596.309	325.75
596.518	335.75
596.727	293.75
596.937	285.75
597.146	288.75
597.355	308.75
597.564	313.75
597.774	297.75
597.983	293.75
598.192	281.75
598.401	297.75
598.61	290.75
598.819	270.75
599.028	290.75
599.237	284.75
599.446	281.75
599.655	285.75
599.864	289.75
600.073	294.75
600.282	276.75
600.491	293.75
600.7	279.75
600.909	270.75
601.118	276.75
601.327	289.75
601.536	267.75
601.745	289.75
601.953	266.75
602.162	276.75
602.371	282.75
602.58	242.75
602.789	256.75
602.997	258.75
603.206	274.75
603.415	287.75
603.623	269.75
603.832	257.75
604.041	270.75
604.249	280.75
604.458	269.75
604.666	274.75
604.875	256.75
605.084	251.75
605.292	256.75
605.501	268.75
605.709	272.75
605.918	279.75
606.126	265.75
606.334	259.75
606.543	267.75
606.751	272.75
606.96	277.75
607.168	269.75
607.376	254.75
607.585	264.75
607.793	257.75
608.001	257.75
608.21	270.75
608.418	268.75
608.626	256.75
608.834	258.75
609.043	279.75
609.251	264.75
609.459	263.75
609.667	261.75
609.875	274.75
610.083	249.75
610.291	237.75
610.499	260.75
610.707	262.75
610.916	274.75
611.124	259.75
611.332	284.75
611.54	269.75
611.748	256.75
611.955	274.75
612.163	262.75
612.371	258.75
612.579	262.75
612.787	253.75
612.995	260.75
613.203	249.75
613.411	240.75
613.618	241.75
613.826	263.75
614.034	252.75
614.242	260.75
614.449	241.75
614.657	233.75
614.865	242.75
615.072	266.75
615.28	247.75
615.488	249.75
615.695	256.75
615.903	248.75
616.111	261.75
616.318	258.75
616.526	252.75
616.733	277.75
616.941	252.75
617.148	230.75
617.356	232.75
617.563	257.75
617.771	238.75
617.978	236.75
618.185	236.75
618.393	254.75
618.6	254.75
618.807	249.75
619.015	252.75
619.222	258.75
619.429	246.75
619.637	246.75
619.844	233.75
620.051	244.75
620.258	231.75
620.466	232.75
620.673	243.75
620.88	216.75
621.087	242.75
621.294	242.75
621.501	232.75
621.708	233.75
621.915	242.75
622.122	244.75
622.329	232.75
622.536	250.75
622.743	248.75
622.95	214.75
623.157	236.75
623.364	241.75
623.571	227.75
623.778	231.75
623.985	233.75
624.192	215.75
624.399	219.75
624.606	236.75
624.812	219.75
625.019	233.75
625.226	235.75
625.433	237.75
625.639	222.75
625.846	217.75
626.053	217.75
626.259	233.75
626.466	231.75
626.673	232.75
626.879	222.75
627.086	227.75
627.293	225.75
627.499	212.75
627.706	213.75
627.912	205.75
628.119	203.75
628.325	235.75
628.532	223.75
628.738	198.75
628.945	200.75
629.151	210.75
629.357	220.75
629.564	211.75
629.77	207.75
629.976	204.75
630.183	194.75
630.389	205.75
630.595	222.75
630.802	213.75
631.008	183.75
631.214	194.75
631.42	216.75
631.627	208.75
631.833	191.75
632.039	186.75
632.245	204.75
632.451	202.75
632.657	199.75
632.863	186.75
633.069	194.75
633.275	201.75
633.481	205.75
633.688	191.75
633.893	188.75
634.099	207.75
634.305	196.75
634.511	196.75
634.717	192.75
634.923	182.75
635.129	200.75
635.335	190.75
635.541	186.75
635.747	195.75
635.952	192.75
636.158	178.75
636.364	186.75
636.57	185.75
636.775	194.75
636.981	197.75
637.187	192.75
637.392	198.75
637.598	214.75
637.804	192.75
638.009	187.75
638.215	197.75
638.421	195.75
638.626	184.75
638.832	188.75
639.037	197.75
639.243	175.75
639.448	176.75
639.654	191.75
639.859	184.75
640.065	186.75
640.27	173.75
640.475	189.75
640.681	173.75
640.886	181.75
641.091	182.75
641.297	174.75
641.502	171.75
641.707	191.75
641.913	180.75
642.118	184.75
642.323	185.75
642.528	178.75
642.733	178.75
642.939	177.75
643.144	180.75
643.349	171.75
643.554	196.75
643.759	190.75
643.964	166.75
644.169	186.75
644.374	185.75
644.579	197.75
644.784	174.75
644.989	166.75
645.194	180.75
645.399	162.75
645.604	165.75
645.809	184.75
646.014	178.75
646.219	185.75
646.423	180.75
646.628	168.75
646.833	176.75
647.038	177.75
647.243	177.75
647.447	164.75
647.652	167.75
647.857	176.75
648.062	171.75
648.266	176.75
648.471	174.75
648.676	192.75
648.88	177.75
649.085	170.75
649.289	168.75
649.494	172.75
649.698	196.75
649.903	207.75
650.107	187.75
650.312	173.75
650.516	166.75
650.721	155.75
650.925	168.75
651.13	157.75
651.334	151.75
651.539	153.75
651.743	164.75
651.947	149.75
652.152	146.75
652.356	157.75
652.56	125.75
652.764	134.75
652.969	141.75
653.173	160.75
653.377	143.75
653.581	142.75
653.785	124.75
653.99	133.75
654.194	155.75
654.398	150.75
654.602	134.75
654.806	139.75
655.01	146.75
655.214	156.75
655.418	152.75
655.622	128.75
655.826	146.75
656.03	141.75
656.234	132.75
656.438	132.75
656.642	142.75
656.846	149.75
657.049	133.75
657.253	118.75
657.457	125.75
657.661	119.75
657.865	118.75
658.068	120.75
658.272	110.75
658.476	103.75
658.68	110.75
658.883	103.75
659.087	99.75
659.291	92.75
659.494	103.75
659.698	87.75
659.901	98.75
660.105	92.75
660.309	78.75
660.512	92.75
660.716	84.75
660.919	97.75
661.123	86.75
661.326	84.75
661.53	81.75
661.733	101.75
661.936	89.75
662.14	84.75
662.343	85.75
662.546	82.75
662.75	87.75
662.953	88.75
663.156	86.75
663.36	78.75
663.563	78.75
663.766	89.75
663.969	89.75
664.173	81.75
664.376	82.75
664.579	80.75
664.782	86.75
664.985	72.75
665.188	69.75
665.391	67.75
665.594	81.75
665.797	76.75
666	80.75
666.203	77.75
666.406	82.75
666.609	68.75
666.812	108.75
667.015	76.75
667.218	77.75
667.421	84.75
667.624	75.75
667.827	67.75
668.03	72.75
668.232	84.75
668.435	90.75
668.638	90.75
668.841	73.75
669.043	81.75
669.246	91.75
669.449	81.75
669.651	89.75
669.854	77.75
670.057	84.75
670.259	82.75
670.462	75.75
670.665	96.75
670.867	92.75
671.07	72.75
671.272	89.75
671.475	91.75
671.677	69.75
671.88	78.75
672.082	85.75
672.284	84.75
672.487	78.75
672.689	88.75
672.892	82.75
