Data from 1978.PennyLincolnUp.Lamp.En5.5.200Scan.071719.P1_HRD10591_16-12-11-864.txt Node
Date: Thu Jul 18 16:12:11 EDT 2019
User: cochatt
Spectrometer: HR+D1059
Trigger mode: 1
Integration Time (sec): 1.000000E-1
Scans to average: 1
Electric dark correction enabled: true
Nonlinearity correction enabled: false
Boxcar width: 0
XAxis mode: Wavelengths
Number of Pixels in Spectrum: 2048
>>>>>Begin Spectral Data<<<<<
223.165	-23.25
223.4	-23.25
223.635	-23.25
223.869	-10.25
224.104	-22.25
224.338	0.75
224.573	-19.25
224.808	-14.25
225.042	-2.25
225.277	-6.25
225.511	5.75
225.746	-4.25
225.98	-0.25
226.215	-5.25
226.449	14.75
226.683	19.75
226.918	23.75
227.152	42.75
227.387	32.75
227.621	35.75
227.856	44.75
228.09	52.75
228.324	41.75
228.559	38.75
228.793	51.75
229.027	90.75
229.262	93.75
229.496	116.75
229.73	117.75
229.964	148.75
230.199	114.75
230.433	94.75
230.667	99.75
230.901	100.75
231.136	118.75
231.37	114.75
231.604	102.75
231.838	105.75
232.072	113.75
232.306	116.75
232.541	91.75
232.775	121.75
233.009	97.75
233.243	116.75
233.477	116.75
233.711	114.75
233.945	108.75
234.179	101.75
234.413	116.75
234.647	104.75
234.881	110.75
235.115	116.75
235.349	114.75
235.583	123.75
235.817	108.75
236.051	120.75
236.285	132.75
236.519	124.75
236.753	113.75
236.987	128.75
237.221	155.75
237.455	194.75
237.689	164.75
237.922	143.75
238.156	111.75
238.39	122.75
238.624	120.75
238.858	112.75
239.091	117.75
239.325	109.75
239.559	124.75
239.793	120.75
240.027	130.75
240.26	136.75
240.494	130.75
240.728	136.75
240.961	136.75
241.195	134.75
241.429	130.75
241.662	130.75
241.896	131.75
242.13	118.75
242.363	113.75
242.597	134.75
242.83	126.75
243.064	123.75
243.298	136.75
243.531	122.75
243.765	136.75
243.998	131.75
244.232	118.75
244.465	141.75
244.699	134.75
244.932	137.75
245.166	136.75
245.399	135.75
245.633	140.75
245.866	140.75
246.099	140.75
246.333	142.75
246.566	137.75
246.8	155.75
247.033	138.75
247.266	143.75
247.5	138.75
247.733	129.75
247.966	155.75
248.2	157.75
248.433	139.75
248.666	156.75
248.899	148.75
249.133	166.75
249.366	172.75
249.599	182.75
249.832	158.75
250.066	160.75
250.299	169.75
250.532	168.75
250.765	182.75
250.998	198.75
251.231	186.75
251.465	195.75
251.698	186.75
251.931	180.75
252.164	173.75
252.397	184.75
252.63	188.75
252.863	165.75
253.096	176.75
253.329	180.75
253.562	188.75
253.795	192.75
254.028	189.75
254.261	195.75
254.494	190.75
254.727	212.75
254.96	220.75
255.193	209.75
255.426	209.75
255.659	197.75
255.892	203.75
256.124	181.75
256.357	173.75
256.59	181.75
256.823	184.75
257.056	194.75
257.289	177.75
257.521	175.75
257.754	196.75
257.987	187.75
258.22	182.75
258.452	172.75
258.685	179.75
258.918	186.75
259.151	196.75
259.383	202.75
259.616	195.75
259.849	196.75
260.081	186.75
260.314	221.75
260.547	207.75
260.779	212.75
261.012	205.75
261.244	199.75
261.477	193.75
261.71	195.75
261.942	207.75
262.175	213.75
262.407	201.75
262.64	204.75
262.872	195.75
263.105	195.75
263.337	194.75
263.57	209.75
263.802	195.75
264.035	210.75
264.267	184.75
264.499	183.75
264.732	184.75
264.964	209.75
265.197	188.75
265.429	207.75
265.661	199.75
265.894	212.75
266.126	198.75
266.358	193.75
266.591	188.75
266.823	197.75
267.055	203.75
267.287	205.75
267.52	205.75
267.752	192.75
267.984	201.75
268.216	210.75
268.448	216.75
268.681	213.75
268.913	223.75
269.145	230.75
269.377	237.75
269.609	236.75
269.841	249.75
270.073	240.75
270.306	231.75
270.538	264.75
270.77	239.75
271.002	257.75
271.234	253.75
271.466	261.75
271.698	260.75
271.93	255.75
272.162	260.75
272.394	261.75
272.626	244.75
272.858	240.75
273.09	242.75
273.322	240.75
273.553	244.75
273.785	237.75
274.017	235.75
274.249	242.75
274.481	224.75
274.713	232.75
274.945	243.75
275.176	228.75
275.408	234.75
275.64	256.75
275.872	236.75
276.104	247.75
276.335	217.75
276.567	240.75
276.799	250.75
277.031	281.75
277.262	281.75
277.494	250.75
277.726	255.75
277.957	261.75
278.189	254.75
278.421	228.75
278.652	244.75
278.884	234.75
279.115	256.75
279.347	229.75
279.579	237.75
279.81	250.75
280.042	250.75
280.273	244.75
280.505	251.75
280.736	245.75
280.968	229.75
281.199	259.75
281.431	227.75
281.662	240.75
281.894	231.75
282.125	263.75
282.356	250.75
282.588	273.75
282.819	278.75
283.051	253.75
283.282	254.75
283.513	245.75
283.745	254.75
283.976	256.75
284.207	240.75
284.439	254.75
284.67	251.75
284.901	265.75
285.132	269.75
285.364	260.75
285.595	251.75
285.826	263.75
286.057	262.75
286.288	262.75
286.52	249.75
286.751	270.75
286.982	264.75
287.213	267.75
287.444	275.75
287.675	241.75
287.906	272.75
288.138	260.75
288.369	261.75
288.6	257.75
288.831	276.75
289.062	269.75
289.293	273.75
289.524	253.75
289.755	274.75
289.986	256.75
290.217	266.75
290.448	267.75
290.679	274.75
290.91	268.75
291.141	270.75
291.371	292.75
291.602	263.75
291.833	262.75
292.064	262.75
292.295	273.75
292.526	264.75
292.757	262.75
292.987	257.75
293.218	266.75
293.449	280.75
293.68	273.75
293.91	261.75
294.141	266.75
294.372	262.75
294.603	258.75
294.833	267.75
295.064	265.75
295.295	277.75
295.525	270.75
295.756	260.75
295.987	270.75
296.217	284.75
296.448	299.75
296.679	270.75
296.909	286.75
297.14	276.75
297.37	271.75
297.601	285.75
297.831	284.75
298.062	289.75
298.292	270.75
298.523	283.75
298.753	280.75
298.984	285.75
299.214	288.75
299.445	280.75
299.675	267.75
299.905	314.75
300.136	295.75
300.366	292.75
300.597	282.75
300.827	288.75
301.057	296.75
301.288	307.75
301.518	308.75
301.748	291.75
301.979	284.75
302.209	298.75
302.439	307.75
302.669	288.75
302.9	310.75
303.13	293.75
303.36	322.75
303.59	301.75
303.82	306.75
304.051	290.75
304.281	297.75
304.511	312.75
304.741	302.75
304.971	296.75
305.201	311.75
305.431	321.75
305.661	313.75
305.891	308.75
306.121	298.75
306.352	309.75
306.582	301.75
306.812	305.75
307.042	310.75
307.272	316.75
307.502	297.75
307.731	310.75
307.961	322.75
308.191	290.75
308.421	328.75
308.651	313.75
308.881	320.75
309.111	310.75
309.341	309.75
309.571	336.75
309.8	312.75
310.03	324.75
310.26	342.75
310.49	340.75
310.72	347.75
310.949	346.75
311.179	359.75
311.409	354.75
311.639	346.75
311.868	335.75
312.098	342.75
312.328	339.75
312.557	354.75
312.787	356.75
313.017	364.75
313.246	363.75
313.476	336.75
313.706	349.75
313.935	333.75
314.165	352.75
314.394	362.75
314.624	371.75
314.853	349.75
315.083	353.75
315.312	338.75
315.542	348.75
315.771	336.75
316.001	333.75
316.23	363.75
316.46	352.75
316.689	333.75
316.919	345.75
317.148	369.75
317.377	366.75
317.607	361.75
317.836	343.75
318.065	344.75
318.295	357.75
318.524	338.75
318.753	348.75
318.983	338.75
319.212	341.75
319.441	333.75
319.67	369.75
319.9	357.75
320.129	355.75
320.358	354.75
320.587	348.75
320.816	360.75
321.046	382.75
321.275	354.75
321.504	384.75
321.733	360.75
321.962	365.75
322.191	376.75
322.42	386.75
322.649	403.75
322.878	393.75
323.108	402.75
323.337	416.75
323.566	428.75
323.795	448.75
324.024	489.75
324.253	554.75
324.482	779.75
324.71	1201.75
324.939	1837.75
325.168	1594.75
325.397	822.75
325.626	541.75
325.855	457.75
326.084	450.75
326.313	437.75
326.542	437.75
326.77	457.75
326.999	535.75
327.228	737.75
327.457	1086.75
327.686	1372.75
327.914	914.75
328.143	586.75
328.372	520.75
328.6	471.75
328.829	468.75
329.058	485.75
329.287	482.75
329.515	466.75
329.744	444.75
329.972	422.75
330.201	462.75
330.43	477.75
330.658	503.75
330.887	502.75
331.115	484.75
331.344	450.75
331.572	421.75
331.801	454.75
332.03	442.75
332.258	438.75
332.486	397.75
332.715	416.75
332.943	422.75
333.172	419.75
333.4	430.75
333.629	433.75
333.857	466.75
334.085	446.75
334.314	454.75
334.542	474.75
334.771	492.75
334.999	455.75
335.227	443.75
335.455	437.75
335.684	420.75
335.912	424.75
336.14	424.75
336.369	413.75
336.597	436.75
336.825	421.75
337.053	408.75
337.281	399.75
337.51	399.75
337.738	397.75
337.966	426.75
338.194	419.75
338.422	414.75
338.65	408.75
338.878	405.75
339.106	389.75
339.334	423.75
339.562	414.75
339.79	400.75
340.018	412.75
340.246	389.75
340.474	412.75
340.702	407.75
340.93	403.75
341.158	389.75
341.386	383.75
341.614	395.75
341.842	407.75
342.07	404.75
342.298	384.75
342.526	389.75
342.754	415.75
342.981	391.75
343.209	403.75
343.437	394.75
343.665	414.75
343.893	419.75
344.12	432.75
344.348	410.75
344.576	411.75
344.804	423.75
345.031	418.75
345.259	424.75
345.487	412.75
345.714	409.75
345.942	391.75
346.17	414.75
346.397	398.75
346.625	410.75
346.853	376.75
347.08	389.75
347.308	390.75
347.535	392.75
347.763	364.75
347.99	402.75
348.218	408.75
348.445	397.75
348.673	406.75
348.9	394.75
349.128	411.75
349.355	372.75
349.583	412.75
349.81	383.75
350.037	394.75
350.265	375.75
350.492	384.75
350.72	379.75
350.947	394.75
351.174	402.75
351.402	424.75
351.629	392.75
351.856	391.75
352.083	389.75
352.311	404.75
352.538	399.75
352.765	417.75
352.992	389.75
353.22	400.75
353.447	380.75
353.674	376.75
353.901	379.75
354.128	365.75
354.355	372.75
354.583	386.75
354.81	384.75
355.037	373.75
355.264	379.75
355.491	374.75
355.718	377.75
355.945	371.75
356.172	394.75
356.399	378.75
356.626	356.75
356.853	372.75
357.08	385.75
357.307	374.75
357.534	368.75
357.761	397.75
357.988	386.75
358.215	378.75
358.441	385.75
358.668	388.75
358.895	386.75
359.122	379.75
359.349	386.75
359.576	409.75
359.802	409.75
360.029	434.75
360.256	416.75
360.483	424.75
360.709	387.75
360.936	412.75
361.163	385.75
361.39	390.75
361.616	418.75
361.843	386.75
362.07	384.75
362.296	384.75
362.523	382.75
362.749	381.75
362.976	402.75
363.203	388.75
363.429	371.75
363.656	395.75
363.882	394.75
364.109	380.75
364.335	390.75
364.562	387.75
364.788	388.75
365.015	387.75
365.241	393.75
365.468	385.75
365.694	401.75
365.92	415.75
366.147	380.75
366.373	373.75
366.599	388.75
366.826	362.75
367.052	361.75
367.278	372.75
367.505	384.75
367.731	398.75
367.957	380.75
368.184	365.75
368.41	396.75
368.636	405.75
368.862	414.75
369.089	395.75
369.315	398.75
369.541	385.75
369.767	394.75
369.993	390.75
370.219	377.75
370.445	393.75
370.672	398.75
370.898	377.75
371.124	389.75
371.35	398.75
371.576	398.75
371.802	387.75
372.028	379.75
372.254	398.75
372.48	392.75
372.706	418.75
372.932	402.75
373.158	392.75
373.384	397.75
373.61	382.75
373.835	398.75
374.061	395.75
374.287	408.75
374.513	420.75
374.739	404.75
374.965	400.75
375.191	408.75
375.416	396.75
375.642	398.75
375.868	415.75
376.094	380.75
376.319	394.75
376.545	391.75
376.771	400.75
376.997	391.75
377.222	405.75
377.448	404.75
377.674	380.75
377.899	389.75
378.125	389.75
378.35	396.75
378.576	390.75
378.802	384.75
379.027	413.75
379.253	410.75
379.478	387.75
379.704	416.75
379.929	403.75
380.155	385.75
380.38	396.75
380.606	395.75
380.831	414.75
381.057	414.75
381.282	405.75
381.507	416.75
381.733	394.75
381.958	397.75
382.184	400.75
382.409	408.75
382.634	404.75
382.86	407.75
383.085	407.75
383.31	403.75
383.535	406.75
383.761	392.75
383.986	416.75
384.211	444.75
384.436	430.75
384.662	402.75
384.887	419.75
385.112	404.75
385.337	431.75
385.562	432.75
385.787	428.75
386.013	460.75
386.238	453.75
386.463	443.75
386.688	446.75
386.913	441.75
387.138	450.75
387.363	466.75
387.588	446.75
387.813	437.75
388.038	443.75
388.263	440.75
388.488	435.75
388.713	447.75
388.938	444.75
389.163	442.75
389.387	460.75
389.612	450.75
389.837	445.75
390.062	456.75
390.287	457.75
390.512	444.75
390.736	438.75
390.961	454.75
391.186	434.75
391.411	461.75
391.636	454.75
391.86	483.75
392.085	458.75
392.31	476.75
392.534	476.75
392.759	467.75
392.984	467.75
393.208	465.75
393.433	435.75
393.658	445.75
393.882	469.75
394.107	428.75
394.331	464.75
394.556	455.75
394.78	484.75
395.005	440.75
395.229	466.75
395.454	457.75
395.678	462.75
395.903	490.75
396.127	499.75
396.352	468.75
396.576	461.75
396.801	465.75
397.025	474.75
397.249	476.75
397.474	452.75
397.698	474.75
397.922	509.75
398.147	544.75
398.371	511.75
398.595	508.75
398.82	512.75
399.044	537.75
399.268	548.75
399.492	583.75
399.717	582.75
399.941	630.75
400.165	622.75
400.389	654.75
400.613	582.75
400.837	572.75
401.062	554.75
401.286	519.75
401.51	508.75
401.734	526.75
401.958	502.75
402.182	500.75
402.406	541.75
402.63	510.75
402.854	521.75
403.078	551.75
403.302	539.75
403.526	524.75
403.75	548.75
403.974	530.75
404.198	537.75
404.422	540.75
404.645	566.75
404.869	557.75
405.093	586.75
405.317	614.75
405.541	632.75
405.765	584.75
405.988	572.75
406.212	567.75
406.436	574.75
406.66	595.75
406.883	554.75
407.107	601.75
407.331	633.75
407.555	706.75
407.778	723.75
408.002	644.75
408.226	614.75
408.449	581.75
408.673	563.75
408.896	637.75
409.12	658.75
409.344	638.75
409.567	581.75
409.791	557.75
410.014	562.75
410.238	540.75
410.461	550.75
410.685	577.75
410.908	584.75
411.132	589.75
411.355	618.75
411.578	593.75
411.802	550.75
412.025	526.75
412.249	564.75
412.472	562.75
412.695	602.75
412.919	573.75
413.142	557.75
413.365	516.75
413.589	550.75
413.812	534.75
414.035	521.75
414.258	527.75
414.482	524.75
414.705	524.75
414.928	520.75
415.151	508.75
415.374	531.75
415.597	480.75
415.821	506.75
416.044	530.75
416.267	496.75
416.49	514.75
416.713	531.75
416.936	514.75
417.159	496.75
417.382	520.75
417.605	504.75
417.828	525.75
418.051	525.75
418.274	507.75
418.497	498.75
418.72	492.75
418.943	510.75
419.166	517.75
419.389	556.75
419.611	553.75
419.834	532.75
420.057	535.75
420.28	536.75
420.503	526.75
420.726	527.75
420.948	513.75
421.171	581.75
421.394	603.75
421.617	540.75
421.839	553.75
422.062	550.75
422.285	548.75
422.507	587.75
422.73	642.75
422.953	624.75
423.175	553.75
423.398	566.75
423.621	570.75
423.843	549.75
424.066	566.75
424.288	557.75
424.511	547.75
424.733	621.75
424.956	697.75
425.178	677.75
425.401	662.75
425.623	701.75
425.846	580.75
426.068	546.75
426.291	560.75
426.513	546.75
426.735	543.75
426.958	606.75
427.18	676.75
427.402	792.75
427.625	892.75
427.847	753.75
428.069	651.75
428.292	599.75
428.514	535.75
428.736	536.75
428.958	531.75
429.181	530.75
429.403	528.75
429.625	539.75
429.847	572.75
430.069	607.75
430.292	608.75
430.514	529.75
430.736	519.75
430.958	518.75
431.18	491.75
431.402	490.75
431.624	497.75
431.846	494.75
432.068	494.75
432.29	506.75
432.512	518.75
432.734	485.75
432.956	516.75
433.178	532.75
433.4	499.75
433.622	518.75
433.844	509.75
434.066	522.75
434.287	497.75
434.509	514.75
434.731	520.75
434.953	521.75
435.175	528.75
435.397	560.75
435.618	546.75
435.84	591.75
436.062	658.75
436.284	772.75
436.505	626.75
436.727	588.75
436.949	552.75
437.17	511.75
437.392	509.75
437.614	541.75
437.835	558.75
438.057	624.75
438.278	730.75
438.5	736.75
438.721	818.75
438.943	783.75
439.165	660.75
439.386	580.75
439.608	561.75
439.829	558.75
440.05	577.75
440.272	628.75
440.493	577.75
440.715	572.75
440.936	532.75
441.158	532.75
441.379	519.75
441.6	556.75
441.822	547.75
442.043	590.75
442.264	638.75
442.486	693.75
442.707	604.75
442.928	572.75
443.149	579.75
443.371	599.75
443.592	592.75
443.813	724.75
444.034	809.75
444.255	633.75
444.476	586.75
444.698	560.75
444.919	563.75
445.14	667.75
445.361	621.75
445.582	608.75
445.803	646.75
446.024	732.75
446.245	732.75
446.466	690.75
446.687	590.75
446.908	565.75
447.129	539.75
447.35	520.75
447.571	532.75
447.792	512.75
448.013	530.75
448.234	518.75
448.455	566.75
448.675	658.75
448.896	786.75
449.117	671.75
449.338	624.75
449.559	732.75
449.779	843.75
450	672.75
450.221	553.75
450.442	523.75
450.662	519.75
450.883	515.75
451.104	511.75
451.324	482.75
451.545	477.75
451.766	482.75
451.986	448.75
452.207	455.75
452.428	443.75
452.648	469.75
452.869	470.75
453.089	466.75
453.31	467.75
453.53	484.75
453.751	443.75
453.971	436.75
454.192	466.75
454.412	473.75
454.633	464.75
454.853	457.75
455.073	478.75
455.294	479.75
455.514	516.75
455.734	513.75
455.955	449.75
456.175	443.75
456.395	428.75
456.616	421.75
456.836	452.75
457.056	435.75
457.276	437.75
457.497	466.75
457.717	446.75
457.937	474.75
458.157	460.75
458.377	475.75
458.598	459.75
458.818	544.75
459.038	590.75
459.258	612.75
459.478	542.75
459.698	516.75
459.918	506.75
460.138	496.75
460.358	502.75
460.578	532.75
460.798	548.75
461.018	537.75
461.238	529.75
461.458	509.75
461.678	510.75
461.898	534.75
462.118	535.75
462.338	544.75
462.558	538.75
462.777	562.75
462.997	570.75
463.217	598.75
463.437	588.75
463.657	575.75
463.876	555.75
464.096	547.75
464.316	573.75
464.536	583.75
464.755	589.75
464.975	558.75
465.195	574.75
465.414	614.75
465.634	584.75
465.854	538.75
466.073	550.75
466.293	485.75
466.512	504.75
466.732	509.75
466.951	494.75
467.171	500.75
467.391	499.75
467.61	506.75
467.829	493.75
468.049	504.75
468.268	499.75
468.488	471.75
468.707	479.75
468.927	488.75
469.146	490.75
469.365	484.75
469.585	502.75
469.804	517.75
470.023	496.75
470.243	482.75
470.462	524.75
470.681	507.75
470.901	519.75
471.12	484.75
471.339	501.75
471.558	496.75
471.777	513.75
471.997	468.75
472.216	490.75
472.435	502.75
472.654	516.75
472.873	505.75
473.092	490.75
473.311	512.75
473.53	503.75
473.749	482.75
473.968	513.75
474.187	589.75
474.406	610.75
474.625	552.75
474.844	516.75
475.063	482.75
475.282	498.75
475.501	497.75
475.72	496.75
475.939	516.75
476.158	508.75
476.377	524.75
476.596	477.75
476.814	508.75
477.033	519.75
477.252	526.75
477.471	557.75
477.69	547.75
477.908	550.75
478.127	547.75
478.346	535.75
478.564	540.75
478.783	551.75
479.002	576.75
479.22	574.75
479.439	575.75
479.658	600.75
479.876	605.75
480.095	599.75
480.313	610.75
480.532	606.75
480.751	627.75
480.969	611.75
481.188	634.75
481.406	634.75
481.624	603.75
481.843	618.75
482.061	589.75
482.28	597.75
482.498	580.75
482.717	571.75
482.935	577.75
483.153	562.75
483.372	572.75
483.59	565.75
483.808	583.75
484.027	582.75
484.245	601.75
484.463	582.75
484.681	575.75
484.9	575.75
485.118	586.75
485.336	592.75
485.554	584.75
485.772	603.75
485.99	616.75
486.209	593.75
486.427	572.75
486.645	614.75
486.863	626.75
487.081	617.75
487.299	631.75
487.517	618.75
487.735	596.75
487.953	621.75
488.171	632.75
488.389	618.75
488.607	619.75
488.825	625.75
489.043	609.75
489.261	593.75
489.479	604.75
489.696	650.75
489.914	610.75
490.132	629.75
490.35	628.75
490.568	653.75
490.786	621.75
491.003	637.75
491.221	655.75
491.439	663.75
491.657	665.75
491.874	650.75
492.092	663.75
492.31	673.75
492.527	676.75
492.745	705.75
492.963	678.75
493.18	684.75
493.398	702.75
493.615	714.75
493.833	701.75
494.05	707.75
494.268	683.75
494.485	707.75
494.703	683.75
494.92	714.75
495.138	713.75
495.355	729.75
495.573	701.75
495.79	710.75
496.008	725.75
496.225	731.75
496.442	714.75
496.66	721.75
496.877	704.75
497.094	717.75
497.312	731.75
497.529	755.75
497.746	750.75
497.963	762.75
498.181	810.75
498.398	806.75
498.615	804.75
498.832	828.75
499.049	853.75
499.267	883.75
499.484	909.75
499.701	965.75
499.918	987.75
500.135	1010.75
500.352	1098.75
500.569	1092.75
500.786	1093.75
501.003	1050.75
501.22	1052.75
501.437	1008.75
501.654	963.75
501.871	961.75
502.088	913.75
502.305	902.75
502.522	885.75
502.739	818.75
502.956	813.75
503.172	772.75
503.389	805.75
503.606	773.75
503.823	793.75
504.04	754.75
504.256	757.75
504.473	739.75
504.69	746.75
504.907	729.75
505.123	690.75
505.34	698.75
505.557	679.75
505.773	680.75
505.99	670.75
506.207	675.75
506.423	662.75
506.64	668.75
506.856	661.75
507.073	665.75
507.289	650.75
507.506	673.75
507.722	670.75
507.939	658.75
508.155	657.75
508.372	643.75
508.588	635.75
508.805	636.75
509.021	650.75
509.238	664.75
509.454	624.75
509.67	630.75
509.887	646.75
510.103	627.75
510.319	636.75
510.536	712.75
510.752	1007.75
510.968	878.75
511.184	640.75
511.401	622.75
511.617	622.75
511.833	641.75
512.049	637.75
512.265	622.75
512.481	619.75
512.698	606.75
512.914	598.75
513.13	611.75
513.346	613.75
513.562	602.75
513.778	597.75
513.994	625.75
514.21	637.75
514.426	624.75
514.642	636.75
514.858	665.75
515.074	709.75
515.29	786.75
515.506	1032.75
515.721	894.75
515.937	700.75
516.153	664.75
516.369	669.75
516.585	648.75
516.801	647.75
517.016	662.75
517.232	636.75
517.448	659.75
517.664	668.75
517.879	678.75
518.095	653.75
518.311	640.75
518.527	632.75
518.742	624.75
518.958	626.75
519.173	618.75
519.389	607.75
519.605	628.75
519.82	626.75
520.036	625.75
520.251	631.75
520.467	626.75
520.682	631.75
520.898	652.75
521.113	646.75
521.329	667.75
521.544	738.75
521.76	824.75
521.975	1257.75
522.19	1224.75
522.406	768.75
522.621	659.75
522.836	596.75
523.052	607.75
523.267	576.75
523.482	578.75
523.698	567.75
523.913	553.75
524.128	584.75
524.343	532.75
524.559	536.75
524.774	515.75
524.989	564.75
525.204	545.75
525.419	550.75
525.634	534.75
525.849	555.75
526.064	532.75
526.28	530.75
526.495	523.75
526.71	529.75
526.925	534.75
527.14	509.75
527.355	517.75
527.57	514.75
527.785	504.75
527.999	517.75
528.214	520.75
528.429	522.75
528.644	482.75
528.859	520.75
529.074	536.75
529.289	525.75
529.503	581.75
529.718	557.75
529.933	555.75
530.148	514.75
530.363	522.75
530.577	517.75
530.792	520.75
531.007	517.75
531.221	499.75
531.436	521.75
531.651	522.75
531.865	516.75
532.08	514.75
532.295	524.75
532.509	502.75
532.724	502.75
532.938	498.75
533.153	498.75
533.367	492.75
533.582	518.75
533.796	523.75
534.011	483.75
534.225	501.75
534.44	507.75
534.654	514.75
534.868	498.75
535.083	477.75
535.297	480.75
535.511	497.75
535.726	517.75
535.94	512.75
536.154	500.75
536.369	496.75
536.583	502.75
536.797	499.75
537.011	480.75
537.225	462.75
537.44	484.75
537.654	488.75
537.868	470.75
538.082	468.75
538.296	479.75
538.51	462.75
538.724	501.75
538.938	483.75
539.153	474.75
539.367	478.75
539.581	482.75
539.795	496.75
540.009	475.75
540.222	492.75
540.436	473.75
540.65	475.75
540.864	490.75
541.078	490.75
541.292	482.75
541.506	491.75
541.72	483.75
541.934	486.75
542.147	466.75
542.361	468.75
542.575	475.75
542.789	473.75
543.002	470.75
543.216	470.75
543.43	476.75
543.644	463.75
543.857	500.75
544.071	470.75
544.285	481.75
544.498	502.75
544.712	480.75
544.925	493.75
545.139	478.75
545.352	466.75
545.566	454.75
545.779	462.75
545.993	469.75
546.206	467.75
546.42	466.75
546.633	468.75
546.847	468.75
547.06	461.75
547.274	457.75
547.487	472.75
547.7	463.75
547.914	461.75
548.127	457.75
548.34	475.75
548.554	477.75
548.767	462.75
548.98	469.75
549.193	458.75
549.407	458.75
549.62	449.75
549.833	478.75
550.046	450.75
550.259	459.75
550.473	452.75
550.686	463.75
550.899	454.75
551.112	453.75
551.325	448.75
551.538	456.75
551.751	469.75
551.964	455.75
552.177	478.75
552.39	469.75
552.603	455.75
552.816	472.75
553.029	460.75
553.242	474.75
553.455	460.75
553.667	472.75
553.88	480.75
554.093	472.75
554.306	488.75
554.519	459.75
554.732	460.75
554.944	453.75
555.157	448.75
555.37	454.75
555.583	444.75
555.795	457.75
556.008	421.75
556.221	450.75
556.433	423.75
556.646	434.75
556.859	405.75
557.071	437.75
557.284	440.75
557.496	452.75
557.709	417.75
557.921	410.75
558.134	417.75
558.346	426.75
558.559	424.75
558.771	433.75
558.984	423.75
559.196	404.75
559.409	420.75
559.621	403.75
559.833	416.75
560.046	397.75
560.258	434.75
560.47	447.75
560.683	399.75
560.895	405.75
561.107	389.75
561.32	400.75
561.532	405.75
561.744	420.75
561.956	428.75
562.168	412.75
562.381	426.75
562.593	405.75
562.805	426.75
563.017	421.75
563.229	397.75
563.441	438.75
563.653	412.75
563.865	432.75
564.077	422.75
564.289	430.75
564.501	425.75
564.713	433.75
564.925	446.75
565.137	432.75
565.349	441.75
565.561	450.75
565.773	485.75
565.985	477.75
566.197	493.75
566.408	502.75
566.62	493.75
566.832	487.75
567.044	523.75
567.255	529.75
567.467	542.75
567.679	540.75
567.891	540.75
568.102	528.75
568.314	537.75
568.526	503.75
568.737	511.75
568.949	480.75
569.161	477.75
569.372	450.75
569.584	457.75
569.795	449.75
570.007	444.75
570.218	464.75
570.43	451.75
570.641	413.75
570.853	436.75
571.064	429.75
571.276	409.75
571.487	412.75
571.698	413.75
571.91	399.75
572.121	406.75
572.333	387.75
572.544	388.75
572.755	405.75
572.966	369.75
573.178	378.75
573.389	376.75
573.6	385.75
573.811	373.75
574.023	398.75
574.234	356.75
574.445	359.75
574.656	365.75
574.867	377.75
575.078	392.75
575.289	359.75
575.501	364.75
575.712	359.75
575.923	345.75
576.134	349.75
576.345	327.75
576.556	360.75
576.767	355.75
576.978	351.75
577.188	360.75
577.399	341.75
577.61	354.75
577.821	359.75
578.032	377.75
578.243	383.75
578.454	525.75
578.665	421.75
578.875	350.75
579.086	332.75
579.297	349.75
579.508	354.75
579.718	353.75
579.929	364.75
580.14	351.75
580.35	334.75
580.561	325.75
580.772	357.75
580.982	328.75
581.193	328.75
581.403	326.75
581.614	323.75
581.825	329.75
582.035	319.75
582.246	347.75
582.456	334.75
582.667	331.75
582.877	329.75
583.087	332.75
583.298	331.75
583.508	320.75
583.719	321.75
583.929	326.75
584.139	340.75
584.35	314.75
584.56	318.75
584.77	335.75
584.981	329.75
585.191	323.75
585.401	316.75
585.611	314.75
585.821	332.75
586.032	324.75
586.242	323.75
586.452	322.75
586.662	340.75
586.872	320.75
587.082	329.75
587.292	322.75
587.502	334.75
587.713	310.75
587.923	326.75
588.133	325.75
588.343	318.75
588.553	319.75
588.762	336.75
588.972	307.75
589.182	319.75
589.392	322.75
589.602	315.75
589.812	308.75
590.022	323.75
590.232	329.75
590.441	330.75
590.651	324.75
590.861	320.75
591.071	326.75
591.281	310.75
591.49	313.75
591.7	313.75
591.91	324.75
592.119	347.75
592.329	335.75
592.539	344.75
592.748	340.75
592.958	331.75
593.167	328.75
593.377	348.75
593.587	341.75
593.796	346.75
594.006	333.75
594.215	323.75
594.424	350.75
594.634	340.75
594.843	351.75
595.053	315.75
595.262	332.75
595.472	328.75
595.681	317.75
595.89	290.75
596.1	315.75
596.309	301.75
596.518	313.75
596.727	290.75
596.937	304.75
597.146	320.75
597.355	304.75
597.564	286.75
597.774	300.75
597.983	306.75
598.192	304.75
598.401	304.75
598.61	284.75
598.819	311.75
599.028	302.75
599.237	299.75
599.446	285.75
599.655	302.75
599.864	285.75
600.073	277.75
600.282	280.75
600.491	273.75
600.7	286.75
600.909	270.75
601.118	276.75
601.327	276.75
601.536	297.75
601.745	264.75
601.953	291.75
602.162	291.75
602.371	265.75
602.58	278.75
602.789	278.75
602.997	274.75
603.206	274.75
603.415	280.75
603.623	262.75
603.832	252.75
604.041	269.75
604.249	256.75
604.458	264.75
604.666	269.75
604.875	275.75
605.084	250.75
605.292	257.75
605.501	266.75
605.709	275.75
605.918	266.75
606.126	266.75
606.334	277.75
606.543	258.75
606.751	268.75
606.96	256.75
607.168	263.75
607.376	266.75
607.585	262.75
607.793	261.75
608.001	257.75
608.21	247.75
608.418	262.75
608.626	242.75
608.834	251.75
609.043	278.75
609.251	270.75
609.459	252.75
609.667	263.75
609.875	269.75
610.083	245.75
610.291	262.75
610.499	270.75
610.707	264.75
610.916	264.75
611.124	261.75
611.332	273.75
611.54	256.75
611.748	267.75
611.955	253.75
612.163	258.75
612.371	253.75
612.579	257.75
612.787	249.75
612.995	269.75
613.203	262.75
613.411	259.75
613.618	254.75
613.826	261.75
614.034	270.75
614.242	259.75
614.449	248.75
614.657	234.75
614.865	252.75
615.072	231.75
615.28	242.75
615.488	243.75
615.695	254.75
615.903	250.75
616.111	265.75
616.318	268.75
616.526	261.75
616.733	258.75
616.941	234.75
617.148	238.75
617.356	258.75
617.563	258.75
617.771	241.75
617.978	251.75
618.185	236.75
618.393	242.75
618.6	242.75
618.807	226.75
619.015	254.75
619.222	227.75
619.429	238.75
619.637	237.75
619.844	244.75
620.051	250.75
620.258	244.75
620.466	218.75
620.673	229.75
620.88	233.75
621.087	238.75
621.294	215.75
621.501	225.75
621.708	247.75
621.915	234.75
622.122	234.75
622.329	231.75
622.536	224.75
622.743	243.75
622.95	219.75
623.157	238.75
623.364	234.75
623.571	237.75
623.778	246.75
623.985	237.75
624.192	228.75
624.399	241.75
624.606	226.75
624.812	210.75
625.019	222.75
625.226	224.75
625.433	214.75
625.639	218.75
625.846	214.75
626.053	209.75
626.259	225.75
626.466	229.75
626.673	224.75
626.879	200.75
627.086	222.75
627.293	241.75
627.499	215.75
627.706	197.75
627.912	195.75
628.119	225.75
628.325	223.75
628.532	210.75
628.738	201.75
628.945	217.75
629.151	212.75
629.357	213.75
629.564	210.75
629.77	212.75
629.976	213.75
630.183	216.75
630.389	217.75
630.595	200.75
630.802	227.75
631.008	210.75
631.214	208.75
631.42	188.75
631.627	205.75
631.833	213.75
632.039	209.75
632.245	205.75
632.451	194.75
632.657	205.75
632.863	200.75
633.069	189.75
633.275	197.75
633.481	199.75
633.688	198.75
633.893	193.75
634.099	205.75
634.305	200.75
634.511	198.75
634.717	191.75
634.923	182.75
635.129	186.75
635.335	194.75
635.541	209.75
635.747	177.75
635.952	200.75
636.158	183.75
636.364	194.75
636.57	187.75
636.775	200.75
636.981	189.75
637.187	195.75
637.392	201.75
637.598	194.75
637.804	187.75
638.009	205.75
638.215	193.75
638.421	197.75
638.626	198.75
638.832	179.75
639.037	180.75
639.243	193.75
639.448	197.75
639.654	191.75
639.859	189.75
640.065	186.75
640.27	180.75
640.475	184.75
640.681	183.75
640.886	173.75
641.091	184.75
641.297	186.75
641.502	175.75
641.707	180.75
641.913	168.75
642.118	165.75
642.323	171.75
642.528	171.75
642.733	186.75
642.939	185.75
643.144	176.75
643.349	166.75
643.554	173.75
643.759	182.75
643.964	167.75
644.169	166.75
644.374	171.75
644.579	191.75
644.784	164.75
644.989	176.75
645.194	175.75
645.399	180.75
645.604	182.75
645.809	175.75
646.014	186.75
646.219	180.75
646.423	173.75
646.628	165.75
646.833	183.75
647.038	181.75
647.243	174.75
647.447	184.75
647.652	169.75
647.857	175.75
648.062	189.75
648.266	183.75
648.471	184.75
648.676	172.75
648.88	173.75
649.085	190.75
649.289	174.75
649.494	174.75
649.698	197.75
649.903	185.75
650.107	172.75
650.312	171.75
650.516	167.75
650.721	175.75
650.925	166.75
651.13	156.75
651.334	162.75
651.539	159.75
651.743	148.75
651.947	145.75
652.152	146.75
652.356	151.75
652.56	148.75
652.764	152.75
652.969	151.75
653.173	160.75
653.377	152.75
653.581	152.75
653.785	142.75
653.99	136.75
654.194	139.75
654.398	139.75
654.602	135.75
654.806	147.75
655.01	147.75
655.214	148.75
655.418	149.75
655.622	149.75
655.826	134.75
656.03	139.75
656.234	133.75
656.438	153.75
656.642	138.75
656.846	127.75
657.049	130.75
657.253	144.75
657.457	129.75
657.661	122.75
657.865	126.75
658.068	110.75
658.272	120.75
658.476	114.75
658.68	124.75
658.883	100.75
659.087	85.75
659.291	102.75
659.494	103.75
659.698	94.75
659.901	106.75
660.105	103.75
660.309	88.75
660.512	93.75
660.716	94.75
660.919	90.75
661.123	95.75
661.326	81.75
661.53	91.75
661.733	94.75
661.936	77.75
662.14	84.75
662.343	95.75
662.546	91.75
662.75	95.75
662.953	95.75
663.156	82.75
663.36	79.75
663.563	79.75
663.766	85.75
663.969	85.75
664.173	87.75
664.376	72.75
664.579	93.75
664.782	75.75
664.985	73.75
665.188	87.75
665.391	86.75
665.594	84.75
665.797	83.75
666	92.75
666.203	85.75
666.406	81.75
666.609	85.75
666.812	85.75
667.015	87.75
667.218	81.75
667.421	69.75
667.624	75.75
667.827	82.75
668.03	87.75
668.232	80.75
668.435	79.75
668.638	77.75
668.841	80.75
669.043	83.75
669.246	88.75
669.449	87.75
669.651	88.75
669.854	87.75
670.057	73.75
670.259	86.75
670.462	83.75
670.665	73.75
670.867	97.75
671.07	82.75
671.272	91.75
671.475	84.75
671.677	82.75
671.88	71.75
672.082	78.75
672.284	96.75
672.487	95.75
672.689	81.75
672.892	88.75
