Data from 1978.PennyLincolnUp.Lamp.En5.5.200Scan.071719.P1_HRD10591_16-14-01-863.txt Node
Date: Thu Jul 18 16:14:01 EDT 2019
User: cochatt
Spectrometer: HR+D1059
Trigger mode: 1
Integration Time (sec): 1.000000E-1
Scans to average: 1
Electric dark correction enabled: true
Nonlinearity correction enabled: false
Boxcar width: 0
XAxis mode: Wavelengths
Number of Pixels in Spectrum: 2048
>>>>>Begin Spectral Data<<<<<
223.165	-8.19
223.4	-8.19
223.635	-8.19
223.869	-16.19
224.104	-7.19
224.338	-24.19
224.573	-14.19
224.808	-13.19
225.042	-13.19
225.277	-10.19
225.511	-8.19
225.746	2.81
225.98	18.81
226.215	13.81
226.449	12.81
226.683	13.81
226.918	21.81
227.152	30.81
227.387	32.81
227.621	41.81
227.856	42.81
228.09	58.81
228.324	58.81
228.559	47.81
228.793	62.81
229.027	98.81
229.262	100.81
229.496	117.81
229.73	136.81
229.964	141.81
230.199	122.81
230.433	99.81
230.667	119.81
230.901	103.81
231.136	115.81
231.37	107.81
231.604	102.81
231.838	101.81
232.072	108.81
232.306	111.81
232.541	115.81
232.775	109.81
233.009	123.81
233.243	114.81
233.477	105.81
233.711	116.81
233.945	120.81
234.179	115.81
234.413	120.81
234.647	119.81
234.881	120.81
235.115	110.81
235.349	110.81
235.583	110.81
235.817	121.81
236.051	122.81
236.285	113.81
236.519	118.81
236.753	138.81
236.987	146.81
237.221	177.81
237.455	226.81
237.689	180.81
237.922	133.81
238.156	136.81
238.39	130.81
238.624	115.81
238.858	119.81
239.091	121.81
239.325	141.81
239.559	131.81
239.793	108.81
240.027	132.81
240.26	138.81
240.494	140.81
240.728	144.81
240.961	133.81
241.195	140.81
241.429	140.81
241.662	123.81
241.896	135.81
242.13	136.81
242.363	123.81
242.597	121.81
242.83	140.81
243.064	129.81
243.298	123.81
243.531	133.81
243.765	126.81
243.998	146.81
244.232	143.81
244.465	131.81
244.699	148.81
244.932	144.81
245.166	141.81
245.399	141.81
245.633	150.81
245.866	149.81
246.099	133.81
246.333	141.81
246.566	132.81
246.8	138.81
247.033	149.81
247.266	148.81
247.5	154.81
247.733	146.81
247.966	144.81
248.2	164.81
248.433	159.81
248.666	170.81
248.899	162.81
249.133	189.81
249.366	195.81
249.599	183.81
249.832	169.81
250.066	159.81
250.299	167.81
250.532	165.81
250.765	172.81
250.998	215.81
251.231	207.81
251.465	202.81
251.698	170.81
251.931	185.81
252.164	179.81
252.397	187.81
252.63	197.81
252.863	187.81
253.096	198.81
253.329	212.81
253.562	197.81
253.795	214.81
254.028	219.81
254.261	204.81
254.494	210.81
254.727	248.81
254.96	258.81
255.193	238.81
255.426	219.81
255.659	229.81
255.892	240.81
256.124	212.81
256.357	211.81
256.59	193.81
256.823	203.81
257.056	185.81
257.289	195.81
257.521	192.81
257.754	203.81
257.987	213.81
258.22	210.81
258.452	202.81
258.685	193.81
258.918	195.81
259.151	207.81
259.383	203.81
259.616	215.81
259.849	201.81
260.081	193.81
260.314	222.81
260.547	231.81
260.779	231.81
261.012	220.81
261.244	205.81
261.477	187.81
261.71	176.81
261.942	210.81
262.175	233.81
262.407	206.81
262.64	210.81
262.872	200.81
263.105	211.81
263.337	217.81
263.57	211.81
263.802	211.81
264.035	209.81
264.267	196.81
264.499	195.81
264.732	200.81
264.964	212.81
265.197	213.81
265.429	200.81
265.661	190.81
265.894	205.81
266.126	206.81
266.358	202.81
266.591	203.81
266.823	211.81
267.055	232.81
267.287	217.81
267.52	220.81
267.752	221.81
267.984	218.81
268.216	219.81
268.448	227.81
268.681	230.81
268.913	236.81
269.145	228.81
269.377	245.81
269.609	238.81
269.841	256.81
270.073	263.81
270.306	275.81
270.538	280.81
270.77	295.81
271.002	289.81
271.234	260.81
271.466	277.81
271.698	282.81
271.93	298.81
272.162	290.81
272.394	295.81
272.626	299.81
272.858	271.81
273.09	278.81
273.322	252.81
273.553	243.81
273.785	245.81
274.017	245.81
274.249	253.81
274.481	256.81
274.713	243.81
274.945	258.81
275.176	246.81
275.408	254.81
275.64	249.81
275.872	255.81
276.104	235.81
276.335	258.81
276.567	246.81
276.799	271.81
277.031	284.81
277.262	306.81
277.494	303.81
277.726	289.81
277.957	279.81
278.189	282.81
278.421	253.81
278.652	254.81
278.884	275.81
279.115	259.81
279.347	266.81
279.579	252.81
279.81	252.81
280.042	258.81
280.273	259.81
280.505	260.81
280.736	263.81
280.968	249.81
281.199	254.81
281.431	267.81
281.662	266.81
281.894	260.81
282.125	275.81
282.356	272.81
282.588	292.81
282.819	284.81
283.051	284.81
283.282	263.81
283.513	254.81
283.745	266.81
283.976	275.81
284.207	282.81
284.439	283.81
284.67	257.81
284.901	260.81
285.132	257.81
285.364	279.81
285.595	281.81
285.826	271.81
286.057	262.81
286.288	244.81
286.52	270.81
286.751	269.81
286.982	281.81
287.213	294.81
287.444	280.81
287.675	279.81
287.906	280.81
288.138	295.81
288.369	277.81
288.6	302.81
288.831	284.81
289.062	282.81
289.293	285.81
289.524	291.81
289.755	286.81
289.986	301.81
290.217	289.81
290.448	272.81
290.679	268.81
290.91	281.81
291.141	283.81
291.371	271.81
291.602	286.81
291.833	272.81
292.064	293.81
292.295	260.81
292.526	286.81
292.757	288.81
292.987	283.81
293.218	283.81
293.449	293.81
293.68	260.81
293.91	273.81
294.141	275.81
294.372	285.81
294.603	285.81
294.833	288.81
295.064	266.81
295.295	282.81
295.525	282.81
295.756	284.81
295.987	283.81
296.217	317.81
296.448	336.81
296.679	312.81
296.909	300.81
297.14	298.81
297.37	291.81
297.601	292.81
297.831	304.81
298.062	291.81
298.292	306.81
298.523	289.81
298.753	290.81
298.984	303.81
299.214	302.81
299.445	304.81
299.675	294.81
299.905	310.81
300.136	307.81
300.366	298.81
300.597	306.81
300.827	318.81
301.057	323.81
301.288	319.81
301.518	318.81
301.748	319.81
301.979	321.81
302.209	325.81
302.439	302.81
302.669	308.81
302.9	299.81
303.13	308.81
303.36	327.81
303.59	322.81
303.82	336.81
304.051	351.81
304.281	332.81
304.511	328.81
304.741	318.81
304.971	312.81
305.201	329.81
305.431	319.81
305.661	316.81
305.891	319.81
306.121	329.81
306.352	338.81
306.582	331.81
306.812	311.81
307.042	342.81
307.272	335.81
307.502	317.81
307.731	305.81
307.961	345.81
308.191	325.81
308.421	318.81
308.651	327.81
308.881	330.81
309.111	331.81
309.341	343.81
309.571	354.81
309.8	367.81
310.03	344.81
310.26	350.81
310.49	375.81
310.72	356.81
310.949	370.81
311.179	366.81
311.409	362.81
311.639	371.81
311.868	366.81
312.098	366.81
312.328	376.81
312.557	383.81
312.787	417.81
313.017	372.81
313.246	377.81
313.476	384.81
313.706	388.81
313.935	380.81
314.165	387.81
314.394	382.81
314.624	409.81
314.853	383.81
315.083	375.81
315.312	366.81
315.542	373.81
315.771	352.81
316.001	359.81
316.23	356.81
316.46	380.81
316.689	350.81
316.919	378.81
317.148	390.81
317.377	390.81
317.607	384.81
317.836	385.81
318.065	368.81
318.295	368.81
318.524	387.81
318.753	366.81
318.983	371.81
319.212	386.81
319.441	371.81
319.67	396.81
319.9	379.81
320.129	358.81
320.358	389.81
320.587	382.81
320.816	391.81
321.046	379.81
321.275	404.81
321.504	384.81
321.733	390.81
321.962	401.81
322.191	396.81
322.42	418.81
322.649	433.81
322.878	456.81
323.108	436.81
323.337	474.81
323.566	486.81
323.795	530.81
324.024	544.81
324.253	657.81
324.482	970.81
324.71	1547.81
324.939	2404.81
325.168	2060.81
325.397	976.81
325.626	647.81
325.855	533.81
326.084	496.81
326.313	519.81
326.542	498.81
326.77	520.81
326.999	632.81
327.228	898.81
327.457	1403.81
327.686	1779.81
327.914	1122.81
328.143	690.81
328.372	606.81
328.6	583.81
328.829	533.81
329.058	592.81
329.287	558.81
329.515	534.81
329.744	517.81
329.972	498.81
330.201	537.81
330.43	560.81
330.658	566.81
330.887	607.81
331.115	586.81
331.344	497.81
331.572	478.81
331.801	479.81
332.03	493.81
332.258	489.81
332.486	443.81
332.715	449.81
332.943	448.81
333.172	461.81
333.4	456.81
333.629	454.81
333.857	474.81
334.085	474.81
334.314	503.81
334.542	530.81
334.771	547.81
334.999	498.81
335.227	450.81
335.455	447.81
335.684	463.81
335.912	430.81
336.14	437.81
336.369	436.81
336.597	450.81
336.825	448.81
337.053	463.81
337.281	445.81
337.51	457.81
337.738	447.81
337.966	441.81
338.194	422.81
338.422	434.81
338.65	440.81
338.878	443.81
339.106	416.81
339.334	425.81
339.562	424.81
339.79	425.81
340.018	425.81
340.246	436.81
340.474	428.81
340.702	449.81
340.93	431.81
341.158	437.81
341.386	429.81
341.614	428.81
341.842	460.81
342.07	415.81
342.298	431.81
342.526	404.81
342.754	420.81
342.981	419.81
343.209	418.81
343.437	403.81
343.665	430.81
343.893	441.81
344.12	434.81
344.348	439.81
344.576	455.81
344.804	445.81
345.031	466.81
345.259	464.81
345.487	454.81
345.714	443.81
345.942	450.81
346.17	432.81
346.397	451.81
346.625	424.81
346.853	422.81
347.08	412.81
347.308	426.81
347.535	427.81
347.763	425.81
347.99	443.81
348.218	431.81
348.445	434.81
348.673	433.81
348.9	415.81
349.128	432.81
349.355	422.81
349.583	416.81
349.81	406.81
350.037	414.81
350.265	419.81
350.492	392.81
350.72	391.81
350.947	405.81
351.174	400.81
351.402	444.81
351.629	432.81
351.856	426.81
352.083	438.81
352.311	438.81
352.538	426.81
352.765	442.81
352.992	420.81
353.22	416.81
353.447	402.81
353.674	407.81
353.901	416.81
354.128	398.81
354.355	409.81
354.583	388.81
354.81	401.81
355.037	394.81
355.264	399.81
355.491	398.81
355.718	378.81
355.945	405.81
356.172	392.81
356.399	372.81
356.626	384.81
356.853	400.81
357.08	388.81
357.307	402.81
357.534	384.81
357.761	375.81
357.988	407.81
358.215	400.81
358.441	392.81
358.668	396.81
358.895	412.81
359.122	407.81
359.349	426.81
359.576	419.81
359.802	467.81
360.029	442.81
360.256	479.81
360.483	441.81
360.709	426.81
360.936	426.81
361.163	424.81
361.39	419.81
361.616	438.81
361.843	433.81
362.07	430.81
362.296	434.81
362.523	415.81
362.749	402.81
362.976	406.81
363.203	400.81
363.429	399.81
363.656	407.81
363.882	415.81
364.109	411.81
364.335	399.81
364.562	404.81
364.788	427.81
365.015	422.81
365.241	398.81
365.468	433.81
365.694	432.81
365.92	432.81
366.147	397.81
366.373	427.81
366.599	439.81
366.826	418.81
367.052	414.81
367.278	408.81
367.505	407.81
367.731	409.81
367.957	399.81
368.184	410.81
368.41	425.81
368.636	426.81
368.862	436.81
369.089	393.81
369.315	422.81
369.541	406.81
369.767	399.81
369.993	415.81
370.219	412.81
370.445	410.81
370.672	411.81
370.898	418.81
371.124	405.81
371.35	423.81
371.576	400.81
371.802	409.81
372.028	418.81
372.254	400.81
372.48	407.81
372.706	408.81
372.932	412.81
373.158	399.81
373.384	432.81
373.61	410.81
373.835	412.81
374.061	412.81
374.287	411.81
374.513	411.81
374.739	425.81
374.965	434.81
375.191	440.81
375.416	423.81
375.642	421.81
375.868	417.81
376.094	406.81
376.319	425.81
376.545	409.81
376.771	404.81
376.997	398.81
377.222	405.81
377.448	413.81
377.674	425.81
377.899	413.81
378.125	424.81
378.35	412.81
378.576	417.81
378.802	387.81
379.027	403.81
379.253	406.81
379.478	413.81
379.704	408.81
379.929	420.81
380.155	419.81
380.38	408.81
380.606	408.81
380.831	422.81
381.057	431.81
381.282	421.81
381.507	441.81
381.733	415.81
381.958	402.81
382.184	424.81
382.409	418.81
382.634	442.81
382.86	434.81
383.085	441.81
383.31	445.81
383.535	427.81
383.761	449.81
383.986	412.81
384.211	439.81
384.436	446.81
384.662	423.81
384.887	439.81
385.112	447.81
385.337	447.81
385.562	441.81
385.787	454.81
386.013	463.81
386.238	477.81
386.463	474.81
386.688	443.81
386.913	459.81
387.138	434.81
387.363	451.81
387.588	463.81
387.813	462.81
388.038	456.81
388.263	483.81
388.488	446.81
388.713	446.81
388.938	454.81
389.163	445.81
389.387	469.81
389.612	462.81
389.837	447.81
390.062	453.81
390.287	463.81
390.512	428.81
390.736	448.81
390.961	464.81
391.186	468.81
391.411	472.81
391.636	490.81
391.86	510.81
392.085	490.81
392.31	488.81
392.534	468.81
392.759	504.81
392.984	477.81
393.208	484.81
393.433	467.81
393.658	482.81
393.882	454.81
394.107	476.81
394.331	485.81
394.556	488.81
394.78	479.81
395.005	482.81
395.229	483.81
395.454	497.81
395.678	485.81
395.903	486.81
396.127	529.81
396.352	516.81
396.576	487.81
396.801	514.81
397.025	489.81
397.249	489.81
397.474	507.81
397.698	510.81
397.922	525.81
398.147	515.81
398.371	551.81
398.595	529.81
398.82	543.81
399.044	539.81
399.268	561.81
399.492	582.81
399.717	602.81
399.941	648.81
400.165	658.81
400.389	667.81
400.613	594.81
400.837	577.81
401.062	560.81
401.286	557.81
401.51	561.81
401.734	538.81
401.958	536.81
402.182	544.81
402.406	570.81
402.63	562.81
402.854	548.81
403.078	576.81
403.302	571.81
403.526	554.81
403.75	577.81
403.974	557.81
404.198	555.81
404.422	583.81
404.645	563.81
404.869	574.81
405.093	584.81
405.317	633.81
405.541	684.81
405.765	640.81
405.988	611.81
406.212	616.81
406.436	618.81
406.66	630.81
406.883	627.81
407.107	631.81
407.331	657.81
407.555	752.81
407.778	752.81
408.002	679.81
408.226	630.81
408.449	630.81
408.673	615.81
408.896	670.81
409.12	702.81
409.344	677.81
409.567	587.81
409.791	603.81
410.014	588.81
410.238	592.81
410.461	577.81
410.685	566.81
410.908	586.81
411.132	611.81
411.355	662.81
411.578	639.81
411.802	598.81
412.025	572.81
412.249	580.81
412.472	606.81
412.695	660.81
412.919	614.81
413.142	582.81
413.365	576.81
413.589	538.81
413.812	551.81
414.035	536.81
414.258	545.81
414.482	535.81
414.705	538.81
414.928	530.81
415.151	519.81
415.374	540.81
415.597	525.81
415.821	507.81
416.044	537.81
416.267	532.81
416.49	538.81
416.713	549.81
416.936	540.81
417.159	536.81
417.382	522.81
417.605	536.81
417.828	548.81
418.051	537.81
418.274	546.81
418.497	537.81
418.72	528.81
418.943	548.81
419.166	544.81
419.389	568.81
419.611	563.81
419.834	562.81
420.057	571.81
420.28	548.81
420.503	554.81
420.726	538.81
420.948	575.81
421.171	622.81
421.394	632.81
421.617	553.81
421.839	552.81
422.062	559.81
422.285	578.81
422.507	643.81
422.73	735.81
422.953	709.81
423.175	601.81
423.398	606.81
423.621	576.81
423.843	611.81
424.066	626.81
424.288	593.81
424.511	610.81
424.733	681.81
424.956	740.81
425.178	711.81
425.401	720.81
425.623	773.81
425.846	661.81
426.068	596.81
426.291	607.81
426.513	605.81
426.735	599.81
426.958	663.81
427.18	728.81
427.402	886.81
427.625	976.81
427.847	833.81
428.069	732.81
428.292	630.81
428.514	587.81
428.736	587.81
428.958	572.81
429.181	545.81
429.403	540.81
429.625	562.81
429.847	582.81
430.069	661.81
430.292	640.81
430.514	566.81
430.736	549.81
430.958	541.81
431.18	529.81
431.402	536.81
431.624	507.81
431.846	520.81
432.068	527.81
432.29	520.81
432.512	520.81
432.734	526.81
432.956	528.81
433.178	546.81
433.4	538.81
433.622	523.81
433.844	529.81
434.066	536.81
434.287	527.81
434.509	540.81
434.731	554.81
434.953	549.81
435.175	552.81
435.397	572.81
435.618	594.81
435.84	639.81
436.062	736.81
436.284	822.81
436.505	686.81
436.727	606.81
436.949	562.81
437.17	566.81
437.392	532.81
437.614	574.81
437.835	596.81
438.057	688.81
438.278	825.81
438.5	811.81
438.721	905.81
438.943	870.81
439.165	688.81
439.386	634.81
439.608	618.81
439.829	606.81
440.05	633.81
440.272	696.81
440.493	634.81
440.715	599.81
440.936	538.81
441.158	544.81
441.379	580.81
441.6	582.81
441.822	608.81
442.043	642.81
442.264	707.81
442.486	800.81
442.707	678.81
442.928	599.81
443.149	634.81
443.371	644.81
443.592	668.81
443.813	791.81
444.034	863.81
444.255	716.81
444.476	630.81
444.698	609.81
444.919	603.81
445.14	690.81
445.361	670.81
445.582	633.81
445.803	732.81
446.024	835.81
446.245	824.81
446.466	780.81
446.687	653.81
446.908	615.81
447.129	566.81
447.35	546.81
447.571	562.81
447.792	551.81
448.013	543.81
448.234	579.81
448.455	602.81
448.675	745.81
448.896	878.81
449.117	754.81
449.338	712.81
449.559	827.81
449.779	946.81
450	745.81
450.221	596.81
450.442	563.81
450.662	557.81
450.883	542.81
451.104	562.81
451.324	536.81
451.545	520.81
451.766	531.81
451.986	487.81
452.207	490.81
452.428	487.81
452.648	504.81
452.869	488.81
453.089	510.81
453.31	512.81
453.53	514.81
453.751	498.81
453.971	477.81
454.192	517.81
454.412	516.81
454.633	517.81
454.853	504.81
455.073	490.81
455.294	512.81
455.514	589.81
455.734	569.81
455.955	494.81
456.175	453.81
456.395	471.81
456.616	462.81
456.836	463.81
457.056	466.81
457.276	475.81
457.497	452.81
457.717	453.81
457.937	469.81
458.157	459.81
458.377	490.81
458.598	498.81
458.818	564.81
459.038	634.81
459.258	686.81
459.478	581.81
459.698	545.81
459.918	521.81
460.138	521.81
460.358	544.81
460.578	532.81
460.798	554.81
461.018	562.81
461.238	554.81
461.458	572.81
461.678	545.81
461.898	550.81
462.118	539.81
462.338	560.81
462.558	573.81
462.777	567.81
462.997	591.81
463.217	578.81
463.437	589.81
463.657	595.81
463.876	612.81
464.096	586.81
464.316	582.81
464.536	571.81
464.755	578.81
464.975	586.81
465.195	614.81
465.414	677.81
465.634	634.81
465.854	577.81
466.073	563.81
466.293	537.81
466.512	528.81
466.732	518.81
466.951	506.81
467.171	513.81
467.391	511.81
467.61	534.81
467.829	530.81
468.049	530.81
468.268	499.81
468.488	491.81
468.707	484.81
468.927	503.81
469.146	500.81
469.365	497.81
469.585	493.81
469.804	515.81
470.023	526.81
470.243	522.81
470.462	521.81
470.681	539.81
470.901	521.81
471.12	504.81
471.339	498.81
471.558	531.81
471.777	529.81
471.997	520.81
472.216	538.81
472.435	542.81
472.654	540.81
472.873	506.81
473.092	521.81
473.311	501.81
473.53	524.81
473.749	511.81
473.968	562.81
474.187	651.81
474.406	684.81
474.625	568.81
474.844	526.81
475.063	524.81
475.282	500.81
475.501	512.81
475.72	518.81
475.939	534.81
476.158	516.81
476.377	540.81
476.596	546.81
476.814	553.81
477.033	541.81
477.252	530.81
477.471	553.81
477.69	566.81
477.908	555.81
478.127	578.81
478.346	550.81
478.564	597.81
478.783	585.81
479.002	599.81
479.22	581.81
479.439	622.81
479.658	619.81
479.876	632.81
480.095	646.81
480.313	645.81
480.532	671.81
480.751	640.81
480.969	656.81
481.188	703.81
481.406	710.81
481.624	642.81
481.843	626.81
482.061	635.81
482.28	620.81
482.498	612.81
482.717	604.81
482.935	606.81
483.153	613.81
483.372	603.81
483.59	594.81
483.808	604.81
484.027	604.81
484.245	595.81
484.463	618.81
484.681	624.81
484.9	611.81
485.118	597.81
485.336	626.81
485.554	638.81
485.772	634.81
485.99	620.81
486.209	622.81
486.427	650.81
486.645	638.81
486.863	649.81
487.081	662.81
487.299	659.81
487.517	636.81
487.735	628.81
487.953	649.81
488.171	655.81
488.389	630.81
488.607	630.81
488.825	656.81
489.043	660.81
489.261	655.81
489.479	669.81
489.696	665.81
489.914	666.81
490.132	667.81
490.35	663.81
490.568	681.81
490.786	662.81
491.003	687.81
491.221	711.81
491.439	711.81
491.657	707.81
491.874	723.81
492.092	719.81
492.31	717.81
492.527	731.81
492.745	700.81
492.963	711.81
493.18	738.81
493.398	736.81
493.615	773.81
493.833	778.81
494.05	768.81
494.268	744.81
494.485	753.81
494.703	739.81
494.92	781.81
495.138	743.81
495.355	756.81
495.573	771.81
495.79	767.81
496.008	761.81
496.225	760.81
496.442	776.81
496.66	783.81
496.877	758.81
497.094	746.81
497.312	803.81
497.529	777.81
497.746	799.81
497.963	842.81
498.181	840.81
498.398	868.81
498.615	882.81
498.832	915.81
499.049	876.81
499.267	918.81
499.484	944.81
499.701	1006.81
499.918	1032.81
500.135	1058.81
500.352	1081.81
500.569	1076.81
500.786	1112.81
501.003	1072.81
501.22	1076.81
501.437	1037.81
501.654	1017.81
501.871	995.81
502.088	958.81
502.305	916.81
502.522	891.81
502.739	836.81
502.956	826.81
503.172	830.81
503.389	819.81
503.606	823.81
503.823	823.81
504.04	809.81
504.256	795.81
504.473	796.81
504.69	782.81
504.907	786.81
505.123	745.81
505.34	742.81
505.557	760.81
505.773	746.81
505.99	726.81
506.207	753.81
506.423	726.81
506.64	720.81
506.856	738.81
507.073	719.81
507.289	725.81
507.506	719.81
507.722	684.81
507.939	706.81
508.155	707.81
508.372	694.81
508.588	682.81
508.805	670.81
509.021	698.81
509.238	696.81
509.454	707.81
509.67	700.81
509.887	713.81
510.103	695.81
510.319	691.81
510.536	762.81
510.752	1179.81
510.968	1018.81
511.184	720.81
511.401	683.81
511.617	655.81
511.833	668.81
512.049	658.81
512.265	672.81
512.481	684.81
512.698	638.81
512.914	665.81
513.13	661.81
513.346	656.81
513.562	632.81
513.778	627.81
513.994	651.81
514.21	666.81
514.426	680.81
514.642	705.81
514.858	764.81
515.074	798.81
515.29	894.81
515.506	1253.81
515.721	1054.81
515.937	771.81
516.153	731.81
516.369	681.81
516.585	700.81
516.801	702.81
517.016	675.81
517.232	708.81
517.448	714.81
517.664	658.81
517.879	692.81
518.095	700.81
518.311	686.81
518.527	695.81
518.742	679.81
518.958	688.81
519.173	678.81
519.389	678.81
519.605	641.81
519.82	675.81
520.036	672.81
520.251	704.81
520.467	689.81
520.682	705.81
520.898	705.81
521.113	716.81
521.329	772.81
521.544	852.81
521.76	1055.81
521.975	1553.81
522.19	1514.81
522.406	913.81
522.621	739.81
522.836	686.81
523.052	642.81
523.267	641.81
523.482	627.81
523.698	610.81
523.913	628.81
524.128	603.81
524.343	603.81
524.559	565.81
524.774	589.81
524.989	604.81
525.204	610.81
525.419	599.81
525.634	562.81
525.849	586.81
526.064	553.81
526.28	560.81
526.495	536.81
526.71	552.81
526.925	535.81
527.14	535.81
527.355	545.81
527.57	551.81
527.785	561.81
527.999	544.81
528.214	538.81
528.429	554.81
528.644	561.81
528.859	550.81
529.074	536.81
529.289	571.81
529.503	616.81
529.718	616.81
529.933	607.81
530.148	547.81
530.363	547.81
530.577	547.81
530.792	519.81
531.007	543.81
531.221	537.81
531.436	550.81
531.651	524.81
531.865	527.81
532.08	536.81
532.295	546.81
532.509	549.81
532.724	537.81
532.938	533.81
533.153	519.81
533.367	540.81
533.582	543.81
533.796	519.81
534.011	519.81
534.225	522.81
534.44	511.81
534.654	519.81
534.868	518.81
535.083	517.81
535.297	525.81
535.511	510.81
535.726	529.81
535.94	542.81
536.154	529.81
536.369	531.81
536.583	486.81
536.797	521.81
537.011	510.81
537.225	498.81
537.44	503.81
537.654	478.81
537.868	482.81
538.082	465.81
538.296	514.81
538.51	504.81
538.724	494.81
538.938	506.81
539.153	477.81
539.367	492.81
539.581	496.81
539.795	483.81
540.009	489.81
540.222	497.81
540.436	489.81
540.65	488.81
540.864	502.81
541.078	507.81
541.292	514.81
541.506	494.81
541.72	488.81
541.934	510.81
542.147	498.81
542.361	483.81
542.575	490.81
542.789	490.81
543.002	490.81
543.216	510.81
543.43	505.81
543.644	494.81
543.857	498.81
544.071	515.81
544.285	499.81
544.498	497.81
544.712	484.81
544.925	490.81
545.139	481.81
545.352	474.81
545.566	482.81
545.779	507.81
545.993	486.81
546.206	504.81
546.42	496.81
546.633	485.81
546.847	494.81
547.06	480.81
547.274	471.81
547.487	477.81
547.7	492.81
547.914	471.81
548.127	459.81
548.34	482.81
548.554	464.81
548.767	481.81
548.98	484.81
549.193	458.81
549.407	496.81
549.62	473.81
549.833	464.81
550.046	475.81
550.259	473.81
550.473	460.81
550.686	484.81
550.899	447.81
551.112	486.81
551.325	473.81
551.538	462.81
551.751	470.81
551.964	466.81
552.177	482.81
552.39	474.81
552.603	477.81
552.816	496.81
553.029	506.81
553.242	488.81
553.455	499.81
553.667	487.81
553.88	484.81
554.093	494.81
554.306	508.81
554.519	477.81
554.732	489.81
554.944	454.81
555.157	460.81
555.37	454.81
555.583	442.81
555.795	455.81
556.008	447.81
556.221	445.81
556.433	437.81
556.646	437.81
556.859	431.81
557.071	452.81
557.284	438.81
557.496	434.81
557.709	423.81
557.921	432.81
558.134	428.81
558.346	440.81
558.559	442.81
558.771	438.81
558.984	441.81
559.196	424.81
559.409	431.81
559.621	443.81
559.833	422.81
560.046	414.81
560.258	414.81
560.47	422.81
560.683	419.81
560.895	450.81
561.107	426.81
561.32	435.81
561.532	454.81
561.744	423.81
561.956	410.81
562.168	420.81
562.381	417.81
562.593	451.81
562.805	422.81
563.017	438.81
563.229	438.81
563.441	427.81
563.653	436.81
563.865	422.81
564.077	430.81
564.289	435.81
564.501	443.81
564.713	456.81
564.925	460.81
565.137	476.81
565.349	481.81
565.561	463.81
565.773	468.81
565.985	453.81
566.197	485.81
566.408	513.81
566.62	530.81
566.832	516.81
567.044	537.81
567.255	551.81
567.467	553.81
567.679	534.81
567.891	572.81
568.102	542.81
568.314	549.81
568.526	533.81
568.737	508.81
568.949	477.81
569.161	453.81
569.372	452.81
569.584	441.81
569.795	452.81
570.007	439.81
570.218	462.81
570.43	457.81
570.641	440.81
570.853	430.81
571.064	403.81
571.276	420.81
571.487	402.81
571.698	396.81
571.91	402.81
572.121	377.81
572.333	408.81
572.544	406.81
572.755	400.81
572.966	406.81
573.178	371.81
573.389	373.81
573.6	389.81
573.811	383.81
574.023	388.81
574.234	375.81
574.445	381.81
574.656	374.81
574.867	376.81
575.078	375.81
575.289	375.81
575.501	345.81
575.712	350.81
575.923	363.81
576.134	367.81
576.345	370.81
576.556	368.81
576.767	351.81
576.978	355.81
577.188	364.81
577.399	346.81
577.61	366.81
577.821	362.81
578.032	378.81
578.243	383.81
578.454	552.81
578.665	454.81
578.875	360.81
579.086	354.81
579.297	346.81
579.508	352.81
579.718	352.81
579.929	326.81
580.14	336.81
580.35	354.81
580.561	350.81
580.772	340.81
580.982	335.81
581.193	319.81
581.403	351.81
581.614	346.81
581.825	340.81
582.035	339.81
582.246	331.81
582.456	334.81
582.667	329.81
582.877	328.81
583.087	322.81
583.298	355.81
583.508	350.81
583.719	320.81
583.929	341.81
584.139	335.81
584.35	308.81
584.56	340.81
584.77	340.81
584.981	340.81
585.191	337.81
585.401	328.81
585.611	323.81
585.821	312.81
586.032	324.81
586.242	333.81
586.452	320.81
586.662	323.81
586.872	316.81
587.082	337.81
587.292	342.81
587.502	321.81
587.713	310.81
587.923	320.81
588.133	331.81
588.343	336.81
588.553	314.81
588.762	317.81
588.972	321.81
589.182	326.81
589.392	318.81
589.602	319.81
589.812	331.81
590.022	328.81
590.232	289.81
590.441	329.81
590.651	323.81
590.861	330.81
591.071	331.81
591.281	335.81
591.49	329.81
591.7	323.81
591.91	322.81
592.119	320.81
592.329	343.81
592.539	325.81
592.748	336.81
592.958	343.81
593.167	335.81
593.377	335.81
593.587	340.81
593.796	348.81
594.006	344.81
594.215	337.81
594.424	337.81
594.634	354.81
594.843	339.81
595.053	344.81
595.262	336.81
595.472	342.81
595.681	313.81
595.89	317.81
596.1	307.81
596.309	291.81
596.518	315.81
596.727	296.81
596.937	327.81
597.146	297.81
597.355	312.81
597.564	300.81
597.774	313.81
597.983	291.81
598.192	295.81
598.401	291.81
598.61	293.81
598.819	271.81
599.028	301.81
599.237	302.81
599.446	259.81
599.655	293.81
599.864	298.81
600.073	295.81
600.282	282.81
600.491	277.81
600.7	291.81
600.909	280.81
601.118	281.81
601.327	268.81
601.536	290.81
601.745	285.81
601.953	278.81
602.162	269.81
602.371	272.81
602.58	264.81
602.789	254.81
602.997	281.81
603.206	294.81
603.415	273.81
603.623	266.81
603.832	266.81
604.041	266.81
604.249	277.81
604.458	286.81
604.666	269.81
604.875	276.81
605.084	266.81
605.292	271.81
605.501	279.81
605.709	273.81
605.918	258.81
606.126	266.81
606.334	275.81
606.543	267.81
606.751	263.81
606.96	255.81
607.168	282.81
607.376	264.81
607.585	272.81
607.793	270.81
608.001	283.81
608.21	262.81
608.418	252.81
608.626	251.81
608.834	256.81
609.043	253.81
609.251	260.81
609.459	260.81
609.667	267.81
609.875	258.81
610.083	252.81
610.291	258.81
610.499	255.81
610.707	256.81
610.916	267.81
611.124	285.81
611.332	271.81
611.54	274.81
611.748	258.81
611.955	270.81
612.163	257.81
612.371	240.81
612.579	266.81
612.787	254.81
612.995	256.81
613.203	247.81
613.411	250.81
613.618	270.81
613.826	263.81
614.034	243.81
614.242	251.81
614.449	258.81
614.657	260.81
614.865	249.81
615.072	252.81
615.28	247.81
615.488	260.81
615.695	254.81
615.903	247.81
616.111	252.81
616.318	259.81
616.526	262.81
616.733	253.81
616.941	262.81
617.148	233.81
617.356	253.81
617.563	256.81
617.771	246.81
617.978	234.81
618.185	242.81
618.393	245.81
618.6	256.81
618.807	254.81
619.015	234.81
619.222	258.81
619.429	251.81
619.637	246.81
619.844	245.81
620.051	234.81
620.258	232.81
620.466	233.81
620.673	231.81
620.88	229.81
621.087	226.81
621.294	233.81
621.501	230.81
621.708	246.81
621.915	247.81
622.122	234.81
622.329	237.81
622.536	235.81
622.743	230.81
622.95	212.81
623.157	230.81
623.364	235.81
623.571	220.81
623.778	222.81
623.985	230.81
624.192	225.81
624.399	218.81
624.606	217.81
624.812	227.81
625.019	239.81
625.226	227.81
625.433	218.81
625.639	228.81
625.846	227.81
626.053	224.81
626.259	216.81
626.466	226.81
626.673	208.81
626.879	211.81
627.086	216.81
627.293	201.81
627.499	231.81
627.706	217.81
627.912	207.81
628.119	225.81
628.325	194.81
628.532	212.81
628.738	210.81
628.945	204.81
629.151	219.81
629.357	205.81
629.564	210.81
629.77	214.81
629.976	204.81
630.183	212.81
630.389	198.81
630.595	218.81
630.802	202.81
631.008	213.81
631.214	204.81
631.42	212.81
631.627	195.81
631.833	204.81
632.039	209.81
632.245	208.81
632.451	200.81
632.657	195.81
632.863	191.81
633.069	201.81
633.275	197.81
633.481	189.81
633.688	195.81
633.893	196.81
634.099	198.81
634.305	209.81
634.511	210.81
634.717	207.81
634.923	192.81
635.129	200.81
635.335	185.81
635.541	180.81
635.747	186.81
635.952	196.81
636.158	191.81
636.364	195.81
636.57	196.81
636.775	193.81
636.981	200.81
637.187	194.81
637.392	196.81
637.598	188.81
637.804	168.81
638.009	190.81
638.215	200.81
638.421	175.81
638.626	191.81
638.832	189.81
639.037	194.81
639.243	191.81
639.448	179.81
639.654	175.81
639.859	206.81
640.065	181.81
640.27	160.81
640.475	172.81
640.681	178.81
640.886	198.81
641.091	187.81
641.297	179.81
641.502	185.81
641.707	195.81
641.913	193.81
642.118	178.81
642.323	177.81
642.528	193.81
642.733	185.81
642.939	176.81
643.144	160.81
643.349	187.81
643.554	176.81
643.759	176.81
643.964	166.81
644.169	193.81
644.374	163.81
644.579	185.81
644.784	181.81
644.989	188.81
645.194	175.81
645.399	191.81
645.604	170.81
645.809	147.81
646.014	163.81
646.219	176.81
646.423	167.81
646.628	159.81
646.833	163.81
647.038	170.81
647.243	147.81
647.447	176.81
647.652	190.81
647.857	162.81
648.062	174.81
648.266	179.81
648.471	183.81
648.676	163.81
648.88	165.81
649.085	165.81
649.289	200.81
649.494	187.81
649.698	194.81
649.903	179.81
650.107	179.81
650.312	178.81
650.516	166.81
650.721	166.81
650.925	177.81
651.13	167.81
651.334	174.81
651.539	150.81
651.743	157.81
651.947	154.81
652.152	149.81
652.356	158.81
652.56	164.81
652.764	174.81
652.969	152.81
653.173	158.81
653.377	157.81
653.581	143.81
653.785	117.81
653.99	151.81
654.194	130.81
654.398	138.81
654.602	136.81
654.806	144.81
655.01	159.81
655.214	156.81
655.418	146.81
655.622	135.81
655.826	138.81
656.03	135.81
656.234	132.81
656.438	138.81
656.642	133.81
656.846	147.81
657.049	132.81
657.253	132.81
657.457	127.81
657.661	115.81
657.865	132.81
658.068	102.81
658.272	105.81
658.476	106.81
658.68	116.81
658.883	105.81
659.087	115.81
659.291	110.81
659.494	107.81
659.698	93.81
659.901	97.81
660.105	95.81
660.309	109.81
660.512	93.81
660.716	83.81
660.919	79.81
661.123	93.81
661.326	97.81
661.53	95.81
661.733	93.81
661.936	77.81
662.14	76.81
662.343	77.81
662.546	86.81
662.75	79.81
662.953	87.81
663.156	93.81
663.36	86.81
663.563	66.81
663.766	90.81
663.969	86.81
664.173	64.81
664.376	75.81
664.579	96.81
664.782	72.81
664.985	84.81
665.188	87.81
665.391	98.81
665.594	86.81
665.797	94.81
666	82.81
666.203	83.81
666.406	86.81
666.609	93.81
666.812	77.81
667.015	85.81
667.218	79.81
667.421	90.81
667.624	71.81
667.827	80.81
668.03	73.81
668.232	70.81
668.435	76.81
668.638	75.81
668.841	78.81
669.043	62.81
669.246	74.81
669.449	76.81
669.651	86.81
669.854	92.81
670.057	96.81
670.259	91.81
670.462	99.81
670.665	81.81
670.867	76.81
671.07	73.81
671.272	86.81
671.475	90.81
671.677	88.81
671.88	88.81
672.082	82.81
672.284	82.81
672.487	62.81
672.689	80.81
672.892	84.81
