Data from 1978.PennyLincolnUp.Lamp.En5.5.200Scan.071719.P1_HRD10591_16-11-38-865.txt Node
Date: Thu Jul 18 16:11:38 EDT 2019
User: cochatt
Spectrometer: HR+D1059
Trigger mode: 1
Integration Time (sec): 1.000000E-1
Scans to average: 1
Electric dark correction enabled: true
Nonlinearity correction enabled: false
Boxcar width: 0
XAxis mode: Wavelengths
Number of Pixels in Spectrum: 2048
>>>>>Begin Spectral Data<<<<<
223.165	-15.94
223.4	-15.94
223.635	-15.94
223.869	-28.94
224.104	-11.94
224.338	-21.94
224.573	-22.94
224.808	-6.94
225.042	-2.94
225.277	-2.94
225.511	-15.94
225.746	5.06
225.98	9.06
226.215	12.06
226.449	17.06
226.683	21.06
226.918	35.06
227.152	31.06
227.387	58.06
227.621	42.06
227.856	46.06
228.09	41.06
228.324	53.06
228.559	71.06
228.793	58.06
229.027	76.06
229.262	78.06
229.496	75.06
229.73	102.06
229.964	122.06
230.199	112.06
230.433	95.06
230.667	105.06
230.901	91.06
231.136	106.06
231.37	102.06
231.604	98.06
231.838	107.06
232.072	99.06
232.306	102.06
232.541	117.06
232.775	108.06
233.009	93.06
233.243	97.06
233.477	97.06
233.711	120.06
233.945	111.06
234.179	109.06
234.413	109.06
234.647	113.06
234.881	109.06
235.115	115.06
235.349	99.06
235.583	100.06
235.817	106.06
236.051	117.06
236.285	101.06
236.519	102.06
236.753	108.06
236.987	120.06
237.221	134.06
237.455	165.06
237.689	131.06
237.922	120.06
238.156	107.06
238.39	112.06
238.624	128.06
238.858	113.06
239.091	116.06
239.325	108.06
239.559	112.06
239.793	126.06
240.027	126.06
240.26	120.06
240.494	125.06
240.728	118.06
240.961	106.06
241.195	110.06
241.429	105.06
241.662	119.06
241.896	126.06
242.13	107.06
242.363	115.06
242.597	118.06
242.83	117.06
243.064	109.06
243.298	122.06
243.531	123.06
243.765	123.06
243.998	125.06
244.232	121.06
244.465	125.06
244.699	121.06
244.932	118.06
245.166	123.06
245.399	113.06
245.633	130.06
245.866	129.06
246.099	138.06
246.333	114.06
246.566	124.06
246.8	128.06
247.033	140.06
247.266	139.06
247.5	132.06
247.733	146.06
247.966	131.06
248.2	147.06
248.433	140.06
248.666	141.06
248.899	143.06
249.133	159.06
249.366	153.06
249.599	141.06
249.832	144.06
250.066	149.06
250.299	149.06
250.532	159.06
250.765	167.06
250.998	169.06
251.231	153.06
251.465	158.06
251.698	151.06
251.931	170.06
252.164	149.06
252.397	154.06
252.63	155.06
252.863	165.06
253.096	160.06
253.329	160.06
253.562	158.06
253.795	167.06
254.028	154.06
254.261	151.06
254.494	178.06
254.727	182.06
254.96	174.06
255.193	190.06
255.426	165.06
255.659	169.06
255.892	172.06
256.124	179.06
256.357	171.06
256.59	158.06
256.823	160.06
257.056	180.06
257.289	161.06
257.521	165.06
257.754	176.06
257.987	169.06
258.22	166.06
258.452	183.06
258.685	157.06
258.918	167.06
259.151	178.06
259.383	165.06
259.616	176.06
259.849	183.06
260.081	175.06
260.314	171.06
260.547	200.06
260.779	171.06
261.012	191.06
261.244	188.06
261.477	183.06
261.71	185.06
261.942	196.06
262.175	180.06
262.407	176.06
262.64	171.06
262.872	168.06
263.105	175.06
263.337	173.06
263.57	187.06
263.802	166.06
264.035	176.06
264.267	189.06
264.499	171.06
264.732	203.06
264.964	166.06
265.197	176.06
265.429	183.06
265.661	184.06
265.894	176.06
266.126	186.06
266.358	191.06
266.591	176.06
266.823	195.06
267.055	178.06
267.287	182.06
267.52	175.06
267.752	192.06
267.984	183.06
268.216	170.06
268.448	181.06
268.681	188.06
268.913	180.06
269.145	206.06
269.377	195.06
269.609	194.06
269.841	192.06
270.073	194.06
270.306	211.06
270.538	209.06
270.77	212.06
271.002	210.06
271.234	214.06
271.466	213.06
271.698	219.06
271.93	221.06
272.162	203.06
272.394	220.06
272.626	214.06
272.858	215.06
273.09	227.06
273.322	201.06
273.553	195.06
273.785	195.06
274.017	201.06
274.249	202.06
274.481	201.06
274.713	205.06
274.945	196.06
275.176	210.06
275.408	212.06
275.64	195.06
275.872	196.06
276.104	193.06
276.335	216.06
276.567	212.06
276.799	215.06
277.031	224.06
277.262	207.06
277.494	243.06
277.726	223.06
277.957	214.06
278.189	220.06
278.421	210.06
278.652	206.06
278.884	212.06
279.115	215.06
279.347	222.06
279.579	219.06
279.81	219.06
280.042	212.06
280.273	219.06
280.505	214.06
280.736	219.06
280.968	223.06
281.199	201.06
281.431	211.06
281.662	207.06
281.894	198.06
282.125	225.06
282.356	238.06
282.588	235.06
282.819	232.06
283.051	209.06
283.282	236.06
283.513	233.06
283.745	232.06
283.976	221.06
284.207	231.06
284.439	217.06
284.67	231.06
284.901	228.06
285.132	228.06
285.364	214.06
285.595	223.06
285.826	216.06
286.057	243.06
286.288	222.06
286.52	222.06
286.751	232.06
286.982	222.06
287.213	239.06
287.444	240.06
287.675	237.06
287.906	234.06
288.138	234.06
288.369	243.06
288.6	246.06
288.831	231.06
289.062	226.06
289.293	212.06
289.524	225.06
289.755	241.06
289.986	229.06
290.217	233.06
290.448	232.06
290.679	233.06
290.91	240.06
291.141	239.06
291.371	227.06
291.602	223.06
291.833	237.06
292.064	232.06
292.295	250.06
292.526	245.06
292.757	247.06
292.987	220.06
293.218	226.06
293.449	254.06
293.68	259.06
293.91	236.06
294.141	217.06
294.372	238.06
294.603	239.06
294.833	242.06
295.064	247.06
295.295	240.06
295.525	239.06
295.756	228.06
295.987	236.06
296.217	241.06
296.448	259.06
296.679	257.06
296.909	231.06
297.14	253.06
297.37	248.06
297.601	259.06
297.831	236.06
298.062	251.06
298.292	235.06
298.523	255.06
298.753	247.06
298.984	256.06
299.214	244.06
299.445	243.06
299.675	253.06
299.905	260.06
300.136	253.06
300.366	260.06
300.597	255.06
300.827	243.06
301.057	259.06
301.288	262.06
301.518	262.06
301.748	260.06
301.979	260.06
302.209	262.06
302.439	237.06
302.669	263.06
302.9	267.06
303.13	269.06
303.36	261.06
303.59	273.06
303.82	272.06
304.051	272.06
304.281	287.06
304.511	265.06
304.741	270.06
304.971	265.06
305.201	254.06
305.431	258.06
305.661	267.06
305.891	255.06
306.121	282.06
306.352	245.06
306.582	274.06
306.812	277.06
307.042	277.06
307.272	262.06
307.502	271.06
307.731	275.06
307.961	267.06
308.191	276.06
308.421	261.06
308.651	268.06
308.881	278.06
309.111	280.06
309.341	282.06
309.571	263.06
309.8	275.06
310.03	285.06
310.26	282.06
310.49	283.06
310.72	283.06
310.949	281.06
311.179	302.06
311.409	281.06
311.639	275.06
311.868	280.06
312.098	291.06
312.328	294.06
312.557	296.06
312.787	296.06
313.017	301.06
313.246	288.06
313.476	289.06
313.706	277.06
313.935	277.06
314.165	314.06
314.394	293.06
314.624	309.06
314.853	318.06
315.083	299.06
315.312	295.06
315.542	280.06
315.771	280.06
316.001	307.06
316.23	309.06
316.46	288.06
316.689	318.06
316.919	296.06
317.148	308.06
317.377	301.06
317.607	301.06
317.836	300.06
318.065	294.06
318.295	303.06
318.524	271.06
318.753	303.06
318.983	309.06
319.212	327.06
319.441	304.06
319.67	290.06
319.9	299.06
320.129	300.06
320.358	302.06
320.587	304.06
320.816	295.06
321.046	293.06
321.275	305.06
321.504	312.06
321.733	299.06
321.962	324.06
322.191	315.06
322.42	316.06
322.649	324.06
322.878	323.06
323.108	332.06
323.337	332.06
323.566	323.06
323.795	368.06
324.024	364.06
324.253	392.06
324.482	528.06
324.71	796.06
324.939	1108.06
325.168	1011.06
325.397	520.06
325.626	413.06
325.855	372.06
326.084	351.06
326.313	341.06
326.542	348.06
326.77	357.06
326.999	387.06
327.228	519.06
327.457	720.06
327.686	868.06
327.914	583.06
328.143	439.06
328.372	396.06
328.6	392.06
328.829	376.06
329.058	363.06
329.287	380.06
329.515	352.06
329.744	353.06
329.972	355.06
330.201	358.06
330.43	362.06
330.658	363.06
330.887	384.06
331.115	387.06
331.344	368.06
331.572	343.06
331.801	349.06
332.03	366.06
332.258	375.06
332.486	358.06
332.715	336.06
332.943	346.06
333.172	354.06
333.4	352.06
333.629	363.06
333.857	379.06
334.085	377.06
334.314	362.06
334.542	389.06
334.771	392.06
334.999	367.06
335.227	361.06
335.455	367.06
335.684	368.06
335.912	374.06
336.14	357.06
336.369	359.06
336.597	379.06
336.825	375.06
337.053	358.06
337.281	355.06
337.51	349.06
337.738	354.06
337.966	358.06
338.194	371.06
338.422	354.06
338.65	355.06
338.878	349.06
339.106	328.06
339.334	344.06
339.562	348.06
339.79	366.06
340.018	348.06
340.246	338.06
340.474	347.06
340.702	342.06
340.93	360.06
341.158	339.06
341.386	327.06
341.614	330.06
341.842	350.06
342.07	350.06
342.298	343.06
342.526	333.06
342.754	329.06
342.981	363.06
343.209	345.06
343.437	357.06
343.665	363.06
343.893	380.06
344.12	389.06
344.348	375.06
344.576	342.06
344.804	353.06
345.031	368.06
345.259	351.06
345.487	331.06
345.714	349.06
345.942	343.06
346.17	339.06
346.397	328.06
346.625	340.06
346.853	340.06
347.08	345.06
347.308	344.06
347.535	340.06
347.763	335.06
347.99	327.06
348.218	350.06
348.445	344.06
348.673	340.06
348.9	321.06
349.128	327.06
349.355	351.06
349.583	331.06
349.81	332.06
350.037	333.06
350.265	342.06
350.492	333.06
350.72	339.06
350.947	326.06
351.174	350.06
351.402	337.06
351.629	329.06
351.856	335.06
352.083	331.06
352.311	335.06
352.538	329.06
352.765	319.06
352.992	340.06
353.22	343.06
353.447	317.06
353.674	342.06
353.901	308.06
354.128	337.06
354.355	318.06
354.583	330.06
354.81	329.06
355.037	316.06
355.264	318.06
355.491	315.06
355.718	329.06
355.945	317.06
356.172	332.06
356.399	336.06
356.626	312.06
356.853	332.06
357.08	327.06
357.307	327.06
357.534	324.06
357.761	347.06
357.988	322.06
358.215	348.06
358.441	326.06
358.668	313.06
358.895	319.06
359.122	325.06
359.349	338.06
359.576	332.06
359.802	347.06
360.029	348.06
360.256	343.06
360.483	365.06
360.709	329.06
360.936	347.06
361.163	349.06
361.39	340.06
361.616	331.06
361.843	339.06
362.07	337.06
362.296	339.06
362.523	347.06
362.749	345.06
362.976	325.06
363.203	343.06
363.429	335.06
363.656	348.06
363.882	337.06
364.109	330.06
364.335	333.06
364.562	345.06
364.788	335.06
365.015	344.06
365.241	325.06
365.468	332.06
365.694	328.06
365.92	347.06
366.147	332.06
366.373	327.06
366.599	335.06
366.826	340.06
367.052	332.06
367.278	350.06
367.505	334.06
367.731	340.06
367.957	329.06
368.184	325.06
368.41	360.06
368.636	345.06
368.862	343.06
369.089	334.06
369.315	331.06
369.541	319.06
369.767	357.06
369.993	341.06
370.219	350.06
370.445	346.06
370.672	359.06
370.898	341.06
371.124	357.06
371.35	359.06
371.576	351.06
371.802	341.06
372.028	358.06
372.254	324.06
372.48	347.06
372.706	363.06
372.932	359.06
373.158	357.06
373.384	363.06
373.61	353.06
373.835	366.06
374.061	346.06
374.287	353.06
374.513	367.06
374.739	372.06
374.965	352.06
375.191	375.06
375.416	356.06
375.642	364.06
375.868	360.06
376.094	357.06
376.319	364.06
376.545	355.06
376.771	353.06
376.997	330.06
377.222	344.06
377.448	352.06
377.674	348.06
377.899	345.06
378.125	348.06
378.35	337.06
378.576	353.06
378.802	343.06
379.027	362.06
379.253	346.06
379.478	338.06
379.704	351.06
379.929	325.06
380.155	373.06
380.38	348.06
380.606	364.06
380.831	354.06
381.057	362.06
381.282	346.06
381.507	363.06
381.733	369.06
381.958	347.06
382.184	355.06
382.409	368.06
382.634	367.06
382.86	357.06
383.085	367.06
383.31	375.06
383.535	363.06
383.761	376.06
383.986	382.06
384.211	372.06
384.436	367.06
384.662	379.06
384.887	385.06
385.112	376.06
385.337	395.06
385.562	389.06
385.787	391.06
386.013	392.06
386.238	401.06
386.463	409.06
386.688	402.06
386.913	390.06
387.138	392.06
387.363	385.06
387.588	412.06
387.813	412.06
388.038	417.06
388.263	396.06
388.488	405.06
388.713	388.06
388.938	377.06
389.163	395.06
389.387	401.06
389.612	393.06
389.837	404.06
390.062	397.06
390.287	394.06
390.512	389.06
390.736	389.06
390.961	403.06
391.186	391.06
391.411	405.06
391.636	416.06
391.86	382.06
392.085	413.06
392.31	392.06
392.534	412.06
392.759	413.06
392.984	402.06
393.208	414.06
393.433	416.06
393.658	428.06
393.882	399.06
394.107	385.06
394.331	413.06
394.556	400.06
394.78	420.06
395.005	412.06
395.229	418.06
395.454	409.06
395.678	421.06
395.903	433.06
396.127	470.06
396.352	428.06
396.576	437.06
396.801	436.06
397.025	439.06
397.249	418.06
397.474	430.06
397.698	438.06
397.922	450.06
398.147	458.06
398.371	460.06
398.595	455.06
398.82	449.06
399.044	473.06
399.268	475.06
399.492	487.06
399.717	508.06
399.941	558.06
400.165	546.06
400.389	557.06
400.613	512.06
400.837	488.06
401.062	474.06
401.286	458.06
401.51	464.06
401.734	453.06
401.958	476.06
402.182	448.06
402.406	443.06
402.63	482.06
402.854	477.06
403.078	470.06
403.302	479.06
403.526	451.06
403.75	456.06
403.974	477.06
404.198	473.06
404.422	478.06
404.645	462.06
404.869	467.06
405.093	494.06
405.317	530.06
405.541	551.06
405.765	512.06
405.988	476.06
406.212	508.06
406.436	494.06
406.66	494.06
406.883	486.06
407.107	503.06
407.331	574.06
407.555	603.06
407.778	600.06
408.002	553.06
408.226	525.06
408.449	517.06
408.673	507.06
408.896	513.06
409.12	554.06
409.344	518.06
409.567	508.06
409.791	484.06
410.014	485.06
410.238	487.06
410.461	482.06
410.685	479.06
410.908	499.06
411.132	508.06
411.355	541.06
411.578	524.06
411.802	486.06
412.025	455.06
412.249	500.06
412.472	478.06
412.695	521.06
412.919	483.06
413.142	465.06
413.365	481.06
413.589	482.06
413.812	462.06
414.035	452.06
414.258	475.06
414.482	474.06
414.705	439.06
414.928	455.06
415.151	443.06
415.374	459.06
415.597	469.06
415.821	444.06
416.044	445.06
416.267	461.06
416.49	436.06
416.713	445.06
416.936	438.06
417.159	437.06
417.382	451.06
417.605	454.06
417.828	472.06
418.051	448.06
418.274	443.06
418.497	447.06
418.72	463.06
418.943	435.06
419.166	453.06
419.389	481.06
419.611	471.06
419.834	459.06
420.057	458.06
420.28	438.06
420.503	463.06
420.726	455.06
420.948	453.06
421.171	494.06
421.394	498.06
421.617	476.06
421.839	461.06
422.062	490.06
422.285	474.06
422.507	500.06
422.73	555.06
422.953	528.06
423.175	480.06
423.398	477.06
423.621	469.06
423.843	483.06
424.066	470.06
424.288	501.06
424.511	480.06
424.733	522.06
424.956	576.06
425.178	541.06
425.401	549.06
425.623	567.06
425.846	513.06
426.068	488.06
426.291	483.06
426.513	464.06
426.735	481.06
426.958	503.06
427.18	571.06
427.402	663.06
427.625	719.06
427.847	592.06
428.069	523.06
428.292	499.06
428.514	473.06
428.736	459.06
428.958	455.06
429.181	445.06
429.403	447.06
429.625	458.06
429.847	453.06
430.069	506.06
430.292	504.06
430.514	460.06
430.736	447.06
430.958	457.06
431.18	437.06
431.402	442.06
431.624	438.06
431.846	428.06
432.068	432.06
432.29	430.06
432.512	422.06
432.734	443.06
432.956	420.06
433.178	431.06
433.4	465.06
433.622	467.06
433.844	452.06
434.066	429.06
434.287	451.06
434.509	441.06
434.731	468.06
434.953	452.06
435.175	473.06
435.397	477.06
435.618	478.06
435.84	523.06
436.062	567.06
436.284	593.06
436.505	533.06
436.727	495.06
436.949	468.06
437.17	449.06
437.392	463.06
437.614	446.06
437.835	466.06
438.057	543.06
438.278	592.06
438.5	575.06
438.721	660.06
438.943	619.06
439.165	517.06
439.386	482.06
439.608	456.06
439.829	479.06
440.05	496.06
440.272	500.06
440.493	486.06
440.715	443.06
440.936	476.06
441.158	460.06
441.379	450.06
441.6	443.06
441.822	471.06
442.043	482.06
442.264	549.06
442.486	578.06
442.707	527.06
442.928	486.06
443.149	486.06
443.371	500.06
443.592	531.06
443.813	575.06
444.034	633.06
444.255	555.06
444.476	507.06
444.698	479.06
444.919	494.06
445.14	581.06
445.361	560.06
445.582	504.06
445.803	552.06
446.024	584.06
446.245	591.06
446.466	529.06
446.687	483.06
446.908	464.06
447.129	457.06
447.35	448.06
447.571	425.06
447.792	419.06
448.013	455.06
448.234	444.06
448.455	489.06
448.675	560.06
448.896	645.06
449.117	529.06
449.338	513.06
449.559	594.06
449.779	713.06
450	571.06
450.221	459.06
450.442	461.06
450.662	420.06
450.883	422.06
451.104	436.06
451.324	412.06
451.545	396.06
451.766	421.06
451.986	399.06
452.207	401.06
452.428	405.06
452.648	401.06
452.869	397.06
453.089	400.06
453.31	429.06
453.53	408.06
453.751	404.06
453.971	408.06
454.192	420.06
454.412	412.06
454.633	408.06
454.853	404.06
455.073	415.06
455.294	414.06
455.514	438.06
455.734	428.06
455.955	410.06
456.175	395.06
456.395	404.06
456.616	389.06
456.836	392.06
457.056	390.06
457.276	396.06
457.497	384.06
457.717	399.06
457.937	389.06
458.157	395.06
458.377	415.06
458.598	424.06
458.818	446.06
459.038	485.06
459.258	481.06
459.478	465.06
459.698	445.06
459.918	459.06
460.138	451.06
460.358	449.06
460.578	463.06
460.798	458.06
461.018	462.06
461.238	460.06
461.458	452.06
461.678	481.06
461.898	471.06
462.118	479.06
462.338	499.06
462.558	499.06
462.777	486.06
462.997	528.06
463.217	530.06
463.437	534.06
463.657	507.06
463.876	516.06
464.096	496.06
464.316	516.06
464.536	503.06
464.755	516.06
464.975	482.06
465.195	512.06
465.414	487.06
465.634	481.06
465.854	460.06
466.073	442.06
466.293	442.06
466.512	441.06
466.732	436.06
466.951	425.06
467.171	446.06
467.391	450.06
467.61	447.06
467.829	434.06
468.049	432.06
468.268	420.06
468.488	410.06
468.707	427.06
468.927	437.06
469.146	411.06
469.365	436.06
469.585	434.06
469.804	408.06
470.023	432.06
470.243	420.06
470.462	428.06
470.681	432.06
470.901	469.06
471.12	467.06
471.339	440.06
471.558	433.06
471.777	425.06
471.997	421.06
472.216	440.06
472.435	446.06
472.654	437.06
472.873	424.06
473.092	449.06
473.311	438.06
473.53	429.06
473.749	445.06
473.968	454.06
474.187	522.06
474.406	502.06
474.625	468.06
474.844	453.06
475.063	438.06
475.282	437.06
475.501	429.06
475.72	461.06
475.939	460.06
476.158	446.06
476.377	460.06
476.596	440.06
476.814	444.06
477.033	455.06
477.252	481.06
477.471	460.06
477.69	483.06
477.908	485.06
478.127	492.06
478.346	484.06
478.564	487.06
478.783	485.06
479.002	496.06
479.22	492.06
479.439	504.06
479.658	513.06
479.876	508.06
480.095	539.06
480.313	538.06
480.532	547.06
480.751	523.06
480.969	522.06
481.188	528.06
481.406	552.06
481.624	532.06
481.843	515.06
482.061	495.06
482.28	514.06
482.498	511.06
482.717	520.06
482.935	517.06
483.153	522.06
483.372	507.06
483.59	517.06
483.808	503.06
484.027	511.06
484.245	521.06
484.463	521.06
484.681	518.06
484.9	524.06
485.118	537.06
485.336	506.06
485.554	524.06
485.772	516.06
485.99	534.06
486.209	544.06
486.427	500.06
486.645	521.06
486.863	533.06
487.081	546.06
487.299	552.06
487.517	540.06
487.735	538.06
487.953	547.06
488.171	545.06
488.389	531.06
488.607	555.06
488.825	537.06
489.043	533.06
489.261	545.06
489.479	555.06
489.696	538.06
489.914	549.06
490.132	548.06
490.35	537.06
490.568	569.06
490.786	575.06
491.003	565.06
491.221	572.06
491.439	557.06
491.657	562.06
491.874	567.06
492.092	578.06
492.31	581.06
492.527	557.06
492.745	574.06
492.963	599.06
493.18	589.06
493.398	611.06
493.615	586.06
493.833	590.06
494.05	602.06
494.268	612.06
494.485	599.06
494.703	604.06
494.92	608.06
495.138	602.06
495.355	607.06
495.573	613.06
495.79	599.06
496.008	621.06
496.225	617.06
496.442	608.06
496.66	628.06
496.877	613.06
497.094	651.06
497.312	663.06
497.529	660.06
497.746	663.06
497.963	652.06
498.181	671.06
498.398	697.06
498.615	706.06
498.832	741.06
499.049	740.06
499.267	785.06
499.484	799.06
499.701	836.06
499.918	836.06
500.135	881.06
500.352	965.06
500.569	976.06
500.786	965.06
501.003	941.06
501.22	915.06
501.437	865.06
501.654	865.06
501.871	834.06
502.088	789.06
502.305	746.06
502.522	747.06
502.739	732.06
502.956	709.06
503.172	697.06
503.389	681.06
503.606	657.06
503.823	647.06
504.04	680.06
504.256	666.06
504.473	652.06
504.69	636.06
504.907	640.06
505.123	632.06
505.34	608.06
505.557	631.06
505.773	618.06
505.99	591.06
506.207	589.06
506.423	589.06
506.64	589.06
506.856	579.06
507.073	579.06
507.289	586.06
507.506	561.06
507.722	569.06
507.939	583.06
508.155	543.06
508.372	552.06
508.588	547.06
508.805	541.06
509.021	529.06
509.238	538.06
509.454	554.06
509.67	556.06
509.887	549.06
510.103	528.06
510.319	534.06
510.536	549.06
510.752	698.06
510.968	651.06
511.184	527.06
511.401	527.06
511.617	525.06
511.833	539.06
512.049	542.06
512.265	498.06
512.481	518.06
512.698	524.06
512.914	492.06
513.13	524.06
513.346	515.06
513.562	528.06
513.778	527.06
513.994	517.06
514.21	527.06
514.426	548.06
514.642	556.06
514.858	549.06
515.074	571.06
515.29	616.06
515.506	703.06
515.721	650.06
515.937	576.06
516.153	563.06
516.369	555.06
516.585	549.06
516.801	544.06
517.016	539.06
517.232	569.06
517.448	577.06
517.664	558.06
517.879	571.06
518.095	567.06
518.311	566.06
518.527	551.06
518.742	548.06
518.958	565.06
519.173	539.06
519.389	526.06
519.605	563.06
519.82	536.06
520.036	546.06
520.251	539.06
520.467	547.06
520.682	521.06
520.898	543.06
521.113	556.06
521.329	560.06
521.544	578.06
521.76	632.06
521.975	821.06
522.19	797.06
522.406	592.06
522.621	543.06
522.836	528.06
523.052	530.06
523.267	495.06
523.482	487.06
523.698	483.06
523.913	501.06
524.128	495.06
524.343	499.06
524.559	494.06
524.774	488.06
524.989	483.06
525.204	487.06
525.419	473.06
525.634	459.06
525.849	442.06
526.064	475.06
526.28	456.06
526.495	452.06
526.71	461.06
526.925	473.06
527.14	468.06
527.355	472.06
527.57	449.06
527.785	471.06
527.999	449.06
528.214	456.06
528.429	482.06
528.644	479.06
528.859	475.06
529.074	463.06
529.289	461.06
529.503	491.06
529.718	484.06
529.933	473.06
530.148	478.06
530.363	442.06
530.577	461.06
530.792	475.06
531.007	455.06
531.221	463.06
531.436	449.06
531.651	453.06
531.865	448.06
532.08	440.06
532.295	461.06
532.509	447.06
532.724	432.06
532.938	469.06
533.153	452.06
533.367	451.06
533.582	451.06
533.796	442.06
534.011	457.06
534.225	443.06
534.44	451.06
534.654	440.06
534.868	455.06
535.083	454.06
535.297	445.06
535.511	442.06
535.726	455.06
535.94	456.06
536.154	423.06
536.369	444.06
536.583	444.06
536.797	443.06
537.011	440.06
537.225	437.06
537.44	427.06
537.654	421.06
537.868	435.06
538.082	426.06
538.296	422.06
538.51	439.06
538.724	435.06
538.938	427.06
539.153	421.06
539.367	424.06
539.581	432.06
539.795	427.06
540.009	402.06
540.222	445.06
540.436	432.06
540.65	411.06
540.864	436.06
541.078	398.06
541.292	421.06
541.506	426.06
541.72	436.06
541.934	437.06
542.147	431.06
542.361	432.06
542.575	435.06
542.789	426.06
543.002	420.06
543.216	437.06
543.43	436.06
543.644	452.06
543.857	416.06
544.071	426.06
544.285	448.06
544.498	407.06
544.712	433.06
544.925	421.06
545.139	424.06
545.352	414.06
545.566	427.06
545.779	430.06
545.993	443.06
546.206	429.06
546.42	443.06
546.633	419.06
546.847	413.06
547.06	435.06
547.274	409.06
547.487	417.06
547.7	397.06
547.914	448.06
548.127	425.06
548.34	422.06
548.554	425.06
548.767	416.06
548.98	416.06
549.193	416.06
549.407	436.06
549.62	424.06
549.833	405.06
550.046	408.06
550.259	430.06
550.473	431.06
550.686	414.06
550.899	429.06
551.112	427.06
551.325	408.06
551.538	425.06
551.751	400.06
551.964	437.06
552.177	412.06
552.39	416.06
552.603	433.06
552.816	426.06
553.029	418.06
553.242	436.06
553.455	444.06
553.667	453.06
553.88	429.06
554.093	433.06
554.306	417.06
554.519	411.06
554.732	432.06
554.944	414.06
555.157	432.06
555.37	416.06
555.583	422.06
555.795	401.06
556.008	393.06
556.221	388.06
556.433	394.06
556.646	379.06
556.859	371.06
557.071	382.06
557.284	385.06
557.496	393.06
557.709	389.06
557.921	371.06
558.134	384.06
558.346	376.06
558.559	390.06
558.771	395.06
558.984	385.06
559.196	384.06
559.409	384.06
559.621	390.06
559.833	385.06
560.046	381.06
560.258	396.06
560.47	378.06
560.683	389.06
560.895	372.06
561.107	386.06
561.32	390.06
561.532	364.06
561.744	379.06
561.956	377.06
562.168	390.06
562.381	372.06
562.593	380.06
562.805	387.06
563.017	379.06
563.229	377.06
563.441	379.06
563.653	393.06
563.865	400.06
564.077	399.06
564.289	372.06
564.501	410.06
564.713	413.06
564.925	399.06
565.137	411.06
565.349	418.06
565.561	401.06
565.773	425.06
565.985	455.06
566.197	432.06
566.408	458.06
566.62	454.06
566.832	473.06
567.044	468.06
567.255	501.06
567.467	475.06
567.679	511.06
567.891	500.06
568.102	503.06
568.314	495.06
568.526	475.06
568.737	482.06
568.949	449.06
569.161	435.06
569.372	435.06
569.584	421.06
569.795	422.06
570.007	408.06
570.218	408.06
570.43	400.06
570.641	397.06
570.853	364.06
571.064	410.06
571.276	371.06
571.487	383.06
571.698	371.06
571.91	360.06
572.121	362.06
572.333	359.06
572.544	358.06
572.755	342.06
572.966	353.06
573.178	365.06
573.389	365.06
573.6	348.06
573.811	361.06
574.023	337.06
574.234	343.06
574.445	366.06
574.656	332.06
574.867	335.06
575.078	353.06
575.289	338.06
575.501	338.06
575.712	330.06
575.923	329.06
576.134	337.06
576.345	317.06
576.556	334.06
576.767	320.06
576.978	337.06
577.188	342.06
577.399	328.06
577.61	320.06
577.821	328.06
578.032	301.06
578.243	329.06
578.454	393.06
578.665	364.06
578.875	317.06
579.086	325.06
579.297	348.06
579.508	315.06
579.718	326.06
579.929	332.06
580.14	309.06
580.35	318.06
580.561	321.06
580.772	324.06
580.982	302.06
581.193	313.06
581.403	303.06
581.614	319.06
581.825	317.06
582.035	311.06
582.246	315.06
582.456	311.06
582.667	300.06
582.877	299.06
583.087	300.06
583.298	316.06
583.508	323.06
583.719	296.06
583.929	311.06
584.139	291.06
584.35	297.06
584.56	309.06
584.77	323.06
584.981	325.06
585.191	300.06
585.401	283.06
585.611	287.06
585.821	301.06
586.032	287.06
586.242	293.06
586.452	292.06
586.662	306.06
586.872	300.06
587.082	292.06
587.292	290.06
587.502	308.06
587.713	305.06
587.923	310.06
588.133	310.06
588.343	291.06
588.553	300.06
588.762	304.06
588.972	294.06
589.182	286.06
589.392	293.06
589.602	296.06
589.812	315.06
590.022	324.06
590.232	297.06
590.441	294.06
590.651	303.06
590.861	281.06
591.071	289.06
591.281	303.06
591.49	304.06
591.7	315.06
591.91	307.06
592.119	320.06
592.329	316.06
592.539	326.06
592.748	316.06
592.958	335.06
593.167	317.06
593.377	310.06
593.587	334.06
593.796	344.06
594.006	321.06
594.215	314.06
594.424	321.06
594.634	319.06
594.843	328.06
595.053	323.06
595.262	310.06
595.472	296.06
595.681	293.06
595.89	297.06
596.1	307.06
596.309	282.06
596.518	279.06
596.727	273.06
596.937	275.06
597.146	281.06
597.355	295.06
597.564	289.06
597.774	268.06
597.983	278.06
598.192	273.06
598.401	284.06
598.61	272.06
598.819	267.06
599.028	276.06
599.237	285.06
599.446	248.06
599.655	268.06
599.864	261.06
600.073	246.06
600.282	278.06
600.491	279.06
600.7	264.06
600.909	259.06
601.118	271.06
601.327	255.06
601.536	251.06
601.745	241.06
601.953	262.06
602.162	249.06
602.371	267.06
602.58	247.06
602.789	243.06
602.997	247.06
603.206	261.06
603.415	266.06
603.623	263.06
603.832	257.06
604.041	219.06
604.249	245.06
604.458	253.06
604.666	248.06
604.875	252.06
605.084	250.06
605.292	260.06
605.501	244.06
605.709	248.06
605.918	259.06
606.126	272.06
606.334	247.06
606.543	272.06
606.751	258.06
606.96	242.06
607.168	244.06
607.376	249.06
607.585	241.06
607.793	248.06
608.001	239.06
608.21	246.06
608.418	253.06
608.626	239.06
608.834	242.06
609.043	247.06
609.251	247.06
609.459	247.06
609.667	244.06
609.875	234.06
610.083	240.06
610.291	259.06
610.499	238.06
610.707	250.06
610.916	251.06
611.124	264.06
611.332	252.06
611.54	279.06
611.748	260.06
611.955	240.06
612.163	240.06
612.371	218.06
612.579	248.06
612.787	239.06
612.995	240.06
613.203	220.06
613.411	245.06
613.618	251.06
613.826	229.06
614.034	253.06
614.242	247.06
614.449	231.06
614.657	235.06
614.865	246.06
615.072	255.06
615.28	257.06
615.488	231.06
615.695	235.06
615.903	223.06
616.111	239.06
616.318	236.06
616.526	236.06
616.733	229.06
616.941	220.06
617.148	247.06
617.356	238.06
617.563	238.06
617.771	251.06
617.978	231.06
618.185	235.06
618.393	236.06
618.6	249.06
618.807	226.06
619.015	232.06
619.222	235.06
619.429	235.06
619.637	242.06
619.844	228.06
620.051	238.06
620.258	233.06
620.466	210.06
620.673	231.06
620.88	220.06
621.087	212.06
621.294	215.06
621.501	228.06
621.708	224.06
621.915	236.06
622.122	212.06
622.329	229.06
622.536	234.06
622.743	209.06
622.95	217.06
623.157	223.06
623.364	236.06
623.571	224.06
623.778	217.06
623.985	225.06
624.192	228.06
624.399	208.06
624.606	215.06
624.812	215.06
625.019	215.06
625.226	199.06
625.433	228.06
625.639	206.06
625.846	210.06
626.053	216.06
626.259	228.06
626.466	218.06
626.673	200.06
626.879	194.06
627.086	216.06
627.293	206.06
627.499	213.06
627.706	199.06
627.912	207.06
628.119	198.06
628.325	203.06
628.532	203.06
628.738	202.06
628.945	191.06
629.151	206.06
629.357	191.06
629.564	205.06
629.77	201.06
629.976	183.06
630.183	196.06
630.389	189.06
630.595	193.06
630.802	183.06
631.008	198.06
631.214	191.06
631.42	189.06
631.627	197.06
631.833	197.06
632.039	203.06
632.245	179.06
632.451	200.06
632.657	191.06
632.863	179.06
633.069	195.06
633.275	187.06
633.481	196.06
633.688	177.06
633.893	167.06
634.099	187.06
634.305	183.06
634.511	186.06
634.717	186.06
634.923	200.06
635.129	182.06
635.335	189.06
635.541	202.06
635.747	194.06
635.952	191.06
636.158	189.06
636.364	181.06
636.57	193.06
636.775	189.06
636.981	181.06
637.187	176.06
637.392	188.06
637.598	186.06
637.804	194.06
638.009	182.06
638.215	181.06
638.421	179.06
638.626	183.06
638.832	166.06
639.037	184.06
639.243	179.06
639.448	182.06
639.654	181.06
639.859	175.06
640.065	197.06
640.27	175.06
640.475	182.06
640.681	175.06
640.886	160.06
641.091	170.06
641.297	165.06
641.502	180.06
641.707	193.06
641.913	177.06
642.118	176.06
642.323	185.06
642.528	174.06
642.733	177.06
642.939	173.06
643.144	181.06
643.349	173.06
643.554	167.06
643.759	184.06
643.964	172.06
644.169	161.06
644.374	164.06
644.579	159.06
644.784	147.06
644.989	161.06
645.194	183.06
645.399	166.06
645.604	177.06
645.809	176.06
646.014	159.06
646.219	176.06
646.423	157.06
646.628	166.06
646.833	167.06
647.038	166.06
647.243	173.06
647.447	168.06
647.652	176.06
647.857	174.06
648.062	176.06
648.266	161.06
648.471	166.06
648.676	197.06
648.88	167.06
649.085	164.06
649.289	177.06
649.494	151.06
649.698	181.06
649.903	184.06
650.107	163.06
650.312	159.06
650.516	163.06
650.721	166.06
650.925	152.06
651.13	159.06
651.334	167.06
651.539	161.06
651.743	148.06
651.947	157.06
652.152	153.06
652.356	163.06
652.56	138.06
652.764	151.06
652.969	153.06
653.173	151.06
653.377	151.06
653.581	156.06
653.785	134.06
653.99	147.06
654.194	147.06
654.398	160.06
654.602	134.06
654.806	138.06
655.01	139.06
655.214	152.06
655.418	150.06
655.622	140.06
655.826	135.06
656.03	132.06
656.234	149.06
656.438	142.06
656.642	145.06
656.846	133.06
657.049	125.06
657.253	105.06
657.457	129.06
657.661	127.06
657.865	121.06
658.068	125.06
658.272	115.06
658.476	119.06
658.68	113.06
658.883	99.06
659.087	112.06
659.291	106.06
659.494	104.06
659.698	86.06
659.901	83.06
660.105	73.06
660.309	98.06
660.512	91.06
660.716	96.06
660.919	98.06
661.123	111.06
661.326	99.06
661.53	97.06
661.733	96.06
661.936	89.06
662.14	92.06
662.343	105.06
662.546	93.06
662.75	88.06
662.953	81.06
663.156	84.06
663.36	88.06
663.563	94.06
663.766	92.06
663.969	92.06
664.173	77.06
664.376	91.06
664.579	92.06
664.782	85.06
664.985	75.06
665.188	80.06
665.391	81.06
665.594	85.06
665.797	99.06
666	92.06
666.203	76.06
666.406	88.06
666.609	84.06
666.812	99.06
667.015	85.06
667.218	84.06
667.421	79.06
667.624	69.06
667.827	85.06
668.03	88.06
668.232	88.06
668.435	77.06
668.638	76.06
668.841	86.06
669.043	89.06
669.246	77.06
669.449	80.06
669.651	96.06
669.854	96.06
670.057	89.06
670.259	83.06
670.462	91.06
670.665	76.06
670.867	87.06
671.07	96.06
671.272	87.06
671.475	97.06
671.677	93.06
671.88	81.06
672.082	88.06
672.284	77.06
672.487	85.06
672.689	85.06
672.892	87.06
