Data from 1978.PennyLincolnUp.Lamp.En5.5.200Scan.071719.P1_HRD10591_16-12-24-864.txt Node
Date: Thu Jul 18 16:12:24 EDT 2019
User: cochatt
Spectrometer: HR+D1059
Trigger mode: 1
Integration Time (sec): 1.000000E-1
Scans to average: 1
Electric dark correction enabled: true
Nonlinearity correction enabled: false
Boxcar width: 0
XAxis mode: Wavelengths
Number of Pixels in Spectrum: 2048
>>>>>Begin Spectral Data<<<<<
223.165	-21.12
223.4	-21.12
223.635	-21.12
223.869	-25.12
224.104	-23.12
224.338	-8.12
224.573	0.88
224.808	-4.12
225.042	-7.12
225.277	-14.12
225.511	-9.12
225.746	4.88
225.98	11.88
226.215	8.88
226.449	15.88
226.683	13.88
226.918	27.88
227.152	27.88
227.387	35.88
227.621	33.88
227.856	43.88
228.09	56.88
228.324	52.88
228.559	61.88
228.793	56.88
229.027	78.88
229.262	100.88
229.496	106.88
229.73	117.88
229.964	146.88
230.199	123.88
230.433	115.88
230.667	97.88
230.901	102.88
231.136	120.88
231.37	101.88
231.604	113.88
231.838	114.88
232.072	112.88
232.306	95.88
232.541	128.88
232.775	95.88
233.009	100.88
233.243	94.88
233.477	112.88
233.711	105.88
233.945	108.88
234.179	118.88
234.413	122.88
234.647	116.88
234.881	109.88
235.115	117.88
235.349	110.88
235.583	116.88
235.817	103.88
236.051	116.88
236.285	118.88
236.519	129.88
236.753	129.88
236.987	129.88
237.221	161.88
237.455	207.88
237.689	180.88
237.922	136.88
238.156	110.88
238.39	141.88
238.624	128.88
238.858	110.88
239.091	126.88
239.325	122.88
239.559	114.88
239.793	111.88
240.027	122.88
240.26	128.88
240.494	142.88
240.728	154.88
240.961	136.88
241.195	140.88
241.429	135.88
241.662	131.88
241.896	128.88
242.13	116.88
242.363	134.88
242.597	140.88
242.83	132.88
243.064	126.88
243.298	140.88
243.531	137.88
243.765	125.88
243.998	131.88
244.232	132.88
244.465	143.88
244.699	144.88
244.932	145.88
245.166	129.88
245.399	138.88
245.633	143.88
245.866	148.88
246.099	148.88
246.333	139.88
246.566	149.88
246.8	151.88
247.033	137.88
247.266	150.88
247.5	152.88
247.733	149.88
247.966	148.88
248.2	160.88
248.433	153.88
248.666	159.88
248.899	170.88
249.133	167.88
249.366	201.88
249.599	180.88
249.832	176.88
250.066	178.88
250.299	172.88
250.532	171.88
250.765	201.88
250.998	185.88
251.231	186.88
251.465	186.88
251.698	167.88
251.931	190.88
252.164	165.88
252.397	180.88
252.63	180.88
252.863	197.88
253.096	191.88
253.329	209.88
253.562	196.88
253.795	193.88
254.028	200.88
254.261	197.88
254.494	207.88
254.727	217.88
254.96	252.88
255.193	226.88
255.426	218.88
255.659	193.88
255.892	215.88
256.124	196.88
256.357	216.88
256.59	199.88
256.823	187.88
257.056	170.88
257.289	189.88
257.521	183.88
257.754	189.88
257.987	189.88
258.22	190.88
258.452	193.88
258.685	197.88
258.918	194.88
259.151	210.88
259.383	201.88
259.616	192.88
259.849	203.88
260.081	202.88
260.314	220.88
260.547	233.88
260.779	215.88
261.012	209.88
261.244	195.88
261.477	196.88
261.71	217.88
261.942	208.88
262.175	219.88
262.407	213.88
262.64	199.88
262.872	208.88
263.105	185.88
263.337	196.88
263.57	192.88
263.802	200.88
264.035	206.88
264.267	205.88
264.499	207.88
264.732	198.88
264.964	182.88
265.197	192.88
265.429	179.88
265.661	197.88
265.894	207.88
266.126	212.88
266.358	211.88
266.591	197.88
266.823	212.88
267.055	203.88
267.287	208.88
267.52	208.88
267.752	206.88
267.984	213.88
268.216	226.88
268.448	218.88
268.681	235.88
268.913	219.88
269.145	229.88
269.377	262.88
269.609	244.88
269.841	238.88
270.073	234.88
270.306	245.88
270.538	276.88
270.77	275.88
271.002	263.88
271.234	248.88
271.466	260.88
271.698	260.88
271.93	269.88
272.162	267.88
272.394	273.88
272.626	272.88
272.858	279.88
273.09	260.88
273.322	256.88
273.553	244.88
273.785	237.88
274.017	226.88
274.249	241.88
274.481	244.88
274.713	234.88
274.945	267.88
275.176	254.88
275.408	242.88
275.64	246.88
275.872	247.88
276.104	261.88
276.335	243.88
276.567	246.88
276.799	267.88
277.031	274.88
277.262	273.88
277.494	279.88
277.726	285.88
277.957	266.88
278.189	261.88
278.421	245.88
278.652	242.88
278.884	249.88
279.115	249.88
279.347	245.88
279.579	236.88
279.81	263.88
280.042	257.88
280.273	241.88
280.505	262.88
280.736	256.88
280.968	237.88
281.199	252.88
281.431	256.88
281.662	269.88
281.894	251.88
282.125	253.88
282.356	275.88
282.588	275.88
282.819	302.88
283.051	266.88
283.282	265.88
283.513	243.88
283.745	248.88
283.976	272.88
284.207	281.88
284.439	270.88
284.67	268.88
284.901	278.88
285.132	273.88
285.364	248.88
285.595	266.88
285.826	259.88
286.057	258.88
286.288	252.88
286.52	265.88
286.751	272.88
286.982	248.88
287.213	262.88
287.444	265.88
287.675	265.88
287.906	284.88
288.138	281.88
288.369	282.88
288.6	280.88
288.831	285.88
289.062	267.88
289.293	273.88
289.524	267.88
289.755	300.88
289.986	269.88
290.217	272.88
290.448	292.88
290.679	279.88
290.91	276.88
291.141	298.88
291.371	283.88
291.602	265.88
291.833	281.88
292.064	269.88
292.295	266.88
292.526	274.88
292.757	266.88
292.987	283.88
293.218	278.88
293.449	256.88
293.68	284.88
293.91	276.88
294.141	248.88
294.372	277.88
294.603	285.88
294.833	300.88
295.064	292.88
295.295	279.88
295.525	266.88
295.756	287.88
295.987	284.88
296.217	316.88
296.448	341.88
296.679	295.88
296.909	283.88
297.14	282.88
297.37	301.88
297.601	312.88
297.831	277.88
298.062	285.88
298.292	290.88
298.523	299.88
298.753	321.88
298.984	277.88
299.214	294.88
299.445	305.88
299.675	276.88
299.905	292.88
300.136	316.88
300.366	284.88
300.597	308.88
300.827	308.88
301.057	313.88
301.288	306.88
301.518	314.88
301.748	313.88
301.979	320.88
302.209	320.88
302.439	307.88
302.669	320.88
302.9	321.88
303.13	315.88
303.36	328.88
303.59	338.88
303.82	325.88
304.051	306.88
304.281	313.88
304.511	317.88
304.741	305.88
304.971	283.88
305.201	313.88
305.431	319.88
305.661	314.88
305.891	313.88
306.121	301.88
306.352	341.88
306.582	324.88
306.812	322.88
307.042	317.88
307.272	307.88
307.502	304.88
307.731	323.88
307.961	329.88
308.191	320.88
308.421	327.88
308.651	322.88
308.881	299.88
309.111	342.88
309.341	329.88
309.571	352.88
309.8	357.88
310.03	334.88
310.26	348.88
310.49	368.88
310.72	343.88
310.949	360.88
311.179	370.88
311.409	362.88
311.639	349.88
311.868	376.88
312.098	377.88
312.328	354.88
312.557	363.88
312.787	379.88
313.017	389.88
313.246	357.88
313.476	356.88
313.706	353.88
313.935	363.88
314.165	356.88
314.394	379.88
314.624	390.88
314.853	381.88
315.083	365.88
315.312	366.88
315.542	355.88
315.771	356.88
316.001	352.88
316.23	362.88
316.46	371.88
316.689	352.88
316.919	357.88
317.148	373.88
317.377	370.88
317.607	371.88
317.836	385.88
318.065	351.88
318.295	357.88
318.524	348.88
318.753	368.88
318.983	360.88
319.212	361.88
319.441	368.88
319.67	370.88
319.9	379.88
320.129	349.88
320.358	360.88
320.587	352.88
320.816	389.88
321.046	386.88
321.275	388.88
321.504	372.88
321.733	374.88
321.962	386.88
322.191	388.88
322.42	413.88
322.649	415.88
322.878	422.88
323.108	427.88
323.337	429.88
323.566	490.88
323.795	472.88
324.024	532.88
324.253	617.88
324.482	857.88
324.71	1382.88
324.939	2080.88
325.168	1789.88
325.397	900.88
325.626	613.88
325.855	479.88
326.084	462.88
326.313	484.88
326.542	448.88
326.77	517.88
326.999	609.88
327.228	792.88
327.457	1269.88
327.686	1566.88
327.914	1005.88
328.143	658.88
328.372	568.88
328.6	532.88
328.829	516.88
329.058	518.88
329.287	515.88
329.515	496.88
329.744	438.88
329.972	461.88
330.201	492.88
330.43	518.88
330.658	534.88
330.887	545.88
331.115	535.88
331.344	481.88
331.572	466.88
331.801	472.88
332.03	446.88
332.258	467.88
332.486	427.88
332.715	440.88
332.943	448.88
333.172	452.88
333.4	442.88
333.629	430.88
333.857	470.88
334.085	478.88
334.314	458.88
334.542	487.88
334.771	521.88
334.999	489.88
335.227	453.88
335.455	441.88
335.684	474.88
335.912	429.88
336.14	429.88
336.369	437.88
336.597	455.88
336.825	459.88
337.053	459.88
337.281	421.88
337.51	431.88
337.738	429.88
337.966	430.88
338.194	437.88
338.422	423.88
338.65	433.88
338.878	409.88
339.106	410.88
339.334	432.88
339.562	414.88
339.79	418.88
340.018	443.88
340.246	416.88
340.474	426.88
340.702	426.88
340.93	403.88
341.158	415.88
341.386	432.88
341.614	422.88
341.842	419.88
342.07	428.88
342.298	430.88
342.526	415.88
342.754	406.88
342.981	399.88
343.209	412.88
343.437	404.88
343.665	427.88
343.893	452.88
344.12	428.88
344.348	437.88
344.576	438.88
344.804	446.88
345.031	450.88
345.259	438.88
345.487	436.88
345.714	437.88
345.942	418.88
346.17	399.88
346.397	420.88
346.625	409.88
346.853	400.88
347.08	405.88
347.308	416.88
347.535	433.88
347.763	416.88
347.99	413.88
348.218	433.88
348.445	434.88
348.673	434.88
348.9	414.88
349.128	414.88
349.355	380.88
349.583	396.88
349.81	402.88
350.037	412.88
350.265	393.88
350.492	392.88
350.72	402.88
350.947	399.88
351.174	422.88
351.402	420.88
351.629	413.88
351.856	407.88
352.083	414.88
352.311	396.88
352.538	443.88
352.765	426.88
352.992	402.88
353.22	409.88
353.447	399.88
353.674	416.88
353.901	403.88
354.128	422.88
354.355	395.88
354.583	395.88
354.81	382.88
355.037	384.88
355.264	402.88
355.491	403.88
355.718	393.88
355.945	380.88
356.172	387.88
356.399	382.88
356.626	393.88
356.853	397.88
357.08	387.88
357.307	397.88
357.534	386.88
357.761	395.88
357.988	386.88
358.215	412.88
358.441	388.88
358.668	389.88
358.895	383.88
359.122	398.88
359.349	388.88
359.576	421.88
359.802	417.88
360.029	461.88
360.256	454.88
360.483	432.88
360.709	417.88
360.936	410.88
361.163	409.88
361.39	416.88
361.616	403.88
361.843	416.88
362.07	392.88
362.296	409.88
362.523	409.88
362.749	404.88
362.976	406.88
363.203	415.88
363.429	414.88
363.656	396.88
363.882	397.88
364.109	385.88
364.335	417.88
364.562	424.88
364.788	427.88
365.015	392.88
365.241	407.88
365.468	403.88
365.694	409.88
365.92	417.88
366.147	389.88
366.373	420.88
366.599	383.88
366.826	412.88
367.052	390.88
367.278	398.88
367.505	396.88
367.731	396.88
367.957	410.88
368.184	406.88
368.41	425.88
368.636	405.88
368.862	419.88
369.089	407.88
369.315	417.88
369.541	397.88
369.767	409.88
369.993	390.88
370.219	428.88
370.445	426.88
370.672	418.88
370.898	402.88
371.124	415.88
371.35	420.88
371.576	397.88
371.802	414.88
372.028	398.88
372.254	418.88
372.48	427.88
372.706	401.88
372.932	425.88
373.158	410.88
373.384	438.88
373.61	408.88
373.835	416.88
374.061	422.88
374.287	416.88
374.513	439.88
374.739	427.88
374.965	416.88
375.191	443.88
375.416	430.88
375.642	425.88
375.868	428.88
376.094	406.88
376.319	401.88
376.545	403.88
376.771	425.88
376.997	411.88
377.222	416.88
377.448	425.88
377.674	425.88
377.899	410.88
378.125	415.88
378.35	409.88
378.576	402.88
378.802	412.88
379.027	424.88
379.253	411.88
379.478	407.88
379.704	412.88
379.929	401.88
380.155	404.88
380.38	392.88
380.606	402.88
380.831	387.88
381.057	433.88
381.282	425.88
381.507	411.88
381.733	423.88
381.958	412.88
382.184	409.88
382.409	412.88
382.634	420.88
382.86	449.88
383.085	415.88
383.31	424.88
383.535	434.88
383.761	424.88
383.986	444.88
384.211	428.88
384.436	440.88
384.662	428.88
384.887	442.88
385.112	444.88
385.337	444.88
385.562	452.88
385.787	438.88
386.013	469.88
386.238	465.88
386.463	469.88
386.688	449.88
386.913	453.88
387.138	461.88
387.363	443.88
387.588	454.88
387.813	463.88
388.038	455.88
388.263	484.88
388.488	475.88
388.713	480.88
388.938	465.88
389.163	454.88
389.387	474.88
389.612	463.88
389.837	474.88
390.062	460.88
390.287	470.88
390.512	444.88
390.736	459.88
390.961	471.88
391.186	454.88
391.411	474.88
391.636	489.88
391.86	482.88
392.085	488.88
392.31	461.88
392.534	450.88
392.759	460.88
392.984	496.88
393.208	466.88
393.433	498.88
393.658	471.88
393.882	477.88
394.107	460.88
394.331	472.88
394.556	482.88
394.78	486.88
395.005	472.88
395.229	489.88
395.454	492.88
395.678	488.88
395.903	508.88
396.127	536.88
396.352	521.88
396.576	475.88
396.801	486.88
397.025	509.88
397.249	504.88
397.474	498.88
397.698	512.88
397.922	515.88
398.147	548.88
398.371	525.88
398.595	537.88
398.82	541.88
399.044	554.88
399.268	560.88
399.492	589.88
399.717	632.88
399.941	662.88
400.165	660.88
400.389	685.88
400.613	620.88
400.837	579.88
401.062	564.88
401.286	561.88
401.51	535.88
401.734	562.88
401.958	578.88
402.182	547.88
402.406	543.88
402.63	556.88
402.854	542.88
403.078	558.88
403.302	566.88
403.526	572.88
403.75	564.88
403.974	562.88
404.198	563.88
404.422	573.88
404.645	580.88
404.869	564.88
405.093	613.88
405.317	614.88
405.541	671.88
405.765	598.88
405.988	610.88
406.212	601.88
406.436	588.88
406.66	634.88
406.883	604.88
407.107	654.88
407.331	666.88
407.555	730.88
407.778	737.88
408.002	680.88
408.226	634.88
408.449	624.88
408.673	634.88
408.896	673.88
409.12	699.88
409.344	662.88
409.567	590.88
409.791	580.88
410.014	579.88
410.238	554.88
410.461	567.88
410.685	551.88
410.908	571.88
411.132	634.88
411.355	663.88
411.578	636.88
411.802	557.88
412.025	575.88
412.249	595.88
412.472	593.88
412.695	638.88
412.919	612.88
413.142	573.88
413.365	550.88
413.589	541.88
413.812	525.88
414.035	534.88
414.258	523.88
414.482	546.88
414.705	528.88
414.928	537.88
415.151	536.88
415.374	570.88
415.597	544.88
415.821	528.88
416.044	544.88
416.267	532.88
416.49	546.88
416.713	524.88
416.936	502.88
417.159	534.88
417.382	522.88
417.605	541.88
417.828	532.88
418.051	548.88
418.274	554.88
418.497	534.88
418.72	541.88
418.943	520.88
419.166	547.88
419.389	577.88
419.611	567.88
419.834	551.88
420.057	548.88
420.28	574.88
420.503	572.88
420.726	549.88
420.948	554.88
421.171	605.88
421.394	637.88
421.617	590.88
421.839	564.88
422.062	549.88
422.285	566.88
422.507	629.88
422.73	669.88
422.953	652.88
423.175	590.88
423.398	560.88
423.621	575.88
423.843	598.88
424.066	574.88
424.288	569.88
424.511	580.88
424.733	637.88
424.956	733.88
425.178	701.88
425.401	673.88
425.623	724.88
425.846	634.88
426.068	591.88
426.291	571.88
426.513	569.88
426.735	583.88
426.958	618.88
427.18	714.88
427.402	857.88
427.625	954.88
427.847	813.88
428.069	686.88
428.292	650.88
428.514	588.88
428.736	565.88
428.958	545.88
429.181	531.88
429.403	546.88
429.625	541.88
429.847	571.88
430.069	646.88
430.292	642.88
430.514	565.88
430.736	567.88
430.958	546.88
431.18	522.88
431.402	541.88
431.624	512.88
431.846	527.88
432.068	505.88
432.29	543.88
432.512	512.88
432.734	536.88
432.956	523.88
433.178	534.88
433.4	545.88
433.622	520.88
433.844	553.88
434.066	520.88
434.287	542.88
434.509	508.88
434.731	540.88
434.953	554.88
435.175	582.88
435.397	568.88
435.618	582.88
435.84	642.88
436.062	727.88
436.284	820.88
436.505	664.88
436.727	601.88
436.949	555.88
437.17	538.88
437.392	547.88
437.614	553.88
437.835	584.88
438.057	680.88
438.278	793.88
438.5	780.88
438.721	862.88
438.943	827.88
439.165	666.88
439.386	598.88
439.608	576.88
439.829	579.88
440.05	615.88
440.272	658.88
440.493	617.88
440.715	605.88
440.936	564.88
441.158	537.88
441.379	544.88
441.6	565.88
441.822	578.88
442.043	638.88
442.264	711.88
442.486	760.88
442.707	643.88
442.928	616.88
443.149	581.88
443.371	603.88
443.592	664.88
443.813	775.88
444.034	824.88
444.255	689.88
444.476	634.88
444.698	586.88
444.919	616.88
445.14	708.88
445.361	664.88
445.582	617.88
445.803	696.88
446.024	778.88
446.245	808.88
446.466	749.88
446.687	634.88
446.908	577.88
447.129	562.88
447.35	564.88
447.571	537.88
447.792	506.88
448.013	550.88
448.234	549.88
448.455	600.88
448.675	718.88
448.896	850.88
449.117	708.88
449.338	657.88
449.559	782.88
449.779	909.88
450	733.88
450.221	587.88
450.442	550.88
450.662	530.88
450.883	532.88
451.104	550.88
451.324	551.88
451.545	533.88
451.766	511.88
451.986	497.88
452.207	495.88
452.428	472.88
452.648	480.88
452.869	471.88
453.089	508.88
453.31	501.88
453.53	498.88
453.751	509.88
453.971	488.88
454.192	502.88
454.412	483.88
454.633	482.88
454.853	497.88
455.073	492.88
455.294	526.88
455.514	567.88
455.734	572.88
455.955	485.88
456.175	482.88
456.395	461.88
456.616	474.88
456.836	457.88
457.056	465.88
457.276	457.88
457.497	458.88
457.717	457.88
457.937	482.88
458.157	496.88
458.377	483.88
458.598	500.88
458.818	543.88
459.038	626.88
459.258	648.88
459.478	557.88
459.698	530.88
459.918	550.88
460.138	536.88
460.358	530.88
460.578	551.88
460.798	529.88
461.018	553.88
461.238	543.88
461.458	568.88
461.678	553.88
461.898	556.88
462.118	546.88
462.338	561.88
462.558	537.88
462.777	569.88
462.997	577.88
463.217	597.88
463.437	589.88
463.657	589.88
463.876	592.88
464.096	602.88
464.316	576.88
464.536	576.88
464.755	556.88
464.975	565.88
465.195	605.88
465.414	647.88
465.634	591.88
465.854	560.88
466.073	552.88
466.293	532.88
466.512	511.88
466.732	518.88
466.951	534.88
467.171	482.88
467.391	505.88
467.61	521.88
467.829	522.88
468.049	505.88
468.268	519.88
468.488	494.88
468.707	496.88
468.927	508.88
469.146	494.88
469.365	493.88
469.585	491.88
469.804	494.88
470.023	516.88
470.243	508.88
470.462	518.88
470.681	531.88
470.901	502.88
471.12	507.88
471.339	520.88
471.558	495.88
471.777	506.88
471.997	507.88
472.216	514.88
472.435	525.88
472.654	525.88
472.873	503.88
473.092	520.88
473.311	521.88
473.53	525.88
473.749	530.88
473.968	556.88
474.187	668.88
474.406	689.88
474.625	561.88
474.844	526.88
475.063	516.88
475.282	513.88
475.501	525.88
475.72	528.88
475.939	526.88
476.158	542.88
476.377	533.88
476.596	553.88
476.814	552.88
477.033	546.88
477.252	545.88
477.471	574.88
477.69	556.88
477.908	572.88
478.127	574.88
478.346	568.88
478.564	576.88
478.783	585.88
479.002	582.88
479.22	580.88
479.439	615.88
479.658	605.88
479.876	609.88
480.095	596.88
480.313	653.88
480.532	626.88
480.751	658.88
480.969	613.88
481.188	658.88
481.406	685.88
481.624	630.88
481.843	611.88
482.061	615.88
482.28	593.88
482.498	602.88
482.717	604.88
482.935	605.88
483.153	617.88
483.372	598.88
483.59	592.88
483.808	621.88
484.027	598.88
484.245	595.88
484.463	604.88
484.681	620.88
484.9	634.88
485.118	630.88
485.336	617.88
485.554	607.88
485.772	639.88
485.99	622.88
486.209	630.88
486.427	628.88
486.645	636.88
486.863	655.88
487.081	636.88
487.299	670.88
487.517	621.88
487.735	634.88
487.953	650.88
488.171	637.88
488.389	629.88
488.607	642.88
488.825	666.88
489.043	640.88
489.261	660.88
489.479	640.88
489.696	642.88
489.914	651.88
490.132	642.88
490.35	646.88
490.568	654.88
490.786	681.88
491.003	671.88
491.221	666.88
491.439	688.88
491.657	710.88
491.874	706.88
492.092	711.88
492.31	683.88
492.527	706.88
492.745	716.88
492.963	702.88
493.18	728.88
493.398	723.88
493.615	711.88
493.833	715.88
494.05	722.88
494.268	750.88
494.485	732.88
494.703	716.88
494.92	734.88
495.138	713.88
495.355	715.88
495.573	735.88
495.79	726.88
496.008	749.88
496.225	791.88
496.442	774.88
496.66	773.88
496.877	744.88
497.094	763.88
497.312	746.88
497.529	776.88
497.746	797.88
497.963	811.88
498.181	849.88
498.398	822.88
498.615	865.88
498.832	896.88
499.049	884.88
499.267	917.88
499.484	924.88
499.701	965.88
499.918	1005.88
500.135	1052.88
500.352	1069.88
500.569	1115.88
500.786	1121.88
501.003	1121.88
501.22	1092.88
501.437	1037.88
501.654	1002.88
501.871	980.88
502.088	945.88
502.305	896.88
502.522	894.88
502.739	874.88
502.956	846.88
503.172	837.88
503.389	816.88
503.606	795.88
503.823	804.88
504.04	793.88
504.256	800.88
504.473	774.88
504.69	772.88
504.907	771.88
505.123	749.88
505.34	756.88
505.557	757.88
505.773	727.88
505.99	722.88
506.207	714.88
506.423	737.88
506.64	709.88
506.856	678.88
507.073	700.88
507.289	709.88
507.506	716.88
507.722	701.88
507.939	712.88
508.155	698.88
508.372	668.88
508.588	678.88
508.805	640.88
509.021	675.88
509.238	673.88
509.454	701.88
509.67	666.88
509.887	666.88
510.103	678.88
510.319	643.88
510.536	744.88
510.752	1101.88
510.968	956.88
511.184	704.88
511.401	657.88
511.617	637.88
511.833	652.88
512.049	636.88
512.265	599.88
512.481	633.88
512.698	625.88
512.914	638.88
513.13	654.88
513.346	632.88
513.562	626.88
513.778	634.88
513.994	642.88
514.21	670.88
514.426	667.88
514.642	710.88
514.858	716.88
515.074	729.88
515.29	846.88
515.506	1136.88
515.721	1008.88
515.937	761.88
516.153	709.88
516.369	699.88
516.585	661.88
516.801	636.88
517.016	652.88
517.232	673.88
517.448	664.88
517.664	692.88
517.879	672.88
518.095	690.88
518.311	698.88
518.527	665.88
518.742	678.88
518.958	649.88
519.173	688.88
519.389	649.88
519.605	636.88
519.82	654.88
520.036	669.88
520.251	660.88
520.467	698.88
520.682	669.88
520.898	678.88
521.113	693.88
521.329	728.88
521.544	776.88
521.76	936.88
521.975	1432.88
522.19	1408.88
522.406	866.88
522.621	707.88
522.836	639.88
523.052	629.88
523.267	600.88
523.482	603.88
523.698	612.88
523.913	585.88
524.128	581.88
524.343	583.88
524.559	577.88
524.774	579.88
524.989	572.88
525.204	583.88
525.419	580.88
525.634	570.88
525.849	567.88
526.064	540.88
526.28	566.88
526.495	549.88
526.71	565.88
526.925	538.88
527.14	548.88
527.355	535.88
527.57	540.88
527.785	535.88
527.999	550.88
528.214	523.88
528.429	550.88
528.644	529.88
528.859	544.88
529.074	550.88
529.289	563.88
529.503	608.88
529.718	602.88
529.933	580.88
530.148	549.88
530.363	547.88
530.577	556.88
530.792	531.88
531.007	540.88
531.221	522.88
531.436	543.88
531.651	532.88
531.865	521.88
532.08	520.88
532.295	521.88
532.509	531.88
532.724	520.88
532.938	499.88
533.153	503.88
533.367	516.88
533.582	525.88
533.796	525.88
534.011	515.88
534.225	498.88
534.44	501.88
534.654	539.88
534.868	502.88
535.083	510.88
535.297	533.88
535.511	532.88
535.726	549.88
535.94	534.88
536.154	526.88
536.369	528.88
536.583	496.88
536.797	527.88
537.011	486.88
537.225	489.88
537.44	500.88
537.654	488.88
537.868	518.88
538.082	477.88
538.296	505.88
538.51	507.88
538.724	500.88
538.938	498.88
539.153	502.88
539.367	503.88
539.581	514.88
539.795	497.88
540.009	504.88
540.222	493.88
540.436	499.88
540.65	489.88
540.864	492.88
541.078	492.88
541.292	500.88
541.506	502.88
541.72	493.88
541.934	510.88
542.147	492.88
542.361	490.88
542.575	502.88
542.789	461.88
543.002	496.88
543.216	525.88
543.43	494.88
543.644	494.88
543.857	480.88
544.071	509.88
544.285	504.88
544.498	491.88
544.712	461.88
544.925	487.88
545.139	480.88
545.352	478.88
545.566	469.88
545.779	477.88
545.993	469.88
546.206	488.88
546.42	483.88
546.633	474.88
546.847	485.88
547.06	478.88
547.274	480.88
547.487	498.88
547.7	469.88
547.914	485.88
548.127	485.88
548.34	487.88
548.554	483.88
548.767	485.88
548.98	465.88
549.193	482.88
549.407	475.88
549.62	487.88
549.833	487.88
550.046	473.88
550.259	448.88
550.473	479.88
550.686	480.88
550.899	471.88
551.112	468.88
551.325	459.88
551.538	476.88
551.751	467.88
551.964	477.88
552.177	469.88
552.39	483.88
552.603	487.88
552.816	491.88
553.029	469.88
553.242	468.88
553.455	491.88
553.667	488.88
553.88	512.88
554.093	498.88
554.306	486.88
554.519	478.88
554.732	466.88
554.944	471.88
555.157	434.88
555.37	458.88
555.583	435.88
555.795	451.88
556.008	445.88
556.221	441.88
556.433	436.88
556.646	442.88
556.859	454.88
557.071	439.88
557.284	434.88
557.496	446.88
557.709	417.88
557.921	440.88
558.134	427.88
558.346	426.88
558.559	433.88
558.771	420.88
558.984	441.88
559.196	425.88
559.409	405.88
559.621	440.88
559.833	437.88
560.046	443.88
560.258	423.88
560.47	428.88
560.683	427.88
560.895	422.88
561.107	445.88
561.32	422.88
561.532	437.88
561.744	420.88
561.956	424.88
562.168	439.88
562.381	440.88
562.593	425.88
562.805	440.88
563.017	452.88
563.229	441.88
563.441	437.88
563.653	433.88
563.865	436.88
564.077	446.88
564.289	450.88
564.501	436.88
564.713	478.88
564.925	474.88
565.137	469.88
565.349	439.88
565.561	471.88
565.773	483.88
565.985	470.88
566.197	483.88
566.408	501.88
566.62	519.88
566.832	538.88
567.044	568.88
567.255	550.88
567.467	558.88
567.679	538.88
567.891	567.88
568.102	567.88
568.314	545.88
568.526	541.88
568.737	514.88
568.949	503.88
569.161	486.88
569.372	443.88
569.584	462.88
569.795	436.88
570.007	440.88
570.218	481.88
570.43	461.88
570.641	443.88
570.853	441.88
571.064	420.88
571.276	415.88
571.487	404.88
571.698	421.88
571.91	423.88
572.121	396.88
572.333	390.88
572.544	391.88
572.755	394.88
572.966	421.88
573.178	389.88
573.389	394.88
573.6	409.88
573.811	397.88
574.023	375.88
574.234	364.88
574.445	382.88
574.656	364.88
574.867	374.88
575.078	382.88
575.289	371.88
575.501	402.88
575.712	377.88
575.923	370.88
576.134	360.88
576.345	358.88
576.556	356.88
576.767	370.88
576.978	356.88
577.188	376.88
577.399	384.88
577.61	361.88
577.821	360.88
578.032	365.88
578.243	364.88
578.454	555.88
578.665	427.88
578.875	374.88
579.086	348.88
579.297	345.88
579.508	346.88
579.718	352.88
579.929	335.88
580.14	339.88
580.35	336.88
580.561	336.88
580.772	343.88
580.982	338.88
581.193	344.88
581.403	328.88
581.614	336.88
581.825	349.88
582.035	361.88
582.246	358.88
582.456	334.88
582.667	322.88
582.877	332.88
583.087	333.88
583.298	347.88
583.508	364.88
583.719	350.88
583.929	343.88
584.139	346.88
584.35	334.88
584.56	330.88
584.77	332.88
584.981	348.88
585.191	341.88
585.401	321.88
585.611	332.88
585.821	329.88
586.032	347.88
586.242	320.88
586.452	332.88
586.662	322.88
586.872	323.88
587.082	316.88
587.292	314.88
587.502	332.88
587.713	323.88
587.923	313.88
588.133	317.88
588.343	336.88
588.553	333.88
588.762	339.88
588.972	333.88
589.182	324.88
589.392	329.88
589.602	322.88
589.812	322.88
590.022	341.88
590.232	316.88
590.441	331.88
590.651	322.88
590.861	311.88
591.071	316.88
591.281	327.88
591.49	335.88
591.7	345.88
591.91	354.88
592.119	331.88
592.329	338.88
592.539	351.88
592.748	346.88
592.958	346.88
593.167	350.88
593.377	339.88
593.587	330.88
593.796	344.88
594.006	320.88
594.215	353.88
594.424	356.88
594.634	333.88
594.843	338.88
595.053	331.88
595.262	332.88
595.472	338.88
595.681	325.88
595.89	343.88
596.1	322.88
596.309	306.88
596.518	317.88
596.727	322.88
596.937	288.88
597.146	292.88
597.355	297.88
597.564	300.88
597.774	311.88
597.983	298.88
598.192	290.88
598.401	283.88
598.61	300.88
598.819	286.88
599.028	301.88
599.237	293.88
599.446	309.88
599.655	293.88
599.864	283.88
600.073	281.88
600.282	280.88
600.491	309.88
600.7	277.88
600.909	304.88
601.118	268.88
601.327	293.88
601.536	283.88
601.745	283.88
601.953	274.88
602.162	285.88
602.371	283.88
602.58	276.88
602.789	268.88
602.997	288.88
603.206	291.88
603.415	274.88
603.623	277.88
603.832	274.88
604.041	275.88
604.249	277.88
604.458	269.88
604.666	264.88
604.875	268.88
605.084	266.88
605.292	259.88
605.501	279.88
605.709	286.88
605.918	264.88
606.126	271.88
606.334	278.88
606.543	263.88
606.751	293.88
606.96	273.88
607.168	273.88
607.376	274.88
607.585	266.88
607.793	256.88
608.001	256.88
608.21	267.88
608.418	259.88
608.626	266.88
608.834	267.88
609.043	268.88
609.251	275.88
609.459	266.88
609.667	255.88
609.875	256.88
610.083	274.88
610.291	261.88
610.499	265.88
610.707	269.88
610.916	257.88
611.124	256.88
611.332	286.88
611.54	259.88
611.748	284.88
611.955	271.88
612.163	270.88
612.371	266.88
612.579	266.88
612.787	243.88
612.995	250.88
613.203	249.88
613.411	256.88
613.618	269.88
613.826	242.88
614.034	244.88
614.242	246.88
614.449	232.88
614.657	246.88
614.865	270.88
615.072	257.88
615.28	265.88
615.488	243.88
615.695	270.88
615.903	237.88
616.111	252.88
616.318	268.88
616.526	266.88
616.733	252.88
616.941	249.88
617.148	245.88
617.356	256.88
617.563	253.88
617.771	240.88
617.978	247.88
618.185	252.88
618.393	248.88
618.6	267.88
618.807	251.88
619.015	247.88
619.222	251.88
619.429	252.88
619.637	237.88
619.844	244.88
620.051	253.88
620.258	233.88
620.466	231.88
620.673	249.88
620.88	235.88
621.087	228.88
621.294	220.88
621.501	244.88
621.708	246.88
621.915	248.88
622.122	241.88
622.329	229.88
622.536	254.88
622.743	249.88
622.95	228.88
623.157	230.88
623.364	250.88
623.571	238.88
623.778	233.88
623.985	230.88
624.192	222.88
624.399	226.88
624.606	226.88
624.812	223.88
625.019	218.88
625.226	227.88
625.433	234.88
625.639	224.88
625.846	229.88
626.053	229.88
626.259	224.88
626.466	228.88
626.673	223.88
626.879	225.88
627.086	240.88
627.293	235.88
627.499	234.88
627.706	211.88
627.912	226.88
628.119	228.88
628.325	213.88
628.532	210.88
628.738	217.88
628.945	216.88
629.151	206.88
629.357	219.88
629.564	217.88
629.77	214.88
629.976	200.88
630.183	213.88
630.389	208.88
630.595	216.88
630.802	225.88
631.008	214.88
631.214	204.88
631.42	206.88
631.627	224.88
631.833	205.88
632.039	208.88
632.245	203.88
632.451	199.88
632.657	208.88
632.863	205.88
633.069	216.88
633.275	206.88
633.481	180.88
633.688	209.88
633.893	204.88
634.099	200.88
634.305	212.88
634.511	196.88
634.717	192.88
634.923	188.88
635.129	195.88
635.335	182.88
635.541	201.88
635.747	195.88
635.952	178.88
636.158	205.88
636.364	200.88
636.57	198.88
636.775	191.88
636.981	203.88
637.187	198.88
637.392	168.88
637.598	201.88
637.804	196.88
638.009	184.88
638.215	197.88
638.421	180.88
638.626	182.88
638.832	187.88
639.037	180.88
639.243	192.88
639.448	185.88
639.654	174.88
639.859	177.88
640.065	180.88
640.27	180.88
640.475	189.88
640.681	194.88
640.886	178.88
641.091	196.88
641.297	180.88
641.502	182.88
641.707	185.88
641.913	184.88
642.118	188.88
642.323	188.88
642.528	173.88
642.733	196.88
642.939	176.88
643.144	171.88
643.349	193.88
643.554	170.88
643.759	178.88
643.964	160.88
644.169	192.88
644.374	170.88
644.579	168.88
644.784	186.88
644.989	167.88
645.194	173.88
645.399	189.88
645.604	178.88
645.809	177.88
646.014	177.88
646.219	155.88
646.423	198.88
646.628	186.88
646.833	176.88
647.038	180.88
647.243	168.88
647.447	158.88
647.652	180.88
647.857	195.88
648.062	180.88
648.266	181.88
648.471	185.88
648.676	175.88
648.88	169.88
649.085	194.88
649.289	186.88
649.494	180.88
649.698	201.88
649.903	189.88
650.107	185.88
650.312	187.88
650.516	169.88
650.721	154.88
650.925	173.88
651.13	171.88
651.334	162.88
651.539	173.88
651.743	164.88
651.947	155.88
652.152	157.88
652.356	158.88
652.56	144.88
652.764	150.88
652.969	161.88
653.173	154.88
653.377	139.88
653.581	162.88
653.785	138.88
653.99	141.88
654.194	140.88
654.398	130.88
654.602	152.88
654.806	139.88
655.01	146.88
655.214	147.88
655.418	136.88
655.622	124.88
655.826	136.88
656.03	137.88
656.234	143.88
656.438	134.88
656.642	121.88
656.846	132.88
657.049	132.88
657.253	129.88
657.457	133.88
657.661	123.88
657.865	115.88
658.068	116.88
658.272	106.88
658.476	103.88
658.68	124.88
658.883	124.88
659.087	101.88
659.291	104.88
659.494	95.88
659.698	97.88
659.901	94.88
660.105	92.88
660.309	90.88
660.512	96.88
660.716	101.88
660.919	104.88
661.123	97.88
661.326	98.88
661.53	81.88
661.733	102.88
661.936	89.88
662.14	99.88
662.343	80.88
662.546	68.88
662.75	81.88
662.953	90.88
663.156	93.88
663.36	83.88
663.563	77.88
663.766	85.88
663.969	94.88
664.173	78.88
664.376	68.88
664.579	78.88
664.782	87.88
664.985	100.88
665.188	94.88
665.391	85.88
665.594	87.88
665.797	83.88
666	85.88
666.203	82.88
666.406	62.88
666.609	81.88
666.812	88.88
667.015	75.88
667.218	98.88
667.421	75.88
667.624	81.88
667.827	76.88
668.03	94.88
668.232	89.88
668.435	67.88
668.638	84.88
668.841	76.88
669.043	92.88
669.246	73.88
669.449	67.88
669.651	86.88
669.854	100.88
670.057	72.88
670.259	99.88
670.462	95.88
670.665	76.88
670.867	89.88
671.07	80.88
671.272	89.88
671.475	78.88
671.677	86.88
671.88	81.88
672.082	80.88
672.284	100.88
672.487	88.88
672.689	86.88
672.892	102.88
