Data from 1978.PennyLincolnUp.Lamp.En5.5.200Scan.071719.P1_HRD10591_16-12-52-864.txt Node
Date: Thu Jul 18 16:12:52 EDT 2019
User: cochatt
Spectrometer: HR+D1059
Trigger mode: 1
Integration Time (sec): 1.000000E-1
Scans to average: 1
Electric dark correction enabled: true
Nonlinearity correction enabled: false
Boxcar width: 0
XAxis mode: Wavelengths
Number of Pixels in Spectrum: 2048
>>>>>Begin Spectral Data<<<<<
223.165	-15.44
223.4	-15.44
223.635	-15.44
223.869	-24.44
224.104	-12.44
224.338	-5.44
224.573	-20.44
224.808	-19.44
225.042	-2.44
225.277	-23.44
225.511	-12.44
225.746	23.56
225.98	5.56
226.215	19.56
226.449	17.56
226.683	17.56
226.918	24.56
227.152	27.56
227.387	32.56
227.621	45.56
227.856	42.56
228.09	36.56
228.324	46.56
228.559	61.56
228.793	43.56
229.027	101.56
229.262	92.56
229.496	110.56
229.73	115.56
229.964	148.56
230.199	131.56
230.433	121.56
230.667	112.56
230.901	105.56
231.136	103.56
231.37	108.56
231.604	102.56
231.838	128.56
232.072	125.56
232.306	101.56
232.541	119.56
232.775	115.56
233.009	112.56
233.243	124.56
233.477	118.56
233.711	97.56
233.945	109.56
234.179	127.56
234.413	131.56
234.647	121.56
234.881	121.56
235.115	97.56
235.349	112.56
235.583	116.56
235.817	121.56
236.051	132.56
236.285	121.56
236.519	127.56
236.753	131.56
236.987	144.56
237.221	182.56
237.455	223.56
237.689	181.56
237.922	139.56
238.156	128.56
238.39	139.56
238.624	132.56
238.858	111.56
239.091	120.56
239.325	130.56
239.559	124.56
239.793	132.56
240.027	127.56
240.26	129.56
240.494	140.56
240.728	150.56
240.961	131.56
241.195	138.56
241.429	135.56
241.662	114.56
241.896	126.56
242.13	140.56
242.363	126.56
242.597	139.56
242.83	129.56
243.064	143.56
243.298	126.56
243.531	131.56
243.765	147.56
243.998	147.56
244.232	149.56
244.465	131.56
244.699	144.56
244.932	135.56
245.166	143.56
245.399	151.56
245.633	135.56
245.866	138.56
246.099	133.56
246.333	154.56
246.566	156.56
246.8	157.56
247.033	144.56
247.266	145.56
247.5	158.56
247.733	164.56
247.966	163.56
248.2	158.56
248.433	143.56
248.666	146.56
248.899	165.56
249.133	166.56
249.366	173.56
249.599	184.56
249.832	172.56
250.066	182.56
250.299	167.56
250.532	185.56
250.765	200.56
250.998	213.56
251.231	196.56
251.465	188.56
251.698	202.56
251.931	187.56
252.164	177.56
252.397	185.56
252.63	197.56
252.863	191.56
253.096	190.56
253.329	207.56
253.562	203.56
253.795	199.56
254.028	193.56
254.261	192.56
254.494	198.56
254.727	232.56
254.96	231.56
255.193	240.56
255.426	217.56
255.659	205.56
255.892	188.56
256.124	198.56
256.357	215.56
256.59	184.56
256.823	198.56
257.056	201.56
257.289	197.56
257.521	204.56
257.754	188.56
257.987	188.56
258.22	191.56
258.452	205.56
258.685	182.56
258.918	181.56
259.151	188.56
259.383	217.56
259.616	196.56
259.849	212.56
260.081	209.56
260.314	233.56
260.547	245.56
260.779	234.56
261.012	211.56
261.244	205.56
261.477	205.56
261.71	203.56
261.942	209.56
262.175	220.56
262.407	214.56
262.64	208.56
262.872	193.56
263.105	199.56
263.337	202.56
263.57	212.56
263.802	195.56
264.035	200.56
264.267	186.56
264.499	192.56
264.732	216.56
264.964	208.56
265.197	200.56
265.429	217.56
265.661	195.56
265.894	196.56
266.126	212.56
266.358	213.56
266.591	216.56
266.823	220.56
267.055	220.56
267.287	209.56
267.52	213.56
267.752	200.56
267.984	204.56
268.216	219.56
268.448	223.56
268.681	222.56
268.913	235.56
269.145	233.56
269.377	257.56
269.609	240.56
269.841	238.56
270.073	235.56
270.306	270.56
270.538	269.56
270.77	297.56
271.002	291.56
271.234	266.56
271.466	267.56
271.698	276.56
271.93	297.56
272.162	286.56
272.394	272.56
272.626	274.56
272.858	264.56
273.09	254.56
273.322	267.56
273.553	245.56
273.785	246.56
274.017	228.56
274.249	247.56
274.481	257.56
274.713	256.56
274.945	238.56
275.176	251.56
275.408	237.56
275.64	238.56
275.872	245.56
276.104	248.56
276.335	250.56
276.567	255.56
276.799	255.56
277.031	281.56
277.262	283.56
277.494	303.56
277.726	271.56
277.957	259.56
278.189	285.56
278.421	260.56
278.652	275.56
278.884	240.56
279.115	261.56
279.347	267.56
279.579	267.56
279.81	246.56
280.042	271.56
280.273	265.56
280.505	252.56
280.736	249.56
280.968	257.56
281.199	263.56
281.431	249.56
281.662	253.56
281.894	259.56
282.125	264.56
282.356	277.56
282.588	295.56
282.819	308.56
283.051	252.56
283.282	262.56
283.513	277.56
283.745	275.56
283.976	272.56
284.207	265.56
284.439	255.56
284.67	271.56
284.901	249.56
285.132	287.56
285.364	275.56
285.595	270.56
285.826	279.56
286.057	294.56
286.288	272.56
286.52	279.56
286.751	262.56
286.982	247.56
287.213	273.56
287.444	264.56
287.675	262.56
287.906	292.56
288.138	281.56
288.369	280.56
288.6	280.56
288.831	273.56
289.062	271.56
289.293	263.56
289.524	283.56
289.755	285.56
289.986	286.56
290.217	272.56
290.448	284.56
290.679	277.56
290.91	297.56
291.141	274.56
291.371	286.56
291.602	276.56
291.833	284.56
292.064	281.56
292.295	268.56
292.526	269.56
292.757	282.56
292.987	282.56
293.218	267.56
293.449	281.56
293.68	279.56
293.91	302.56
294.141	281.56
294.372	275.56
294.603	300.56
294.833	287.56
295.064	283.56
295.295	282.56
295.525	276.56
295.756	300.56
295.987	280.56
296.217	311.56
296.448	332.56
296.679	291.56
296.909	307.56
297.14	272.56
297.37	299.56
297.601	303.56
297.831	299.56
298.062	314.56
298.292	296.56
298.523	297.56
298.753	307.56
298.984	300.56
299.214	307.56
299.445	290.56
299.675	286.56
299.905	303.56
300.136	314.56
300.366	301.56
300.597	302.56
300.827	328.56
301.057	311.56
301.288	323.56
301.518	305.56
301.748	309.56
301.979	323.56
302.209	328.56
302.439	315.56
302.669	333.56
302.9	310.56
303.13	311.56
303.36	319.56
303.59	322.56
303.82	332.56
304.051	322.56
304.281	316.56
304.511	318.56
304.741	321.56
304.971	308.56
305.201	314.56
305.431	330.56
305.661	335.56
305.891	311.56
306.121	313.56
306.352	320.56
306.582	343.56
306.812	346.56
307.042	318.56
307.272	321.56
307.502	301.56
307.731	313.56
307.961	331.56
308.191	321.56
308.421	332.56
308.651	323.56
308.881	319.56
309.111	328.56
309.341	336.56
309.571	332.56
309.8	343.56
310.03	351.56
310.26	361.56
310.49	338.56
310.72	367.56
310.949	369.56
311.179	374.56
311.409	370.56
311.639	352.56
311.868	345.56
312.098	349.56
312.328	359.56
312.557	395.56
312.787	381.56
313.017	387.56
313.246	358.56
313.476	357.56
313.706	363.56
313.935	371.56
314.165	377.56
314.394	379.56
314.624	367.56
314.853	371.56
315.083	367.56
315.312	343.56
315.542	357.56
315.771	364.56
316.001	359.56
316.23	379.56
316.46	377.56
316.689	376.56
316.919	377.56
317.148	362.56
317.377	355.56
317.607	372.56
317.836	366.56
318.065	382.56
318.295	359.56
318.524	360.56
318.753	357.56
318.983	361.56
319.212	362.56
319.441	371.56
319.67	387.56
319.9	355.56
320.129	389.56
320.358	379.56
320.587	380.56
320.816	374.56
321.046	367.56
321.275	372.56
321.504	376.56
321.733	387.56
321.962	368.56
322.191	399.56
322.42	394.56
322.649	402.56
322.878	435.56
323.108	440.56
323.337	452.56
323.566	473.56
323.795	478.56
324.024	545.56
324.253	610.56
324.482	888.56
324.71	1395.56
324.939	2131.56
325.168	1854.56
325.397	873.56
325.626	633.56
325.855	538.56
326.084	455.56
326.313	471.56
326.542	503.56
326.77	523.56
326.999	603.56
327.228	821.56
327.457	1277.56
327.686	1601.56
327.914	1029.56
328.143	662.56
328.372	587.56
328.6	547.56
328.829	517.56
329.058	540.56
329.287	549.56
329.515	491.56
329.744	471.56
329.972	472.56
330.201	480.56
330.43	526.56
330.658	531.56
330.887	546.56
331.115	557.56
331.344	527.56
331.572	476.56
331.801	459.56
332.03	473.56
332.258	445.56
332.486	428.56
332.715	455.56
332.943	431.56
333.172	430.56
333.4	448.56
333.629	463.56
333.857	445.56
334.085	468.56
334.314	471.56
334.542	483.56
334.771	510.56
334.999	471.56
335.227	461.56
335.455	422.56
335.684	462.56
335.912	458.56
336.14	427.56
336.369	450.56
336.597	452.56
336.825	455.56
337.053	448.56
337.281	446.56
337.51	413.56
337.738	432.56
337.966	440.56
338.194	408.56
338.422	429.56
338.65	430.56
338.878	421.56
339.106	433.56
339.334	435.56
339.562	428.56
339.79	411.56
340.018	408.56
340.246	423.56
340.474	440.56
340.702	427.56
340.93	429.56
341.158	423.56
341.386	427.56
341.614	435.56
341.842	414.56
342.07	398.56
342.298	394.56
342.526	408.56
342.754	420.56
342.981	400.56
343.209	393.56
343.437	401.56
343.665	452.56
343.893	429.56
344.12	437.56
344.348	425.56
344.576	436.56
344.804	450.56
345.031	461.56
345.259	450.56
345.487	432.56
345.714	441.56
345.942	421.56
346.17	415.56
346.397	414.56
346.625	408.56
346.853	415.56
347.08	412.56
347.308	437.56
347.535	412.56
347.763	429.56
347.99	413.56
348.218	440.56
348.445	424.56
348.673	416.56
348.9	413.56
349.128	395.56
349.355	401.56
349.583	401.56
349.81	389.56
350.037	417.56
350.265	406.56
350.492	419.56
350.72	430.56
350.947	395.56
351.174	394.56
351.402	414.56
351.629	407.56
351.856	408.56
352.083	424.56
352.311	429.56
352.538	429.56
352.765	440.56
352.992	405.56
353.22	401.56
353.447	421.56
353.674	409.56
353.901	388.56
354.128	396.56
354.355	392.56
354.583	393.56
354.81	393.56
355.037	386.56
355.264	393.56
355.491	392.56
355.718	402.56
355.945	406.56
356.172	395.56
356.399	379.56
356.626	389.56
356.853	384.56
357.08	391.56
357.307	399.56
357.534	392.56
357.761	397.56
357.988	377.56
358.215	409.56
358.441	399.56
358.668	400.56
358.895	401.56
359.122	388.56
359.349	396.56
359.576	417.56
359.802	427.56
360.029	436.56
360.256	457.56
360.483	460.56
360.709	419.56
360.936	423.56
361.163	414.56
361.39	402.56
361.616	412.56
361.843	411.56
362.07	414.56
362.296	404.56
362.523	425.56
362.749	417.56
362.976	400.56
363.203	405.56
363.429	412.56
363.656	411.56
363.882	398.56
364.109	369.56
364.335	406.56
364.562	409.56
364.788	413.56
365.015	397.56
365.241	407.56
365.468	404.56
365.694	412.56
365.92	410.56
366.147	414.56
366.373	401.56
366.599	402.56
366.826	425.56
367.052	400.56
367.278	413.56
367.505	411.56
367.731	404.56
367.957	415.56
368.184	413.56
368.41	419.56
368.636	423.56
368.862	417.56
369.089	425.56
369.315	415.56
369.541	411.56
369.767	418.56
369.993	408.56
370.219	399.56
370.445	422.56
370.672	407.56
370.898	399.56
371.124	424.56
371.35	381.56
371.576	408.56
371.802	413.56
372.028	409.56
372.254	409.56
372.48	408.56
372.706	392.56
372.932	396.56
373.158	417.56
373.384	420.56
373.61	406.56
373.835	426.56
374.061	422.56
374.287	416.56
374.513	422.56
374.739	406.56
374.965	417.56
375.191	414.56
375.416	413.56
375.642	402.56
375.868	389.56
376.094	425.56
376.319	394.56
376.545	417.56
376.771	412.56
376.997	396.56
377.222	404.56
377.448	421.56
377.674	409.56
377.899	391.56
378.125	423.56
378.35	411.56
378.576	407.56
378.802	400.56
379.027	399.56
379.253	419.56
379.478	411.56
379.704	411.56
379.929	394.56
380.155	395.56
380.38	396.56
380.606	412.56
380.831	414.56
381.057	413.56
381.282	412.56
381.507	440.56
381.733	436.56
381.958	425.56
382.184	426.56
382.409	420.56
382.634	422.56
382.86	424.56
383.085	442.56
383.31	439.56
383.535	433.56
383.761	422.56
383.986	422.56
384.211	420.56
384.436	448.56
384.662	422.56
384.887	455.56
385.112	457.56
385.337	464.56
385.562	454.56
385.787	446.56
386.013	451.56
386.238	455.56
386.463	463.56
386.688	453.56
386.913	457.56
387.138	453.56
387.363	443.56
387.588	461.56
387.813	472.56
388.038	458.56
388.263	447.56
388.488	456.56
388.713	470.56
388.938	451.56
389.163	464.56
389.387	453.56
389.612	454.56
389.837	461.56
390.062	460.56
390.287	454.56
390.512	464.56
390.736	448.56
390.961	470.56
391.186	466.56
391.411	460.56
391.636	470.56
391.86	474.56
392.085	473.56
392.31	478.56
392.534	472.56
392.759	472.56
392.984	465.56
393.208	482.56
393.433	478.56
393.658	485.56
393.882	478.56
394.107	475.56
394.331	479.56
394.556	465.56
394.78	470.56
395.005	488.56
395.229	484.56
395.454	468.56
395.678	479.56
395.903	501.56
396.127	504.56
396.352	501.56
396.576	488.56
396.801	473.56
397.025	494.56
397.249	494.56
397.474	500.56
397.698	496.56
397.922	503.56
398.147	507.56
398.371	523.56
398.595	531.56
398.82	523.56
399.044	539.56
399.268	550.56
399.492	576.56
399.717	614.56
399.941	616.56
400.165	682.56
400.389	693.56
400.613	603.56
400.837	586.56
401.062	544.56
401.286	559.56
401.51	544.56
401.734	521.56
401.958	524.56
402.182	529.56
402.406	528.56
402.63	546.56
402.854	539.56
403.078	543.56
403.302	567.56
403.526	573.56
403.75	561.56
403.974	558.56
404.198	554.56
404.422	574.56
404.645	558.56
404.869	559.56
405.093	590.56
405.317	615.56
405.541	662.56
405.765	607.56
405.988	580.56
406.212	582.56
406.436	592.56
406.66	599.56
406.883	602.56
407.107	608.56
407.331	662.56
407.555	711.56
407.778	727.56
408.002	667.56
408.226	624.56
408.449	633.56
408.673	635.56
408.896	636.56
409.12	709.56
409.344	651.56
409.567	601.56
409.791	595.56
410.014	571.56
410.238	544.56
410.461	583.56
410.685	585.56
410.908	574.56
411.132	605.56
411.355	647.56
411.578	640.56
411.802	572.56
412.025	558.56
412.249	563.56
412.472	582.56
412.695	631.56
412.919	612.56
413.142	563.56
413.365	558.56
413.589	528.56
413.812	539.56
414.035	521.56
414.258	517.56
414.482	533.56
414.705	541.56
414.928	524.56
415.151	535.56
415.374	541.56
415.597	539.56
415.821	507.56
416.044	509.56
416.267	529.56
416.49	527.56
416.713	522.56
416.936	520.56
417.159	527.56
417.382	514.56
417.605	532.56
417.828	534.56
418.051	564.56
418.274	542.56
418.497	521.56
418.72	515.56
418.943	517.56
419.166	542.56
419.389	560.56
419.611	547.56
419.834	541.56
420.057	557.56
420.28	560.56
420.503	530.56
420.726	555.56
420.948	547.56
421.171	588.56
421.394	607.56
421.617	576.56
421.839	543.56
422.062	544.56
422.285	569.56
422.507	613.56
422.73	700.56
422.953	663.56
423.175	599.56
423.398	563.56
423.621	570.56
423.843	578.56
424.066	585.56
424.288	577.56
424.511	589.56
424.733	643.56
424.956	738.56
425.178	708.56
425.401	701.56
425.623	765.56
425.846	641.56
426.068	573.56
426.291	600.56
426.513	596.56
426.735	605.56
426.958	629.56
427.18	700.56
427.402	873.56
427.625	955.56
427.847	785.56
428.069	704.56
428.292	624.56
428.514	565.56
428.736	569.56
428.958	552.56
429.181	528.56
429.403	543.56
429.625	533.56
429.847	599.56
430.069	647.56
430.292	659.56
430.514	543.56
430.736	556.56
430.958	540.56
431.18	519.56
431.402	528.56
431.624	533.56
431.846	509.56
432.068	522.56
432.29	534.56
432.512	519.56
432.734	530.56
432.956	534.56
433.178	534.56
433.4	528.56
433.622	536.56
433.844	521.56
434.066	513.56
434.287	532.56
434.509	542.56
434.731	549.56
434.953	529.56
435.175	553.56
435.397	584.56
435.618	581.56
435.84	609.56
436.062	701.56
436.284	799.56
436.505	678.56
436.727	613.56
436.949	573.56
437.17	554.56
437.392	543.56
437.614	545.56
437.835	573.56
438.057	659.56
438.278	779.56
438.5	785.56
438.721	881.56
438.943	837.56
439.165	671.56
439.386	612.56
439.608	573.56
439.829	595.56
440.05	601.56
440.272	681.56
440.493	644.56
440.715	604.56
440.936	565.56
441.158	552.56
441.379	559.56
441.6	560.56
441.822	594.56
442.043	621.56
442.264	708.56
442.486	763.56
442.707	664.56
442.928	589.56
443.149	599.56
443.371	630.56
443.592	667.56
443.813	748.56
444.034	823.56
444.255	685.56
444.476	605.56
444.698	618.56
444.919	598.56
445.14	726.56
445.361	657.56
445.582	643.56
445.803	665.56
446.024	772.56
446.245	803.56
446.466	718.56
446.687	622.56
446.908	584.56
447.129	557.56
447.35	548.56
447.571	536.56
447.792	553.56
448.013	550.56
448.234	558.56
448.455	594.56
448.675	707.56
448.896	866.56
449.117	705.56
449.338	669.56
449.559	796.56
449.779	912.56
450	714.56
450.221	624.56
450.442	525.56
450.662	515.56
450.883	530.56
451.104	527.56
451.324	561.56
451.545	525.56
451.766	501.56
451.986	504.56
452.207	485.56
452.428	491.56
452.648	484.56
452.869	474.56
453.089	476.56
453.31	487.56
453.53	495.56
453.751	492.56
453.971	466.56
454.192	512.56
454.412	489.56
454.633	483.56
454.853	480.56
455.073	488.56
455.294	517.56
455.514	560.56
455.734	565.56
455.955	481.56
456.175	493.56
456.395	454.56
456.616	454.56
456.836	465.56
457.056	479.56
457.276	455.56
457.497	449.56
457.717	461.56
457.937	483.56
458.157	478.56
458.377	461.56
458.598	496.56
458.818	560.56
459.038	596.56
459.258	648.56
459.478	584.56
459.698	527.56
459.918	517.56
460.138	540.56
460.358	519.56
460.578	540.56
460.798	544.56
461.018	556.56
461.238	526.56
461.458	545.56
461.678	534.56
461.898	549.56
462.118	537.56
462.338	542.56
462.558	550.56
462.777	563.56
462.997	576.56
463.217	584.56
463.437	587.56
463.657	582.56
463.876	589.56
464.096	575.56
464.316	567.56
464.536	570.56
464.755	568.56
464.975	610.56
465.195	586.56
465.414	666.56
465.634	606.56
465.854	581.56
466.073	540.56
466.293	543.56
466.512	531.56
466.732	518.56
466.951	535.56
467.171	515.56
467.391	488.56
467.61	517.56
467.829	501.56
468.049	504.56
468.268	507.56
468.488	499.56
468.707	505.56
468.927	497.56
469.146	465.56
469.365	500.56
469.585	492.56
469.804	515.56
470.023	507.56
470.243	476.56
470.462	516.56
470.681	510.56
470.901	539.56
471.12	511.56
471.339	509.56
471.558	518.56
471.777	492.56
471.997	506.56
472.216	519.56
472.435	541.56
472.654	517.56
472.873	512.56
473.092	534.56
473.311	502.56
473.53	508.56
473.749	505.56
473.968	539.56
474.187	647.56
474.406	669.56
474.625	569.56
474.844	515.56
475.063	511.56
475.282	523.56
475.501	518.56
475.72	521.56
475.939	523.56
476.158	518.56
476.377	524.56
476.596	538.56
476.814	547.56
477.033	570.56
477.252	558.56
477.471	549.56
477.69	559.56
477.908	553.56
478.127	542.56
478.346	560.56
478.564	573.56
478.783	589.56
479.002	596.56
479.22	565.56
479.439	593.56
479.658	616.56
479.876	612.56
480.095	619.56
480.313	645.56
480.532	659.56
480.751	613.56
480.969	654.56
481.188	678.56
481.406	713.56
481.624	635.56
481.843	619.56
482.061	612.56
482.28	607.56
482.498	591.56
482.717	601.56
482.935	584.56
483.153	567.56
483.372	597.56
483.59	601.56
483.808	572.56
484.027	585.56
484.245	602.56
484.463	605.56
484.681	598.56
484.9	609.56
485.118	621.56
485.336	609.56
485.554	608.56
485.772	600.56
485.99	611.56
486.209	597.56
486.427	614.56
486.645	635.56
486.863	642.56
487.081	631.56
487.299	644.56
487.517	629.56
487.735	657.56
487.953	634.56
488.171	632.56
488.389	628.56
488.607	636.56
488.825	637.56
489.043	616.56
489.261	639.56
489.479	625.56
489.696	639.56
489.914	645.56
490.132	641.56
490.35	654.56
490.568	645.56
490.786	661.56
491.003	681.56
491.221	702.56
491.439	695.56
491.657	696.56
491.874	691.56
492.092	695.56
492.31	704.56
492.527	710.56
492.745	718.56
492.963	708.56
493.18	735.56
493.398	739.56
493.615	732.56
493.833	732.56
494.05	727.56
494.268	713.56
494.485	724.56
494.703	726.56
494.92	722.56
495.138	725.56
495.355	729.56
495.573	775.56
495.79	752.56
496.008	733.56
496.225	735.56
496.442	764.56
496.66	748.56
496.877	741.56
497.094	773.56
497.312	788.56
497.529	789.56
497.746	775.56
497.963	792.56
498.181	816.56
498.398	852.56
498.615	864.56
498.832	867.56
499.049	869.56
499.267	884.56
499.484	958.56
499.701	940.56
499.918	983.56
500.135	1023.56
500.352	1091.56
500.569	1113.56
500.786	1113.56
501.003	1047.56
501.22	1050.56
501.437	1023.56
501.654	1018.56
501.871	969.56
502.088	976.56
502.305	905.56
502.522	862.56
502.739	855.56
502.956	822.56
503.172	813.56
503.389	792.56
503.606	826.56
503.823	803.56
504.04	773.56
504.256	791.56
504.473	781.56
504.69	764.56
504.907	742.56
505.123	757.56
505.34	776.56
505.557	707.56
505.773	742.56
505.99	740.56
506.207	713.56
506.423	722.56
506.64	695.56
506.856	713.56
507.073	691.56
507.289	695.56
507.506	702.56
507.722	681.56
507.939	685.56
508.155	683.56
508.372	689.56
508.588	690.56
508.805	672.56
509.021	665.56
509.238	697.56
509.454	684.56
509.67	687.56
509.887	676.56
510.103	657.56
510.319	648.56
510.536	752.56
510.752	1148.56
510.968	954.56
511.184	699.56
511.401	659.56
511.617	657.56
511.833	658.56
512.049	657.56
512.265	651.56
512.481	632.56
512.698	662.56
512.914	658.56
513.13	630.56
513.346	619.56
513.562	631.56
513.778	635.56
513.994	648.56
514.21	665.56
514.426	682.56
514.642	707.56
514.858	729.56
515.074	774.56
515.29	836.56
515.506	1162.56
515.721	1030.56
515.937	760.56
516.153	708.56
516.369	691.56
516.585	670.56
516.801	664.56
517.016	645.56
517.232	691.56
517.448	680.56
517.664	687.56
517.879	680.56
518.095	672.56
518.311	662.56
518.527	685.56
518.742	677.56
518.958	633.56
519.173	655.56
519.389	635.56
519.605	643.56
519.82	666.56
520.036	651.56
520.251	658.56
520.467	685.56
520.682	683.56
520.898	681.56
521.113	702.56
521.329	722.56
521.544	786.56
521.76	963.56
521.975	1463.56
522.19	1448.56
522.406	889.56
522.621	696.56
522.836	688.56
523.052	614.56
523.267	613.56
523.482	606.56
523.698	603.56
523.913	611.56
524.128	597.56
524.343	598.56
524.559	560.56
524.774	568.56
524.989	570.56
525.204	563.56
525.419	582.56
525.634	570.56
525.849	566.56
526.064	549.56
526.28	539.56
526.495	539.56
526.71	548.56
526.925	557.56
527.14	523.56
527.355	553.56
527.57	545.56
527.785	560.56
527.999	533.56
528.214	521.56
528.429	564.56
528.644	535.56
528.859	538.56
529.074	541.56
529.289	541.56
529.503	607.56
529.718	608.56
529.933	567.56
530.148	539.56
530.363	555.56
530.577	538.56
530.792	522.56
531.007	533.56
531.221	517.56
531.436	541.56
531.651	537.56
531.865	537.56
532.08	527.56
532.295	511.56
532.509	513.56
532.724	533.56
532.938	530.56
533.153	527.56
533.367	519.56
533.582	527.56
533.796	528.56
534.011	534.56
534.225	503.56
534.44	490.56
534.654	505.56
534.868	503.56
535.083	509.56
535.297	518.56
535.511	514.56
535.726	502.56
535.94	530.56
536.154	506.56
536.369	513.56
536.583	492.56
536.797	511.56
537.011	503.56
537.225	507.56
537.44	495.56
537.654	497.56
537.868	492.56
538.082	467.56
538.296	499.56
538.51	476.56
538.724	501.56
538.938	503.56
539.153	506.56
539.367	490.56
539.581	476.56
539.795	506.56
540.009	489.56
540.222	477.56
540.436	495.56
540.65	486.56
540.864	492.56
541.078	495.56
541.292	521.56
541.506	477.56
541.72	493.56
541.934	487.56
542.147	491.56
542.361	491.56
542.575	486.56
542.789	487.56
543.002	492.56
543.216	511.56
543.43	504.56
543.644	478.56
543.857	503.56
544.071	490.56
544.285	485.56
544.498	492.56
544.712	482.56
544.925	499.56
545.139	487.56
545.352	488.56
545.566	481.56
545.779	458.56
545.993	477.56
546.206	465.56
546.42	484.56
546.633	475.56
546.847	491.56
547.06	478.56
547.274	471.56
547.487	474.56
547.7	485.56
547.914	476.56
548.127	490.56
548.34	480.56
548.554	486.56
548.767	480.56
548.98	461.56
549.193	471.56
549.407	471.56
549.62	476.56
549.833	480.56
550.046	462.56
550.259	455.56
550.473	466.56
550.686	477.56
550.899	483.56
551.112	454.56
551.325	468.56
551.538	465.56
551.751	471.56
551.964	468.56
552.177	451.56
552.39	462.56
552.603	491.56
552.816	476.56
553.029	488.56
553.242	477.56
553.455	486.56
553.667	478.56
553.88	482.56
554.093	482.56
554.306	469.56
554.519	480.56
554.732	486.56
554.944	460.56
555.157	477.56
555.37	457.56
555.583	446.56
555.795	451.56
556.008	462.56
556.221	455.56
556.433	455.56
556.646	448.56
556.859	425.56
557.071	437.56
557.284	451.56
557.496	444.56
557.709	439.56
557.921	436.56
558.134	433.56
558.346	425.56
558.559	439.56
558.771	441.56
558.984	425.56
559.196	424.56
559.409	410.56
559.621	428.56
559.833	431.56
560.046	407.56
560.258	427.56
560.47	438.56
560.683	415.56
560.895	419.56
561.107	432.56
561.32	418.56
561.532	417.56
561.744	406.56
561.956	404.56
562.168	430.56
562.381	408.56
562.593	430.56
562.805	418.56
563.017	435.56
563.229	433.56
563.441	441.56
563.653	442.56
563.865	444.56
564.077	440.56
564.289	449.56
564.501	426.56
564.713	441.56
564.925	441.56
565.137	475.56
565.349	438.56
565.561	463.56
565.773	472.56
565.985	479.56
566.197	495.56
566.408	505.56
566.62	506.56
566.832	521.56
567.044	544.56
567.255	537.56
567.467	553.56
567.679	550.56
567.891	553.56
568.102	539.56
568.314	542.56
568.526	534.56
568.737	507.56
568.949	508.56
569.161	491.56
569.372	445.56
569.584	462.56
569.795	457.56
570.007	448.56
570.218	477.56
570.43	448.56
570.641	428.56
570.853	399.56
571.064	405.56
571.276	417.56
571.487	428.56
571.698	405.56
571.91	411.56
572.121	412.56
572.333	416.56
572.544	394.56
572.755	377.56
572.966	384.56
573.178	384.56
573.389	372.56
573.6	402.56
573.811	407.56
574.023	404.56
574.234	380.56
574.445	381.56
574.656	392.56
574.867	363.56
575.078	350.56
575.289	383.56
575.501	371.56
575.712	358.56
575.923	355.56
576.134	352.56
576.345	358.56
576.556	374.56
576.767	361.56
576.978	352.56
577.188	378.56
577.399	373.56
577.61	359.56
577.821	355.56
578.032	365.56
578.243	406.56
578.454	563.56
578.665	432.56
578.875	362.56
579.086	359.56
579.297	336.56
579.508	356.56
579.718	334.56
579.929	346.56
580.14	347.56
580.35	338.56
580.561	330.56
580.772	341.56
580.982	350.56
581.193	341.56
581.403	341.56
581.614	348.56
581.825	311.56
582.035	336.56
582.246	342.56
582.456	333.56
582.667	353.56
582.877	360.56
583.087	332.56
583.298	336.56
583.508	319.56
583.719	323.56
583.929	342.56
584.139	332.56
584.35	329.56
584.56	348.56
584.77	318.56
584.981	331.56
585.191	345.56
585.401	333.56
585.611	320.56
585.821	327.56
586.032	328.56
586.242	353.56
586.452	335.56
586.662	317.56
586.872	312.56
587.082	306.56
587.292	314.56
587.502	316.56
587.713	318.56
587.923	332.56
588.133	326.56
588.343	324.56
588.553	315.56
588.762	328.56
588.972	312.56
589.182	329.56
589.392	325.56
589.602	327.56
589.812	324.56
590.022	327.56
590.232	341.56
590.441	325.56
590.651	334.56
590.861	330.56
591.071	334.56
591.281	328.56
591.49	311.56
591.7	334.56
591.91	323.56
592.119	318.56
592.329	336.56
592.539	343.56
592.748	335.56
592.958	336.56
593.167	341.56
593.377	337.56
593.587	354.56
593.796	334.56
594.006	323.56
594.215	338.56
594.424	339.56
594.634	322.56
594.843	330.56
595.053	318.56
595.262	344.56
595.472	330.56
595.681	309.56
595.89	324.56
596.1	313.56
596.309	318.56
596.518	317.56
596.727	303.56
596.937	293.56
597.146	309.56
597.355	313.56
597.564	310.56
597.774	294.56
597.983	291.56
598.192	293.56
598.401	294.56
598.61	291.56
598.819	297.56
599.028	300.56
599.237	281.56
599.446	285.56
599.655	296.56
599.864	297.56
600.073	289.56
600.282	298.56
600.491	282.56
600.7	278.56
600.909	278.56
601.118	293.56
601.327	277.56
601.536	286.56
601.745	278.56
601.953	273.56
602.162	287.56
602.371	278.56
602.58	274.56
602.789	278.56
602.997	271.56
603.206	271.56
603.415	275.56
603.623	263.56
603.832	272.56
604.041	263.56
604.249	273.56
604.458	275.56
604.666	284.56
604.875	267.56
605.084	262.56
605.292	256.56
605.501	255.56
605.709	255.56
605.918	264.56
606.126	254.56
606.334	280.56
606.543	254.56
606.751	265.56
606.96	264.56
607.168	269.56
607.376	274.56
607.585	274.56
607.793	269.56
608.001	278.56
608.21	250.56
608.418	263.56
608.626	271.56
608.834	251.56
609.043	268.56
609.251	259.56
609.459	262.56
609.667	257.56
609.875	259.56
610.083	245.56
610.291	255.56
610.499	245.56
610.707	257.56
610.916	261.56
611.124	272.56
611.332	256.56
611.54	269.56
611.748	261.56
611.955	274.56
612.163	264.56
612.371	270.56
612.579	250.56
612.787	270.56
612.995	249.56
613.203	254.56
613.411	267.56
613.618	262.56
613.826	234.56
614.034	263.56
614.242	256.56
614.449	258.56
614.657	239.56
614.865	263.56
615.072	256.56
615.28	251.56
615.488	247.56
615.695	258.56
615.903	261.56
616.111	247.56
616.318	262.56
616.526	277.56
616.733	253.56
616.941	242.56
617.148	254.56
617.356	257.56
617.563	252.56
617.771	256.56
617.978	241.56
618.185	253.56
618.393	257.56
618.6	253.56
618.807	242.56
619.015	236.56
619.222	263.56
619.429	236.56
619.637	238.56
619.844	233.56
620.051	243.56
620.258	244.56
620.466	256.56
620.673	215.56
620.88	214.56
621.087	240.56
621.294	239.56
621.501	241.56
621.708	240.56
621.915	239.56
622.122	229.56
622.329	249.56
622.536	234.56
622.743	229.56
622.95	237.56
623.157	224.56
623.364	243.56
623.571	220.56
623.778	235.56
623.985	245.56
624.192	229.56
624.399	220.56
624.606	232.56
624.812	231.56
625.019	219.56
625.226	229.56
625.433	240.56
625.639	217.56
625.846	206.56
626.053	223.56
626.259	213.56
626.466	219.56
626.673	214.56
626.879	218.56
627.086	199.56
627.293	212.56
627.499	221.56
627.706	236.56
627.912	236.56
628.119	221.56
628.325	220.56
628.532	222.56
628.738	228.56
628.945	199.56
629.151	206.56
629.357	210.56
629.564	208.56
629.77	202.56
629.976	212.56
630.183	223.56
630.389	208.56
630.595	208.56
630.802	210.56
631.008	200.56
631.214	214.56
631.42	202.56
631.627	203.56
631.833	211.56
632.039	200.56
632.245	191.56
632.451	204.56
632.657	211.56
632.863	214.56
633.069	203.56
633.275	191.56
633.481	198.56
633.688	207.56
633.893	212.56
634.099	204.56
634.305	189.56
634.511	190.56
634.717	200.56
634.923	196.56
635.129	192.56
635.335	201.56
635.541	183.56
635.747	198.56
635.952	198.56
636.158	200.56
636.364	199.56
636.57	205.56
636.775	217.56
636.981	201.56
637.187	205.56
637.392	197.56
637.598	179.56
637.804	184.56
638.009	184.56
638.215	187.56
638.421	191.56
638.626	192.56
638.832	198.56
639.037	191.56
639.243	169.56
639.448	189.56
639.654	177.56
639.859	186.56
640.065	187.56
640.27	203.56
640.475	211.56
640.681	201.56
640.886	180.56
641.091	190.56
641.297	177.56
641.502	197.56
641.707	179.56
641.913	196.56
642.118	173.56
642.323	192.56
642.528	192.56
642.733	179.56
642.939	183.56
643.144	170.56
643.349	185.56
643.554	174.56
643.759	183.56
643.964	175.56
644.169	170.56
644.374	173.56
644.579	190.56
644.784	175.56
644.989	175.56
645.194	171.56
645.399	198.56
645.604	166.56
645.809	171.56
646.014	174.56
646.219	190.56
646.423	182.56
646.628	183.56
646.833	170.56
647.038	185.56
647.243	168.56
647.447	176.56
647.652	169.56
647.857	184.56
648.062	187.56
648.266	162.56
648.471	154.56
648.676	188.56
648.88	187.56
649.085	186.56
649.289	182.56
649.494	179.56
649.698	194.56
649.903	180.56
650.107	182.56
650.312	184.56
650.516	168.56
650.721	173.56
650.925	169.56
651.13	172.56
651.334	145.56
651.539	153.56
651.743	160.56
651.947	152.56
652.152	166.56
652.356	149.56
652.56	146.56
652.764	151.56
652.969	155.56
653.173	156.56
653.377	151.56
653.581	144.56
653.785	126.56
653.99	138.56
654.194	137.56
654.398	152.56
654.602	146.56
654.806	149.56
655.01	148.56
655.214	151.56
655.418	133.56
655.622	140.56
655.826	135.56
656.03	140.56
656.234	133.56
656.438	140.56
656.642	137.56
656.846	144.56
657.049	137.56
657.253	123.56
657.457	123.56
657.661	119.56
657.865	123.56
658.068	124.56
658.272	127.56
658.476	105.56
658.68	93.56
658.883	103.56
659.087	106.56
659.291	104.56
659.494	93.56
659.698	84.56
659.901	96.56
660.105	102.56
660.309	99.56
660.512	81.56
660.716	84.56
660.919	85.56
661.123	93.56
661.326	93.56
661.53	94.56
661.733	86.56
661.936	93.56
662.14	89.56
662.343	94.56
662.546	85.56
662.75	95.56
662.953	88.56
663.156	90.56
663.36	80.56
663.563	92.56
663.766	91.56
663.969	86.56
664.173	91.56
664.376	83.56
664.579	92.56
664.782	94.56
664.985	95.56
665.188	81.56
665.391	80.56
665.594	73.56
665.797	84.56
666	87.56
666.203	89.56
666.406	81.56
666.609	75.56
666.812	86.56
667.015	72.56
667.218	87.56
667.421	81.56
667.624	75.56
667.827	67.56
668.03	82.56
668.232	88.56
668.435	99.56
668.638	87.56
668.841	88.56
669.043	83.56
669.246	84.56
669.449	86.56
669.651	87.56
669.854	83.56
670.057	85.56
670.259	73.56
670.462	85.56
670.665	92.56
670.867	96.56
671.07	86.56
671.272	79.56
671.475	94.56
671.677	89.56
671.88	83.56
672.082	92.56
672.284	93.56
672.487	87.56
672.689	77.56
672.892	80.56
