Data from 1978.PennyLincolnUp.Lamp.En5.5.200Scan.071719.P1_HRD10591_16-11-47-866.txt Node
Date: Thu Jul 18 16:11:47 EDT 2019
User: cochatt
Spectrometer: HR+D1059
Trigger mode: 1
Integration Time (sec): 1.000000E-1
Scans to average: 1
Electric dark correction enabled: true
Nonlinearity correction enabled: false
Boxcar width: 0
XAxis mode: Wavelengths
Number of Pixels in Spectrum: 2048
>>>>>Begin Spectral Data<<<<<
223.165	-12.31
223.4	-12.31
223.635	-12.31
223.869	-18.31
224.104	-11.31
224.338	-16.31
224.573	-19.31
224.808	-19.31
225.042	-17.31
225.277	-15.31
225.511	5.69
225.746	2.69
225.98	19.69
226.215	7.69
226.449	23.69
226.683	19.69
226.918	21.69
227.152	28.69
227.387	36.69
227.621	30.69
227.856	37.69
228.09	47.69
228.324	41.69
228.559	58.69
228.793	68.69
229.027	74.69
229.262	92.69
229.496	108.69
229.73	99.69
229.964	127.69
230.199	105.69
230.433	108.69
230.667	102.69
230.901	102.69
231.136	117.69
231.37	112.69
231.604	111.69
231.838	104.69
232.072	108.69
232.306	100.69
232.541	115.69
232.775	119.69
233.009	107.69
233.243	106.69
233.477	97.69
233.711	106.69
233.945	101.69
234.179	93.69
234.413	110.69
234.647	101.69
234.881	125.69
235.115	114.69
235.349	115.69
235.583	109.69
235.817	120.69
236.051	109.69
236.285	117.69
236.519	105.69
236.753	110.69
236.987	123.69
237.221	145.69
237.455	190.69
237.689	140.69
237.922	123.69
238.156	103.69
238.39	107.69
238.624	121.69
238.858	102.69
239.091	107.69
239.325	111.69
239.559	116.69
239.793	108.69
240.027	120.69
240.26	124.69
240.494	135.69
240.728	119.69
240.961	118.69
241.195	122.69
241.429	133.69
241.662	119.69
241.896	127.69
242.13	123.69
242.363	124.69
242.597	128.69
242.83	120.69
243.064	119.69
243.298	125.69
243.531	126.69
243.765	120.69
243.998	129.69
244.232	126.69
244.465	123.69
244.699	120.69
244.932	135.69
245.166	123.69
245.399	139.69
245.633	135.69
245.866	138.69
246.099	132.69
246.333	123.69
246.566	136.69
246.8	133.69
247.033	124.69
247.266	135.69
247.5	135.69
247.733	141.69
247.966	146.69
248.2	134.69
248.433	145.69
248.666	135.69
248.899	160.69
249.133	152.69
249.366	167.69
249.599	162.69
249.832	133.69
250.066	156.69
250.299	168.69
250.532	146.69
250.765	166.69
250.998	161.69
251.231	176.69
251.465	160.69
251.698	158.69
251.931	161.69
252.164	152.69
252.397	170.69
252.63	164.69
252.863	164.69
253.096	174.69
253.329	180.69
253.562	164.69
253.795	165.69
254.028	180.69
254.261	169.69
254.494	190.69
254.727	203.69
254.96	216.69
255.193	206.69
255.426	192.69
255.659	180.69
255.892	175.69
256.124	175.69
256.357	178.69
256.59	194.69
256.823	181.69
257.056	164.69
257.289	168.69
257.521	178.69
257.754	175.69
257.987	186.69
258.22	157.69
258.452	168.69
258.685	178.69
258.918	181.69
259.151	182.69
259.383	206.69
259.616	183.69
259.849	194.69
260.081	207.69
260.314	202.69
260.547	191.69
260.779	197.69
261.012	181.69
261.244	206.69
261.477	203.69
261.71	184.69
261.942	203.69
262.175	186.69
262.407	188.69
262.64	169.69
262.872	184.69
263.105	178.69
263.337	172.69
263.57	184.69
263.802	192.69
264.035	179.69
264.267	197.69
264.499	175.69
264.732	174.69
264.964	182.69
265.197	182.69
265.429	162.69
265.661	194.69
265.894	188.69
266.126	186.69
266.358	184.69
266.591	187.69
266.823	203.69
267.055	182.69
267.287	187.69
267.52	188.69
267.752	190.69
267.984	192.69
268.216	195.69
268.448	214.69
268.681	205.69
268.913	204.69
269.145	209.69
269.377	214.69
269.609	230.69
269.841	213.69
270.073	224.69
270.306	212.69
270.538	230.69
270.77	220.69
271.002	212.69
271.234	222.69
271.466	235.69
271.698	252.69
271.93	224.69
272.162	230.69
272.394	236.69
272.626	230.69
272.858	227.69
273.09	214.69
273.322	216.69
273.553	195.69
273.785	229.69
274.017	231.69
274.249	207.69
274.481	224.69
274.713	207.69
274.945	232.69
275.176	229.69
275.408	228.69
275.64	221.69
275.872	231.69
276.104	222.69
276.335	207.69
276.567	229.69
276.799	240.69
277.031	227.69
277.262	248.69
277.494	247.69
277.726	223.69
277.957	223.69
278.189	234.69
278.421	238.69
278.652	228.69
278.884	245.69
279.115	233.69
279.347	219.69
279.579	228.69
279.81	231.69
280.042	231.69
280.273	231.69
280.505	229.69
280.736	246.69
280.968	233.69
281.199	216.69
281.431	222.69
281.662	237.69
281.894	227.69
282.125	225.69
282.356	244.69
282.588	243.69
282.819	260.69
283.051	257.69
283.282	229.69
283.513	229.69
283.745	242.69
283.976	251.69
284.207	235.69
284.439	246.69
284.67	258.69
284.901	243.69
285.132	245.69
285.364	223.69
285.595	238.69
285.826	244.69
286.057	239.69
286.288	235.69
286.52	257.69
286.751	249.69
286.982	239.69
287.213	258.69
287.444	248.69
287.675	262.69
287.906	258.69
288.138	259.69
288.369	253.69
288.6	248.69
288.831	253.69
289.062	258.69
289.293	262.69
289.524	238.69
289.755	263.69
289.986	249.69
290.217	251.69
290.448	255.69
290.679	260.69
290.91	259.69
291.141	255.69
291.371	250.69
291.602	244.69
291.833	259.69
292.064	228.69
292.295	238.69
292.526	253.69
292.757	252.69
292.987	258.69
293.218	254.69
293.449	245.69
293.68	264.69
293.91	279.69
294.141	260.69
294.372	262.69
294.603	258.69
294.833	244.69
295.064	252.69
295.295	262.69
295.525	251.69
295.756	259.69
295.987	264.69
296.217	263.69
296.448	285.69
296.679	274.69
296.909	264.69
297.14	253.69
297.37	273.69
297.601	256.69
297.831	263.69
298.062	267.69
298.292	278.69
298.523	282.69
298.753	271.69
298.984	269.69
299.214	270.69
299.445	280.69
299.675	267.69
299.905	280.69
300.136	280.69
300.366	266.69
300.597	281.69
300.827	263.69
301.057	271.69
301.288	277.69
301.518	287.69
301.748	284.69
301.979	288.69
302.209	276.69
302.439	282.69
302.669	293.69
302.9	280.69
303.13	279.69
303.36	293.69
303.59	283.69
303.82	292.69
304.051	294.69
304.281	291.69
304.511	287.69
304.741	295.69
304.971	295.69
305.201	289.69
305.431	293.69
305.661	275.69
305.891	293.69
306.121	283.69
306.352	300.69
306.582	286.69
306.812	276.69
307.042	288.69
307.272	280.69
307.502	269.69
307.731	306.69
307.961	290.69
308.191	275.69
308.421	297.69
308.651	279.69
308.881	312.69
309.111	315.69
309.341	301.69
309.571	311.69
309.8	306.69
310.03	303.69
310.26	295.69
310.49	298.69
310.72	296.69
310.949	327.69
311.179	326.69
311.409	303.69
311.639	310.69
311.868	312.69
312.098	316.69
312.328	318.69
312.557	333.69
312.787	339.69
313.017	326.69
313.246	322.69
313.476	320.69
313.706	317.69
313.935	310.69
314.165	319.69
314.394	325.69
314.624	346.69
314.853	340.69
315.083	336.69
315.312	334.69
315.542	318.69
315.771	349.69
316.001	301.69
316.23	318.69
316.46	318.69
316.689	323.69
316.919	328.69
317.148	351.69
317.377	338.69
317.607	327.69
317.836	311.69
318.065	319.69
318.295	327.69
318.524	316.69
318.753	336.69
318.983	331.69
319.212	318.69
319.441	326.69
319.67	325.69
319.9	331.69
320.129	317.69
320.358	329.69
320.587	304.69
320.816	317.69
321.046	340.69
321.275	331.69
321.504	341.69
321.733	334.69
321.962	333.69
322.191	340.69
322.42	346.69
322.649	366.69
322.878	362.69
323.108	362.69
323.337	365.69
323.566	378.69
323.795	384.69
324.024	407.69
324.253	461.69
324.482	636.69
324.71	974.69
324.939	1387.69
325.168	1217.69
325.397	623.69
325.626	466.69
325.855	412.69
326.084	406.69
326.313	384.69
326.542	393.69
326.77	432.69
326.999	469.69
327.228	599.69
327.457	873.69
327.686	1088.69
327.914	721.69
328.143	474.69
328.372	456.69
328.6	424.69
328.829	399.69
329.058	407.69
329.287	432.69
329.515	418.69
329.744	388.69
329.972	400.69
330.201	416.69
330.43	420.69
330.658	408.69
330.887	435.69
331.115	426.69
331.344	386.69
331.572	389.69
331.801	386.69
332.03	391.69
332.258	410.69
332.486	394.69
332.715	381.69
332.943	407.69
333.172	378.69
333.4	384.69
333.629	390.69
333.857	404.69
334.085	420.69
334.314	436.69
334.542	426.69
334.771	453.69
334.999	413.69
335.227	408.69
335.455	398.69
335.684	385.69
335.912	399.69
336.14	407.69
336.369	368.69
336.597	398.69
336.825	410.69
337.053	371.69
337.281	374.69
337.51	385.69
337.738	368.69
337.966	390.69
338.194	394.69
338.422	370.69
338.65	390.69
338.878	381.69
339.106	374.69
339.334	375.69
339.562	366.69
339.79	381.69
340.018	384.69
340.246	367.69
340.474	394.69
340.702	384.69
340.93	353.69
341.158	381.69
341.386	376.69
341.614	383.69
341.842	367.69
342.07	363.69
342.298	376.69
342.526	361.69
342.754	367.69
342.981	359.69
343.209	377.69
343.437	386.69
343.665	390.69
343.893	398.69
344.12	401.69
344.348	377.69
344.576	374.69
344.804	379.69
345.031	398.69
345.259	396.69
345.487	396.69
345.714	392.69
345.942	401.69
346.17	375.69
346.397	375.69
346.625	357.69
346.853	382.69
347.08	359.69
347.308	342.69
347.535	395.69
347.763	380.69
347.99	366.69
348.218	378.69
348.445	372.69
348.673	384.69
348.9	367.69
349.128	356.69
349.355	356.69
349.583	375.69
349.81	384.69
350.037	349.69
350.265	372.69
350.492	347.69
350.72	362.69
350.947	359.69
351.174	366.69
351.402	378.69
351.629	380.69
351.856	377.69
352.083	366.69
352.311	383.69
352.538	367.69
352.765	370.69
352.992	343.69
353.22	363.69
353.447	364.69
353.674	362.69
353.901	351.69
354.128	350.69
354.355	337.69
354.583	370.69
354.81	336.69
355.037	347.69
355.264	355.69
355.491	347.69
355.718	362.69
355.945	356.69
356.172	359.69
356.399	351.69
356.626	352.69
356.853	357.69
357.08	333.69
357.307	361.69
357.534	365.69
357.761	362.69
357.988	359.69
358.215	363.69
358.441	354.69
358.668	346.69
358.895	363.69
359.122	352.69
359.349	359.69
359.576	374.69
359.802	365.69
360.029	400.69
360.256	405.69
360.483	386.69
360.709	390.69
360.936	366.69
361.163	336.69
361.39	377.69
361.616	362.69
361.843	375.69
362.07	380.69
362.296	374.69
362.523	372.69
362.749	358.69
362.976	355.69
363.203	345.69
363.429	357.69
363.656	370.69
363.882	358.69
364.109	363.69
364.335	393.69
364.562	347.69
364.788	370.69
365.015	370.69
365.241	364.69
365.468	374.69
365.694	360.69
365.92	390.69
366.147	383.69
366.373	368.69
366.599	367.69
366.826	382.69
367.052	356.69
367.278	355.69
367.505	372.69
367.731	386.69
367.957	357.69
368.184	350.69
368.41	357.69
368.636	351.69
368.862	365.69
369.089	380.69
369.315	367.69
369.541	367.69
369.767	371.69
369.993	388.69
370.219	378.69
370.445	387.69
370.672	385.69
370.898	371.69
371.124	377.69
371.35	376.69
371.576	370.69
371.802	381.69
372.028	375.69
372.254	396.69
372.48	383.69
372.706	382.69
372.932	367.69
373.158	364.69
373.384	393.69
373.61	391.69
373.835	370.69
374.061	378.69
374.287	365.69
374.513	379.69
374.739	391.69
374.965	395.69
375.191	401.69
375.416	384.69
375.642	378.69
375.868	385.69
376.094	388.69
376.319	381.69
376.545	378.69
376.771	387.69
376.997	365.69
377.222	367.69
377.448	370.69
377.674	362.69
377.899	378.69
378.125	379.69
378.35	356.69
378.576	373.69
378.802	370.69
379.027	384.69
379.253	379.69
379.478	378.69
379.704	392.69
379.929	403.69
380.155	388.69
380.38	361.69
380.606	358.69
380.831	386.69
381.057	383.69
381.282	380.69
381.507	367.69
381.733	375.69
381.958	387.69
382.184	381.69
382.409	407.69
382.634	409.69
382.86	404.69
383.085	389.69
383.31	394.69
383.535	397.69
383.761	382.69
383.986	397.69
384.211	431.69
384.436	407.69
384.662	414.69
384.887	423.69
385.112	411.69
385.337	397.69
385.562	429.69
385.787	428.69
386.013	445.69
386.238	427.69
386.463	457.69
386.688	440.69
386.913	413.69
387.138	435.69
387.363	428.69
387.588	414.69
387.813	428.69
388.038	427.69
388.263	429.69
388.488	424.69
388.713	436.69
388.938	428.69
389.163	431.69
389.387	441.69
389.612	423.69
389.837	454.69
390.062	419.69
390.287	418.69
390.512	422.69
390.736	427.69
390.961	419.69
391.186	426.69
391.411	436.69
391.636	457.69
391.86	443.69
392.085	459.69
392.31	441.69
392.534	449.69
392.759	437.69
392.984	440.69
393.208	435.69
393.433	436.69
393.658	463.69
393.882	444.69
394.107	432.69
394.331	423.69
394.556	424.69
394.78	436.69
395.005	439.69
395.229	430.69
395.454	441.69
395.678	469.69
395.903	471.69
396.127	487.69
396.352	473.69
396.576	452.69
396.801	469.69
397.025	467.69
397.249	481.69
397.474	466.69
397.698	456.69
397.922	471.69
398.147	492.69
398.371	481.69
398.595	476.69
398.82	488.69
399.044	499.69
399.268	518.69
399.492	527.69
399.717	566.69
399.941	588.69
400.165	617.69
400.389	618.69
400.613	574.69
400.837	551.69
401.062	510.69
401.286	475.69
401.51	503.69
401.734	493.69
401.958	506.69
402.182	498.69
402.406	520.69
402.63	498.69
402.854	494.69
403.078	507.69
403.302	494.69
403.526	490.69
403.75	514.69
403.974	506.69
404.198	494.69
404.422	528.69
404.645	522.69
404.869	521.69
405.093	537.69
405.317	585.69
405.541	600.69
405.765	568.69
405.988	522.69
406.212	547.69
406.436	549.69
406.66	556.69
406.883	533.69
407.107	562.69
407.331	606.69
407.555	638.69
407.778	647.69
408.002	609.69
408.226	576.69
408.449	567.69
408.673	567.69
408.896	591.69
409.12	621.69
409.344	583.69
409.567	571.69
409.791	524.69
410.014	514.69
410.238	518.69
410.461	524.69
410.685	531.69
410.908	532.69
411.132	564.69
411.355	583.69
411.578	544.69
411.802	527.69
412.025	537.69
412.249	538.69
412.472	540.69
412.695	585.69
412.919	564.69
413.142	520.69
413.365	498.69
413.589	528.69
413.812	496.69
414.035	489.69
414.258	506.69
414.482	499.69
414.705	473.69
414.928	488.69
415.151	522.69
415.374	487.69
415.597	498.69
415.821	483.69
416.044	498.69
416.267	502.69
416.49	516.69
416.713	502.69
416.936	492.69
417.159	490.69
417.382	487.69
417.605	506.69
417.828	478.69
418.051	511.69
418.274	506.69
418.497	500.69
418.72	486.69
418.943	479.69
419.166	501.69
419.389	529.69
419.611	533.69
419.834	517.69
420.057	516.69
420.28	522.69
420.503	486.69
420.726	496.69
420.948	514.69
421.171	545.69
421.394	557.69
421.617	514.69
421.839	512.69
422.062	498.69
422.285	507.69
422.507	552.69
422.73	626.69
422.953	623.69
423.175	546.69
423.398	524.69
423.621	491.69
423.843	542.69
424.066	528.69
424.288	518.69
424.511	544.69
424.733	593.69
424.956	662.69
425.178	604.69
425.401	612.69
425.623	638.69
425.846	548.69
426.068	514.69
426.291	530.69
426.513	529.69
426.735	529.69
426.958	547.69
427.18	634.69
427.402	743.69
427.625	795.69
427.847	664.69
428.069	595.69
428.292	548.69
428.514	517.69
428.736	489.69
428.958	507.69
429.181	483.69
429.403	489.69
429.625	473.69
429.847	518.69
430.069	536.69
430.292	547.69
430.514	508.69
430.736	495.69
430.958	491.69
431.18	479.69
431.402	471.69
431.624	482.69
431.846	456.69
432.068	475.69
432.29	482.69
432.512	463.69
432.734	482.69
432.956	487.69
433.178	480.69
433.4	525.69
433.622	480.69
433.844	465.69
434.066	469.69
434.287	492.69
434.509	478.69
434.731	489.69
434.953	474.69
435.175	503.69
435.397	511.69
435.618	520.69
435.84	564.69
436.062	626.69
436.284	679.69
436.505	575.69
436.727	531.69
436.949	488.69
437.17	495.69
437.392	490.69
437.614	526.69
437.835	509.69
438.057	581.69
438.278	641.69
438.5	650.69
438.721	733.69
438.943	724.69
439.165	574.69
439.386	532.69
439.608	536.69
439.829	514.69
440.05	537.69
440.272	576.69
440.493	548.69
440.715	536.69
440.936	492.69
441.158	485.69
441.379	494.69
441.6	514.69
441.822	527.69
442.043	549.69
442.264	615.69
442.486	636.69
442.707	584.69
442.928	528.69
443.149	526.69
443.371	531.69
443.592	569.69
443.813	661.69
444.034	730.69
444.255	589.69
444.476	532.69
444.698	568.69
444.919	551.69
445.14	667.69
445.361	592.69
445.582	572.69
445.803	607.69
446.024	675.69
446.245	646.69
446.466	627.69
446.687	570.69
446.908	542.69
447.129	505.69
447.35	493.69
447.571	483.69
447.792	476.69
448.013	500.69
448.234	477.69
448.455	535.69
448.675	628.69
448.896	712.69
449.117	613.69
449.338	576.69
449.559	670.69
449.779	766.69
450	598.69
450.221	519.69
450.442	471.69
450.662	474.69
450.883	486.69
451.104	490.69
451.324	476.69
451.545	437.69
451.766	450.69
451.986	428.69
452.207	422.69
452.428	440.69
452.648	439.69
452.869	433.69
453.089	446.69
453.31	462.69
453.53	440.69
453.751	444.69
453.971	437.69
454.192	438.69
454.412	452.69
454.633	455.69
454.853	447.69
455.073	440.69
455.294	473.69
455.514	484.69
455.734	487.69
455.955	452.69
456.175	419.69
456.395	415.69
456.616	422.69
456.836	450.69
457.056	430.69
457.276	438.69
457.497	412.69
457.717	415.69
457.937	440.69
458.157	435.69
458.377	440.69
458.598	441.69
458.818	480.69
459.038	522.69
459.258	548.69
459.478	491.69
459.698	495.69
459.918	475.69
460.138	486.69
460.358	487.69
460.578	500.69
460.798	483.69
461.018	490.69
461.238	492.69
461.458	521.69
461.678	516.69
461.898	514.69
462.118	510.69
462.338	518.69
462.558	536.69
462.777	555.69
462.997	551.69
463.217	556.69
463.437	562.69
463.657	541.69
463.876	554.69
464.096	537.69
464.316	536.69
464.536	551.69
464.755	526.69
464.975	547.69
465.195	555.69
465.414	564.69
465.634	538.69
465.854	492.69
466.073	509.69
466.293	487.69
466.512	486.69
466.732	464.69
466.951	487.69
467.171	452.69
467.391	447.69
467.61	475.69
467.829	464.69
468.049	470.69
468.268	460.69
468.488	476.69
468.707	468.69
468.927	476.69
469.146	439.69
469.365	450.69
469.585	445.69
469.804	459.69
470.023	468.69
470.243	484.69
470.462	474.69
470.681	475.69
470.901	465.69
471.12	480.69
471.339	470.69
471.558	473.69
471.777	485.69
471.997	458.69
472.216	464.69
472.435	471.69
472.654	482.69
472.873	489.69
473.092	453.69
473.311	464.69
473.53	456.69
473.749	463.69
473.968	508.69
474.187	557.69
474.406	571.69
474.625	498.69
474.844	477.69
475.063	494.69
475.282	465.69
475.501	484.69
475.72	480.69
475.939	480.69
476.158	476.69
476.377	487.69
476.596	458.69
476.814	487.69
477.033	486.69
477.252	505.69
477.471	512.69
477.69	516.69
477.908	522.69
478.127	512.69
478.346	508.69
478.564	537.69
478.783	551.69
479.002	534.69
479.22	542.69
479.439	549.69
479.658	543.69
479.876	575.69
480.095	559.69
480.313	592.69
480.532	565.69
480.751	576.69
480.969	566.69
481.188	607.69
481.406	599.69
481.624	568.69
481.843	586.69
482.061	571.69
482.28	556.69
482.498	532.69
482.717	563.69
482.935	569.69
483.153	573.69
483.372	557.69
483.59	567.69
483.808	551.69
484.027	550.69
484.245	541.69
484.463	557.69
484.681	571.69
484.9	568.69
485.118	567.69
485.336	556.69
485.554	578.69
485.772	542.69
485.99	562.69
486.209	563.69
486.427	573.69
486.645	579.69
486.863	589.69
487.081	563.69
487.299	579.69
487.517	588.69
487.735	594.69
487.953	587.69
488.171	576.69
488.389	603.69
488.607	591.69
488.825	589.69
489.043	589.69
489.261	593.69
489.479	604.69
489.696	610.69
489.914	600.69
490.132	600.69
490.35	583.69
490.568	583.69
490.786	623.69
491.003	604.69
491.221	602.69
491.439	628.69
491.657	614.69
491.874	633.69
492.092	637.69
492.31	649.69
492.527	646.69
492.745	642.69
492.963	643.69
493.18	626.69
493.398	648.69
493.615	662.69
493.833	662.69
494.05	655.69
494.268	669.69
494.485	675.69
494.703	651.69
494.92	652.69
495.138	645.69
495.355	671.69
495.573	641.69
495.79	664.69
496.008	684.69
496.225	680.69
496.442	656.69
496.66	669.69
496.877	699.69
497.094	680.69
497.312	728.69
497.529	707.69
497.746	738.69
497.963	744.69
498.181	765.69
498.398	754.69
498.615	782.69
498.832	796.69
499.049	800.69
499.267	849.69
499.484	898.69
499.701	894.69
499.918	939.69
500.135	986.69
500.352	1034.69
500.569	1052.69
500.786	1028.69
501.003	1021.69
501.22	1006.69
501.437	950.69
501.654	932.69
501.871	897.69
502.088	892.69
502.305	802.69
502.522	790.69
502.739	797.69
502.956	788.69
503.172	765.69
503.389	715.69
503.606	720.69
503.823	728.69
504.04	721.69
504.256	724.69
504.473	709.69
504.69	715.69
504.907	702.69
505.123	703.69
505.34	670.69
505.557	663.69
505.773	663.69
505.99	661.69
506.207	635.69
506.423	636.69
506.64	629.69
506.856	632.69
507.073	625.69
507.289	623.69
507.506	636.69
507.722	633.69
507.939	627.69
508.155	596.69
508.372	616.69
508.588	600.69
508.805	607.69
509.021	606.69
509.238	606.69
509.454	601.69
509.67	592.69
509.887	599.69
510.103	600.69
510.319	596.69
510.536	633.69
510.752	835.69
510.968	739.69
511.184	593.69
511.401	576.69
511.617	579.69
511.833	576.69
512.049	567.69
512.265	571.69
512.481	566.69
512.698	562.69
512.914	565.69
513.13	576.69
513.346	576.69
513.562	596.69
513.778	568.69
513.994	582.69
514.21	577.69
514.426	596.69
514.642	605.69
514.858	620.69
515.074	629.69
515.29	717.69
515.506	853.69
515.721	767.69
515.937	640.69
516.153	620.69
516.369	594.69
516.585	598.69
516.801	602.69
517.016	630.69
517.232	619.69
517.448	627.69
517.664	612.69
517.879	622.69
518.095	617.69
518.311	601.69
518.527	609.69
518.742	604.69
518.958	600.69
519.173	585.69
519.389	594.69
519.605	596.69
519.82	585.69
520.036	572.69
520.251	575.69
520.467	602.69
520.682	587.69
520.898	590.69
521.113	591.69
521.329	613.69
521.544	636.69
521.76	742.69
521.975	973.69
522.19	962.69
522.406	685.69
522.621	594.69
522.836	588.69
523.052	544.69
523.267	532.69
523.482	542.69
523.698	523.69
523.913	531.69
524.128	515.69
524.343	522.69
524.559	514.69
524.774	496.69
524.989	533.69
525.204	514.69
525.419	515.69
525.634	505.69
525.849	501.69
526.064	485.69
526.28	491.69
526.495	502.69
526.71	510.69
526.925	503.69
527.14	493.69
527.355	477.69
527.57	483.69
527.785	484.69
527.999	508.69
528.214	500.69
528.429	503.69
528.644	495.69
528.859	494.69
529.074	484.69
529.289	517.69
529.503	542.69
529.718	542.69
529.933	509.69
530.148	506.69
530.363	518.69
530.577	475.69
530.792	496.69
531.007	492.69
531.221	487.69
531.436	469.69
531.651	505.69
531.865	498.69
532.08	480.69
532.295	506.69
532.509	472.69
532.724	460.69
532.938	483.69
533.153	486.69
533.367	482.69
533.582	474.69
533.796	470.69
534.011	484.69
534.225	471.69
534.44	472.69
534.654	479.69
534.868	492.69
535.083	499.69
535.297	477.69
535.511	474.69
535.726	480.69
535.94	484.69
536.154	470.69
536.369	462.69
536.583	463.69
536.797	452.69
537.011	478.69
537.225	464.69
537.44	488.69
537.654	454.69
537.868	446.69
538.082	483.69
538.296	436.69
538.51	433.69
538.724	457.69
538.938	480.69
539.153	471.69
539.367	484.69
539.581	478.69
539.795	466.69
540.009	474.69
540.222	458.69
540.436	468.69
540.65	464.69
540.864	455.69
541.078	460.69
541.292	458.69
541.506	453.69
541.72	449.69
541.934	449.69
542.147	446.69
542.361	445.69
542.575	468.69
542.789	464.69
543.002	461.69
543.216	465.69
543.43	447.69
543.644	458.69
543.857	455.69
544.071	469.69
544.285	429.69
544.498	461.69
544.712	469.69
544.925	452.69
545.139	463.69
545.352	457.69
545.566	446.69
545.779	454.69
545.993	447.69
546.206	472.69
546.42	452.69
546.633	449.69
546.847	445.69
547.06	446.69
547.274	437.69
547.487	444.69
547.7	461.69
547.914	453.69
548.127	457.69
548.34	458.69
548.554	436.69
548.767	462.69
548.98	461.69
549.193	446.69
549.407	435.69
549.62	464.69
549.833	450.69
550.046	424.69
550.259	459.69
550.473	429.69
550.686	454.69
550.899	444.69
551.112	438.69
551.325	440.69
551.538	442.69
551.751	447.69
551.964	436.69
552.177	455.69
552.39	448.69
552.603	461.69
552.816	449.69
553.029	455.69
553.242	453.69
553.455	462.69
553.667	451.69
553.88	468.69
554.093	464.69
554.306	451.69
554.519	455.69
554.732	455.69
554.944	428.69
555.157	430.69
555.37	437.69
555.583	426.69
555.795	443.69
556.008	424.69
556.221	434.69
556.433	440.69
556.646	420.69
556.859	422.69
557.071	404.69
557.284	429.69
557.496	408.69
557.709	423.69
557.921	395.69
558.134	414.69
558.346	412.69
558.559	400.69
558.771	404.69
558.984	416.69
559.196	394.69
559.409	392.69
559.621	398.69
559.833	405.69
560.046	391.69
560.258	408.69
560.47	418.69
560.683	414.69
560.895	399.69
561.107	396.69
561.32	397.69
561.532	384.69
561.744	418.69
561.956	396.69
562.168	386.69
562.381	406.69
562.593	413.69
562.805	412.69
563.017	407.69
563.229	413.69
563.441	419.69
563.653	407.69
563.865	405.69
564.077	407.69
564.289	419.69
564.501	423.69
564.713	421.69
564.925	446.69
565.137	435.69
565.349	452.69
565.561	459.69
565.773	459.69
565.985	458.69
566.197	486.69
566.408	495.69
566.62	500.69
566.832	516.69
567.044	518.69
567.255	500.69
567.467	526.69
567.679	527.69
567.891	552.69
568.102	535.69
568.314	499.69
568.526	496.69
568.737	506.69
568.949	465.69
569.161	462.69
569.372	460.69
569.584	437.69
569.795	446.69
570.007	422.69
570.218	434.69
570.43	434.69
570.641	420.69
570.853	401.69
571.064	422.69
571.276	400.69
571.487	426.69
571.698	400.69
571.91	385.69
572.121	388.69
572.333	380.69
572.544	375.69
572.755	396.69
572.966	380.69
573.178	379.69
573.389	355.69
573.6	356.69
573.811	361.69
574.023	370.69
574.234	372.69
574.445	365.69
574.656	368.69
574.867	371.69
575.078	374.69
575.289	347.69
575.501	353.69
575.712	351.69
575.923	351.69
576.134	357.69
576.345	353.69
576.556	339.69
576.767	347.69
576.978	348.69
577.188	351.69
577.399	366.69
577.61	356.69
577.821	357.69
578.032	351.69
578.243	367.69
578.454	447.69
578.665	400.69
578.875	336.69
579.086	342.69
579.297	330.69
579.508	329.69
579.718	335.69
579.929	335.69
580.14	334.69
580.35	315.69
580.561	335.69
580.772	308.69
580.982	332.69
581.193	344.69
581.403	334.69
581.614	353.69
581.825	331.69
582.035	309.69
582.246	333.69
582.456	328.69
582.667	347.69
582.877	332.69
583.087	307.69
583.298	323.69
583.508	335.69
583.719	318.69
583.929	329.69
584.139	319.69
584.35	301.69
584.56	307.69
584.77	318.69
584.981	327.69
585.191	316.69
585.401	325.69
585.611	313.69
585.821	309.69
586.032	328.69
586.242	320.69
586.452	318.69
586.662	330.69
586.872	338.69
587.082	311.69
587.292	326.69
587.502	316.69
587.713	318.69
587.923	310.69
588.133	320.69
588.343	325.69
588.553	321.69
588.762	326.69
588.972	329.69
589.182	329.69
589.392	315.69
589.602	318.69
589.812	290.69
590.022	332.69
590.232	315.69
590.441	324.69
590.651	295.69
590.861	329.69
591.071	316.69
591.281	325.69
591.49	326.69
591.7	323.69
591.91	310.69
592.119	316.69
592.329	325.69
592.539	327.69
592.748	322.69
592.958	333.69
593.167	322.69
593.377	320.69
593.587	344.69
593.796	334.69
594.006	324.69
594.215	344.69
594.424	338.69
594.634	331.69
594.843	335.69
595.053	327.69
595.262	323.69
595.472	333.69
595.681	334.69
595.89	323.69
596.1	307.69
596.309	313.69
596.518	294.69
596.727	318.69
596.937	302.69
597.146	291.69
597.355	292.69
597.564	272.69
597.774	295.69
597.983	297.69
598.192	277.69
598.401	301.69
598.61	284.69
598.819	284.69
599.028	275.69
599.237	270.69
599.446	277.69
599.655	299.69
599.864	284.69
600.073	271.69
600.282	273.69
600.491	268.69
600.7	268.69
600.909	265.69
601.118	268.69
601.327	268.69
601.536	271.69
601.745	268.69
601.953	280.69
602.162	282.69
602.371	272.69
602.58	269.69
602.789	260.69
602.997	267.69
603.206	270.69
603.415	261.69
603.623	264.69
603.832	261.69
604.041	280.69
604.249	282.69
604.458	279.69
604.666	255.69
604.875	258.69
605.084	266.69
605.292	260.69
605.501	271.69
605.709	246.69
605.918	270.69
606.126	265.69
606.334	258.69
606.543	265.69
606.751	264.69
606.96	258.69
607.168	260.69
607.376	249.69
607.585	240.69
607.793	243.69
608.001	266.69
608.21	256.69
608.418	254.69
608.626	269.69
608.834	251.69
609.043	260.69
609.251	257.69
609.459	243.69
609.667	263.69
609.875	240.69
610.083	257.69
610.291	272.69
610.499	255.69
610.707	263.69
610.916	263.69
611.124	255.69
611.332	244.69
611.54	263.69
611.748	268.69
611.955	265.69
612.163	254.69
612.371	254.69
612.579	250.69
612.787	263.69
612.995	272.69
613.203	254.69
613.411	239.69
613.618	244.69
613.826	235.69
614.034	251.69
614.242	252.69
614.449	248.69
614.657	251.69
614.865	250.69
615.072	246.69
615.28	259.69
615.488	259.69
615.695	236.69
615.903	246.69
616.111	262.69
616.318	259.69
616.526	245.69
616.733	255.69
616.941	256.69
617.148	258.69
617.356	260.69
617.563	262.69
617.771	259.69
617.978	239.69
618.185	238.69
618.393	211.69
618.6	247.69
618.807	248.69
619.015	253.69
619.222	263.69
619.429	235.69
619.637	242.69
619.844	233.69
620.051	231.69
620.258	228.69
620.466	230.69
620.673	226.69
620.88	246.69
621.087	231.69
621.294	232.69
621.501	233.69
621.708	223.69
621.915	229.69
622.122	243.69
622.329	242.69
622.536	237.69
622.743	228.69
622.95	226.69
623.157	233.69
623.364	235.69
623.571	230.69
623.778	227.69
623.985	244.69
624.192	222.69
624.399	212.69
624.606	218.69
624.812	222.69
625.019	219.69
625.226	215.69
625.433	222.69
625.639	217.69
625.846	210.69
626.053	218.69
626.259	223.69
626.466	226.69
626.673	223.69
626.879	190.69
627.086	223.69
627.293	223.69
627.499	231.69
627.706	214.69
627.912	222.69
628.119	215.69
628.325	226.69
628.532	202.69
628.738	215.69
628.945	207.69
629.151	194.69
629.357	205.69
629.564	196.69
629.77	198.69
629.976	203.69
630.183	206.69
630.389	221.69
630.595	204.69
630.802	221.69
631.008	215.69
631.214	203.69
631.42	201.69
631.627	209.69
631.833	204.69
632.039	188.69
632.245	183.69
632.451	199.69
632.657	200.69
632.863	216.69
633.069	206.69
633.275	196.69
633.481	199.69
633.688	192.69
633.893	187.69
634.099	201.69
634.305	198.69
634.511	189.69
634.717	207.69
634.923	188.69
635.129	193.69
635.335	194.69
635.541	184.69
635.747	200.69
635.952	197.69
636.158	190.69
636.364	197.69
636.57	188.69
636.775	192.69
636.981	184.69
637.187	196.69
637.392	192.69
637.598	190.69
637.804	185.69
638.009	175.69
638.215	186.69
638.421	189.69
638.626	192.69
638.832	194.69
639.037	184.69
639.243	191.69
639.448	196.69
639.654	193.69
639.859	185.69
640.065	176.69
640.27	194.69
640.475	187.69
640.681	176.69
640.886	182.69
641.091	179.69
641.297	182.69
641.502	182.69
641.707	179.69
641.913	193.69
642.118	180.69
642.323	188.69
642.528	190.69
642.733	188.69
642.939	187.69
643.144	182.69
643.349	182.69
643.554	180.69
643.759	172.69
643.964	178.69
644.169	172.69
644.374	165.69
644.579	186.69
644.784	184.69
644.989	170.69
645.194	155.69
645.399	184.69
645.604	185.69
645.809	173.69
646.014	174.69
646.219	154.69
646.423	176.69
646.628	184.69
646.833	164.69
647.038	166.69
647.243	188.69
647.447	188.69
647.652	175.69
647.857	182.69
648.062	162.69
648.266	186.69
648.471	171.69
648.676	180.69
648.88	180.69
649.085	187.69
649.289	174.69
649.494	179.69
649.698	188.69
649.903	195.69
650.107	181.69
650.312	167.69
650.516	172.69
650.721	174.69
650.925	163.69
651.13	167.69
651.334	163.69
651.539	145.69
651.743	157.69
651.947	152.69
652.152	148.69
652.356	154.69
652.56	157.69
652.764	137.69
652.969	135.69
653.173	169.69
653.377	142.69
653.581	152.69
653.785	140.69
653.99	143.69
654.194	154.69
654.398	152.69
654.602	140.69
654.806	146.69
655.01	148.69
655.214	153.69
655.418	140.69
655.622	151.69
655.826	146.69
656.03	142.69
656.234	156.69
656.438	150.69
656.642	137.69
656.846	145.69
657.049	144.69
657.253	135.69
657.457	133.69
657.661	135.69
657.865	121.69
658.068	116.69
658.272	122.69
658.476	108.69
658.68	106.69
658.883	108.69
659.087	114.69
659.291	116.69
659.494	109.69
659.698	101.69
659.901	104.69
660.105	93.69
660.309	106.69
660.512	106.69
660.716	100.69
660.919	88.69
661.123	88.69
661.326	90.69
661.53	99.69
661.733	93.69
661.936	101.69
662.14	87.69
662.343	83.69
662.546	85.69
662.75	94.69
662.953	87.69
663.156	84.69
663.36	92.69
663.563	81.69
663.766	81.69
663.969	85.69
664.173	87.69
664.376	86.69
664.579	89.69
664.782	77.69
664.985	75.69
665.188	91.69
665.391	98.69
665.594	69.69
665.797	69.69
666	83.69
666.203	87.69
666.406	87.69
666.609	90.69
666.812	95.69
667.015	78.69
667.218	81.69
667.421	84.69
667.624	88.69
667.827	86.69
668.03	92.69
668.232	79.69
668.435	77.69
668.638	91.69
668.841	98.69
669.043	93.69
669.246	88.69
669.449	85.69
669.651	94.69
669.854	86.69
670.057	90.69
670.259	91.69
670.462	79.69
670.665	79.69
670.867	86.69
671.07	76.69
671.272	95.69
671.475	84.69
671.677	80.69
671.88	81.69
672.082	79.69
672.284	85.69
672.487	93.69
672.689	80.69
672.892	92.69
