Data from 1978.PennyLincolnUp.Lamp.En5.5.200Scan.071719.P1_HRD10591_16-14-18-863.txt Node
Date: Thu Jul 18 16:14:18 EDT 2019
User: cochatt
Spectrometer: HR+D1059
Trigger mode: 1
Integration Time (sec): 1.000000E-1
Scans to average: 1
Electric dark correction enabled: true
Nonlinearity correction enabled: false
Boxcar width: 0
XAxis mode: Wavelengths
Number of Pixels in Spectrum: 2048
>>>>>Begin Spectral Data<<<<<
223.165	-25.94
223.4	-25.94
223.635	-25.94
223.869	-11.94
224.104	-24.94
224.338	-4.94
224.573	-16.94
224.808	-5.94
225.042	-15.94
225.277	6.06
225.511	-12.94
225.746	19.06
225.98	12.06
226.215	10.06
226.449	9.06
226.683	8.06
226.918	32.06
227.152	23.06
227.387	28.06
227.621	42.06
227.856	46.06
228.09	48.06
228.324	46.06
228.559	58.06
228.793	71.06
229.027	103.06
229.262	105.06
229.496	121.06
229.73	147.06
229.964	169.06
230.199	145.06
230.433	115.06
230.667	114.06
230.901	112.06
231.136	113.06
231.37	103.06
231.604	107.06
231.838	112.06
232.072	106.06
232.306	123.06
232.541	112.06
232.775	106.06
233.009	111.06
233.243	116.06
233.477	121.06
233.711	121.06
233.945	113.06
234.179	118.06
234.413	120.06
234.647	120.06
234.881	119.06
235.115	113.06
235.349	128.06
235.583	141.06
235.817	123.06
236.051	129.06
236.285	124.06
236.519	123.06
236.753	128.06
236.987	157.06
237.221	202.06
237.455	244.06
237.689	204.06
237.922	148.06
238.156	138.06
238.39	130.06
238.624	136.06
238.858	126.06
239.091	139.06
239.325	123.06
239.559	132.06
239.793	123.06
240.027	147.06
240.26	141.06
240.494	164.06
240.728	127.06
240.961	134.06
241.195	128.06
241.429	146.06
241.662	149.06
241.896	135.06
242.13	131.06
242.363	138.06
242.597	142.06
242.83	148.06
243.064	135.06
243.298	139.06
243.531	141.06
243.765	137.06
243.998	145.06
244.232	143.06
244.465	155.06
244.699	129.06
244.932	155.06
245.166	144.06
245.399	146.06
245.633	149.06
245.866	141.06
246.099	138.06
246.333	145.06
246.566	152.06
246.8	153.06
247.033	152.06
247.266	157.06
247.5	163.06
247.733	158.06
247.966	171.06
248.2	167.06
248.433	172.06
248.666	198.06
248.899	174.06
249.133	213.06
249.366	209.06
249.599	208.06
249.832	200.06
250.066	174.06
250.299	186.06
250.532	174.06
250.765	200.06
250.998	214.06
251.231	215.06
251.465	200.06
251.698	192.06
251.931	193.06
252.164	183.06
252.397	201.06
252.63	195.06
252.863	213.06
253.096	209.06
253.329	232.06
253.562	212.06
253.795	209.06
254.028	213.06
254.261	219.06
254.494	212.06
254.727	248.06
254.96	251.06
255.193	269.06
255.426	236.06
255.659	219.06
255.892	213.06
256.124	223.06
256.357	240.06
256.59	208.06
256.823	184.06
257.056	195.06
257.289	207.06
257.521	211.06
257.754	203.06
257.987	208.06
258.22	191.06
258.452	199.06
258.685	203.06
258.918	219.06
259.151	208.06
259.383	223.06
259.616	211.06
259.849	221.06
260.081	238.06
260.314	250.06
260.547	238.06
260.779	247.06
261.012	225.06
261.244	217.06
261.477	227.06
261.71	227.06
261.942	221.06
262.175	228.06
262.407	243.06
262.64	204.06
262.872	220.06
263.105	204.06
263.337	239.06
263.57	205.06
263.802	219.06
264.035	197.06
264.267	216.06
264.499	224.06
264.732	213.06
264.964	196.06
265.197	219.06
265.429	195.06
265.661	206.06
265.894	215.06
266.126	197.06
266.358	199.06
266.591	230.06
266.823	225.06
267.055	223.06
267.287	235.06
267.52	223.06
267.752	224.06
267.984	231.06
268.216	224.06
268.448	233.06
268.681	234.06
268.913	246.06
269.145	249.06
269.377	284.06
269.609	264.06
269.841	270.06
270.073	278.06
270.306	273.06
270.538	305.06
270.77	289.06
271.002	288.06
271.234	303.06
271.466	298.06
271.698	307.06
271.93	315.06
272.162	319.06
272.394	301.06
272.626	307.06
272.858	300.06
273.09	269.06
273.322	276.06
273.553	250.06
273.785	252.06
274.017	248.06
274.249	262.06
274.481	271.06
274.713	252.06
274.945	273.06
275.176	259.06
275.408	259.06
275.64	278.06
275.872	270.06
276.104	268.06
276.335	271.06
276.567	281.06
276.799	282.06
277.031	304.06
277.262	309.06
277.494	299.06
277.726	293.06
277.957	295.06
278.189	282.06
278.421	254.06
278.652	268.06
278.884	295.06
279.115	255.06
279.347	283.06
279.579	256.06
279.81	265.06
280.042	278.06
280.273	278.06
280.505	283.06
280.736	273.06
280.968	269.06
281.199	284.06
281.431	265.06
281.662	280.06
281.894	287.06
282.125	271.06
282.356	297.06
282.588	307.06
282.819	320.06
283.051	281.06
283.282	271.06
283.513	282.06
283.745	268.06
283.976	294.06
284.207	285.06
284.439	295.06
284.67	265.06
284.901	307.06
285.132	289.06
285.364	272.06
285.595	280.06
285.826	274.06
286.057	268.06
286.288	278.06
286.52	283.06
286.751	290.06
286.982	302.06
287.213	285.06
287.444	303.06
287.675	284.06
287.906	281.06
288.138	292.06
288.369	293.06
288.6	300.06
288.831	296.06
289.062	276.06
289.293	311.06
289.524	284.06
289.755	293.06
289.986	294.06
290.217	289.06
290.448	287.06
290.679	289.06
290.91	307.06
291.141	291.06
291.371	285.06
291.602	281.06
291.833	284.06
292.064	293.06
292.295	305.06
292.526	286.06
292.757	311.06
292.987	307.06
293.218	293.06
293.449	296.06
293.68	303.06
293.91	298.06
294.141	297.06
294.372	298.06
294.603	303.06
294.833	315.06
295.064	316.06
295.295	325.06
295.525	309.06
295.756	303.06
295.987	318.06
296.217	328.06
296.448	348.06
296.679	333.06
296.909	324.06
297.14	313.06
297.37	316.06
297.601	315.06
297.831	301.06
298.062	307.06
298.292	307.06
298.523	325.06
298.753	305.06
298.984	300.06
299.214	314.06
299.445	305.06
299.675	303.06
299.905	344.06
300.136	338.06
300.366	320.06
300.597	317.06
300.827	304.06
301.057	328.06
301.288	324.06
301.518	347.06
301.748	331.06
301.979	320.06
302.209	323.06
302.439	322.06
302.669	338.06
302.9	321.06
303.13	347.06
303.36	357.06
303.59	347.06
303.82	345.06
304.051	341.06
304.281	344.06
304.511	334.06
304.741	328.06
304.971	341.06
305.201	334.06
305.431	335.06
305.661	335.06
305.891	339.06
306.121	339.06
306.352	325.06
306.582	351.06
306.812	336.06
307.042	325.06
307.272	344.06
307.502	345.06
307.731	341.06
307.961	332.06
308.191	332.06
308.421	319.06
308.651	337.06
308.881	335.06
309.111	365.06
309.341	343.06
309.571	356.06
309.8	345.06
310.03	369.06
310.26	388.06
310.49	384.06
310.72	377.06
310.949	399.06
311.179	407.06
311.409	408.06
311.639	396.06
311.868	377.06
312.098	395.06
312.328	413.06
312.557	393.06
312.787	407.06
313.017	412.06
313.246	399.06
313.476	376.06
313.706	374.06
313.935	367.06
314.165	397.06
314.394	409.06
314.624	399.06
314.853	397.06
315.083	379.06
315.312	396.06
315.542	389.06
315.771	389.06
316.001	377.06
316.23	369.06
316.46	379.06
316.689	387.06
316.919	402.06
317.148	391.06
317.377	400.06
317.607	381.06
317.836	388.06
318.065	401.06
318.295	388.06
318.524	376.06
318.753	368.06
318.983	381.06
319.212	389.06
319.441	396.06
319.67	399.06
319.9	371.06
320.129	415.06
320.358	392.06
320.587	380.06
320.816	405.06
321.046	411.06
321.275	386.06
321.504	415.06
321.733	414.06
321.962	402.06
322.191	419.06
322.42	432.06
322.649	457.06
322.878	473.06
323.108	461.06
323.337	492.06
323.566	508.06
323.795	555.06
324.024	604.06
324.253	718.06
324.482	1000.06
324.71	1661.06
324.939	2521.06
325.168	2160.06
325.397	1042.06
325.626	684.06
325.855	568.06
326.084	529.06
326.313	521.06
326.542	527.06
326.77	580.06
326.999	655.06
327.228	940.06
327.457	1513.06
327.686	1910.06
327.914	1203.06
328.143	733.06
328.372	662.06
328.6	606.06
328.829	600.06
329.058	590.06
329.287	597.06
329.515	584.06
329.744	506.06
329.972	521.06
330.201	533.06
330.43	568.06
330.658	590.06
330.887	630.06
331.115	633.06
331.344	539.06
331.572	531.06
331.801	516.06
332.03	514.06
332.258	483.06
332.486	495.06
332.715	465.06
332.943	478.06
333.172	476.06
333.4	482.06
333.629	466.06
333.857	485.06
334.085	499.06
334.314	516.06
334.542	547.06
334.771	559.06
334.999	511.06
335.227	499.06
335.455	490.06
335.684	489.06
335.912	463.06
336.14	460.06
336.369	484.06
336.597	495.06
336.825	479.06
337.053	461.06
337.281	481.06
337.51	446.06
337.738	450.06
337.966	462.06
338.194	484.06
338.422	451.06
338.65	462.06
338.878	445.06
339.106	438.06
339.334	458.06
339.562	443.06
339.79	453.06
340.018	446.06
340.246	458.06
340.474	445.06
340.702	460.06
340.93	447.06
341.158	425.06
341.386	450.06
341.614	469.06
341.842	459.06
342.07	439.06
342.298	446.06
342.526	438.06
342.754	440.06
342.981	446.06
343.209	432.06
343.437	452.06
343.665	461.06
343.893	430.06
344.12	453.06
344.348	468.06
344.576	462.06
344.804	457.06
345.031	481.06
345.259	471.06
345.487	459.06
345.714	479.06
345.942	439.06
346.17	447.06
346.397	444.06
346.625	447.06
346.853	433.06
347.08	429.06
347.308	443.06
347.535	470.06
347.763	457.06
347.99	421.06
348.218	441.06
348.445	445.06
348.673	435.06
348.9	453.06
349.128	423.06
349.355	426.06
349.583	427.06
349.81	447.06
350.037	419.06
350.265	414.06
350.492	423.06
350.72	402.06
350.947	429.06
351.174	459.06
351.402	440.06
351.629	439.06
351.856	438.06
352.083	454.06
352.311	451.06
352.538	458.06
352.765	459.06
352.992	461.06
353.22	428.06
353.447	456.06
353.674	445.06
353.901	428.06
354.128	419.06
354.355	426.06
354.583	421.06
354.81	424.06
355.037	422.06
355.264	421.06
355.491	401.06
355.718	405.06
355.945	406.06
356.172	407.06
356.399	420.06
356.626	429.06
356.853	418.06
357.08	405.06
357.307	438.06
357.534	395.06
357.761	407.06
357.988	427.06
358.215	421.06
358.441	425.06
358.668	423.06
358.895	418.06
359.122	400.06
359.349	445.06
359.576	439.06
359.802	455.06
360.029	474.06
360.256	511.06
360.483	462.06
360.709	457.06
360.936	456.06
361.163	453.06
361.39	461.06
361.616	445.06
361.843	448.06
362.07	458.06
362.296	456.06
362.523	435.06
362.749	437.06
362.976	445.06
363.203	433.06
363.429	411.06
363.656	419.06
363.882	405.06
364.109	428.06
364.335	429.06
364.562	437.06
364.788	415.06
365.015	438.06
365.241	415.06
365.468	449.06
365.694	432.06
365.92	431.06
366.147	415.06
366.373	423.06
366.599	408.06
366.826	423.06
367.052	416.06
367.278	439.06
367.505	427.06
367.731	429.06
367.957	442.06
368.184	438.06
368.41	447.06
368.636	441.06
368.862	433.06
369.089	452.06
369.315	425.06
369.541	460.06
369.767	451.06
369.993	418.06
370.219	441.06
370.445	423.06
370.672	445.06
370.898	447.06
371.124	421.06
371.35	440.06
371.576	424.06
371.802	447.06
372.028	455.06
372.254	453.06
372.48	428.06
372.706	427.06
372.932	437.06
373.158	439.06
373.384	436.06
373.61	435.06
373.835	439.06
374.061	422.06
374.287	439.06
374.513	443.06
374.739	430.06
374.965	459.06
375.191	441.06
375.416	446.06
375.642	437.06
375.868	443.06
376.094	442.06
376.319	445.06
376.545	453.06
376.771	440.06
376.997	433.06
377.222	420.06
377.448	454.06
377.674	440.06
377.899	424.06
378.125	415.06
378.35	424.06
378.576	432.06
378.802	446.06
379.027	428.06
379.253	464.06
379.478	442.06
379.704	439.06
379.929	440.06
380.155	421.06
380.38	438.06
380.606	427.06
380.831	429.06
381.057	440.06
381.282	439.06
381.507	424.06
381.733	424.06
381.958	427.06
382.184	446.06
382.409	459.06
382.634	463.06
382.86	442.06
383.085	445.06
383.31	446.06
383.535	467.06
383.761	451.06
383.986	463.06
384.211	450.06
384.436	445.06
384.662	465.06
384.887	461.06
385.112	457.06
385.337	468.06
385.562	467.06
385.787	480.06
386.013	488.06
386.238	493.06
386.463	474.06
386.688	471.06
386.913	453.06
387.138	486.06
387.363	489.06
387.588	472.06
387.813	461.06
388.038	485.06
388.263	477.06
388.488	501.06
388.713	488.06
388.938	501.06
389.163	507.06
389.387	502.06
389.612	491.06
389.837	478.06
390.062	486.06
390.287	479.06
390.512	479.06
390.736	489.06
390.961	491.06
391.186	480.06
391.411	483.06
391.636	498.06
391.86	499.06
392.085	508.06
392.31	513.06
392.534	510.06
392.759	505.06
392.984	502.06
393.208	474.06
393.433	508.06
393.658	463.06
393.882	484.06
394.107	500.06
394.331	510.06
394.556	484.06
394.78	491.06
395.005	490.06
395.229	494.06
395.454	528.06
395.678	495.06
395.903	518.06
396.127	537.06
396.352	555.06
396.576	534.06
396.801	523.06
397.025	494.06
397.249	526.06
397.474	540.06
397.698	522.06
397.922	575.06
398.147	560.06
398.371	569.06
398.595	575.06
398.82	561.06
399.044	591.06
399.268	594.06
399.492	629.06
399.717	643.06
399.941	680.06
400.165	695.06
400.389	688.06
400.613	641.06
400.837	607.06
401.062	599.06
401.286	593.06
401.51	569.06
401.734	572.06
401.958	572.06
402.182	565.06
402.406	579.06
402.63	599.06
402.854	600.06
403.078	582.06
403.302	577.06
403.526	592.06
403.75	603.06
403.974	588.06
404.198	567.06
404.422	577.06
404.645	609.06
404.869	619.06
405.093	650.06
405.317	677.06
405.541	738.06
405.765	659.06
405.988	624.06
406.212	639.06
406.436	675.06
406.66	660.06
406.883	628.06
407.107	677.06
407.331	714.06
407.555	791.06
407.778	802.06
408.002	713.06
408.226	680.06
408.449	676.06
408.673	640.06
408.896	672.06
409.12	750.06
409.344	691.06
409.567	615.06
409.791	627.06
410.014	600.06
410.238	574.06
410.461	613.06
410.685	607.06
410.908	611.06
411.132	659.06
411.355	695.06
411.578	664.06
411.802	603.06
412.025	567.06
412.249	607.06
412.472	635.06
412.695	683.06
412.919	658.06
413.142	625.06
413.365	576.06
413.589	586.06
413.812	566.06
414.035	569.06
414.258	566.06
414.482	572.06
414.705	559.06
414.928	551.06
415.151	567.06
415.374	558.06
415.597	573.06
415.821	563.06
416.044	573.06
416.267	560.06
416.49	584.06
416.713	545.06
416.936	536.06
417.159	568.06
417.382	562.06
417.605	545.06
417.828	574.06
418.051	592.06
418.274	597.06
418.497	569.06
418.72	588.06
418.943	550.06
419.166	595.06
419.389	605.06
419.611	591.06
419.834	584.06
420.057	576.06
420.28	586.06
420.503	581.06
420.726	591.06
420.948	576.06
421.171	643.06
421.394	675.06
421.617	608.06
421.839	571.06
422.062	596.06
422.285	579.06
422.507	669.06
422.73	761.06
422.953	730.06
423.175	628.06
423.398	617.06
423.621	607.06
423.843	638.06
424.066	617.06
424.288	611.06
424.511	662.06
424.733	696.06
424.956	819.06
425.178	769.06
425.401	763.06
425.623	794.06
425.846	670.06
426.068	648.06
426.291	651.06
426.513	631.06
426.735	612.06
426.958	660.06
427.18	747.06
427.402	944.06
427.625	1029.06
427.847	868.06
428.069	779.06
428.292	688.06
428.514	649.06
428.736	595.06
428.958	609.06
429.181	579.06
429.403	581.06
429.625	569.06
429.847	632.06
430.069	725.06
430.292	697.06
430.514	619.06
430.736	560.06
430.958	573.06
431.18	575.06
431.402	552.06
431.624	531.06
431.846	542.06
432.068	570.06
432.29	557.06
432.512	561.06
432.734	547.06
432.956	541.06
433.178	580.06
433.4	569.06
433.622	541.06
433.844	579.06
434.066	550.06
434.287	542.06
434.509	584.06
434.731	591.06
434.953	573.06
435.175	615.06
435.397	619.06
435.618	629.06
435.84	670.06
436.062	807.06
436.284	876.06
436.505	719.06
436.727	641.06
436.949	579.06
437.17	596.06
437.392	573.06
437.614	605.06
437.835	613.06
438.057	743.06
438.278	882.06
438.5	859.06
438.721	960.06
438.943	925.06
439.165	701.06
439.386	647.06
439.608	653.06
439.829	632.06
440.05	664.06
440.272	773.06
440.493	691.06
440.715	603.06
440.936	583.06
441.158	602.06
441.379	587.06
441.6	603.06
441.822	624.06
442.043	671.06
442.264	775.06
442.486	835.06
442.707	710.06
442.928	668.06
443.149	663.06
443.371	665.06
443.592	730.06
443.813	845.06
444.034	930.06
444.255	773.06
444.476	656.06
444.698	654.06
444.919	651.06
445.14	719.06
445.361	709.06
445.582	684.06
445.803	753.06
446.024	884.06
446.245	908.06
446.466	838.06
446.687	707.06
446.908	616.06
447.129	590.06
447.35	583.06
447.571	586.06
447.792	579.06
448.013	573.06
448.234	599.06
448.455	671.06
448.675	767.06
448.896	929.06
449.117	782.06
449.338	725.06
449.559	846.06
449.779	993.06
450	775.06
450.221	643.06
450.442	586.06
450.662	552.06
450.883	555.06
451.104	583.06
451.324	581.06
451.545	543.06
451.766	520.06
451.986	508.06
452.207	552.06
452.428	503.06
452.648	504.06
452.869	490.06
453.089	536.06
453.31	513.06
453.53	534.06
453.751	518.06
453.971	498.06
454.192	539.06
454.412	539.06
454.633	536.06
454.853	509.06
455.073	495.06
455.294	557.06
455.514	613.06
455.734	606.06
455.955	519.06
456.175	492.06
456.395	488.06
456.616	471.06
456.836	484.06
457.056	456.06
457.276	489.06
457.497	491.06
457.717	484.06
457.937	506.06
458.157	506.06
458.377	512.06
458.598	535.06
458.818	600.06
459.038	671.06
459.258	737.06
459.478	591.06
459.698	584.06
459.918	565.06
460.138	547.06
460.358	565.06
460.578	566.06
460.798	559.06
461.018	568.06
461.238	555.06
461.458	582.06
461.678	582.06
461.898	580.06
462.118	567.06
462.338	589.06
462.558	602.06
462.777	605.06
462.997	635.06
463.217	603.06
463.437	613.06
463.657	613.06
463.876	626.06
464.096	601.06
464.316	628.06
464.536	613.06
464.755	605.06
464.975	622.06
465.195	636.06
465.414	716.06
465.634	658.06
465.854	599.06
466.073	546.06
466.293	569.06
466.512	549.06
466.732	553.06
466.951	541.06
467.171	530.06
467.391	541.06
467.61	531.06
467.829	525.06
468.049	534.06
468.268	522.06
468.488	534.06
468.707	544.06
468.927	504.06
469.146	497.06
469.365	526.06
469.585	519.06
469.804	538.06
470.023	535.06
470.243	526.06
470.462	541.06
470.681	560.06
470.901	551.06
471.12	550.06
471.339	551.06
471.558	563.06
471.777	537.06
471.997	541.06
472.216	557.06
472.435	549.06
472.654	551.06
472.873	525.06
473.092	521.06
473.311	536.06
473.53	545.06
473.749	557.06
473.968	594.06
474.187	720.06
474.406	747.06
474.625	613.06
474.844	558.06
475.063	553.06
475.282	553.06
475.501	566.06
475.72	560.06
475.939	551.06
476.158	575.06
476.377	537.06
476.596	567.06
476.814	571.06
477.033	578.06
477.252	567.06
477.471	587.06
477.69	609.06
477.908	592.06
478.127	600.06
478.346	621.06
478.564	603.06
478.783	636.06
479.002	646.06
479.22	610.06
479.439	639.06
479.658	646.06
479.876	642.06
480.095	685.06
480.313	709.06
480.532	678.06
480.751	673.06
480.969	693.06
481.188	744.06
481.406	756.06
481.624	675.06
481.843	679.06
482.061	652.06
482.28	637.06
482.498	637.06
482.717	639.06
482.935	630.06
483.153	638.06
483.372	649.06
483.59	640.06
483.808	624.06
484.027	618.06
484.245	646.06
484.463	640.06
484.681	664.06
484.9	652.06
485.118	649.06
485.336	616.06
485.554	632.06
485.772	651.06
485.99	663.06
486.209	657.06
486.427	677.06
486.645	679.06
486.863	682.06
487.081	683.06
487.299	685.06
487.517	691.06
487.735	677.06
487.953	684.06
488.171	658.06
488.389	657.06
488.607	697.06
488.825	675.06
489.043	695.06
489.261	692.06
489.479	672.06
489.696	694.06
489.914	705.06
490.132	725.06
490.35	708.06
490.568	710.06
490.786	726.06
491.003	727.06
491.221	761.06
491.439	740.06
491.657	736.06
491.874	771.06
492.092	785.06
492.31	762.06
492.527	731.06
492.745	735.06
492.963	770.06
493.18	793.06
493.398	773.06
493.615	791.06
493.833	786.06
494.05	795.06
494.268	800.06
494.485	785.06
494.703	795.06
494.92	800.06
495.138	794.06
495.355	805.06
495.573	808.06
495.79	793.06
496.008	819.06
496.225	832.06
496.442	806.06
496.66	819.06
496.877	814.06
497.094	785.06
497.312	824.06
497.529	827.06
497.746	854.06
497.963	849.06
498.181	889.06
498.398	899.06
498.615	926.06
498.832	903.06
499.049	935.06
499.267	948.06
499.484	1015.06
499.701	1031.06
499.918	1065.06
500.135	1148.06
500.352	1150.06
500.569	1149.06
500.786	1152.06
501.003	1156.06
501.22	1111.06
501.437	1080.06
501.654	1082.06
501.871	1031.06
502.088	1004.06
502.305	987.06
502.522	920.06
502.739	897.06
502.956	891.06
503.172	880.06
503.389	848.06
503.606	853.06
503.823	864.06
504.04	851.06
504.256	827.06
504.473	805.06
504.69	824.06
504.907	801.06
505.123	795.06
505.34	786.06
505.557	793.06
505.773	785.06
505.99	774.06
506.207	776.06
506.423	780.06
506.64	770.06
506.856	757.06
507.073	744.06
507.289	746.06
507.506	749.06
507.722	768.06
507.939	775.06
508.155	738.06
508.372	722.06
508.588	735.06
508.805	719.06
509.021	705.06
509.238	739.06
509.454	746.06
509.67	721.06
509.887	722.06
510.103	702.06
510.319	723.06
510.536	822.06
510.752	1259.06
510.968	1057.06
511.184	750.06
511.401	703.06
511.617	710.06
511.833	716.06
512.049	724.06
512.265	673.06
512.481	682.06
512.698	696.06
512.914	689.06
513.13	684.06
513.346	674.06
513.562	647.06
513.778	683.06
513.994	683.06
514.21	691.06
514.426	751.06
514.642	745.06
514.858	789.06
515.074	837.06
515.29	950.06
515.506	1312.06
515.721	1107.06
515.937	832.06
516.153	761.06
516.369	743.06
516.585	735.06
516.801	733.06
517.016	723.06
517.232	750.06
517.448	718.06
517.664	736.06
517.879	735.06
518.095	723.06
518.311	715.06
518.527	725.06
518.742	712.06
518.958	703.06
519.173	707.06
519.389	701.06
519.605	705.06
519.82	684.06
520.036	678.06
520.251	725.06
520.467	765.06
520.682	729.06
520.898	753.06
521.113	750.06
521.329	790.06
521.544	886.06
521.76	1073.06
521.975	1641.06
522.19	1640.06
522.406	947.06
522.621	774.06
522.836	694.06
523.052	672.06
523.267	674.06
523.482	639.06
523.698	653.06
523.913	625.06
524.128	633.06
524.343	632.06
524.559	617.06
524.774	581.06
524.989	594.06
525.204	614.06
525.419	617.06
525.634	608.06
525.849	609.06
526.064	593.06
526.28	591.06
526.495	574.06
526.71	572.06
526.925	564.06
527.14	585.06
527.355	588.06
527.57	580.06
527.785	584.06
527.999	581.06
528.214	565.06
528.429	577.06
528.644	585.06
528.859	576.06
529.074	592.06
529.289	598.06
529.503	671.06
529.718	654.06
529.933	632.06
530.148	596.06
530.363	576.06
530.577	578.06
530.792	581.06
531.007	572.06
531.221	561.06
531.436	579.06
531.651	557.06
531.865	553.06
532.08	567.06
532.295	539.06
532.509	547.06
532.724	533.06
532.938	572.06
533.153	551.06
533.367	543.06
533.582	548.06
533.796	535.06
534.011	537.06
534.225	545.06
534.44	550.06
534.654	539.06
534.868	519.06
535.083	558.06
535.297	550.06
535.511	561.06
535.726	553.06
535.94	563.06
536.154	527.06
536.369	569.06
536.583	535.06
536.797	521.06
537.011	532.06
537.225	525.06
537.44	521.06
537.654	515.06
537.868	519.06
538.082	525.06
538.296	527.06
538.51	533.06
538.724	521.06
538.938	519.06
539.153	538.06
539.367	530.06
539.581	543.06
539.795	536.06
540.009	527.06
540.222	523.06
540.436	542.06
540.65	488.06
540.864	533.06
541.078	519.06
541.292	521.06
541.506	542.06
541.72	539.06
541.934	526.06
542.147	527.06
542.361	512.06
542.575	493.06
542.789	528.06
543.002	508.06
543.216	509.06
543.43	524.06
543.644	517.06
543.857	530.06
544.071	526.06
544.285	515.06
544.498	499.06
544.712	529.06
544.925	519.06
545.139	494.06
545.352	496.06
545.566	505.06
545.779	493.06
545.993	515.06
546.206	505.06
546.42	523.06
546.633	491.06
546.847	522.06
547.06	511.06
547.274	508.06
547.487	536.06
547.7	501.06
547.914	496.06
548.127	515.06
548.34	503.06
548.554	506.06
548.767	512.06
548.98	505.06
549.193	507.06
549.407	491.06
549.62	493.06
549.833	486.06
550.046	505.06
550.259	485.06
550.473	489.06
550.686	502.06
550.899	519.06
551.112	513.06
551.325	484.06
551.538	475.06
551.751	496.06
551.964	494.06
552.177	495.06
552.39	475.06
552.603	479.06
552.816	525.06
553.029	494.06
553.242	493.06
553.455	519.06
553.667	511.06
553.88	520.06
554.093	503.06
554.306	512.06
554.519	503.06
554.732	488.06
554.944	489.06
555.157	492.06
555.37	499.06
555.583	466.06
555.795	477.06
556.008	476.06
556.221	459.06
556.433	462.06
556.646	473.06
556.859	448.06
557.071	453.06
557.284	448.06
557.496	443.06
557.709	453.06
557.921	448.06
558.134	456.06
558.346	433.06
558.559	442.06
558.771	437.06
558.984	447.06
559.196	442.06
559.409	452.06
559.621	452.06
559.833	452.06
560.046	415.06
560.258	453.06
560.47	439.06
560.683	435.06
560.895	444.06
561.107	453.06
561.32	452.06
561.532	451.06
561.744	423.06
561.956	444.06
562.168	459.06
562.381	447.06
562.593	437.06
562.805	451.06
563.017	455.06
563.229	454.06
563.441	455.06
563.653	439.06
563.865	450.06
564.077	461.06
564.289	462.06
564.501	455.06
564.713	457.06
564.925	486.06
565.137	488.06
565.349	495.06
565.561	468.06
565.773	504.06
565.985	511.06
566.197	517.06
566.408	508.06
566.62	523.06
566.832	562.06
567.044	533.06
567.255	543.06
567.467	573.06
567.679	576.06
567.891	568.06
568.102	579.06
568.314	540.06
568.526	543.06
568.737	513.06
568.949	493.06
569.161	479.06
569.372	509.06
569.584	489.06
569.795	471.06
570.007	467.06
570.218	510.06
570.43	467.06
570.641	447.06
570.853	445.06
571.064	441.06
571.276	436.06
571.487	426.06
571.698	431.06
571.91	416.06
572.121	404.06
572.333	414.06
572.544	402.06
572.755	386.06
572.966	400.06
573.178	402.06
573.389	423.06
573.6	404.06
573.811	407.06
574.023	383.06
574.234	404.06
574.445	378.06
574.656	389.06
574.867	395.06
575.078	391.06
575.289	407.06
575.501	383.06
575.712	375.06
575.923	368.06
576.134	371.06
576.345	382.06
576.556	374.06
576.767	369.06
576.978	377.06
577.188	365.06
577.399	363.06
577.61	378.06
577.821	381.06
578.032	376.06
578.243	384.06
578.454	591.06
578.665	466.06
578.875	366.06
579.086	377.06
579.297	363.06
579.508	366.06
579.718	353.06
579.929	358.06
580.14	361.06
580.35	364.06
580.561	346.06
580.772	351.06
580.982	343.06
581.193	345.06
581.403	354.06
581.614	334.06
581.825	348.06
582.035	351.06
582.246	340.06
582.456	347.06
582.667	349.06
582.877	342.06
583.087	352.06
583.298	332.06
583.508	339.06
583.719	349.06
583.929	376.06
584.139	351.06
584.35	333.06
584.56	344.06
584.77	337.06
584.981	352.06
585.191	344.06
585.401	337.06
585.611	346.06
585.821	343.06
586.032	356.06
586.242	342.06
586.452	336.06
586.662	332.06
586.872	327.06
587.082	341.06
587.292	322.06
587.502	321.06
587.713	333.06
587.923	340.06
588.133	368.06
588.343	346.06
588.553	346.06
588.762	320.06
588.972	324.06
589.182	328.06
589.392	335.06
589.602	346.06
589.812	343.06
590.022	327.06
590.232	330.06
590.441	322.06
590.651	341.06
590.861	343.06
591.071	341.06
591.281	343.06
591.49	325.06
591.7	339.06
591.91	335.06
592.119	347.06
592.329	373.06
592.539	355.06
592.748	379.06
592.958	321.06
593.167	355.06
593.377	345.06
593.587	361.06
593.796	373.06
594.006	359.06
594.215	368.06
594.424	355.06
594.634	361.06
594.843	338.06
595.053	330.06
595.262	332.06
595.472	347.06
595.681	329.06
595.89	336.06
596.1	329.06
596.309	333.06
596.518	324.06
596.727	299.06
596.937	331.06
597.146	317.06
597.355	328.06
597.564	318.06
597.774	326.06
597.983	315.06
598.192	288.06
598.401	303.06
598.61	300.06
598.819	314.06
599.028	303.06
599.237	307.06
599.446	302.06
599.655	309.06
599.864	295.06
600.073	303.06
600.282	296.06
600.491	297.06
600.7	303.06
600.909	278.06
601.118	278.06
601.327	293.06
601.536	296.06
601.745	300.06
601.953	283.06
602.162	294.06
602.371	284.06
602.58	299.06
602.789	292.06
602.997	273.06
603.206	278.06
603.415	287.06
603.623	294.06
603.832	272.06
604.041	280.06
604.249	291.06
604.458	268.06
604.666	286.06
604.875	274.06
605.084	280.06
605.292	281.06
605.501	281.06
605.709	278.06
605.918	266.06
606.126	289.06
606.334	279.06
606.543	297.06
606.751	265.06
606.96	265.06
607.168	261.06
607.376	254.06
607.585	275.06
607.793	265.06
608.001	284.06
608.21	267.06
608.418	283.06
608.626	277.06
608.834	255.06
609.043	268.06
609.251	289.06
609.459	276.06
609.667	259.06
609.875	269.06
610.083	256.06
610.291	278.06
610.499	285.06
610.707	267.06
610.916	263.06
611.124	263.06
611.332	275.06
611.54	267.06
611.748	267.06
611.955	272.06
612.163	272.06
612.371	246.06
612.579	268.06
612.787	267.06
612.995	255.06
613.203	270.06
613.411	275.06
613.618	264.06
613.826	265.06
614.034	270.06
614.242	256.06
614.449	264.06
614.657	273.06
614.865	244.06
615.072	258.06
615.28	248.06
615.488	258.06
615.695	247.06
615.903	268.06
616.111	263.06
616.318	281.06
616.526	254.06
616.733	263.06
616.941	248.06
617.148	273.06
617.356	254.06
617.563	253.06
617.771	256.06
617.978	265.06
618.185	255.06
618.393	252.06
618.6	267.06
618.807	253.06
619.015	254.06
619.222	271.06
619.429	246.06
619.637	244.06
619.844	250.06
620.051	238.06
620.258	250.06
620.466	245.06
620.673	240.06
620.88	229.06
621.087	242.06
621.294	249.06
621.501	255.06
621.708	255.06
621.915	235.06
622.122	236.06
622.329	259.06
622.536	251.06
622.743	239.06
622.95	242.06
623.157	238.06
623.364	236.06
623.571	239.06
623.778	248.06
623.985	235.06
624.192	231.06
624.399	231.06
624.606	231.06
624.812	235.06
625.019	226.06
625.226	242.06
625.433	245.06
625.639	249.06
625.846	239.06
626.053	242.06
626.259	228.06
626.466	239.06
626.673	226.06
626.879	223.06
627.086	223.06
627.293	211.06
627.499	215.06
627.706	238.06
627.912	232.06
628.119	221.06
628.325	224.06
628.532	204.06
628.738	230.06
628.945	212.06
629.151	201.06
629.357	214.06
629.564	220.06
629.77	204.06
629.976	230.06
630.183	226.06
630.389	214.06
630.595	206.06
630.802	217.06
631.008	213.06
631.214	217.06
631.42	217.06
631.627	219.06
631.833	221.06
632.039	221.06
632.245	219.06
632.451	208.06
632.657	201.06
632.863	206.06
633.069	209.06
633.275	201.06
633.481	209.06
633.688	185.06
633.893	204.06
634.099	219.06
634.305	209.06
634.511	191.06
634.717	205.06
634.923	196.06
635.129	199.06
635.335	205.06
635.541	210.06
635.747	190.06
635.952	199.06
636.158	193.06
636.364	191.06
636.57	192.06
636.775	192.06
636.981	205.06
637.187	191.06
637.392	191.06
637.598	194.06
637.804	187.06
638.009	169.06
638.215	192.06
638.421	187.06
638.626	179.06
638.832	188.06
639.037	188.06
639.243	184.06
639.448	189.06
639.654	197.06
639.859	189.06
640.065	173.06
640.27	181.06
640.475	190.06
640.681	189.06
640.886	186.06
641.091	180.06
641.297	188.06
641.502	192.06
641.707	177.06
641.913	192.06
642.118	180.06
642.323	175.06
642.528	183.06
642.733	205.06
642.939	176.06
643.144	195.06
643.349	181.06
643.554	192.06
643.759	184.06
643.964	182.06
644.169	187.06
644.374	189.06
644.579	189.06
644.784	180.06
644.989	188.06
645.194	186.06
645.399	191.06
645.604	173.06
645.809	182.06
646.014	176.06
646.219	184.06
646.423	168.06
646.628	176.06
646.833	196.06
647.038	176.06
647.243	175.06
647.447	183.06
647.652	199.06
647.857	171.06
648.062	193.06
648.266	186.06
648.471	196.06
648.676	191.06
648.88	198.06
649.085	197.06
649.289	175.06
649.494	181.06
649.698	197.06
649.903	193.06
650.107	181.06
650.312	185.06
650.516	166.06
650.721	175.06
650.925	169.06
651.13	155.06
651.334	157.06
651.539	158.06
651.743	172.06
651.947	158.06
652.152	165.06
652.356	159.06
652.56	166.06
652.764	157.06
652.969	166.06
653.173	155.06
653.377	153.06
653.581	151.06
653.785	154.06
653.99	151.06
654.194	149.06
654.398	128.06
654.602	165.06
654.806	140.06
655.01	163.06
655.214	168.06
655.418	151.06
655.622	136.06
655.826	141.06
656.03	140.06
656.234	135.06
656.438	153.06
656.642	147.06
656.846	134.06
657.049	129.06
657.253	131.06
657.457	138.06
657.661	125.06
657.865	118.06
658.068	119.06
658.272	112.06
658.476	107.06
658.68	104.06
658.883	96.06
659.087	97.06
659.291	117.06
659.494	107.06
659.698	120.06
659.901	87.06
660.105	106.06
660.309	102.06
660.512	98.06
660.716	95.06
660.919	105.06
661.123	95.06
661.326	85.06
661.53	90.06
661.733	94.06
661.936	99.06
662.14	93.06
662.343	92.06
662.546	75.06
662.75	80.06
662.953	87.06
663.156	88.06
663.36	92.06
663.563	90.06
663.766	78.06
663.969	87.06
664.173	78.06
664.376	74.06
664.579	91.06
664.782	84.06
664.985	62.06
665.188	100.06
665.391	81.06
665.594	81.06
665.797	87.06
666	79.06
666.203	68.06
666.406	69.06
666.609	93.06
666.812	78.06
667.015	73.06
667.218	76.06
667.421	81.06
667.624	90.06
667.827	84.06
668.03	87.06
668.232	85.06
668.435	90.06
668.638	87.06
668.841	79.06
669.043	78.06
669.246	79.06
669.449	76.06
669.651	75.06
669.854	85.06
670.057	81.06
670.259	91.06
670.462	93.06
670.665	84.06
670.867	72.06
671.07	80.06
671.272	96.06
671.475	93.06
671.677	94.06
671.88	92.06
672.082	92.06
672.284	95.06
672.487	93.06
672.689	86.06
672.892	80.06
