Data from 1978.PennyLincolnUp.Lamp.En5.5.200Scan.071719.P1_HRD10591_16-12-44-864.txt Node
Date: Thu Jul 18 16:12:44 EDT 2019
User: cochatt
Spectrometer: HR+D1059
Trigger mode: 1
Integration Time (sec): 1.000000E-1
Scans to average: 1
Electric dark correction enabled: true
Nonlinearity correction enabled: false
Boxcar width: 0
XAxis mode: Wavelengths
Number of Pixels in Spectrum: 2048
>>>>>Begin Spectral Data<<<<<
223.165	-11.94
223.4	-11.94
223.635	-11.94
223.869	-15.94
224.104	-24.94
224.338	-16.94
224.573	-7.94
224.808	-6.94
225.042	-7.94
225.277	0.06
225.511	-16.94
225.746	6.06
225.98	10.06
226.215	13.06
226.449	11.06
226.683	11.06
226.918	27.06
227.152	31.06
227.387	36.06
227.621	21.06
227.856	46.06
228.09	55.06
228.324	41.06
228.559	54.06
228.793	67.06
229.027	81.06
229.262	87.06
229.496	90.06
229.73	124.06
229.964	139.06
230.199	110.06
230.433	109.06
230.667	117.06
230.901	104.06
231.136	98.06
231.37	109.06
231.604	112.06
231.838	110.06
232.072	98.06
232.306	104.06
232.541	131.06
232.775	124.06
233.009	128.06
233.243	107.06
233.477	105.06
233.711	112.06
233.945	109.06
234.179	114.06
234.413	125.06
234.647	116.06
234.881	130.06
235.115	114.06
235.349	107.06
235.583	103.06
235.817	120.06
236.051	126.06
236.285	118.06
236.519	123.06
236.753	123.06
236.987	130.06
237.221	158.06
237.455	234.06
237.689	162.06
237.922	147.06
238.156	129.06
238.39	119.06
238.624	117.06
238.858	122.06
239.091	125.06
239.325	106.06
239.559	111.06
239.793	124.06
240.027	134.06
240.26	115.06
240.494	154.06
240.728	132.06
240.961	158.06
241.195	130.06
241.429	129.06
241.662	117.06
241.896	119.06
242.13	133.06
242.363	123.06
242.597	143.06
242.83	133.06
243.064	122.06
243.298	135.06
243.531	140.06
243.765	130.06
243.998	134.06
244.232	124.06
244.465	138.06
244.699	123.06
244.932	136.06
245.166	154.06
245.399	132.06
245.633	138.06
245.866	140.06
246.099	150.06
246.333	140.06
246.566	135.06
246.8	144.06
247.033	149.06
247.266	155.06
247.5	143.06
247.733	150.06
247.966	163.06
248.2	148.06
248.433	161.06
248.666	166.06
248.899	144.06
249.133	181.06
249.366	182.06
249.599	186.06
249.832	165.06
250.066	172.06
250.299	173.06
250.532	170.06
250.765	165.06
250.998	186.06
251.231	205.06
251.465	194.06
251.698	187.06
251.931	188.06
252.164	176.06
252.397	173.06
252.63	182.06
252.863	203.06
253.096	194.06
253.329	205.06
253.562	192.06
253.795	173.06
254.028	193.06
254.261	194.06
254.494	195.06
254.727	220.06
254.96	225.06
255.193	239.06
255.426	219.06
255.659	200.06
255.892	217.06
256.124	196.06
256.357	202.06
256.59	207.06
256.823	213.06
257.056	198.06
257.289	206.06
257.521	195.06
257.754	200.06
257.987	194.06
258.22	189.06
258.452	196.06
258.685	200.06
258.918	205.06
259.151	198.06
259.383	201.06
259.616	214.06
259.849	195.06
260.081	217.06
260.314	221.06
260.547	231.06
260.779	219.06
261.012	212.06
261.244	205.06
261.477	200.06
261.71	218.06
261.942	216.06
262.175	213.06
262.407	218.06
262.64	195.06
262.872	200.06
263.105	209.06
263.337	227.06
263.57	207.06
263.802	206.06
264.035	203.06
264.267	192.06
264.499	211.06
264.732	216.06
264.964	208.06
265.197	203.06
265.429	188.06
265.661	192.06
265.894	199.06
266.126	217.06
266.358	202.06
266.591	206.06
266.823	221.06
267.055	223.06
267.287	230.06
267.52	212.06
267.752	214.06
267.984	214.06
268.216	210.06
268.448	222.06
268.681	213.06
268.913	215.06
269.145	230.06
269.377	238.06
269.609	262.06
269.841	251.06
270.073	241.06
270.306	260.06
270.538	266.06
270.77	294.06
271.002	277.06
271.234	268.06
271.466	273.06
271.698	271.06
271.93	282.06
272.162	284.06
272.394	282.06
272.626	283.06
272.858	254.06
273.09	258.06
273.322	253.06
273.553	259.06
273.785	239.06
274.017	253.06
274.249	243.06
274.481	248.06
274.713	253.06
274.945	255.06
275.176	244.06
275.408	254.06
275.64	247.06
275.872	243.06
276.104	247.06
276.335	255.06
276.567	236.06
276.799	267.06
277.031	290.06
277.262	280.06
277.494	294.06
277.726	282.06
277.957	264.06
278.189	267.06
278.421	255.06
278.652	265.06
278.884	251.06
279.115	233.06
279.347	244.06
279.579	262.06
279.81	271.06
280.042	270.06
280.273	254.06
280.505	258.06
280.736	254.06
280.968	257.06
281.199	274.06
281.431	258.06
281.662	261.06
281.894	252.06
282.125	246.06
282.356	278.06
282.588	282.06
282.819	292.06
283.051	264.06
283.282	257.06
283.513	269.06
283.745	249.06
283.976	276.06
284.207	285.06
284.439	269.06
284.67	283.06
284.901	277.06
285.132	266.06
285.364	276.06
285.595	266.06
285.826	269.06
286.057	266.06
286.288	252.06
286.52	279.06
286.751	275.06
286.982	286.06
287.213	267.06
287.444	267.06
287.675	296.06
287.906	287.06
288.138	297.06
288.369	286.06
288.6	284.06
288.831	279.06
289.062	293.06
289.293	286.06
289.524	288.06
289.755	273.06
289.986	279.06
290.217	284.06
290.448	272.06
290.679	273.06
290.91	277.06
291.141	277.06
291.371	284.06
291.602	268.06
291.833	270.06
292.064	266.06
292.295	278.06
292.526	276.06
292.757	268.06
292.987	272.06
293.218	269.06
293.449	278.06
293.68	283.06
293.91	276.06
294.141	280.06
294.372	282.06
294.603	285.06
294.833	280.06
295.064	289.06
295.295	299.06
295.525	288.06
295.756	292.06
295.987	257.06
296.217	326.06
296.448	304.06
296.679	287.06
296.909	270.06
297.14	309.06
297.37	285.06
297.601	300.06
297.831	293.06
298.062	294.06
298.292	317.06
298.523	303.06
298.753	294.06
298.984	307.06
299.214	300.06
299.445	287.06
299.675	316.06
299.905	294.06
300.136	296.06
300.366	289.06
300.597	289.06
300.827	297.06
301.057	307.06
301.288	318.06
301.518	304.06
301.748	313.06
301.979	314.06
302.209	320.06
302.439	326.06
302.669	307.06
302.9	320.06
303.13	330.06
303.36	328.06
303.59	320.06
303.82	319.06
304.051	346.06
304.281	318.06
304.511	311.06
304.741	322.06
304.971	310.06
305.201	326.06
305.431	317.06
305.661	323.06
305.891	322.06
306.121	312.06
306.352	318.06
306.582	314.06
306.812	302.06
307.042	333.06
307.272	333.06
307.502	315.06
307.731	324.06
307.961	304.06
308.191	302.06
308.421	318.06
308.651	339.06
308.881	326.06
309.111	331.06
309.341	333.06
309.571	344.06
309.8	343.06
310.03	359.06
310.26	353.06
310.49	361.06
310.72	352.06
310.949	366.06
311.179	381.06
311.409	373.06
311.639	374.06
311.868	360.06
312.098	370.06
312.328	363.06
312.557	379.06
312.787	385.06
313.017	384.06
313.246	359.06
313.476	360.06
313.706	364.06
313.935	367.06
314.165	389.06
314.394	379.06
314.624	389.06
314.853	364.06
315.083	362.06
315.312	361.06
315.542	370.06
315.771	357.06
316.001	346.06
316.23	370.06
316.46	374.06
316.689	370.06
316.919	378.06
317.148	355.06
317.377	370.06
317.607	374.06
317.836	383.06
318.065	358.06
318.295	349.06
318.524	368.06
318.753	356.06
318.983	362.06
319.212	382.06
319.441	382.06
319.67	379.06
319.9	381.06
320.129	362.06
320.358	392.06
320.587	364.06
320.816	386.06
321.046	383.06
321.275	382.06
321.504	398.06
321.733	385.06
321.962	410.06
322.191	425.06
322.42	407.06
322.649	431.06
322.878	432.06
323.108	428.06
323.337	468.06
323.566	462.06
323.795	486.06
324.024	533.06
324.253	629.06
324.482	892.06
324.71	1418.06
324.939	2124.06
325.168	1858.06
325.397	910.06
325.626	619.06
325.855	541.06
326.084	458.06
326.313	482.06
326.542	490.06
326.77	533.06
326.999	624.06
327.228	805.06
327.457	1255.06
327.686	1606.06
327.914	1061.06
328.143	688.06
328.372	630.06
328.6	541.06
328.829	526.06
329.058	523.06
329.287	548.06
329.515	486.06
329.744	477.06
329.972	467.06
330.201	484.06
330.43	527.06
330.658	534.06
330.887	560.06
331.115	552.06
331.344	496.06
331.572	482.06
331.801	454.06
332.03	472.06
332.258	471.06
332.486	460.06
332.715	443.06
332.943	446.06
333.172	458.06
333.4	440.06
333.629	467.06
333.857	477.06
334.085	468.06
334.314	483.06
334.542	490.06
334.771	516.06
334.999	490.06
335.227	463.06
335.455	449.06
335.684	437.06
335.912	445.06
336.14	436.06
336.369	426.06
336.597	467.06
336.825	446.06
337.053	438.06
337.281	424.06
337.51	429.06
337.738	447.06
337.966	434.06
338.194	428.06
338.422	434.06
338.65	440.06
338.878	435.06
339.106	417.06
339.334	429.06
339.562	412.06
339.79	431.06
340.018	422.06
340.246	423.06
340.474	439.06
340.702	412.06
340.93	442.06
341.158	436.06
341.386	450.06
341.614	434.06
341.842	436.06
342.07	441.06
342.298	416.06
342.526	418.06
342.754	429.06
342.981	404.06
343.209	405.06
343.437	428.06
343.665	427.06
343.893	423.06
344.12	459.06
344.348	448.06
344.576	439.06
344.804	429.06
345.031	435.06
345.259	456.06
345.487	436.06
345.714	425.06
345.942	421.06
346.17	398.06
346.397	407.06
346.625	414.06
346.853	404.06
347.08	406.06
347.308	416.06
347.535	405.06
347.763	421.06
347.99	435.06
348.218	438.06
348.445	426.06
348.673	407.06
348.9	406.06
349.128	426.06
349.355	436.06
349.583	411.06
349.81	412.06
350.037	399.06
350.265	400.06
350.492	398.06
350.72	415.06
350.947	407.06
351.174	421.06
351.402	419.06
351.629	437.06
351.856	431.06
352.083	408.06
352.311	424.06
352.538	418.06
352.765	442.06
352.992	423.06
353.22	410.06
353.447	422.06
353.674	410.06
353.901	408.06
354.128	410.06
354.355	405.06
354.583	398.06
354.81	408.06
355.037	388.06
355.264	406.06
355.491	410.06
355.718	422.06
355.945	404.06
356.172	391.06
356.399	386.06
356.626	405.06
356.853	397.06
357.08	387.06
357.307	387.06
357.534	392.06
357.761	388.06
357.988	404.06
358.215	375.06
358.441	388.06
358.668	395.06
358.895	406.06
359.122	404.06
359.349	392.06
359.576	410.06
359.802	425.06
360.029	452.06
360.256	474.06
360.483	440.06
360.709	427.06
360.936	408.06
361.163	437.06
361.39	416.06
361.616	414.06
361.843	429.06
362.07	427.06
362.296	422.06
362.523	389.06
362.749	414.06
362.976	407.06
363.203	422.06
363.429	416.06
363.656	400.06
363.882	421.06
364.109	405.06
364.335	386.06
364.562	420.06
364.788	405.06
365.015	412.06
365.241	394.06
365.468	420.06
365.694	418.06
365.92	418.06
366.147	414.06
366.373	386.06
366.599	400.06
366.826	416.06
367.052	393.06
367.278	421.06
367.505	394.06
367.731	416.06
367.957	415.06
368.184	396.06
368.41	416.06
368.636	415.06
368.862	429.06
369.089	423.06
369.315	416.06
369.541	422.06
369.767	433.06
369.993	390.06
370.219	409.06
370.445	427.06
370.672	421.06
370.898	415.06
371.124	400.06
371.35	421.06
371.576	405.06
371.802	418.06
372.028	427.06
372.254	405.06
372.48	418.06
372.706	436.06
372.932	429.06
373.158	422.06
373.384	439.06
373.61	400.06
373.835	413.06
374.061	423.06
374.287	415.06
374.513	408.06
374.739	425.06
374.965	426.06
375.191	454.06
375.416	434.06
375.642	405.06
375.868	407.06
376.094	425.06
376.319	415.06
376.545	423.06
376.771	427.06
376.997	434.06
377.222	420.06
377.448	401.06
377.674	430.06
377.899	395.06
378.125	406.06
378.35	411.06
378.576	423.06
378.802	422.06
379.027	411.06
379.253	420.06
379.478	405.06
379.704	400.06
379.929	388.06
380.155	435.06
380.38	432.06
380.606	411.06
380.831	424.06
381.057	414.06
381.282	427.06
381.507	423.06
381.733	414.06
381.958	411.06
382.184	430.06
382.409	408.06
382.634	444.06
382.86	432.06
383.085	422.06
383.31	411.06
383.535	429.06
383.761	425.06
383.986	434.06
384.211	451.06
384.436	446.06
384.662	440.06
384.887	436.06
385.112	456.06
385.337	468.06
385.562	445.06
385.787	455.06
386.013	492.06
386.238	442.06
386.463	458.06
386.688	459.06
386.913	450.06
387.138	454.06
387.363	447.06
387.588	462.06
387.813	430.06
388.038	459.06
388.263	465.06
388.488	448.06
388.713	445.06
388.938	478.06
389.163	467.06
389.387	462.06
389.612	459.06
389.837	467.06
390.062	480.06
390.287	479.06
390.512	484.06
390.736	449.06
390.961	456.06
391.186	457.06
391.411	467.06
391.636	459.06
391.86	484.06
392.085	500.06
392.31	480.06
392.534	488.06
392.759	468.06
392.984	472.06
393.208	474.06
393.433	480.06
393.658	455.06
393.882	463.06
394.107	472.06
394.331	473.06
394.556	479.06
394.78	475.06
395.005	470.06
395.229	484.06
395.454	478.06
395.678	493.06
395.903	490.06
396.127	498.06
396.352	536.06
396.576	494.06
396.801	508.06
397.025	514.06
397.249	515.06
397.474	508.06
397.698	491.06
397.922	514.06
398.147	534.06
398.371	538.06
398.595	539.06
398.82	546.06
399.044	557.06
399.268	564.06
399.492	597.06
399.717	628.06
399.941	648.06
400.165	662.06
400.389	668.06
400.613	612.06
400.837	614.06
401.062	569.06
401.286	534.06
401.51	525.06
401.734	530.06
401.958	547.06
402.182	552.06
402.406	580.06
402.63	557.06
402.854	562.06
403.078	576.06
403.302	557.06
403.526	550.06
403.75	559.06
403.974	552.06
404.198	551.06
404.422	556.06
404.645	592.06
404.869	587.06
405.093	625.06
405.317	646.06
405.541	681.06
405.765	625.06
405.988	596.06
406.212	597.06
406.436	616.06
406.66	611.06
406.883	613.06
407.107	618.06
407.331	660.06
407.555	738.06
407.778	758.06
408.002	662.06
408.226	645.06
408.449	610.06
408.673	617.06
408.896	630.06
409.12	716.06
409.344	662.06
409.567	602.06
409.791	558.06
410.014	571.06
410.238	564.06
410.461	566.06
410.685	572.06
410.908	604.06
411.132	630.06
411.355	656.06
411.578	635.06
411.802	566.06
412.025	552.06
412.249	557.06
412.472	582.06
412.695	639.06
412.919	599.06
413.142	588.06
413.365	561.06
413.589	556.06
413.812	562.06
414.035	554.06
414.258	566.06
414.482	532.06
414.705	551.06
414.928	562.06
415.151	538.06
415.374	527.06
415.597	540.06
415.821	520.06
416.044	512.06
416.267	535.06
416.49	532.06
416.713	523.06
416.936	512.06
417.159	523.06
417.382	537.06
417.605	515.06
417.828	534.06
418.051	553.06
418.274	554.06
418.497	535.06
418.72	504.06
418.943	543.06
419.166	552.06
419.389	614.06
419.611	589.06
419.834	559.06
420.057	552.06
420.28	528.06
420.503	549.06
420.726	556.06
420.948	541.06
421.171	593.06
421.394	644.06
421.617	577.06
421.839	562.06
422.062	566.06
422.285	552.06
422.507	597.06
422.73	702.06
422.953	664.06
423.175	596.06
423.398	576.06
423.621	590.06
423.843	613.06
424.066	598.06
424.288	591.06
424.511	621.06
424.733	650.06
424.956	736.06
425.178	708.06
425.401	698.06
425.623	750.06
425.846	655.06
426.068	594.06
426.291	580.06
426.513	584.06
426.735	588.06
426.958	632.06
427.18	714.06
427.402	836.06
427.625	952.06
427.847	804.06
428.069	708.06
428.292	620.06
428.514	586.06
428.736	556.06
428.958	585.06
429.181	566.06
429.403	546.06
429.625	547.06
429.847	590.06
430.069	670.06
430.292	655.06
430.514	553.06
430.736	555.06
430.958	516.06
431.18	533.06
431.402	530.06
431.624	529.06
431.846	528.06
432.068	499.06
432.29	512.06
432.512	540.06
432.734	551.06
432.956	502.06
433.178	530.06
433.4	555.06
433.622	518.06
433.844	535.06
434.066	510.06
434.287	504.06
434.509	515.06
434.731	530.06
434.953	544.06
435.175	555.06
435.397	593.06
435.618	589.06
435.84	633.06
436.062	730.06
436.284	780.06
436.505	662.06
436.727	600.06
436.949	566.06
437.17	554.06
437.392	558.06
437.614	575.06
437.835	590.06
438.057	700.06
438.278	796.06
438.5	791.06
438.721	894.06
438.943	842.06
439.165	668.06
439.386	606.06
439.608	605.06
439.829	603.06
440.05	615.06
440.272	665.06
440.493	625.06
440.715	552.06
440.936	562.06
441.158	550.06
441.379	555.06
441.6	561.06
441.822	597.06
442.043	608.06
442.264	701.06
442.486	745.06
442.707	638.06
442.928	617.06
443.149	608.06
443.371	614.06
443.592	664.06
443.813	790.06
444.034	848.06
444.255	695.06
444.476	606.06
444.698	607.06
444.919	608.06
445.14	687.06
445.361	663.06
445.582	638.06
445.803	695.06
446.024	783.06
446.245	798.06
446.466	725.06
446.687	644.06
446.908	574.06
447.129	558.06
447.35	544.06
447.571	532.06
447.792	525.06
448.013	551.06
448.234	555.06
448.455	614.06
448.675	735.06
448.896	856.06
449.117	728.06
449.338	676.06
449.559	796.06
449.779	931.06
450	702.06
450.221	611.06
450.442	535.06
450.662	539.06
450.883	525.06
451.104	541.06
451.324	538.06
451.545	506.06
451.766	519.06
451.986	508.06
452.207	475.06
452.428	491.06
452.648	473.06
452.869	494.06
453.089	482.06
453.31	541.06
453.53	495.06
453.751	484.06
453.971	484.06
454.192	500.06
454.412	493.06
454.633	508.06
454.853	483.06
455.073	502.06
455.294	506.06
455.514	604.06
455.734	557.06
455.955	500.06
456.175	465.06
456.395	468.06
456.616	464.06
456.836	474.06
457.056	478.06
457.276	460.06
457.497	464.06
457.717	465.06
457.937	482.06
458.157	475.06
458.377	474.06
458.598	496.06
458.818	566.06
459.038	631.06
459.258	656.06
459.478	583.06
459.698	523.06
459.918	534.06
460.138	528.06
460.358	539.06
460.578	546.06
460.798	550.06
461.018	549.06
461.238	559.06
461.458	546.06
461.678	531.06
461.898	543.06
462.118	537.06
462.338	567.06
462.558	580.06
462.777	571.06
462.997	591.06
463.217	608.06
463.437	605.06
463.657	596.06
463.876	570.06
464.096	586.06
464.316	583.06
464.536	588.06
464.755	579.06
464.975	585.06
465.195	614.06
465.414	641.06
465.634	621.06
465.854	546.06
466.073	526.06
466.293	537.06
466.512	525.06
466.732	513.06
466.951	511.06
467.171	506.06
467.391	526.06
467.61	522.06
467.829	539.06
468.049	527.06
468.268	504.06
468.488	540.06
468.707	495.06
468.927	494.06
469.146	493.06
469.365	484.06
469.585	487.06
469.804	501.06
470.023	516.06
470.243	526.06
470.462	516.06
470.681	541.06
470.901	538.06
471.12	517.06
471.339	524.06
471.558	518.06
471.777	526.06
471.997	520.06
472.216	516.06
472.435	531.06
472.654	503.06
472.873	501.06
473.092	500.06
473.311	510.06
473.53	517.06
473.749	545.06
473.968	563.06
474.187	658.06
474.406	649.06
474.625	568.06
474.844	534.06
475.063	524.06
475.282	489.06
475.501	519.06
475.72	531.06
475.939	540.06
476.158	531.06
476.377	525.06
476.596	535.06
476.814	535.06
477.033	539.06
477.252	569.06
477.471	561.06
477.69	551.06
477.908	579.06
478.127	572.06
478.346	557.06
478.564	584.06
478.783	590.06
479.002	582.06
479.22	596.06
479.439	604.06
479.658	610.06
479.876	611.06
480.095	629.06
480.313	647.06
480.532	653.06
480.751	640.06
480.969	626.06
481.188	660.06
481.406	694.06
481.624	684.06
481.843	634.06
482.061	622.06
482.28	610.06
482.498	609.06
482.717	615.06
482.935	589.06
483.153	615.06
483.372	614.06
483.59	626.06
483.808	596.06
484.027	599.06
484.245	603.06
484.463	601.06
484.681	604.06
484.9	618.06
485.118	604.06
485.336	609.06
485.554	619.06
485.772	647.06
485.99	620.06
486.209	618.06
486.427	608.06
486.645	636.06
486.863	638.06
487.081	652.06
487.299	666.06
487.517	647.06
487.735	646.06
487.953	637.06
488.171	617.06
488.389	631.06
488.607	628.06
488.825	675.06
489.043	644.06
489.261	643.06
489.479	661.06
489.696	634.06
489.914	645.06
490.132	657.06
490.35	670.06
490.568	674.06
490.786	702.06
491.003	675.06
491.221	680.06
491.439	720.06
491.657	697.06
491.874	690.06
492.092	700.06
492.31	725.06
492.527	735.06
492.745	723.06
492.963	718.06
493.18	734.06
493.398	717.06
493.615	732.06
493.833	731.06
494.05	732.06
494.268	736.06
494.485	744.06
494.703	719.06
494.92	727.06
495.138	735.06
495.355	764.06
495.573	756.06
495.79	773.06
496.008	767.06
496.225	774.06
496.442	757.06
496.66	757.06
496.877	765.06
497.094	780.06
497.312	760.06
497.529	799.06
497.746	825.06
497.963	795.06
498.181	833.06
498.398	854.06
498.615	851.06
498.832	873.06
499.049	892.06
499.267	914.06
499.484	919.06
499.701	965.06
499.918	999.06
500.135	1061.06
500.352	1095.06
500.569	1094.06
500.786	1099.06
501.003	1117.06
501.22	1080.06
501.437	1015.06
501.654	1005.06
501.871	1007.06
502.088	968.06
502.305	930.06
502.522	891.06
502.739	895.06
502.956	818.06
503.172	846.06
503.389	834.06
503.606	800.06
503.823	778.06
504.04	784.06
504.256	808.06
504.473	769.06
504.69	789.06
504.907	758.06
505.123	749.06
505.34	729.06
505.557	745.06
505.773	744.06
505.99	705.06
506.207	728.06
506.423	713.06
506.64	724.06
506.856	711.06
507.073	715.06
507.289	681.06
507.506	681.06
507.722	713.06
507.939	711.06
508.155	687.06
508.372	697.06
508.588	671.06
508.805	673.06
509.021	691.06
509.238	690.06
509.454	695.06
509.67	675.06
509.887	664.06
510.103	682.06
510.319	665.06
510.536	749.06
510.752	1128.06
510.968	994.06
511.184	682.06
511.401	674.06
511.617	665.06
511.833	655.06
512.049	663.06
512.265	617.06
512.481	632.06
512.698	634.06
512.914	630.06
513.13	624.06
513.346	631.06
513.562	636.06
513.778	632.06
513.994	664.06
514.21	670.06
514.426	693.06
514.642	698.06
514.858	728.06
515.074	773.06
515.29	860.06
515.506	1221.06
515.721	996.06
515.937	756.06
516.153	717.06
516.369	700.06
516.585	669.06
516.801	671.06
517.016	695.06
517.232	698.06
517.448	699.06
517.664	691.06
517.879	704.06
518.095	701.06
518.311	694.06
518.527	679.06
518.742	650.06
518.958	650.06
519.173	654.06
519.389	646.06
519.605	637.06
519.82	658.06
520.036	670.06
520.251	670.06
520.467	702.06
520.682	683.06
520.898	697.06
521.113	706.06
521.329	745.06
521.544	801.06
521.76	988.06
521.975	1450.06
522.19	1492.06
522.406	890.06
522.621	690.06
522.836	667.06
523.052	655.06
523.267	644.06
523.482	598.06
523.698	602.06
523.913	588.06
524.128	592.06
524.343	597.06
524.559	574.06
524.774	589.06
524.989	580.06
525.204	590.06
525.419	585.06
525.634	558.06
525.849	582.06
526.064	560.06
526.28	552.06
526.495	543.06
526.71	542.06
526.925	547.06
527.14	545.06
527.355	540.06
527.57	537.06
527.785	548.06
527.999	536.06
528.214	525.06
528.429	540.06
528.644	546.06
528.859	550.06
529.074	559.06
529.289	576.06
529.503	636.06
529.718	634.06
529.933	584.06
530.148	538.06
530.363	512.06
530.577	536.06
530.792	534.06
531.007	534.06
531.221	542.06
531.436	552.06
531.651	528.06
531.865	519.06
532.08	516.06
532.295	525.06
532.509	534.06
532.724	530.06
532.938	546.06
533.153	529.06
533.367	528.06
533.582	546.06
533.796	520.06
534.011	516.06
534.225	526.06
534.44	502.06
534.654	532.06
534.868	512.06
535.083	517.06
535.297	532.06
535.511	513.06
535.726	513.06
535.94	540.06
536.154	522.06
536.369	527.06
536.583	515.06
536.797	502.06
537.011	485.06
537.225	504.06
537.44	487.06
537.654	494.06
537.868	481.06
538.082	504.06
538.296	489.06
538.51	502.06
538.724	516.06
538.938	500.06
539.153	489.06
539.367	519.06
539.581	542.06
539.795	507.06
540.009	478.06
540.222	494.06
540.436	515.06
540.65	509.06
540.864	484.06
541.078	502.06
541.292	498.06
541.506	476.06
541.72	477.06
541.934	492.06
542.147	511.06
542.361	492.06
542.575	484.06
542.789	512.06
543.002	486.06
543.216	501.06
543.43	489.06
543.644	497.06
543.857	525.06
544.071	501.06
544.285	489.06
544.498	499.06
544.712	480.06
544.925	468.06
545.139	507.06
545.352	495.06
545.566	471.06
545.779	493.06
545.993	465.06
546.206	498.06
546.42	495.06
546.633	481.06
546.847	486.06
547.06	489.06
547.274	483.06
547.487	486.06
547.7	470.06
547.914	455.06
548.127	483.06
548.34	475.06
548.554	459.06
548.767	490.06
548.98	483.06
549.193	488.06
549.407	474.06
549.62	458.06
549.833	472.06
550.046	494.06
550.259	493.06
550.473	456.06
550.686	470.06
550.899	469.06
551.112	481.06
551.325	488.06
551.538	480.06
551.751	459.06
551.964	480.06
552.177	491.06
552.39	480.06
552.603	477.06
552.816	502.06
553.029	486.06
553.242	497.06
553.455	499.06
553.667	501.06
553.88	518.06
554.093	498.06
554.306	498.06
554.519	483.06
554.732	462.06
554.944	492.06
555.157	463.06
555.37	444.06
555.583	452.06
555.795	469.06
556.008	451.06
556.221	450.06
556.433	454.06
556.646	455.06
556.859	424.06
557.071	412.06
557.284	396.06
557.496	438.06
557.709	440.06
557.921	443.06
558.134	450.06
558.346	436.06
558.559	426.06
558.771	433.06
558.984	417.06
559.196	425.06
559.409	434.06
559.621	434.06
559.833	423.06
560.046	430.06
560.258	431.06
560.47	427.06
560.683	439.06
560.895	422.06
561.107	415.06
561.32	434.06
561.532	430.06
561.744	415.06
561.956	430.06
562.168	409.06
562.381	442.06
562.593	422.06
562.805	432.06
563.017	428.06
563.229	432.06
563.441	435.06
563.653	443.06
563.865	418.06
564.077	440.06
564.289	459.06
564.501	445.06
564.713	444.06
564.925	438.06
565.137	467.06
565.349	442.06
565.561	456.06
565.773	494.06
565.985	478.06
566.197	500.06
566.408	539.06
566.62	518.06
566.832	534.06
567.044	556.06
567.255	539.06
567.467	548.06
567.679	562.06
567.891	555.06
568.102	555.06
568.314	555.06
568.526	541.06
568.737	517.06
568.949	496.06
569.161	481.06
569.372	460.06
569.584	456.06
569.795	459.06
570.007	467.06
570.218	485.06
570.43	480.06
570.641	434.06
570.853	431.06
571.064	435.06
571.276	411.06
571.487	437.06
571.698	422.06
571.91	398.06
572.121	400.06
572.333	387.06
572.544	418.06
572.755	407.06
572.966	399.06
573.178	386.06
573.389	400.06
573.6	377.06
573.811	373.06
574.023	367.06
574.234	375.06
574.445	376.06
574.656	367.06
574.867	382.06
575.078	372.06
575.289	377.06
575.501	366.06
575.712	352.06
575.923	370.06
576.134	367.06
576.345	378.06
576.556	368.06
576.767	370.06
576.978	376.06
577.188	365.06
577.399	378.06
577.61	354.06
577.821	366.06
578.032	351.06
578.243	371.06
578.454	557.06
578.665	430.06
578.875	349.06
579.086	344.06
579.297	359.06
579.508	364.06
579.718	346.06
579.929	327.06
580.14	352.06
580.35	329.06
580.561	336.06
580.772	358.06
580.982	340.06
581.193	326.06
581.403	359.06
581.614	367.06
581.825	339.06
582.035	334.06
582.246	332.06
582.456	331.06
582.667	327.06
582.877	318.06
583.087	346.06
583.298	336.06
583.508	338.06
583.719	344.06
583.929	339.06
584.139	323.06
584.35	325.06
584.56	348.06
584.77	346.06
584.981	324.06
585.191	344.06
585.401	336.06
585.611	340.06
585.821	352.06
586.032	332.06
586.242	338.06
586.452	326.06
586.662	334.06
586.872	347.06
587.082	321.06
587.292	319.06
587.502	338.06
587.713	315.06
587.923	323.06
588.133	323.06
588.343	319.06
588.553	308.06
588.762	334.06
588.972	333.06
589.182	325.06
589.392	320.06
589.602	318.06
589.812	320.06
590.022	326.06
590.232	327.06
590.441	311.06
590.651	326.06
590.861	332.06
591.071	352.06
591.281	326.06
591.49	350.06
591.7	318.06
591.91	345.06
592.119	335.06
592.329	337.06
592.539	351.06
592.748	345.06
592.958	351.06
593.167	353.06
593.377	313.06
593.587	351.06
593.796	356.06
594.006	344.06
594.215	350.06
594.424	340.06
594.634	331.06
594.843	345.06
595.053	332.06
595.262	332.06
595.472	330.06
595.681	314.06
595.89	320.06
596.1	321.06
596.309	318.06
596.518	311.06
596.727	306.06
596.937	316.06
597.146	312.06
597.355	294.06
597.564	300.06
597.774	311.06
597.983	299.06
598.192	292.06
598.401	291.06
598.61	304.06
598.819	292.06
599.028	276.06
599.237	302.06
599.446	308.06
599.655	296.06
599.864	294.06
600.073	273.06
600.282	281.06
600.491	277.06
600.7	290.06
600.909	293.06
601.118	280.06
601.327	273.06
601.536	294.06
601.745	295.06
601.953	278.06
602.162	276.06
602.371	280.06
602.58	277.06
602.789	303.06
602.997	281.06
603.206	267.06
603.415	288.06
603.623	287.06
603.832	281.06
604.041	273.06
604.249	285.06
604.458	289.06
604.666	285.06
604.875	280.06
605.084	265.06
605.292	269.06
605.501	261.06
605.709	254.06
605.918	256.06
606.126	253.06
606.334	246.06
606.543	258.06
606.751	263.06
606.96	273.06
607.168	278.06
607.376	270.06
607.585	264.06
607.793	264.06
608.001	270.06
608.21	255.06
608.418	268.06
608.626	260.06
608.834	249.06
609.043	250.06
609.251	246.06
609.459	261.06
609.667	272.06
609.875	264.06
610.083	280.06
610.291	267.06
610.499	256.06
610.707	271.06
610.916	249.06
611.124	274.06
611.332	271.06
611.54	280.06
611.748	273.06
611.955	277.06
612.163	271.06
612.371	256.06
612.579	246.06
612.787	257.06
612.995	252.06
613.203	245.06
613.411	249.06
613.618	238.06
613.826	254.06
614.034	265.06
614.242	276.06
614.449	262.06
614.657	256.06
614.865	252.06
615.072	252.06
615.28	259.06
615.488	229.06
615.695	253.06
615.903	255.06
616.111	256.06
616.318	267.06
616.526	257.06
616.733	255.06
616.941	264.06
617.148	250.06
617.356	257.06
617.563	244.06
617.771	234.06
617.978	239.06
618.185	244.06
618.393	247.06
618.6	250.06
618.807	247.06
619.015	267.06
619.222	250.06
619.429	252.06
619.637	244.06
619.844	238.06
620.051	254.06
620.258	233.06
620.466	270.06
620.673	237.06
620.88	229.06
621.087	235.06
621.294	250.06
621.501	244.06
621.708	244.06
621.915	245.06
622.122	242.06
622.329	238.06
622.536	233.06
622.743	234.06
622.95	249.06
623.157	219.06
623.364	228.06
623.571	233.06
623.778	237.06
623.985	238.06
624.192	224.06
624.399	216.06
624.606	251.06
624.812	218.06
625.019	233.06
625.226	227.06
625.433	231.06
625.639	222.06
625.846	236.06
626.053	233.06
626.259	223.06
626.466	237.06
626.673	221.06
626.879	229.06
627.086	242.06
627.293	212.06
627.499	212.06
627.706	232.06
627.912	215.06
628.119	219.06
628.325	218.06
628.532	224.06
628.738	211.06
628.945	210.06
629.151	206.06
629.357	210.06
629.564	213.06
629.77	195.06
629.976	208.06
630.183	212.06
630.389	202.06
630.595	205.06
630.802	212.06
631.008	212.06
631.214	203.06
631.42	212.06
631.627	211.06
631.833	206.06
632.039	188.06
632.245	207.06
632.451	202.06
632.657	186.06
632.863	207.06
633.069	219.06
633.275	218.06
633.481	200.06
633.688	219.06
633.893	184.06
634.099	207.06
634.305	188.06
634.511	198.06
634.717	191.06
634.923	170.06
635.129	188.06
635.335	206.06
635.541	206.06
635.747	208.06
635.952	200.06
636.158	190.06
636.364	185.06
636.57	195.06
636.775	202.06
636.981	206.06
637.187	195.06
637.392	185.06
637.598	186.06
637.804	190.06
638.009	203.06
638.215	200.06
638.421	187.06
638.626	198.06
638.832	182.06
639.037	193.06
639.243	198.06
639.448	185.06
639.654	176.06
639.859	182.06
640.065	184.06
640.27	198.06
640.475	189.06
640.681	183.06
640.886	174.06
641.091	178.06
641.297	180.06
641.502	175.06
641.707	186.06
641.913	165.06
642.118	168.06
642.323	166.06
642.528	183.06
642.733	170.06
642.939	167.06
643.144	180.06
643.349	188.06
643.554	182.06
643.759	171.06
643.964	178.06
644.169	174.06
644.374	166.06
644.579	175.06
644.784	170.06
644.989	190.06
645.194	178.06
645.399	182.06
645.604	174.06
645.809	159.06
646.014	172.06
646.219	168.06
646.423	185.06
646.628	180.06
646.833	176.06
647.038	196.06
647.243	187.06
647.447	173.06
647.652	176.06
647.857	163.06
648.062	185.06
648.266	179.06
648.471	182.06
648.676	186.06
648.88	172.06
649.085	194.06
649.289	183.06
649.494	183.06
649.698	188.06
649.903	189.06
650.107	185.06
650.312	166.06
650.516	182.06
650.721	174.06
650.925	178.06
651.13	170.06
651.334	158.06
651.539	164.06
651.743	158.06
651.947	154.06
652.152	151.06
652.356	144.06
652.56	153.06
652.764	152.06
652.969	142.06
653.173	168.06
653.377	157.06
653.581	143.06
653.785	136.06
653.99	157.06
654.194	154.06
654.398	141.06
654.602	145.06
654.806	142.06
655.01	146.06
655.214	133.06
655.418	135.06
655.622	141.06
655.826	134.06
656.03	137.06
656.234	144.06
656.438	140.06
656.642	150.06
656.846	146.06
657.049	133.06
657.253	122.06
657.457	135.06
657.661	120.06
657.865	120.06
658.068	127.06
658.272	111.06
658.476	107.06
658.68	124.06
658.883	114.06
659.087	104.06
659.291	100.06
659.494	97.06
659.698	90.06
659.901	94.06
660.105	101.06
660.309	98.06
660.512	101.06
660.716	91.06
660.919	100.06
661.123	97.06
661.326	97.06
661.53	88.06
661.733	72.06
661.936	72.06
662.14	85.06
662.343	89.06
662.546	103.06
662.75	87.06
662.953	87.06
663.156	96.06
663.36	84.06
663.563	94.06
663.766	82.06
663.969	90.06
664.173	92.06
664.376	76.06
664.579	102.06
664.782	81.06
664.985	89.06
665.188	93.06
665.391	85.06
665.594	91.06
665.797	80.06
666	88.06
666.203	74.06
666.406	93.06
666.609	73.06
666.812	79.06
667.015	70.06
667.218	78.06
667.421	80.06
667.624	77.06
667.827	72.06
668.03	81.06
668.232	79.06
668.435	74.06
668.638	84.06
668.841	96.06
669.043	79.06
669.246	88.06
669.449	92.06
669.651	95.06
669.854	93.06
670.057	78.06
670.259	79.06
670.462	84.06
670.665	79.06
670.867	91.06
671.07	79.06
671.272	87.06
671.475	85.06
671.677	87.06
671.88	84.06
672.082	83.06
672.284	89.06
672.487	73.06
672.689	66.06
672.892	95.06
