Data from 1978.PennyLincolnUp.Lamp.En5.5.200Scan.071719.P1_HRD10591_16-13-36-864.txt Node
Date: Thu Jul 18 16:13:36 EDT 2019
User: cochatt
Spectrometer: HR+D1059
Trigger mode: 1
Integration Time (sec): 1.000000E-1
Scans to average: 1
Electric dark correction enabled: true
Nonlinearity correction enabled: false
Boxcar width: 0
XAxis mode: Wavelengths
Number of Pixels in Spectrum: 2048
>>>>>Begin Spectral Data<<<<<
223.165	-11.12
223.4	-11.12
223.635	-11.12
223.869	-25.12
224.104	-13.12
224.338	-19.12
224.573	-10.12
224.808	-14.12
225.042	-15.12
225.277	-2.12
225.511	9.88
225.746	-5.12
225.98	11.88
226.215	22.88
226.449	24.88
226.683	16.88
226.918	12.88
227.152	15.88
227.387	39.88
227.621	51.88
227.856	29.88
228.09	38.88
228.324	58.88
228.559	43.88
228.793	79.88
229.027	92.88
229.262	106.88
229.496	97.88
229.73	120.88
229.964	140.88
230.199	133.88
230.433	120.88
230.667	114.88
230.901	115.88
231.136	122.88
231.37	124.88
231.604	125.88
231.838	112.88
232.072	102.88
232.306	103.88
232.541	119.88
232.775	103.88
233.009	116.88
233.243	123.88
233.477	107.88
233.711	111.88
233.945	118.88
234.179	111.88
234.413	126.88
234.647	113.88
234.881	107.88
235.115	116.88
235.349	108.88
235.583	121.88
235.817	117.88
236.051	137.88
236.285	120.88
236.519	123.88
236.753	117.88
236.987	135.88
237.221	161.88
237.455	219.88
237.689	182.88
237.922	148.88
238.156	135.88
238.39	123.88
238.624	118.88
238.858	111.88
239.091	123.88
239.325	111.88
239.559	127.88
239.793	106.88
240.027	128.88
240.26	138.88
240.494	130.88
240.728	135.88
240.961	136.88
241.195	132.88
241.429	126.88
241.662	137.88
241.896	139.88
242.13	131.88
242.363	123.88
242.597	130.88
242.83	127.88
243.064	140.88
243.298	132.88
243.531	122.88
243.765	136.88
243.998	137.88
244.232	141.88
244.465	157.88
244.699	147.88
244.932	135.88
245.166	136.88
245.399	145.88
245.633	136.88
245.866	144.88
246.099	140.88
246.333	147.88
246.566	146.88
246.8	139.88
247.033	156.88
247.266	152.88
247.5	152.88
247.733	159.88
247.966	162.88
248.2	156.88
248.433	163.88
248.666	163.88
248.899	180.88
249.133	174.88
249.366	188.88
249.599	199.88
249.832	171.88
250.066	171.88
250.299	181.88
250.532	191.88
250.765	184.88
250.998	203.88
251.231	199.88
251.465	196.88
251.698	196.88
251.931	195.88
252.164	158.88
252.397	165.88
252.63	186.88
252.863	178.88
253.096	185.88
253.329	205.88
253.562	195.88
253.795	204.88
254.028	187.88
254.261	192.88
254.494	200.88
254.727	207.88
254.96	251.88
255.193	223.88
255.426	226.88
255.659	206.88
255.892	203.88
256.124	208.88
256.357	205.88
256.59	208.88
256.823	195.88
257.056	195.88
257.289	195.88
257.521	181.88
257.754	173.88
257.987	190.88
258.22	188.88
258.452	193.88
258.685	200.88
258.918	197.88
259.151	213.88
259.383	203.88
259.616	194.88
259.849	207.88
260.081	210.88
260.314	229.88
260.547	230.88
260.779	222.88
261.012	206.88
261.244	211.88
261.477	208.88
261.71	217.88
261.942	208.88
262.175	205.88
262.407	210.88
262.64	194.88
262.872	205.88
263.105	192.88
263.337	211.88
263.57	203.88
263.802	211.88
264.035	199.88
264.267	183.88
264.499	180.88
264.732	208.88
264.964	211.88
265.197	222.88
265.429	198.88
265.661	213.88
265.894	216.88
266.126	200.88
266.358	203.88
266.591	205.88
266.823	216.88
267.055	218.88
267.287	215.88
267.52	212.88
267.752	223.88
267.984	206.88
268.216	213.88
268.448	228.88
268.681	222.88
268.913	220.88
269.145	249.88
269.377	260.88
269.609	269.88
269.841	254.88
270.073	258.88
270.306	246.88
270.538	275.88
270.77	274.88
271.002	260.88
271.234	258.88
271.466	267.88
271.698	295.88
271.93	296.88
272.162	275.88
272.394	298.88
272.626	250.88
272.858	266.88
273.09	267.88
273.322	270.88
273.553	239.88
273.785	247.88
274.017	246.88
274.249	254.88
274.481	263.88
274.713	240.88
274.945	244.88
275.176	246.88
275.408	254.88
275.64	242.88
275.872	247.88
276.104	262.88
276.335	239.88
276.567	251.88
276.799	255.88
277.031	288.88
277.262	295.88
277.494	276.88
277.726	281.88
277.957	275.88
278.189	262.88
278.421	263.88
278.652	258.88
278.884	241.88
279.115	252.88
279.347	260.88
279.579	255.88
279.81	262.88
280.042	250.88
280.273	249.88
280.505	252.88
280.736	246.88
280.968	231.88
281.199	231.88
281.431	267.88
281.662	267.88
281.894	247.88
282.125	244.88
282.356	252.88
282.588	292.88
282.819	291.88
283.051	257.88
283.282	270.88
283.513	270.88
283.745	267.88
283.976	269.88
284.207	246.88
284.439	272.88
284.67	263.88
284.901	274.88
285.132	264.88
285.364	269.88
285.595	263.88
285.826	267.88
286.057	284.88
286.288	267.88
286.52	268.88
286.751	268.88
286.982	271.88
287.213	270.88
287.444	248.88
287.675	259.88
287.906	275.88
288.138	260.88
288.369	278.88
288.6	291.88
288.831	276.88
289.062	278.88
289.293	275.88
289.524	275.88
289.755	255.88
289.986	261.88
290.217	261.88
290.448	267.88
290.679	270.88
290.91	274.88
291.141	273.88
291.371	296.88
291.602	300.88
291.833	290.88
292.064	264.88
292.295	258.88
292.526	268.88
292.757	279.88
292.987	279.88
293.218	280.88
293.449	249.88
293.68	262.88
293.91	270.88
294.141	282.88
294.372	279.88
294.603	259.88
294.833	263.88
295.064	280.88
295.295	282.88
295.525	278.88
295.756	276.88
295.987	299.88
296.217	312.88
296.448	310.88
296.679	284.88
296.909	282.88
297.14	283.88
297.37	291.88
297.601	262.88
297.831	296.88
298.062	278.88
298.292	288.88
298.523	294.88
298.753	297.88
298.984	289.88
299.214	282.88
299.445	278.88
299.675	283.88
299.905	308.88
300.136	299.88
300.366	282.88
300.597	298.88
300.827	296.88
301.057	304.88
301.288	300.88
301.518	299.88
301.748	290.88
301.979	320.88
302.209	302.88
302.439	298.88
302.669	292.88
302.9	309.88
303.13	301.88
303.36	311.88
303.59	304.88
303.82	322.88
304.051	316.88
304.281	310.88
304.511	328.88
304.741	315.88
304.971	295.88
305.201	306.88
305.431	308.88
305.661	327.88
305.891	318.88
306.121	304.88
306.352	314.88
306.582	328.88
306.812	294.88
307.042	321.88
307.272	306.88
307.502	299.88
307.731	326.88
307.961	308.88
308.191	310.88
308.421	302.88
308.651	292.88
308.881	336.88
309.111	328.88
309.341	330.88
309.571	341.88
309.8	335.88
310.03	339.88
310.26	349.88
310.49	346.88
310.72	360.88
310.949	374.88
311.179	362.88
311.409	372.88
311.639	336.88
311.868	359.88
312.098	371.88
312.328	365.88
312.557	371.88
312.787	379.88
313.017	382.88
313.246	364.88
313.476	361.88
313.706	354.88
313.935	355.88
314.165	374.88
314.394	391.88
314.624	377.88
314.853	366.88
315.083	354.88
315.312	347.88
315.542	349.88
315.771	357.88
316.001	352.88
316.23	352.88
316.46	346.88
316.689	352.88
316.919	371.88
317.148	360.88
317.377	355.88
317.607	350.88
317.836	372.88
318.065	360.88
318.295	364.88
318.524	375.88
318.753	362.88
318.983	364.88
319.212	360.88
319.441	373.88
319.67	365.88
319.9	377.88
320.129	373.88
320.358	370.88
320.587	350.88
320.816	367.88
321.046	386.88
321.275	386.88
321.504	369.88
321.733	378.88
321.962	376.88
322.191	371.88
322.42	383.88
322.649	418.88
322.878	425.88
323.108	419.88
323.337	469.88
323.566	469.88
323.795	504.88
324.024	551.88
324.253	608.88
324.482	927.88
324.71	1407.88
324.939	2170.88
325.168	1893.88
325.397	934.88
325.626	636.88
325.855	508.88
326.084	491.88
326.313	487.88
326.542	488.88
326.77	523.88
326.999	604.88
327.228	822.88
327.457	1270.88
327.686	1611.88
327.914	1036.88
328.143	682.88
328.372	589.88
328.6	547.88
328.829	521.88
329.058	565.88
329.287	567.88
329.515	528.88
329.744	470.88
329.972	486.88
330.201	493.88
330.43	510.88
330.658	574.88
330.887	549.88
331.115	552.88
331.344	511.88
331.572	474.88
331.801	479.88
332.03	460.88
332.258	426.88
332.486	419.88
332.715	442.88
332.943	428.88
333.172	421.88
333.4	426.88
333.629	444.88
333.857	446.88
334.085	466.88
334.314	475.88
334.542	505.88
334.771	508.88
334.999	476.88
335.227	453.88
335.455	447.88
335.684	432.88
335.912	440.88
336.14	442.88
336.369	450.88
336.597	429.88
336.825	432.88
337.053	435.88
337.281	406.88
337.51	415.88
337.738	413.88
337.966	420.88
338.194	424.88
338.422	447.88
338.65	422.88
338.878	440.88
339.106	403.88
339.334	418.88
339.562	420.88
339.79	404.88
340.018	419.88
340.246	396.88
340.474	406.88
340.702	425.88
340.93	425.88
341.158	420.88
341.386	412.88
341.614	411.88
341.842	404.88
342.07	404.88
342.298	405.88
342.526	417.88
342.754	407.88
342.981	404.88
343.209	413.88
343.437	408.88
343.665	431.88
343.893	397.88
344.12	423.88
344.348	456.88
344.576	424.88
344.804	429.88
345.031	456.88
345.259	456.88
345.487	407.88
345.714	430.88
345.942	436.88
346.17	425.88
346.397	406.88
346.625	414.88
346.853	413.88
347.08	420.88
347.308	415.88
347.535	410.88
347.763	426.88
347.99	408.88
348.218	422.88
348.445	423.88
348.673	413.88
348.9	416.88
349.128	387.88
349.355	393.88
349.583	406.88
349.81	410.88
350.037	395.88
350.265	386.88
350.492	405.88
350.72	401.88
350.947	398.88
351.174	394.88
351.402	424.88
351.629	418.88
351.856	400.88
352.083	415.88
352.311	426.88
352.538	423.88
352.765	443.88
352.992	413.88
353.22	389.88
353.447	400.88
353.674	420.88
353.901	390.88
354.128	384.88
354.355	379.88
354.583	387.88
354.81	388.88
355.037	390.88
355.264	391.88
355.491	387.88
355.718	365.88
355.945	370.88
356.172	374.88
356.399	378.88
356.626	370.88
356.853	364.88
357.08	382.88
357.307	382.88
357.534	387.88
357.761	366.88
357.988	400.88
358.215	380.88
358.441	394.88
358.668	383.88
358.895	388.88
359.122	384.88
359.349	382.88
359.576	411.88
359.802	424.88
360.029	451.88
360.256	455.88
360.483	438.88
360.709	410.88
360.936	404.88
361.163	408.88
361.39	416.88
361.616	409.88
361.843	417.88
362.07	429.88
362.296	398.88
362.523	400.88
362.749	407.88
362.976	392.88
363.203	398.88
363.429	388.88
363.656	383.88
363.882	388.88
364.109	393.88
364.335	379.88
364.562	404.88
364.788	396.88
365.015	391.88
365.241	375.88
365.468	412.88
365.694	405.88
365.92	413.88
366.147	391.88
366.373	386.88
366.599	396.88
366.826	399.88
367.052	402.88
367.278	390.88
367.505	402.88
367.731	392.88
367.957	416.88
368.184	395.88
368.41	411.88
368.636	418.88
368.862	422.88
369.089	421.88
369.315	401.88
369.541	406.88
369.767	411.88
369.993	388.88
370.219	392.88
370.445	399.88
370.672	403.88
370.898	404.88
371.124	402.88
371.35	406.88
371.576	406.88
371.802	398.88
372.028	405.88
372.254	404.88
372.48	419.88
372.706	407.88
372.932	391.88
373.158	405.88
373.384	414.88
373.61	415.88
373.835	426.88
374.061	390.88
374.287	406.88
374.513	414.88
374.739	420.88
374.965	412.88
375.191	415.88
375.416	419.88
375.642	398.88
375.868	402.88
376.094	398.88
376.319	398.88
376.545	388.88
376.771	425.88
376.997	402.88
377.222	404.88
377.448	395.88
377.674	384.88
377.899	415.88
378.125	409.88
378.35	405.88
378.576	387.88
378.802	400.88
379.027	420.88
379.253	420.88
379.478	415.88
379.704	402.88
379.929	397.88
380.155	394.88
380.38	403.88
380.606	392.88
380.831	399.88
381.057	404.88
381.282	407.88
381.507	394.88
381.733	399.88
381.958	419.88
382.184	419.88
382.409	411.88
382.634	398.88
382.86	425.88
383.085	433.88
383.31	420.88
383.535	413.88
383.761	402.88
383.986	418.88
384.211	408.88
384.436	426.88
384.662	422.88
384.887	414.88
385.112	438.88
385.337	427.88
385.562	443.88
385.787	435.88
386.013	466.88
386.238	471.88
386.463	445.88
386.688	454.88
386.913	454.88
387.138	452.88
387.363	444.88
387.588	442.88
387.813	446.88
388.038	440.88
388.263	444.88
388.488	445.88
388.713	443.88
388.938	456.88
389.163	463.88
389.387	461.88
389.612	446.88
389.837	460.88
390.062	460.88
390.287	459.88
390.512	463.88
390.736	452.88
390.961	445.88
391.186	457.88
391.411	462.88
391.636	460.88
391.86	463.88
392.085	461.88
392.31	476.88
392.534	482.88
392.759	464.88
392.984	449.88
393.208	444.88
393.433	457.88
393.658	447.88
393.882	444.88
394.107	452.88
394.331	443.88
394.556	431.88
394.78	449.88
395.005	452.88
395.229	454.88
395.454	464.88
395.678	458.88
395.903	485.88
396.127	518.88
396.352	498.88
396.576	485.88
396.801	479.88
397.025	474.88
397.249	484.88
397.474	480.88
397.698	504.88
397.922	499.88
398.147	515.88
398.371	518.88
398.595	533.88
398.82	524.88
399.044	525.88
399.268	574.88
399.492	547.88
399.717	588.88
399.941	606.88
400.165	646.88
400.389	642.88
400.613	580.88
400.837	569.88
401.062	537.88
401.286	528.88
401.51	535.88
401.734	539.88
401.958	540.88
402.182	538.88
402.406	535.88
402.63	539.88
402.854	500.88
403.078	527.88
403.302	524.88
403.526	550.88
403.75	558.88
403.974	551.88
404.198	532.88
404.422	558.88
404.645	547.88
404.869	566.88
405.093	583.88
405.317	644.88
405.541	668.88
405.765	604.88
405.988	580.88
406.212	574.88
406.436	591.88
406.66	583.88
406.883	586.88
407.107	614.88
407.331	639.88
407.555	740.88
407.778	732.88
408.002	669.88
408.226	596.88
408.449	618.88
408.673	599.88
408.896	638.88
409.12	667.88
409.344	642.88
409.567	582.88
409.791	589.88
410.014	566.88
410.238	551.88
410.461	535.88
410.685	543.88
410.908	581.88
411.132	582.88
411.355	636.88
411.578	629.88
411.802	574.88
412.025	558.88
412.249	548.88
412.472	579.88
412.695	606.88
412.919	592.88
413.142	538.88
413.365	534.88
413.589	522.88
413.812	539.88
414.035	521.88
414.258	524.88
414.482	508.88
414.705	529.88
414.928	536.88
415.151	508.88
415.374	518.88
415.597	510.88
415.821	524.88
416.044	506.88
416.267	533.88
416.49	525.88
416.713	513.88
416.936	516.88
417.159	507.88
417.382	516.88
417.605	519.88
417.828	525.88
418.051	539.88
418.274	537.88
418.497	498.88
418.72	506.88
418.943	520.88
419.166	530.88
419.389	551.88
419.611	555.88
419.834	512.88
420.057	539.88
420.28	549.88
420.503	527.88
420.726	548.88
420.948	554.88
421.171	593.88
421.394	612.88
421.617	570.88
421.839	536.88
422.062	532.88
422.285	521.88
422.507	590.88
422.73	690.88
422.953	664.88
423.175	583.88
423.398	562.88
423.621	540.88
423.843	558.88
424.066	564.88
424.288	550.88
424.511	604.88
424.733	630.88
424.956	725.88
425.178	710.88
425.401	680.88
425.623	734.88
425.846	630.88
426.068	589.88
426.291	565.88
426.513	567.88
426.735	574.88
426.958	602.88
427.18	692.88
427.402	866.88
427.625	953.88
427.847	792.88
428.069	674.88
428.292	620.88
428.514	575.88
428.736	546.88
428.958	538.88
429.181	540.88
429.403	541.88
429.625	531.88
429.847	575.88
430.069	655.88
430.292	640.88
430.514	552.88
430.736	521.88
430.958	523.88
431.18	533.88
431.402	518.88
431.624	481.88
431.846	498.88
432.068	491.88
432.29	526.88
432.512	498.88
432.734	507.88
432.956	500.88
433.178	539.88
433.4	547.88
433.622	526.88
433.844	510.88
434.066	500.88
434.287	516.88
434.509	538.88
434.731	512.88
434.953	536.88
435.175	556.88
435.397	576.88
435.618	565.88
435.84	622.88
436.062	727.88
436.284	804.88
436.505	677.88
436.727	608.88
436.949	559.88
437.17	536.88
437.392	542.88
437.614	552.88
437.835	592.88
438.057	683.88
438.278	790.88
438.5	812.88
438.721	880.88
438.943	837.88
439.165	647.88
439.386	601.88
439.608	574.88
439.829	572.88
440.05	629.88
440.272	678.88
440.493	596.88
440.715	566.88
440.936	546.88
441.158	549.88
441.379	536.88
441.6	555.88
441.822	538.88
442.043	629.88
442.264	691.88
442.486	751.88
442.707	630.88
442.928	602.88
443.149	604.88
443.371	598.88
443.592	649.88
443.813	750.88
444.034	825.88
444.255	695.88
444.476	606.88
444.698	613.88
444.919	579.88
445.14	665.88
445.361	618.88
445.582	638.88
445.803	680.88
446.024	814.88
446.245	795.88
446.466	738.88
446.687	613.88
446.908	569.88
447.129	562.88
447.35	529.88
447.571	519.88
447.792	535.88
448.013	541.88
448.234	571.88
448.455	583.88
448.675	724.88
448.896	830.88
449.117	702.88
449.338	672.88
449.559	787.88
449.779	895.88
450	732.88
450.221	584.88
450.442	546.88
450.662	540.88
450.883	526.88
451.104	537.88
451.324	518.88
451.545	510.88
451.766	490.88
451.986	480.88
452.207	467.88
452.428	470.88
452.648	466.88
452.869	471.88
453.089	466.88
453.31	491.88
453.53	487.88
453.751	483.88
453.971	468.88
454.192	505.88
454.412	481.88
454.633	475.88
454.853	463.88
455.073	467.88
455.294	512.88
455.514	588.88
455.734	559.88
455.955	488.88
456.175	440.88
456.395	469.88
456.616	456.88
456.836	451.88
457.056	434.88
457.276	450.88
457.497	443.88
457.717	449.88
457.937	453.88
458.157	468.88
458.377	468.88
458.598	510.88
458.818	513.88
459.038	606.88
459.258	650.88
459.478	527.88
459.698	528.88
459.918	525.88
460.138	491.88
460.358	526.88
460.578	512.88
460.798	532.88
461.018	536.88
461.238	523.88
461.458	540.88
461.678	526.88
461.898	514.88
462.118	527.88
462.338	535.88
462.558	537.88
462.777	526.88
462.997	538.88
463.217	566.88
463.437	571.88
463.657	536.88
463.876	557.88
464.096	551.88
464.316	589.88
464.536	573.88
464.755	575.88
464.975	560.88
465.195	589.88
465.414	622.88
465.634	584.88
465.854	530.88
466.073	503.88
466.293	506.88
466.512	526.88
466.732	510.88
466.951	491.88
467.171	482.88
467.391	493.88
467.61	520.88
467.829	501.88
468.049	550.88
468.268	512.88
468.488	487.88
468.707	492.88
468.927	478.88
469.146	500.88
469.365	482.88
469.585	488.88
469.804	500.88
470.023	510.88
470.243	490.88
470.462	493.88
470.681	521.88
470.901	527.88
471.12	508.88
471.339	522.88
471.558	508.88
471.777	512.88
471.997	479.88
472.216	493.88
472.435	526.88
472.654	510.88
472.873	508.88
473.092	495.88
473.311	489.88
473.53	496.88
473.749	502.88
473.968	540.88
474.187	660.88
474.406	664.88
474.625	558.88
474.844	506.88
475.063	507.88
475.282	514.88
475.501	520.88
475.72	494.88
475.939	523.88
476.158	527.88
476.377	532.88
476.596	541.88
476.814	513.88
477.033	518.88
477.252	530.88
477.471	537.88
477.69	536.88
477.908	546.88
478.127	547.88
478.346	539.88
478.564	544.88
478.783	564.88
479.002	558.88
479.22	577.88
479.439	574.88
479.658	594.88
479.876	606.88
480.095	618.88
480.313	651.88
480.532	631.88
480.751	598.88
480.969	607.88
481.188	657.88
481.406	699.88
481.624	611.88
481.843	613.88
482.061	598.88
482.28	597.88
482.498	591.88
482.717	590.88
482.935	574.88
483.153	567.88
483.372	574.88
483.59	596.88
483.808	588.88
484.027	589.88
484.245	598.88
484.463	595.88
484.681	603.88
484.9	583.88
485.118	600.88
485.336	584.88
485.554	576.88
485.772	603.88
485.99	602.88
486.209	616.88
486.427	598.88
486.645	608.88
486.863	623.88
487.081	634.88
487.299	632.88
487.517	615.88
487.735	626.88
487.953	618.88
488.171	612.88
488.389	637.88
488.607	635.88
488.825	631.88
489.043	637.88
489.261	633.88
489.479	636.88
489.696	620.88
489.914	653.88
490.132	638.88
490.35	643.88
490.568	639.88
490.786	638.88
491.003	654.88
491.221	664.88
491.439	657.88
491.657	672.88
491.874	706.88
492.092	703.88
492.31	660.88
492.527	700.88
492.745	711.88
492.963	698.88
493.18	709.88
493.398	721.88
493.615	701.88
493.833	706.88
494.05	716.88
494.268	722.88
494.485	702.88
494.703	721.88
494.92	740.88
495.138	713.88
495.355	706.88
495.573	730.88
495.79	721.88
496.008	749.88
496.225	733.88
496.442	770.88
496.66	735.88
496.877	733.88
497.094	738.88
497.312	782.88
497.529	770.88
497.746	785.88
497.963	770.88
498.181	813.88
498.398	802.88
498.615	828.88
498.832	869.88
499.049	861.88
499.267	822.88
499.484	907.88
499.701	950.88
499.918	964.88
500.135	1021.88
500.352	1046.88
500.569	1048.88
500.786	1061.88
501.003	1054.88
501.22	1019.88
501.437	1001.88
501.654	966.88
501.871	955.88
502.088	901.88
502.305	918.88
502.522	876.88
502.739	831.88
502.956	815.88
503.172	773.88
503.389	794.88
503.606	780.88
503.823	794.88
504.04	756.88
504.256	764.88
504.473	766.88
504.69	731.88
504.907	740.88
505.123	754.88
505.34	721.88
505.557	730.88
505.773	724.88
505.99	757.88
506.207	726.88
506.423	707.88
506.64	692.88
506.856	718.88
507.073	665.88
507.289	671.88
507.506	679.88
507.722	690.88
507.939	684.88
508.155	676.88
508.372	654.88
508.588	654.88
508.805	678.88
509.021	653.88
509.238	667.88
509.454	669.88
509.67	665.88
509.887	657.88
510.103	652.88
510.319	656.88
510.536	768.88
510.752	1149.88
510.968	975.88
511.184	671.88
511.401	648.88
511.617	629.88
511.833	635.88
512.049	610.88
512.265	632.88
512.481	647.88
512.698	612.88
512.914	619.88
513.13	605.88
513.346	615.88
513.562	644.88
513.778	620.88
513.994	628.88
514.21	633.88
514.426	664.88
514.642	703.88
514.858	713.88
515.074	693.88
515.29	815.88
515.506	1195.88
515.721	1012.88
515.937	734.88
516.153	692.88
516.369	681.88
516.585	680.88
516.801	667.88
517.016	656.88
517.232	660.88
517.448	678.88
517.664	658.88
517.879	670.88
518.095	665.88
518.311	622.88
518.527	653.88
518.742	660.88
518.958	632.88
519.173	651.88
519.389	650.88
519.605	654.88
519.82	642.88
520.036	664.88
520.251	652.88
520.467	692.88
520.682	672.88
520.898	673.88
521.113	716.88
521.329	716.88
521.544	805.88
521.76	978.88
521.975	1506.88
522.19	1464.88
522.406	882.88
522.621	724.88
522.836	648.88
523.052	620.88
523.267	620.88
523.482	587.88
523.698	590.88
523.913	579.88
524.128	589.88
524.343	584.88
524.559	565.88
524.774	563.88
524.989	558.88
525.204	545.88
525.419	566.88
525.634	553.88
525.849	547.88
526.064	553.88
526.28	557.88
526.495	536.88
526.71	543.88
526.925	548.88
527.14	548.88
527.355	527.88
527.57	516.88
527.785	543.88
527.999	520.88
528.214	526.88
528.429	528.88
528.644	550.88
528.859	523.88
529.074	536.88
529.289	550.88
529.503	595.88
529.718	583.88
529.933	542.88
530.148	544.88
530.363	512.88
530.577	508.88
530.792	491.88
531.007	510.88
531.221	511.88
531.436	511.88
531.651	512.88
531.865	499.88
532.08	512.88
532.295	507.88
532.509	503.88
532.724	515.88
532.938	492.88
533.153	511.88
533.367	514.88
533.582	490.88
533.796	473.88
534.011	516.88
534.225	504.88
534.44	505.88
534.654	490.88
534.868	486.88
535.083	500.88
535.297	508.88
535.511	518.88
535.726	522.88
535.94	512.88
536.154	496.88
536.369	491.88
536.583	494.88
536.797	487.88
537.011	489.88
537.225	499.88
537.44	466.88
537.654	488.88
537.868	482.88
538.082	486.88
538.296	498.88
538.51	464.88
538.724	474.88
538.938	489.88
539.153	470.88
539.367	519.88
539.581	503.88
539.795	468.88
540.009	490.88
540.222	475.88
540.436	492.88
540.65	470.88
540.864	473.88
541.078	499.88
541.292	512.88
541.506	472.88
541.72	486.88
541.934	465.88
542.147	488.88
542.361	494.88
542.575	481.88
542.789	462.88
543.002	482.88
543.216	480.88
543.43	483.88
543.644	474.88
543.857	481.88
544.071	486.88
544.285	490.88
544.498	464.88
544.712	476.88
544.925	467.88
545.139	486.88
545.352	473.88
545.566	466.88
545.779	469.88
545.993	478.88
546.206	456.88
546.42	472.88
546.633	469.88
546.847	483.88
547.06	486.88
547.274	461.88
547.487	459.88
547.7	423.88
547.914	447.88
548.127	456.88
548.34	456.88
548.554	453.88
548.767	474.88
548.98	467.88
549.193	447.88
549.407	469.88
549.62	461.88
549.833	459.88
550.046	440.88
550.259	459.88
550.473	443.88
550.686	462.88
550.899	462.88
551.112	472.88
551.325	447.88
551.538	464.88
551.751	464.88
551.964	442.88
552.177	454.88
552.39	451.88
552.603	472.88
552.816	473.88
553.029	465.88
553.242	462.88
553.455	472.88
553.667	478.88
553.88	498.88
554.093	459.88
554.306	479.88
554.519	470.88
554.732	426.88
554.944	452.88
555.157	468.88
555.37	447.88
555.583	443.88
555.795	428.88
556.008	447.88
556.221	442.88
556.433	428.88
556.646	416.88
556.859	416.88
557.071	435.88
557.284	416.88
557.496	422.88
557.709	422.88
557.921	424.88
558.134	425.88
558.346	400.88
558.559	429.88
558.771	442.88
558.984	415.88
559.196	392.88
559.409	412.88
559.621	427.88
559.833	420.88
560.046	389.88
560.258	409.88
560.47	391.88
560.683	396.88
560.895	398.88
561.107	425.88
561.32	398.88
561.532	410.88
561.744	422.88
561.956	422.88
562.168	408.88
562.381	431.88
562.593	404.88
562.805	430.88
563.017	419.88
563.229	435.88
563.441	416.88
563.653	428.88
563.865	418.88
564.077	424.88
564.289	427.88
564.501	422.88
564.713	443.88
564.925	446.88
565.137	454.88
565.349	444.88
565.561	468.88
565.773	466.88
565.985	478.88
566.197	487.88
566.408	504.88
566.62	490.88
566.832	502.88
567.044	502.88
567.255	514.88
567.467	546.88
567.679	531.88
567.891	523.88
568.102	539.88
568.314	530.88
568.526	514.88
568.737	494.88
568.949	465.88
569.161	478.88
569.372	453.88
569.584	444.88
569.795	447.88
570.007	426.88
570.218	462.88
570.43	444.88
570.641	428.88
570.853	412.88
571.064	420.88
571.276	421.88
571.487	404.88
571.698	402.88
571.91	404.88
572.121	389.88
572.333	390.88
572.544	381.88
572.755	386.88
572.966	378.88
573.178	378.88
573.389	377.88
573.6	360.88
573.811	368.88
574.023	363.88
574.234	364.88
574.445	366.88
574.656	365.88
574.867	350.88
575.078	362.88
575.289	364.88
575.501	364.88
575.712	347.88
575.923	351.88
576.134	368.88
576.345	365.88
576.556	362.88
576.767	332.88
576.978	347.88
577.188	348.88
577.399	383.88
577.61	359.88
577.821	342.88
578.032	342.88
578.243	382.88
578.454	550.88
578.665	439.88
578.875	349.88
579.086	332.88
579.297	353.88
579.508	346.88
579.718	344.88
579.929	327.88
580.14	335.88
580.35	333.88
580.561	348.88
580.772	331.88
580.982	333.88
581.193	320.88
581.403	314.88
581.614	324.88
581.825	325.88
582.035	334.88
582.246	326.88
582.456	335.88
582.667	333.88
582.877	319.88
583.087	319.88
583.298	323.88
583.508	316.88
583.719	319.88
583.929	325.88
584.139	315.88
584.35	327.88
584.56	319.88
584.77	336.88
584.981	342.88
585.191	330.88
585.401	312.88
585.611	322.88
585.821	310.88
586.032	327.88
586.242	320.88
586.452	319.88
586.662	319.88
586.872	311.88
587.082	317.88
587.292	328.88
587.502	337.88
587.713	317.88
587.923	319.88
588.133	292.88
588.343	322.88
588.553	317.88
588.762	321.88
588.972	316.88
589.182	319.88
589.392	315.88
589.602	311.88
589.812	302.88
590.022	299.88
590.232	322.88
590.441	326.88
590.651	326.88
590.861	326.88
591.071	307.88
591.281	329.88
591.49	310.88
591.7	318.88
591.91	311.88
592.119	325.88
592.329	327.88
592.539	316.88
592.748	338.88
592.958	336.88
593.167	336.88
593.377	337.88
593.587	358.88
593.796	339.88
594.006	341.88
594.215	328.88
594.424	318.88
594.634	331.88
594.843	351.88
595.053	314.88
595.262	343.88
595.472	314.88
595.681	326.88
595.89	318.88
596.1	296.88
596.309	320.88
596.518	305.88
596.727	299.88
596.937	302.88
597.146	293.88
597.355	300.88
597.564	298.88
597.774	296.88
597.983	308.88
598.192	282.88
598.401	282.88
598.61	281.88
598.819	293.88
599.028	295.88
599.237	303.88
599.446	282.88
599.655	279.88
599.864	282.88
600.073	295.88
600.282	282.88
600.491	262.88
600.7	270.88
600.909	265.88
601.118	261.88
601.327	278.88
601.536	277.88
601.745	292.88
601.953	271.88
602.162	279.88
602.371	262.88
602.58	278.88
602.789	275.88
602.997	264.88
603.206	290.88
603.415	270.88
603.623	255.88
603.832	268.88
604.041	262.88
604.249	263.88
604.458	251.88
604.666	261.88
604.875	260.88
605.084	282.88
605.292	271.88
605.501	270.88
605.709	254.88
605.918	261.88
606.126	254.88
606.334	253.88
606.543	259.88
606.751	262.88
606.96	260.88
607.168	248.88
607.376	254.88
607.585	259.88
607.793	263.88
608.001	257.88
608.21	254.88
608.418	249.88
608.626	267.88
608.834	254.88
609.043	267.88
609.251	245.88
609.459	258.88
609.667	249.88
609.875	238.88
610.083	249.88
610.291	262.88
610.499	239.88
610.707	242.88
610.916	242.88
611.124	269.88
611.332	250.88
611.54	284.88
611.748	263.88
611.955	244.88
612.163	278.88
612.371	255.88
612.579	266.88
612.787	253.88
612.995	253.88
613.203	266.88
613.411	251.88
613.618	251.88
613.826	254.88
614.034	242.88
614.242	232.88
614.449	259.88
614.657	241.88
614.865	258.88
615.072	254.88
615.28	257.88
615.488	247.88
615.695	249.88
615.903	258.88
616.111	233.88
616.318	247.88
616.526	256.88
616.733	249.88
616.941	255.88
617.148	246.88
617.356	242.88
617.563	248.88
617.771	257.88
617.978	247.88
618.185	237.88
618.393	223.88
618.6	254.88
618.807	267.88
619.015	239.88
619.222	218.88
619.429	229.88
619.637	233.88
619.844	237.88
620.051	241.88
620.258	242.88
620.466	238.88
620.673	229.88
620.88	208.88
621.087	249.88
621.294	244.88
621.501	234.88
621.708	250.88
621.915	229.88
622.122	228.88
622.329	245.88
622.536	239.88
622.743	238.88
622.95	216.88
623.157	223.88
623.364	227.88
623.571	218.88
623.778	234.88
623.985	228.88
624.192	233.88
624.399	228.88
624.606	225.88
624.812	221.88
625.019	219.88
625.226	220.88
625.433	228.88
625.639	209.88
625.846	221.88
626.053	213.88
626.259	215.88
626.466	204.88
626.673	213.88
626.879	211.88
627.086	218.88
627.293	212.88
627.499	211.88
627.706	223.88
627.912	213.88
628.119	221.88
628.325	196.88
628.532	222.88
628.738	212.88
628.945	215.88
629.151	195.88
629.357	185.88
629.564	201.88
629.77	202.88
629.976	200.88
630.183	206.88
630.389	208.88
630.595	206.88
630.802	207.88
631.008	193.88
631.214	202.88
631.42	215.88
631.627	216.88
631.833	193.88
632.039	196.88
632.245	208.88
632.451	224.88
632.657	199.88
632.863	205.88
633.069	197.88
633.275	197.88
633.481	198.88
633.688	207.88
633.893	192.88
634.099	188.88
634.305	200.88
634.511	187.88
634.717	199.88
634.923	205.88
635.129	179.88
635.335	185.88
635.541	215.88
635.747	193.88
635.952	192.88
636.158	191.88
636.364	176.88
636.57	204.88
636.775	190.88
636.981	190.88
637.187	198.88
637.392	186.88
637.598	189.88
637.804	181.88
638.009	184.88
638.215	185.88
638.421	176.88
638.626	182.88
638.832	191.88
639.037	204.88
639.243	181.88
639.448	167.88
639.654	184.88
639.859	187.88
640.065	184.88
640.27	175.88
640.475	192.88
640.681	185.88
640.886	165.88
641.091	171.88
641.297	173.88
641.502	174.88
641.707	184.88
641.913	186.88
642.118	196.88
642.323	188.88
642.528	171.88
642.733	171.88
642.939	174.88
643.144	178.88
643.349	172.88
643.554	177.88
643.759	186.88
643.964	173.88
644.169	199.88
644.374	168.88
644.579	169.88
644.784	173.88
644.989	177.88
645.194	169.88
645.399	192.88
645.604	166.88
645.809	170.88
646.014	169.88
646.219	170.88
646.423	171.88
646.628	185.88
646.833	160.88
647.038	167.88
647.243	184.88
647.447	173.88
647.652	186.88
647.857	183.88
648.062	182.88
648.266	179.88
648.471	182.88
648.676	173.88
648.88	165.88
649.085	184.88
649.289	148.88
649.494	168.88
649.698	203.88
649.903	180.88
650.107	194.88
650.312	172.88
650.516	172.88
650.721	178.88
650.925	154.88
651.13	140.88
651.334	156.88
651.539	165.88
651.743	148.88
651.947	159.88
652.152	144.88
652.356	145.88
652.56	140.88
652.764	146.88
652.969	162.88
653.173	151.88
653.377	141.88
653.581	146.88
653.785	143.88
653.99	143.88
654.194	141.88
654.398	144.88
654.602	144.88
654.806	150.88
655.01	138.88
655.214	132.88
655.418	137.88
655.622	132.88
655.826	122.88
656.03	139.88
656.234	143.88
656.438	134.88
656.642	122.88
656.846	135.88
657.049	132.88
657.253	132.88
657.457	121.88
657.661	109.88
657.865	107.88
658.068	120.88
658.272	116.88
658.476	110.88
658.68	119.88
658.883	102.88
659.087	104.88
659.291	102.88
659.494	112.88
659.698	98.88
659.901	98.88
660.105	102.88
660.309	107.88
660.512	102.88
660.716	96.88
660.919	88.88
661.123	87.88
661.326	94.88
661.53	84.88
661.733	96.88
661.936	96.88
662.14	102.88
662.343	98.88
662.546	88.88
662.75	85.88
662.953	94.88
663.156	86.88
663.36	89.88
663.563	97.88
663.766	87.88
663.969	83.88
664.173	84.88
664.376	87.88
664.579	86.88
664.782	84.88
664.985	86.88
665.188	84.88
665.391	90.88
665.594	77.88
665.797	73.88
666	79.88
666.203	77.88
666.406	70.88
666.609	87.88
666.812	84.88
667.015	85.88
667.218	79.88
667.421	84.88
667.624	77.88
667.827	82.88
668.03	98.88
668.232	80.88
668.435	74.88
668.638	79.88
668.841	94.88
669.043	86.88
669.246	86.88
669.449	88.88
669.651	93.88
669.854	80.88
670.057	95.88
670.259	86.88
670.462	90.88
670.665	84.88
670.867	83.88
671.07	89.88
671.272	94.88
671.475	80.88
671.677	91.88
671.88	82.88
672.082	84.88
672.284	96.88
672.487	101.88
672.689	83.88
672.892	78.88
