Data from 1978.PennyLincolnUp.Lamp.En5.5.200Scan.071719.P1_HRD10591_16-12-20-865.txt Node
Date: Thu Jul 18 16:12:20 EDT 2019
User: cochatt
Spectrometer: HR+D1059
Trigger mode: 1
Integration Time (sec): 1.000000E-1
Scans to average: 1
Electric dark correction enabled: true
Nonlinearity correction enabled: false
Boxcar width: 0
XAxis mode: Wavelengths
Number of Pixels in Spectrum: 2048
>>>>>Begin Spectral Data<<<<<
223.165	-13.25
223.4	-13.25
223.635	-13.25
223.869	-23.25
224.104	-13.25
224.338	-14.25
224.573	-17.25
224.808	-12.25
225.042	-11.25
225.277	-10.25
225.511	-4.25
225.746	5.75
225.98	10.75
226.215	10.75
226.449	7.75
226.683	27.75
226.918	24.75
227.152	31.75
227.387	30.75
227.621	27.75
227.856	44.75
228.09	46.75
228.324	53.75
228.559	57.75
228.793	77.75
229.027	100.75
229.262	116.75
229.496	117.75
229.73	125.75
229.964	138.75
230.199	119.75
230.433	122.75
230.667	107.75
230.901	111.75
231.136	126.75
231.37	119.75
231.604	116.75
231.838	119.75
232.072	107.75
232.306	116.75
232.541	116.75
232.775	103.75
233.009	101.75
233.243	102.75
233.477	104.75
233.711	126.75
233.945	123.75
234.179	111.75
234.413	120.75
234.647	111.75
234.881	121.75
235.115	120.75
235.349	125.75
235.583	103.75
235.817	124.75
236.051	117.75
236.285	116.75
236.519	124.75
236.753	120.75
236.987	138.75
237.221	167.75
237.455	209.75
237.689	174.75
237.922	133.75
238.156	140.75
238.39	122.75
238.624	119.75
238.858	131.75
239.091	121.75
239.325	123.75
239.559	120.75
239.793	139.75
240.027	127.75
240.26	118.75
240.494	136.75
240.728	140.75
240.961	144.75
241.195	140.75
241.429	136.75
241.662	132.75
241.896	128.75
242.13	126.75
242.363	112.75
242.597	128.75
242.83	134.75
243.064	123.75
243.298	128.75
243.531	134.75
243.765	129.75
243.998	137.75
244.232	145.75
244.465	133.75
244.699	145.75
244.932	152.75
245.166	119.75
245.399	136.75
245.633	144.75
245.866	153.75
246.099	148.75
246.333	150.75
246.566	153.75
246.8	136.75
247.033	152.75
247.266	145.75
247.5	140.75
247.733	164.75
247.966	167.75
248.2	142.75
248.433	158.75
248.666	166.75
248.899	162.75
249.133	182.75
249.366	184.75
249.599	172.75
249.832	154.75
250.066	170.75
250.299	176.75
250.532	163.75
250.765	180.75
250.998	176.75
251.231	209.75
251.465	186.75
251.698	180.75
251.931	173.75
252.164	173.75
252.397	171.75
252.63	183.75
252.863	171.75
253.096	191.75
253.329	183.75
253.562	175.75
253.795	182.75
254.028	200.75
254.261	166.75
254.494	189.75
254.727	214.75
254.96	234.75
255.193	214.75
255.426	216.75
255.659	204.75
255.892	200.75
256.124	196.75
256.357	199.75
256.59	216.75
256.823	191.75
257.056	193.75
257.289	188.75
257.521	187.75
257.754	179.75
257.987	191.75
258.22	196.75
258.452	193.75
258.685	175.75
258.918	167.75
259.151	182.75
259.383	196.75
259.616	209.75
259.849	196.75
260.081	197.75
260.314	207.75
260.547	238.75
260.779	222.75
261.012	200.75
261.244	197.75
261.477	190.75
261.71	214.75
261.942	214.75
262.175	215.75
262.407	203.75
262.64	191.75
262.872	201.75
263.105	201.75
263.337	203.75
263.57	205.75
263.802	199.75
264.035	188.75
264.267	200.75
264.499	195.75
264.732	190.75
264.964	188.75
265.197	185.75
265.429	206.75
265.661	194.75
265.894	196.75
266.126	205.75
266.358	202.75
266.591	202.75
266.823	207.75
267.055	202.75
267.287	197.75
267.52	224.75
267.752	204.75
267.984	218.75
268.216	203.75
268.448	204.75
268.681	202.75
268.913	217.75
269.145	228.75
269.377	252.75
269.609	252.75
269.841	233.75
270.073	256.75
270.306	235.75
270.538	282.75
270.77	272.75
271.002	266.75
271.234	249.75
271.466	262.75
271.698	271.75
271.93	283.75
272.162	272.75
272.394	255.75
272.626	258.75
272.858	256.75
273.09	260.75
273.322	247.75
273.553	230.75
273.785	233.75
274.017	242.75
274.249	250.75
274.481	230.75
274.713	244.75
274.945	248.75
275.176	243.75
275.408	240.75
275.64	231.75
275.872	240.75
276.104	236.75
276.335	238.75
276.567	245.75
276.799	248.75
277.031	270.75
277.262	272.75
277.494	278.75
277.726	272.75
277.957	252.75
278.189	256.75
278.421	262.75
278.652	240.75
278.884	245.75
279.115	256.75
279.347	256.75
279.579	261.75
279.81	249.75
280.042	250.75
280.273	258.75
280.505	262.75
280.736	245.75
280.968	235.75
281.199	254.75
281.431	273.75
281.662	240.75
281.894	258.75
282.125	257.75
282.356	262.75
282.588	285.75
282.819	277.75
283.051	286.75
283.282	233.75
283.513	250.75
283.745	252.75
283.976	267.75
284.207	247.75
284.439	280.75
284.67	270.75
284.901	263.75
285.132	254.75
285.364	240.75
285.595	247.75
285.826	229.75
286.057	257.75
286.288	268.75
286.52	263.75
286.751	281.75
286.982	256.75
287.213	258.75
287.444	248.75
287.675	270.75
287.906	271.75
288.138	264.75
288.369	279.75
288.6	273.75
288.831	287.75
289.062	280.75
289.293	264.75
289.524	269.75
289.755	266.75
289.986	282.75
290.217	253.75
290.448	255.75
290.679	265.75
290.91	267.75
291.141	264.75
291.371	267.75
291.602	265.75
291.833	277.75
292.064	276.75
292.295	245.75
292.526	274.75
292.757	267.75
292.987	283.75
293.218	266.75
293.449	274.75
293.68	255.75
293.91	280.75
294.141	262.75
294.372	273.75
294.603	298.75
294.833	302.75
295.064	260.75
295.295	280.75
295.525	270.75
295.756	296.75
295.987	276.75
296.217	294.75
296.448	310.75
296.679	280.75
296.909	290.75
297.14	280.75
297.37	272.75
297.601	290.75
297.831	288.75
298.062	279.75
298.292	282.75
298.523	296.75
298.753	290.75
298.984	285.75
299.214	285.75
299.445	291.75
299.675	282.75
299.905	298.75
300.136	299.75
300.366	305.75
300.597	288.75
300.827	294.75
301.057	314.75
301.288	313.75
301.518	317.75
301.748	297.75
301.979	301.75
302.209	287.75
302.439	318.75
302.669	311.75
302.9	307.75
303.13	313.75
303.36	314.75
303.59	301.75
303.82	313.75
304.051	318.75
304.281	309.75
304.511	321.75
304.741	319.75
304.971	310.75
305.201	301.75
305.431	297.75
305.661	295.75
305.891	314.75
306.121	318.75
306.352	301.75
306.582	317.75
306.812	305.75
307.042	319.75
307.272	316.75
307.502	309.75
307.731	324.75
307.961	302.75
308.191	324.75
308.421	334.75
308.651	334.75
308.881	326.75
309.111	330.75
309.341	323.75
309.571	313.75
309.8	314.75
310.03	326.75
310.26	337.75
310.49	357.75
310.72	362.75
310.949	365.75
311.179	369.75
311.409	336.75
311.639	347.75
311.868	333.75
312.098	371.75
312.328	360.75
312.557	356.75
312.787	358.75
313.017	368.75
313.246	350.75
313.476	350.75
313.706	344.75
313.935	338.75
314.165	338.75
314.394	369.75
314.624	372.75
314.853	344.75
315.083	362.75
315.312	346.75
315.542	344.75
315.771	335.75
316.001	346.75
316.23	340.75
316.46	340.75
316.689	362.75
316.919	362.75
317.148	366.75
317.377	360.75
317.607	362.75
317.836	345.75
318.065	364.75
318.295	343.75
318.524	367.75
318.753	338.75
318.983	339.75
319.212	353.75
319.441	363.75
319.67	359.75
319.9	351.75
320.129	320.75
320.358	347.75
320.587	354.75
320.816	368.75
321.046	383.75
321.275	364.75
321.504	380.75
321.733	372.75
321.962	372.75
322.191	380.75
322.42	380.75
322.649	381.75
322.878	389.75
323.108	391.75
323.337	423.75
323.566	431.75
323.795	479.75
324.024	484.75
324.253	576.75
324.482	837.75
324.71	1252.75
324.939	1912.75
325.168	1634.75
325.397	827.75
325.626	559.75
325.855	494.75
326.084	441.75
326.313	461.75
326.542	457.75
326.77	472.75
326.999	560.75
327.228	738.75
327.457	1133.75
327.686	1444.75
327.914	950.75
328.143	629.75
328.372	536.75
328.6	510.75
328.829	489.75
329.058	501.75
329.287	484.75
329.515	469.75
329.744	447.75
329.972	454.75
330.201	445.75
330.43	480.75
330.658	517.75
330.887	533.75
331.115	517.75
331.344	470.75
331.572	466.75
331.801	443.75
332.03	455.75
332.258	458.75
332.486	408.75
332.715	412.75
332.943	429.75
333.172	414.75
333.4	436.75
333.629	419.75
333.857	429.75
334.085	438.75
334.314	456.75
334.542	459.75
334.771	505.75
334.999	434.75
335.227	427.75
335.455	426.75
335.684	453.75
335.912	425.75
336.14	410.75
336.369	413.75
336.597	425.75
336.825	433.75
337.053	444.75
337.281	433.75
337.51	424.75
337.738	432.75
337.966	427.75
338.194	417.75
338.422	448.75
338.65	406.75
338.878	434.75
339.106	421.75
339.334	413.75
339.562	402.75
339.79	398.75
340.018	413.75
340.246	433.75
340.474	413.75
340.702	413.75
340.93	415.75
341.158	422.75
341.386	412.75
341.614	396.75
341.842	407.75
342.07	421.75
342.298	417.75
342.526	389.75
342.754	395.75
342.981	381.75
343.209	421.75
343.437	418.75
343.665	421.75
343.893	422.75
344.12	433.75
344.348	417.75
344.576	421.75
344.804	428.75
345.031	411.75
345.259	440.75
345.487	428.75
345.714	405.75
345.942	404.75
346.17	418.75
346.397	407.75
346.625	401.75
346.853	391.75
347.08	406.75
347.308	410.75
347.535	402.75
347.763	410.75
347.99	390.75
348.218	399.75
348.445	411.75
348.673	420.75
348.9	394.75
349.128	391.75
349.355	392.75
349.583	392.75
349.81	396.75
350.037	385.75
350.265	374.75
350.492	400.75
350.72	392.75
350.947	388.75
351.174	409.75
351.402	385.75
351.629	381.75
351.856	382.75
352.083	409.75
352.311	417.75
352.538	420.75
352.765	412.75
352.992	406.75
353.22	402.75
353.447	418.75
353.674	403.75
353.901	387.75
354.128	382.75
354.355	392.75
354.583	363.75
354.81	364.75
355.037	384.75
355.264	383.75
355.491	361.75
355.718	384.75
355.945	384.75
356.172	384.75
356.399	377.75
356.626	384.75
356.853	388.75
357.08	390.75
357.307	391.75
357.534	376.75
357.761	382.75
357.988	372.75
358.215	378.75
358.441	373.75
358.668	377.75
358.895	394.75
359.122	401.75
359.349	394.75
359.576	410.75
359.802	403.75
360.029	413.75
360.256	442.75
360.483	421.75
360.709	406.75
360.936	420.75
361.163	413.75
361.39	412.75
361.616	398.75
361.843	397.75
362.07	393.75
362.296	405.75
362.523	414.75
362.749	414.75
362.976	413.75
363.203	405.75
363.429	389.75
363.656	387.75
363.882	402.75
364.109	405.75
364.335	396.75
364.562	388.75
364.788	410.75
365.015	402.75
365.241	406.75
365.468	399.75
365.694	413.75
365.92	387.75
366.147	394.75
366.373	393.75
366.599	401.75
366.826	391.75
367.052	399.75
367.278	407.75
367.505	383.75
367.731	384.75
367.957	397.75
368.184	378.75
368.41	400.75
368.636	396.75
368.862	401.75
369.089	387.75
369.315	398.75
369.541	414.75
369.767	388.75
369.993	396.75
370.219	385.75
370.445	404.75
370.672	394.75
370.898	406.75
371.124	397.75
371.35	389.75
371.576	408.75
371.802	408.75
372.028	391.75
372.254	430.75
372.48	409.75
372.706	412.75
372.932	399.75
373.158	410.75
373.384	416.75
373.61	429.75
373.835	406.75
374.061	403.75
374.287	403.75
374.513	421.75
374.739	398.75
374.965	406.75
375.191	415.75
375.416	422.75
375.642	422.75
375.868	401.75
376.094	394.75
376.319	383.75
376.545	394.75
376.771	383.75
376.997	400.75
377.222	405.75
377.448	388.75
377.674	416.75
377.899	399.75
378.125	401.75
378.35	403.75
378.576	403.75
378.802	384.75
379.027	408.75
379.253	400.75
379.478	376.75
379.704	399.75
379.929	414.75
380.155	420.75
380.38	403.75
380.606	404.75
380.831	412.75
381.057	419.75
381.282	407.75
381.507	412.75
381.733	393.75
381.958	412.75
382.184	421.75
382.409	399.75
382.634	416.75
382.86	407.75
383.085	415.75
383.31	422.75
383.535	436.75
383.761	406.75
383.986	421.75
384.211	410.75
384.436	426.75
384.662	441.75
384.887	450.75
385.112	443.75
385.337	444.75
385.562	442.75
385.787	428.75
386.013	459.75
386.238	461.75
386.463	459.75
386.688	441.75
386.913	447.75
387.138	437.75
387.363	457.75
387.588	455.75
387.813	458.75
388.038	427.75
388.263	458.75
388.488	436.75
388.713	439.75
388.938	450.75
389.163	453.75
389.387	461.75
389.612	440.75
389.837	444.75
390.062	459.75
390.287	461.75
390.512	436.75
390.736	456.75
390.961	459.75
391.186	453.75
391.411	450.75
391.636	456.75
391.86	458.75
392.085	451.75
392.31	448.75
392.534	470.75
392.759	455.75
392.984	478.75
393.208	443.75
393.433	455.75
393.658	460.75
393.882	457.75
394.107	488.75
394.331	471.75
394.556	437.75
394.78	451.75
395.005	462.75
395.229	445.75
395.454	484.75
395.678	459.75
395.903	468.75
396.127	504.75
396.352	490.75
396.576	493.75
396.801	486.75
397.025	489.75
397.249	493.75
397.474	479.75
397.698	518.75
397.922	518.75
398.147	507.75
398.371	519.75
398.595	521.75
398.82	527.75
399.044	538.75
399.268	530.75
399.492	572.75
399.717	592.75
399.941	608.75
400.165	646.75
400.389	666.75
400.613	592.75
400.837	568.75
401.062	537.75
401.286	529.75
401.51	512.75
401.734	527.75
401.958	535.75
402.182	542.75
402.406	532.75
402.63	551.75
402.854	548.75
403.078	537.75
403.302	538.75
403.526	536.75
403.75	530.75
403.974	509.75
404.198	540.75
404.422	543.75
404.645	556.75
404.869	568.75
405.093	590.75
405.317	580.75
405.541	660.75
405.765	575.75
405.988	567.75
406.212	559.75
406.436	592.75
406.66	622.75
406.883	577.75
407.107	592.75
407.331	660.75
407.555	720.75
407.778	684.75
408.002	646.75
408.226	597.75
408.449	595.75
408.673	611.75
408.896	622.75
409.12	678.75
409.344	635.75
409.567	586.75
409.791	540.75
410.014	552.75
410.238	559.75
410.461	558.75
410.685	557.75
410.908	572.75
411.132	607.75
411.355	635.75
411.578	610.75
411.802	580.75
412.025	549.75
412.249	540.75
412.472	575.75
412.695	578.75
412.919	613.75
413.142	574.75
413.365	543.75
413.589	520.75
413.812	529.75
414.035	522.75
414.258	526.75
414.482	521.75
414.705	506.75
414.928	501.75
415.151	518.75
415.374	525.75
415.597	485.75
415.821	521.75
416.044	519.75
416.267	541.75
416.49	521.75
416.713	488.75
416.936	511.75
417.159	512.75
417.382	516.75
417.605	514.75
417.828	503.75
418.051	538.75
418.274	525.75
418.497	539.75
418.72	522.75
418.943	497.75
419.166	536.75
419.389	549.75
419.611	541.75
419.834	555.75
420.057	552.75
420.28	521.75
420.503	513.75
420.726	525.75
420.948	545.75
421.171	589.75
421.394	588.75
421.617	542.75
421.839	536.75
422.062	553.75
422.285	554.75
422.507	606.75
422.73	669.75
422.953	650.75
423.175	559.75
423.398	580.75
423.621	538.75
423.843	568.75
424.066	545.75
424.288	559.75
424.511	574.75
424.733	610.75
424.956	684.75
425.178	673.75
425.401	667.75
425.623	708.75
425.846	604.75
426.068	561.75
426.291	533.75
426.513	567.75
426.735	548.75
426.958	612.75
427.18	688.75
427.402	792.75
427.625	896.75
427.847	750.75
428.069	656.75
428.292	596.75
428.514	542.75
428.736	544.75
428.958	547.75
429.181	532.75
429.403	504.75
429.625	539.75
429.847	585.75
430.069	609.75
430.292	634.75
430.514	538.75
430.736	503.75
430.958	518.75
431.18	517.75
431.402	531.75
431.624	513.75
431.846	523.75
432.068	490.75
432.29	524.75
432.512	527.75
432.734	526.75
432.956	499.75
433.178	515.75
433.4	521.75
433.622	528.75
433.844	523.75
434.066	512.75
434.287	497.75
434.509	502.75
434.731	524.75
434.953	531.75
435.175	530.75
435.397	559.75
435.618	591.75
435.84	597.75
436.062	686.75
436.284	761.75
436.505	641.75
436.727	568.75
436.949	551.75
437.17	502.75
437.392	525.75
437.614	549.75
437.835	556.75
438.057	654.75
438.278	741.75
438.5	736.75
438.721	809.75
438.943	772.75
439.165	645.75
439.386	573.75
439.608	569.75
439.829	566.75
440.05	611.75
440.272	652.75
440.493	606.75
440.715	546.75
440.936	521.75
441.158	521.75
441.379	501.75
441.6	533.75
441.822	565.75
442.043	589.75
442.264	652.75
442.486	705.75
442.707	603.75
442.928	568.75
443.149	594.75
443.371	602.75
443.592	625.75
443.813	708.75
444.034	804.75
444.255	666.75
444.476	616.75
444.698	589.75
444.919	591.75
445.14	654.75
445.361	616.75
445.582	601.75
445.803	663.75
446.024	768.75
446.245	785.75
446.466	700.75
446.687	581.75
446.908	559.75
447.129	533.75
447.35	536.75
447.571	521.75
447.792	504.75
448.013	520.75
448.234	518.75
448.455	584.75
448.675	701.75
448.896	804.75
449.117	676.75
449.338	620.75
449.559	722.75
449.779	884.75
450	696.75
450.221	553.75
450.442	542.75
450.662	532.75
450.883	505.75
451.104	533.75
451.324	502.75
451.545	501.75
451.766	480.75
451.986	477.75
452.207	470.75
452.428	471.75
452.648	474.75
452.869	473.75
453.089	485.75
453.31	503.75
453.53	464.75
453.751	465.75
453.971	476.75
454.192	472.75
454.412	494.75
454.633	495.75
454.853	471.75
455.073	480.75
455.294	497.75
455.514	548.75
455.734	531.75
455.955	454.75
456.175	468.75
456.395	457.75
456.616	447.75
456.836	463.75
457.056	463.75
457.276	461.75
457.497	432.75
457.717	444.75
457.937	457.75
458.157	470.75
458.377	472.75
458.598	484.75
458.818	520.75
459.038	580.75
459.258	597.75
459.478	534.75
459.698	501.75
459.918	530.75
460.138	531.75
460.358	524.75
460.578	515.75
460.798	514.75
461.018	526.75
461.238	510.75
461.458	524.75
461.678	522.75
461.898	545.75
462.118	524.75
462.338	533.75
462.558	540.75
462.777	565.75
462.997	595.75
463.217	579.75
463.437	589.75
463.657	584.75
463.876	574.75
464.096	583.75
464.316	566.75
464.536	584.75
464.755	546.75
464.975	560.75
465.195	576.75
465.414	614.75
465.634	580.75
465.854	559.75
466.073	512.75
466.293	512.75
466.512	508.75
466.732	492.75
466.951	507.75
467.171	495.75
467.391	483.75
467.61	473.75
467.829	503.75
468.049	525.75
468.268	500.75
468.488	501.75
468.707	486.75
468.927	484.75
469.146	496.75
469.365	500.75
469.585	458.75
469.804	481.75
470.023	507.75
470.243	514.75
470.462	490.75
470.681	521.75
470.901	516.75
471.12	518.75
471.339	485.75
471.558	510.75
471.777	490.75
471.997	477.75
472.216	493.75
472.435	532.75
472.654	519.75
472.873	481.75
473.092	481.75
473.311	508.75
473.53	500.75
473.749	501.75
473.968	524.75
474.187	615.75
474.406	645.75
474.625	552.75
474.844	522.75
475.063	521.75
475.282	511.75
475.501	504.75
475.72	497.75
475.939	524.75
476.158	504.75
476.377	498.75
476.596	510.75
476.814	516.75
477.033	548.75
477.252	551.75
477.471	529.75
477.69	525.75
477.908	538.75
478.127	541.75
478.346	536.75
478.564	561.75
478.783	559.75
479.002	582.75
479.22	553.75
479.439	569.75
479.658	608.75
479.876	590.75
480.095	611.75
480.313	651.75
480.532	644.75
480.751	588.75
480.969	606.75
481.188	641.75
481.406	674.75
481.624	629.75
481.843	597.75
482.061	604.75
482.28	570.75
482.498	574.75
482.717	573.75
482.935	577.75
483.153	597.75
483.372	588.75
483.59	590.75
483.808	594.75
484.027	569.75
484.245	565.75
484.463	580.75
484.681	588.75
484.9	584.75
485.118	610.75
485.336	571.75
485.554	591.75
485.772	590.75
485.99	605.75
486.209	601.75
486.427	604.75
486.645	636.75
486.863	620.75
487.081	640.75
487.299	600.75
487.517	641.75
487.735	613.75
487.953	584.75
488.171	600.75
488.389	607.75
488.607	637.75
488.825	599.75
489.043	598.75
489.261	613.75
489.479	609.75
489.696	629.75
489.914	604.75
490.132	652.75
490.35	650.75
490.568	673.75
490.786	661.75
491.003	666.75
491.221	662.75
491.439	672.75
491.657	663.75
491.874	677.75
492.092	695.75
492.31	678.75
492.527	682.75
492.745	676.75
492.963	668.75
493.18	695.75
493.398	709.75
493.615	713.75
493.833	708.75
494.05	709.75
494.268	712.75
494.485	712.75
494.703	691.75
494.92	698.75
495.138	704.75
495.355	722.75
495.573	726.75
495.79	722.75
496.008	710.75
496.225	695.75
496.442	725.75
496.66	734.75
496.877	734.75
497.094	735.75
497.312	742.75
497.529	736.75
497.746	764.75
497.963	780.75
498.181	795.75
498.398	801.75
498.615	850.75
498.832	833.75
499.049	856.75
499.267	882.75
499.484	901.75
499.701	948.75
499.918	976.75
500.135	1003.75
500.352	1035.75
500.569	1066.75
500.786	1093.75
501.003	1045.75
501.22	1026.75
501.437	983.75
501.654	950.75
501.871	954.75
502.088	920.75
502.305	862.75
502.522	842.75
502.739	836.75
502.956	839.75
503.172	805.75
503.389	781.75
503.606	788.75
503.823	761.75
504.04	768.75
504.256	728.75
504.473	741.75
504.69	743.75
504.907	746.75
505.123	729.75
505.34	705.75
505.557	698.75
505.773	709.75
505.99	686.75
506.207	666.75
506.423	713.75
506.64	684.75
506.856	650.75
507.073	680.75
507.289	680.75
507.506	654.75
507.722	655.75
507.939	683.75
508.155	693.75
508.372	652.75
508.588	651.75
508.805	640.75
509.021	662.75
509.238	657.75
509.454	651.75
509.67	657.75
509.887	633.75
510.103	641.75
510.319	646.75
510.536	719.75
510.752	1064.75
510.968	904.75
511.184	646.75
511.401	632.75
511.617	640.75
511.833	626.75
512.049	622.75
512.265	632.75
512.481	624.75
512.698	606.75
512.914	624.75
513.13	607.75
513.346	619.75
513.562	612.75
513.778	620.75
513.994	612.75
514.21	633.75
514.426	632.75
514.642	658.75
514.858	678.75
515.074	699.75
515.29	807.75
515.506	1102.75
515.721	926.75
515.937	725.75
516.153	658.75
516.369	672.75
516.585	661.75
516.801	666.75
517.016	638.75
517.232	666.75
517.448	664.75
517.664	650.75
517.879	637.75
518.095	662.75
518.311	648.75
518.527	649.75
518.742	646.75
518.958	623.75
519.173	627.75
519.389	618.75
519.605	637.75
519.82	614.75
520.036	626.75
520.251	657.75
520.467	662.75
520.682	643.75
520.898	634.75
521.113	658.75
521.329	676.75
521.544	738.75
521.76	902.75
521.975	1304.75
522.19	1323.75
522.406	817.75
522.621	668.75
522.836	640.75
523.052	598.75
523.267	569.75
523.482	566.75
523.698	575.75
523.913	570.75
524.128	565.75
524.343	559.75
524.559	557.75
524.774	543.75
524.989	549.75
525.204	558.75
525.419	563.75
525.634	534.75
525.849	554.75
526.064	546.75
526.28	547.75
526.495	542.75
526.71	531.75
526.925	524.75
527.14	531.75
527.355	535.75
527.57	545.75
527.785	546.75
527.999	530.75
528.214	519.75
528.429	540.75
528.644	520.75
528.859	521.75
529.074	538.75
529.289	553.75
529.503	598.75
529.718	557.75
529.933	545.75
530.148	515.75
530.363	541.75
530.577	552.75
530.792	523.75
531.007	526.75
531.221	513.75
531.436	506.75
531.651	517.75
531.865	518.75
532.08	518.75
532.295	495.75
532.509	497.75
532.724	486.75
532.938	520.75
533.153	494.75
533.367	475.75
533.582	527.75
533.796	517.75
534.011	510.75
534.225	507.75
534.44	493.75
534.654	492.75
534.868	508.75
535.083	505.75
535.297	506.75
535.511	492.75
535.726	508.75
535.94	518.75
536.154	525.75
536.369	481.75
536.583	475.75
536.797	501.75
537.011	486.75
537.225	488.75
537.44	461.75
537.654	492.75
537.868	487.75
538.082	466.75
538.296	504.75
538.51	478.75
538.724	472.75
538.938	504.75
539.153	506.75
539.367	474.75
539.581	478.75
539.795	500.75
540.009	491.75
540.222	472.75
540.436	469.75
540.65	458.75
540.864	474.75
541.078	478.75
541.292	497.75
541.506	489.75
541.72	483.75
541.934	475.75
542.147	489.75
542.361	494.75
542.575	469.75
542.789	471.75
543.002	466.75
543.216	478.75
543.43	506.75
543.644	492.75
543.857	494.75
544.071	475.75
544.285	470.75
544.498	461.75
544.712	473.75
544.925	466.75
545.139	493.75
545.352	463.75
545.566	472.75
545.779	483.75
545.993	479.75
546.206	474.75
546.42	476.75
546.633	458.75
546.847	446.75
547.06	475.75
547.274	494.75
547.487	482.75
547.7	478.75
547.914	485.75
548.127	472.75
548.34	465.75
548.554	466.75
548.767	466.75
548.98	450.75
549.193	465.75
549.407	439.75
549.62	466.75
549.833	474.75
550.046	455.75
550.259	465.75
550.473	445.75
550.686	424.75
550.899	484.75
551.112	458.75
551.325	465.75
551.538	447.75
551.751	453.75
551.964	452.75
552.177	462.75
552.39	460.75
552.603	480.75
552.816	459.75
553.029	466.75
553.242	465.75
553.455	474.75
553.667	494.75
553.88	483.75
554.093	482.75
554.306	477.75
554.519	478.75
554.732	460.75
554.944	451.75
555.157	452.75
555.37	437.75
555.583	456.75
555.795	426.75
556.008	443.75
556.221	432.75
556.433	432.75
556.646	433.75
556.859	443.75
557.071	414.75
557.284	402.75
557.496	417.75
557.709	423.75
557.921	425.75
558.134	418.75
558.346	439.75
558.559	414.75
558.771	414.75
558.984	415.75
559.196	411.75
559.409	440.75
559.621	418.75
559.833	426.75
560.046	414.75
560.258	394.75
560.47	414.75
560.683	426.75
560.895	430.75
561.107	427.75
561.32	408.75
561.532	421.75
561.744	437.75
561.956	414.75
562.168	418.75
562.381	411.75
562.593	414.75
562.805	414.75
563.017	425.75
563.229	414.75
563.441	430.75
563.653	438.75
563.865	430.75
564.077	434.75
564.289	442.75
564.501	433.75
564.713	430.75
564.925	449.75
565.137	471.75
565.349	473.75
565.561	448.75
565.773	468.75
565.985	474.75
566.197	466.75
566.408	494.75
566.62	495.75
566.832	512.75
567.044	537.75
567.255	519.75
567.467	522.75
567.679	518.75
567.891	554.75
568.102	525.75
568.314	528.75
568.526	504.75
568.737	484.75
568.949	483.75
569.161	467.75
569.372	454.75
569.584	458.75
569.795	466.75
570.007	437.75
570.218	457.75
570.43	447.75
570.641	455.75
570.853	413.75
571.064	412.75
571.276	409.75
571.487	396.75
571.698	396.75
571.91	406.75
572.121	406.75
572.333	384.75
572.544	391.75
572.755	384.75
572.966	377.75
573.178	374.75
573.389	370.75
573.6	376.75
573.811	378.75
574.023	369.75
574.234	384.75
574.445	366.75
574.656	386.75
574.867	372.75
575.078	356.75
575.289	377.75
575.501	361.75
575.712	368.75
575.923	348.75
576.134	363.75
576.345	368.75
576.556	369.75
576.767	353.75
576.978	359.75
577.188	372.75
577.399	343.75
577.61	364.75
577.821	349.75
578.032	358.75
578.243	379.75
578.454	522.75
578.665	445.75
578.875	364.75
579.086	340.75
579.297	369.75
579.508	352.75
579.718	335.75
579.929	330.75
580.14	328.75
580.35	349.75
580.561	343.75
580.772	344.75
580.982	345.75
581.193	337.75
581.403	329.75
581.614	351.75
581.825	344.75
582.035	319.75
582.246	335.75
582.456	325.75
582.667	323.75
582.877	321.75
583.087	325.75
583.298	322.75
583.508	352.75
583.719	315.75
583.929	349.75
584.139	325.75
584.35	315.75
584.56	321.75
584.77	321.75
584.981	326.75
585.191	334.75
585.401	327.75
585.611	328.75
585.821	323.75
586.032	329.75
586.242	327.75
586.452	330.75
586.662	341.75
586.872	315.75
587.082	346.75
587.292	320.75
587.502	329.75
587.713	297.75
587.923	325.75
588.133	333.75
588.343	313.75
588.553	323.75
588.762	311.75
588.972	327.75
589.182	318.75
589.392	297.75
589.602	314.75
589.812	330.75
590.022	323.75
590.232	326.75
590.441	339.75
590.651	341.75
590.861	324.75
591.071	338.75
591.281	336.75
591.49	324.75
591.7	325.75
591.91	320.75
592.119	321.75
592.329	342.75
592.539	335.75
592.748	345.75
592.958	325.75
593.167	340.75
593.377	324.75
593.587	335.75
593.796	361.75
594.006	342.75
594.215	347.75
594.424	324.75
594.634	344.75
594.843	339.75
595.053	326.75
595.262	316.75
595.472	319.75
595.681	328.75
595.89	311.75
596.1	302.75
596.309	314.75
596.518	310.75
596.727	300.75
596.937	297.75
597.146	297.75
597.355	320.75
597.564	305.75
597.774	280.75
597.983	280.75
598.192	288.75
598.401	288.75
598.61	305.75
598.819	306.75
599.028	310.75
599.237	296.75
599.446	295.75
599.655	287.75
599.864	297.75
600.073	269.75
600.282	269.75
600.491	303.75
600.7	278.75
600.909	258.75
601.118	291.75
601.327	273.75
601.536	277.75
601.745	267.75
601.953	276.75
602.162	273.75
602.371	274.75
602.58	245.75
602.789	263.75
602.997	272.75
603.206	280.75
603.415	271.75
603.623	264.75
603.832	267.75
604.041	268.75
604.249	282.75
604.458	268.75
604.666	261.75
604.875	260.75
605.084	265.75
605.292	261.75
605.501	259.75
605.709	287.75
605.918	267.75
606.126	268.75
606.334	273.75
606.543	272.75
606.751	254.75
606.96	247.75
607.168	277.75
607.376	274.75
607.585	273.75
607.793	253.75
608.001	264.75
608.21	254.75
608.418	250.75
608.626	244.75
608.834	260.75
609.043	254.75
609.251	264.75
609.459	264.75
609.667	253.75
609.875	247.75
610.083	268.75
610.291	254.75
610.499	248.75
610.707	250.75
610.916	255.75
611.124	263.75
611.332	275.75
611.54	267.75
611.748	292.75
611.955	260.75
612.163	257.75
612.371	265.75
612.579	257.75
612.787	266.75
612.995	252.75
613.203	258.75
613.411	254.75
613.618	263.75
613.826	245.75
614.034	244.75
614.242	268.75
614.449	242.75
614.657	234.75
614.865	252.75
615.072	256.75
615.28	262.75
615.488	253.75
615.695	257.75
615.903	247.75
616.111	239.75
616.318	257.75
616.526	247.75
616.733	269.75
616.941	249.75
617.148	267.75
617.356	262.75
617.563	246.75
617.771	243.75
617.978	263.75
618.185	261.75
618.393	235.75
618.6	259.75
618.807	250.75
619.015	266.75
619.222	253.75
619.429	253.75
619.637	246.75
619.844	238.75
620.051	258.75
620.258	237.75
620.466	230.75
620.673	240.75
620.88	237.75
621.087	224.75
621.294	247.75
621.501	250.75
621.708	226.75
621.915	251.75
622.122	245.75
622.329	234.75
622.536	241.75
622.743	221.75
622.95	219.75
623.157	238.75
623.364	237.75
623.571	225.75
623.778	215.75
623.985	228.75
624.192	220.75
624.399	220.75
624.606	231.75
624.812	228.75
625.019	233.75
625.226	218.75
625.433	222.75
625.639	219.75
625.846	216.75
626.053	216.75
626.259	224.75
626.466	235.75
626.673	222.75
626.879	219.75
627.086	218.75
627.293	229.75
627.499	222.75
627.706	233.75
627.912	211.75
628.119	223.75
628.325	223.75
628.532	215.75
628.738	218.75
628.945	217.75
629.151	214.75
629.357	226.75
629.564	209.75
629.77	202.75
629.976	221.75
630.183	220.75
630.389	209.75
630.595	208.75
630.802	200.75
631.008	201.75
631.214	205.75
631.42	219.75
631.627	207.75
631.833	201.75
632.039	208.75
632.245	190.75
632.451	193.75
632.657	210.75
632.863	200.75
633.069	199.75
633.275	202.75
633.481	190.75
633.688	198.75
633.893	207.75
634.099	194.75
634.305	189.75
634.511	183.75
634.717	196.75
634.923	186.75
635.129	198.75
635.335	180.75
635.541	194.75
635.747	207.75
635.952	192.75
636.158	190.75
636.364	202.75
636.57	205.75
636.775	197.75
636.981	198.75
637.187	199.75
637.392	178.75
637.598	192.75
637.804	191.75
638.009	203.75
638.215	210.75
638.421	190.75
638.626	180.75
638.832	193.75
639.037	174.75
639.243	197.75
639.448	184.75
639.654	184.75
639.859	179.75
640.065	195.75
640.27	200.75
640.475	185.75
640.681	184.75
640.886	198.75
641.091	175.75
641.297	180.75
641.502	173.75
641.707	193.75
641.913	190.75
642.118	172.75
642.323	175.75
642.528	184.75
642.733	188.75
642.939	180.75
643.144	191.75
643.349	192.75
643.554	188.75
643.759	173.75
643.964	179.75
644.169	173.75
644.374	188.75
644.579	177.75
644.784	193.75
644.989	159.75
645.194	170.75
645.399	180.75
645.604	191.75
645.809	175.75
646.014	190.75
646.219	173.75
646.423	172.75
646.628	180.75
646.833	190.75
647.038	181.75
647.243	166.75
647.447	171.75
647.652	177.75
647.857	173.75
648.062	188.75
648.266	184.75
648.471	196.75
648.676	185.75
648.88	171.75
649.085	184.75
649.289	181.75
649.494	176.75
649.698	198.75
649.903	200.75
650.107	176.75
650.312	175.75
650.516	170.75
650.721	160.75
650.925	175.75
651.13	175.75
651.334	160.75
651.539	172.75
651.743	164.75
651.947	180.75
652.152	143.75
652.356	152.75
652.56	144.75
652.764	148.75
652.969	153.75
653.173	147.75
653.377	154.75
653.581	132.75
653.785	147.75
653.99	145.75
654.194	135.75
654.398	148.75
654.602	144.75
654.806	132.75
655.01	164.75
655.214	157.75
655.418	140.75
655.622	139.75
655.826	146.75
656.03	141.75
656.234	134.75
656.438	140.75
656.642	145.75
656.846	147.75
657.049	133.75
657.253	122.75
657.457	126.75
657.661	141.75
657.865	120.75
658.068	119.75
658.272	119.75
658.476	111.75
658.68	122.75
658.883	98.75
659.087	108.75
659.291	100.75
659.494	91.75
659.698	104.75
659.901	100.75
660.105	106.75
660.309	94.75
660.512	98.75
660.716	93.75
660.919	90.75
661.123	87.75
661.326	91.75
661.53	82.75
661.733	94.75
661.936	99.75
662.14	98.75
662.343	102.75
662.546	91.75
662.75	89.75
662.953	106.75
663.156	93.75
663.36	86.75
663.563	86.75
663.766	91.75
663.969	91.75
664.173	85.75
664.376	73.75
664.579	80.75
664.782	93.75
664.985	79.75
665.188	96.75
665.391	86.75
665.594	89.75
665.797	82.75
666	87.75
666.203	79.75
666.406	94.75
666.609	80.75
666.812	76.75
667.015	86.75
667.218	89.75
667.421	90.75
667.624	97.75
667.827	92.75
668.03	87.75
668.232	82.75
668.435	78.75
668.638	79.75
668.841	94.75
669.043	84.75
669.246	82.75
669.449	97.75
669.651	89.75
669.854	90.75
670.057	90.75
670.259	79.75
670.462	78.75
670.665	92.75
670.867	77.75
671.07	85.75
671.272	89.75
671.475	93.75
671.677	86.75
671.88	90.75
672.082	86.75
672.284	87.75
672.487	79.75
672.689	72.75
672.892	85.75
