Data from 1978.PennyLincolnUp.Lamp.En5.5.200Scan.071719.P1_HRD10591_16-14-11-863.txt Node
Date: Thu Jul 18 16:14:11 EDT 2019
User: cochatt
Spectrometer: HR+D1059
Trigger mode: 1
Integration Time (sec): 1.000000E-1
Scans to average: 1
Electric dark correction enabled: true
Nonlinearity correction enabled: false
Boxcar width: 0
XAxis mode: Wavelengths
Number of Pixels in Spectrum: 2048
>>>>>Begin Spectral Data<<<<<
223.165	-8.31
223.4	-8.31
223.635	-8.31
223.869	-13.31
224.104	-17.31
224.338	-20.31
224.573	-26.31
224.808	-11.31
225.042	-14.31
225.277	2.69
225.511	7.69
225.746	13.69
225.98	13.69
226.215	10.69
226.449	18.69
226.683	1.69
226.918	26.69
227.152	15.69
227.387	39.69
227.621	31.69
227.856	43.69
228.09	31.69
228.324	49.69
228.559	59.69
228.793	56.69
229.027	89.69
229.262	99.69
229.496	110.69
229.73	140.69
229.964	149.69
230.199	138.69
230.433	106.69
230.667	117.69
230.901	100.69
231.136	100.69
231.37	98.69
231.604	93.69
231.838	102.69
232.072	106.69
232.306	113.69
232.541	113.69
232.775	104.69
233.009	114.69
233.243	96.69
233.477	105.69
233.711	103.69
233.945	80.69
234.179	106.69
234.413	126.69
234.647	117.69
234.881	117.69
235.115	116.69
235.349	117.69
235.583	116.69
235.817	126.69
236.051	112.69
236.285	119.69
236.519	119.69
236.753	136.69
236.987	162.69
237.221	186.69
237.455	221.69
237.689	173.69
237.922	145.69
238.156	141.69
238.39	128.69
238.624	114.69
238.858	116.69
239.091	129.69
239.325	112.69
239.559	123.69
239.793	122.69
240.027	118.69
240.26	139.69
240.494	162.69
240.728	141.69
240.961	136.69
241.195	135.69
241.429	128.69
241.662	132.69
241.896	145.69
242.13	121.69
242.363	120.69
242.597	132.69
242.83	127.69
243.064	118.69
243.298	127.69
243.531	114.69
243.765	120.69
243.998	120.69
244.232	130.69
244.465	138.69
244.699	141.69
244.932	147.69
245.166	154.69
245.399	139.69
245.633	141.69
245.866	130.69
246.099	137.69
246.333	143.69
246.566	160.69
246.8	156.69
247.033	151.69
247.266	153.69
247.5	162.69
247.733	151.69
247.966	172.69
248.2	156.69
248.433	161.69
248.666	154.69
248.899	171.69
249.133	175.69
249.366	196.69
249.599	188.69
249.832	181.69
250.066	165.69
250.299	173.69
250.532	181.69
250.765	181.69
250.998	205.69
251.231	196.69
251.465	189.69
251.698	187.69
251.931	174.69
252.164	172.69
252.397	180.69
252.63	197.69
252.863	193.69
253.096	194.69
253.329	210.69
253.562	199.69
253.795	198.69
254.028	192.69
254.261	193.69
254.494	197.69
254.727	232.69
254.96	269.69
255.193	240.69
255.426	226.69
255.659	202.69
255.892	202.69
256.124	221.69
256.357	217.69
256.59	187.69
256.823	186.69
257.056	200.69
257.289	180.69
257.521	205.69
257.754	193.69
257.987	195.69
258.22	187.69
258.452	197.69
258.685	204.69
258.918	201.69
259.151	203.69
259.383	204.69
259.616	210.69
259.849	203.69
260.081	212.69
260.314	236.69
260.547	233.69
260.779	215.69
261.012	209.69
261.244	201.69
261.477	212.69
261.71	203.69
261.942	215.69
262.175	216.69
262.407	217.69
262.64	204.69
262.872	212.69
263.105	192.69
263.337	193.69
263.57	184.69
263.802	187.69
264.035	182.69
264.267	192.69
264.499	201.69
264.732	209.69
264.964	198.69
265.197	200.69
265.429	188.69
265.661	194.69
265.894	194.69
266.126	201.69
266.358	225.69
266.591	211.69
266.823	215.69
267.055	185.69
267.287	197.69
267.52	191.69
267.752	216.69
267.984	212.69
268.216	206.69
268.448	209.69
268.681	207.69
268.913	241.69
269.145	242.69
269.377	268.69
269.609	235.69
269.841	251.69
270.073	243.69
270.306	262.69
270.538	278.69
270.77	292.69
271.002	270.69
271.234	268.69
271.466	282.69
271.698	277.69
271.93	288.69
272.162	300.69
272.394	298.69
272.626	277.69
272.858	248.69
273.09	266.69
273.322	248.69
273.553	236.69
273.785	244.69
274.017	238.69
274.249	241.69
274.481	252.69
274.713	233.69
274.945	250.69
275.176	249.69
275.408	233.69
275.64	226.69
275.872	233.69
276.104	259.69
276.335	266.69
276.567	261.69
276.799	270.69
277.031	278.69
277.262	286.69
277.494	296.69
277.726	293.69
277.957	257.69
278.189	256.69
278.421	258.69
278.652	247.69
278.884	260.69
279.115	255.69
279.347	254.69
279.579	245.69
279.81	249.69
280.042	237.69
280.273	263.69
280.505	250.69
280.736	244.69
280.968	268.69
281.199	252.69
281.431	237.69
281.662	251.69
281.894	248.69
282.125	249.69
282.356	278.69
282.588	274.69
282.819	304.69
283.051	277.69
283.282	250.69
283.513	266.69
283.745	254.69
283.976	252.69
284.207	266.69
284.439	256.69
284.67	266.69
284.901	248.69
285.132	253.69
285.364	248.69
285.595	268.69
285.826	265.69
286.057	243.69
286.288	269.69
286.52	265.69
286.751	277.69
286.982	279.69
287.213	280.69
287.444	246.69
287.675	280.69
287.906	270.69
288.138	285.69
288.369	308.69
288.6	304.69
288.831	277.69
289.062	269.69
289.293	274.69
289.524	264.69
289.755	274.69
289.986	289.69
290.217	262.69
290.448	267.69
290.679	260.69
290.91	274.69
291.141	286.69
291.371	270.69
291.602	249.69
291.833	292.69
292.064	267.69
292.295	267.69
292.526	270.69
292.757	265.69
292.987	259.69
293.218	272.69
293.449	256.69
293.68	288.69
293.91	291.69
294.141	270.69
294.372	273.69
294.603	276.69
294.833	278.69
295.064	286.69
295.295	285.69
295.525	266.69
295.756	284.69
295.987	284.69
296.217	320.69
296.448	324.69
296.679	285.69
296.909	271.69
297.14	281.69
297.37	284.69
297.601	278.69
297.831	274.69
298.062	278.69
298.292	283.69
298.523	285.69
298.753	300.69
298.984	283.69
299.214	284.69
299.445	284.69
299.675	292.69
299.905	304.69
300.136	301.69
300.366	316.69
300.597	290.69
300.827	306.69
301.057	318.69
301.288	314.69
301.518	296.69
301.748	315.69
301.979	292.69
302.209	301.69
302.439	315.69
302.669	299.69
302.9	284.69
303.13	312.69
303.36	292.69
303.59	293.69
303.82	321.69
304.051	315.69
304.281	300.69
304.511	298.69
304.741	297.69
304.971	290.69
305.201	310.69
305.431	318.69
305.661	315.69
305.891	298.69
306.121	293.69
306.352	306.69
306.582	310.69
306.812	317.69
307.042	322.69
307.272	299.69
307.502	324.69
307.731	358.69
307.961	314.69
308.191	296.69
308.421	316.69
308.651	313.69
308.881	316.69
309.111	309.69
309.341	318.69
309.571	311.69
309.8	337.69
310.03	342.69
310.26	338.69
310.49	347.69
310.72	350.69
310.949	377.69
311.179	364.69
311.409	356.69
311.639	356.69
311.868	350.69
312.098	352.69
312.328	368.69
312.557	374.69
312.787	408.69
313.017	373.69
313.246	375.69
313.476	332.69
313.706	350.69
313.935	345.69
314.165	372.69
314.394	379.69
314.624	373.69
314.853	356.69
315.083	348.69
315.312	341.69
315.542	336.69
315.771	352.69
316.001	342.69
316.23	354.69
316.46	342.69
316.689	368.69
316.919	378.69
317.148	345.69
317.377	363.69
317.607	354.69
317.836	355.69
318.065	370.69
318.295	362.69
318.524	372.69
318.753	352.69
318.983	362.69
319.212	354.69
319.441	357.69
319.67	362.69
319.9	355.69
320.129	351.69
320.358	353.69
320.587	353.69
320.816	366.69
321.046	376.69
321.275	384.69
321.504	381.69
321.733	396.69
321.962	397.69
322.191	403.69
322.42	405.69
322.649	419.69
322.878	448.69
323.108	416.69
323.337	448.69
323.566	465.69
323.795	488.69
324.024	536.69
324.253	643.69
324.482	942.69
324.71	1542.69
324.939	2276.69
325.168	1982.69
325.397	970.69
325.626	647.69
325.855	525.69
326.084	485.69
326.313	463.69
326.542	480.69
326.77	524.69
326.999	650.69
327.228	891.69
327.457	1362.69
327.686	1718.69
327.914	1103.69
328.143	699.69
328.372	594.69
328.6	558.69
328.829	527.69
329.058	534.69
329.287	552.69
329.515	498.69
329.744	486.69
329.972	482.69
330.201	491.69
330.43	547.69
330.658	563.69
330.887	589.69
331.115	575.69
331.344	514.69
331.572	478.69
331.801	470.69
332.03	474.69
332.258	455.69
332.486	432.69
332.715	436.69
332.943	420.69
333.172	426.69
333.4	430.69
333.629	441.69
333.857	462.69
334.085	472.69
334.314	481.69
334.542	482.69
334.771	534.69
334.999	458.69
335.227	450.69
335.455	436.69
335.684	434.69
335.912	442.69
336.14	411.69
336.369	430.69
336.597	420.69
336.825	435.69
337.053	436.69
337.281	434.69
337.51	427.69
337.738	443.69
337.966	427.69
338.194	422.69
338.422	428.69
338.65	428.69
338.878	407.69
339.106	393.69
339.334	404.69
339.562	411.69
339.79	432.69
340.018	406.69
340.246	402.69
340.474	416.69
340.702	417.69
340.93	402.69
341.158	405.69
341.386	404.69
341.614	432.69
341.842	421.69
342.07	412.69
342.298	410.69
342.526	398.69
342.754	409.69
342.981	406.69
343.209	388.69
343.437	408.69
343.665	398.69
343.893	409.69
344.12	403.69
344.348	406.69
344.576	434.69
344.804	429.69
345.031	439.69
345.259	426.69
345.487	434.69
345.714	413.69
345.942	405.69
346.17	391.69
346.397	417.69
346.625	408.69
346.853	392.69
347.08	398.69
347.308	405.69
347.535	439.69
347.763	404.69
347.99	416.69
348.218	427.69
348.445	412.69
348.673	404.69
348.9	397.69
349.128	401.69
349.355	393.69
349.583	384.69
349.81	383.69
350.037	388.69
350.265	393.69
350.492	383.69
350.72	391.69
350.947	421.69
351.174	416.69
351.402	419.69
351.629	409.69
351.856	405.69
352.083	420.69
352.311	415.69
352.538	440.69
352.765	419.69
352.992	426.69
353.22	402.69
353.447	396.69
353.674	379.69
353.901	399.69
354.128	387.69
354.355	376.69
354.583	384.69
354.81	382.69
355.037	376.69
355.264	368.69
355.491	395.69
355.718	372.69
355.945	384.69
356.172	387.69
356.399	367.69
356.626	378.69
356.853	370.69
357.08	364.69
357.307	380.69
357.534	374.69
357.761	372.69
357.988	374.69
358.215	390.69
358.441	375.69
358.668	382.69
358.895	392.69
359.122	386.69
359.349	371.69
359.576	388.69
359.802	426.69
360.029	429.69
360.256	480.69
360.483	453.69
360.709	410.69
360.936	413.69
361.163	413.69
361.39	408.69
361.616	419.69
361.843	428.69
362.07	423.69
362.296	390.69
362.523	401.69
362.749	408.69
362.976	409.69
363.203	397.69
363.429	404.69
363.656	378.69
363.882	405.69
364.109	396.69
364.335	391.69
364.562	399.69
364.788	380.69
365.015	376.69
365.241	378.69
365.468	401.69
365.694	408.69
365.92	410.69
366.147	380.69
366.373	388.69
366.599	394.69
366.826	394.69
367.052	400.69
367.278	399.69
367.505	387.69
367.731	386.69
367.957	397.69
368.184	399.69
368.41	384.69
368.636	398.69
368.862	415.69
369.089	397.69
369.315	397.69
369.541	383.69
369.767	392.69
369.993	381.69
370.219	372.69
370.445	397.69
370.672	404.69
370.898	410.69
371.124	368.69
371.35	388.69
371.576	387.69
371.802	379.69
372.028	406.69
372.254	401.69
372.48	413.69
372.706	403.69
372.932	374.69
373.158	402.69
373.384	417.69
373.61	405.69
373.835	415.69
374.061	384.69
374.287	422.69
374.513	388.69
374.739	397.69
374.965	399.69
375.191	407.69
375.416	420.69
375.642	394.69
375.868	417.69
376.094	386.69
376.319	399.69
376.545	408.69
376.771	399.69
376.997	389.69
377.222	403.69
377.448	399.69
377.674	422.69
377.899	403.69
378.125	397.69
378.35	398.69
378.576	403.69
378.802	401.69
379.027	381.69
379.253	411.69
379.478	380.69
379.704	395.69
379.929	402.69
380.155	417.69
380.38	411.69
380.606	395.69
380.831	411.69
381.057	398.69
381.282	386.69
381.507	414.69
381.733	415.69
381.958	388.69
382.184	391.69
382.409	406.69
382.634	403.69
382.86	407.69
383.085	418.69
383.31	410.69
383.535	389.69
383.761	418.69
383.986	420.69
384.211	424.69
384.436	413.69
384.662	408.69
384.887	433.69
385.112	417.69
385.337	448.69
385.562	424.69
385.787	441.69
386.013	423.69
386.238	430.69
386.463	444.69
386.688	440.69
386.913	425.69
387.138	435.69
387.363	452.69
387.588	435.69
387.813	446.69
388.038	452.69
388.263	444.69
388.488	437.69
388.713	422.69
388.938	448.69
389.163	457.69
389.387	440.69
389.612	418.69
389.837	442.69
390.062	429.69
390.287	455.69
390.512	446.69
390.736	426.69
390.961	444.69
391.186	446.69
391.411	448.69
391.636	440.69
391.86	462.69
392.085	465.69
392.31	459.69
392.534	458.69
392.759	469.69
392.984	449.69
393.208	442.69
393.433	437.69
393.658	446.69
393.882	441.69
394.107	442.69
394.331	444.69
394.556	444.69
394.78	449.69
395.005	458.69
395.229	437.69
395.454	466.69
395.678	460.69
395.903	479.69
396.127	505.69
396.352	492.69
396.576	458.69
396.801	458.69
397.025	443.69
397.249	482.69
397.474	482.69
397.698	476.69
397.922	493.69
398.147	497.69
398.371	501.69
398.595	506.69
398.82	493.69
399.044	517.69
399.268	527.69
399.492	538.69
399.717	566.69
399.941	614.69
400.165	634.69
400.389	663.69
400.613	609.69
400.837	551.69
401.062	524.69
401.286	541.69
401.51	529.69
401.734	517.69
401.958	507.69
402.182	517.69
402.406	554.69
402.63	550.69
402.854	551.69
403.078	522.69
403.302	541.69
403.526	544.69
403.75	530.69
403.974	556.69
404.198	529.69
404.422	539.69
404.645	550.69
404.869	557.69
405.093	556.69
405.317	615.69
405.541	660.69
405.765	600.69
405.988	578.69
406.212	562.69
406.436	598.69
406.66	582.69
406.883	609.69
407.107	636.69
407.331	644.69
407.555	711.69
407.778	698.69
408.002	654.69
408.226	582.69
408.449	582.69
408.673	603.69
408.896	650.69
409.12	668.69
409.344	623.69
409.567	580.69
409.791	548.69
410.014	550.69
410.238	559.69
410.461	545.69
410.685	552.69
410.908	540.69
411.132	587.69
411.355	635.69
411.578	601.69
411.802	553.69
412.025	532.69
412.249	562.69
412.472	566.69
412.695	622.69
412.919	596.69
413.142	560.69
413.365	532.69
413.589	546.69
413.812	504.69
414.035	497.69
414.258	522.69
414.482	520.69
414.705	504.69
414.928	502.69
415.151	520.69
415.374	522.69
415.597	526.69
415.821	507.69
416.044	529.69
416.267	525.69
416.49	513.69
416.713	490.69
416.936	524.69
417.159	488.69
417.382	506.69
417.605	530.69
417.828	527.69
418.051	523.69
418.274	550.69
418.497	510.69
418.72	508.69
418.943	510.69
419.166	531.69
419.389	567.69
419.611	553.69
419.834	565.69
420.057	534.69
420.28	526.69
420.503	540.69
420.726	529.69
420.948	546.69
421.171	576.69
421.394	625.69
421.617	569.69
421.839	542.69
422.062	559.69
422.285	528.69
422.507	617.69
422.73	685.69
422.953	668.69
423.175	564.69
423.398	573.69
423.621	573.69
423.843	551.69
424.066	581.69
424.288	566.69
424.511	578.69
424.733	611.69
424.956	733.69
425.178	701.69
425.401	691.69
425.623	724.69
425.846	634.69
426.068	576.69
426.291	579.69
426.513	569.69
426.735	590.69
426.958	622.69
427.18	700.69
427.402	849.69
427.625	916.69
427.847	795.69
428.069	708.69
428.292	642.69
428.514	556.69
428.736	574.69
428.958	527.69
429.181	528.69
429.403	522.69
429.625	542.69
429.847	564.69
430.069	647.69
430.292	649.69
430.514	571.69
430.736	549.69
430.958	524.69
431.18	488.69
431.402	485.69
431.624	499.69
431.846	496.69
432.068	505.69
432.29	486.69
432.512	500.69
432.734	515.69
432.956	488.69
433.178	514.69
433.4	526.69
433.622	535.69
433.844	503.69
434.066	493.69
434.287	508.69
434.509	524.69
434.731	496.69
434.953	527.69
435.175	534.69
435.397	580.69
435.618	547.69
435.84	632.69
436.062	730.69
436.284	795.69
436.505	670.69
436.727	585.69
436.949	539.69
437.17	545.69
437.392	523.69
437.614	550.69
437.835	578.69
438.057	676.69
438.278	794.69
438.5	795.69
438.721	870.69
438.943	846.69
439.165	648.69
439.386	604.69
439.608	578.69
439.829	570.69
440.05	601.69
440.272	664.69
440.493	631.69
440.715	581.69
440.936	570.69
441.158	541.69
441.379	533.69
441.6	566.69
441.822	561.69
442.043	609.69
442.264	710.69
442.486	745.69
442.707	620.69
442.928	585.69
443.149	594.69
443.371	632.69
443.592	664.69
443.813	778.69
444.034	832.69
444.255	685.69
444.476	603.69
444.698	585.69
444.919	571.69
445.14	662.69
445.361	625.69
445.582	631.69
445.803	680.69
446.024	813.69
446.245	820.69
446.466	748.69
446.687	625.69
446.908	582.69
447.129	553.69
447.35	552.69
447.571	533.69
447.792	531.69
448.013	526.69
448.234	550.69
448.455	597.69
448.675	722.69
448.896	852.69
449.117	710.69
449.338	650.69
449.559	785.69
449.779	905.69
450	727.69
450.221	592.69
450.442	553.69
450.662	517.69
450.883	540.69
451.104	560.69
451.324	529.69
451.545	503.69
451.766	498.69
451.986	490.69
452.207	472.69
452.428	473.69
452.648	473.69
452.869	471.69
453.089	484.69
453.31	500.69
453.53	492.69
453.751	489.69
453.971	484.69
454.192	517.69
454.412	483.69
454.633	453.69
454.853	462.69
455.073	484.69
455.294	500.69
455.514	568.69
455.734	563.69
455.955	505.69
456.175	468.69
456.395	455.69
456.616	428.69
456.836	448.69
457.056	450.69
457.276	447.69
457.497	467.69
457.717	444.69
457.937	445.69
458.157	461.69
458.377	475.69
458.598	483.69
458.818	557.69
459.038	625.69
459.258	661.69
459.478	527.69
459.698	527.69
459.918	517.69
460.138	510.69
460.358	530.69
460.578	524.69
460.798	510.69
461.018	535.69
461.238	523.69
461.458	518.69
461.678	530.69
461.898	528.69
462.118	509.69
462.338	540.69
462.558	532.69
462.777	538.69
462.997	550.69
463.217	553.69
463.437	580.69
463.657	577.69
463.876	545.69
464.096	564.69
464.316	537.69
464.536	572.69
464.755	575.69
464.975	562.69
465.195	595.69
465.414	662.69
465.634	598.69
465.854	562.69
466.073	527.69
466.293	522.69
466.512	498.69
466.732	504.69
466.951	487.69
467.171	504.69
467.391	480.69
467.61	513.69
467.829	502.69
468.049	500.69
468.268	480.69
468.488	474.69
468.707	478.69
468.927	485.69
469.146	480.69
469.365	481.69
469.585	462.69
469.804	497.69
470.023	501.69
470.243	493.69
470.462	506.69
470.681	545.69
470.901	517.69
471.12	516.69
471.339	501.69
471.558	504.69
471.777	507.69
471.997	496.69
472.216	487.69
472.435	520.69
472.654	518.69
472.873	501.69
473.092	483.69
473.311	487.69
473.53	470.69
473.749	513.69
473.968	546.69
474.187	636.69
474.406	655.69
474.625	551.69
474.844	530.69
475.063	516.69
475.282	493.69
475.501	492.69
475.72	516.69
475.939	524.69
476.158	507.69
476.377	531.69
476.596	504.69
476.814	516.69
477.033	521.69
477.252	531.69
477.471	536.69
477.69	525.69
477.908	529.69
478.127	541.69
478.346	534.69
478.564	556.69
478.783	569.69
479.002	556.69
479.22	553.69
479.439	577.69
479.658	585.69
479.876	601.69
480.095	599.69
480.313	634.69
480.532	612.69
480.751	593.69
480.969	621.69
481.188	666.69
481.406	689.69
481.624	648.69
481.843	624.69
482.061	604.69
482.28	594.69
482.498	590.69
482.717	575.69
482.935	582.69
483.153	576.69
483.372	584.69
483.59	590.69
483.808	605.69
484.027	579.69
484.245	590.69
484.463	587.69
484.681	598.69
484.9	571.69
485.118	625.69
485.336	582.69
485.554	602.69
485.772	610.69
485.99	614.69
486.209	598.69
486.427	588.69
486.645	626.69
486.863	603.69
487.081	596.69
487.299	644.69
487.517	620.69
487.735	624.69
487.953	606.69
488.171	615.69
488.389	595.69
488.607	629.69
488.825	630.69
489.043	622.69
489.261	597.69
489.479	628.69
489.696	645.69
489.914	604.69
490.132	640.69
490.35	628.69
490.568	645.69
490.786	652.69
491.003	677.69
491.221	645.69
491.439	675.69
491.657	688.69
491.874	695.69
492.092	698.69
492.31	708.69
492.527	678.69
492.745	703.69
492.963	699.69
493.18	714.69
493.398	711.69
493.615	738.69
493.833	717.69
494.05	731.69
494.268	730.69
494.485	743.69
494.703	712.69
494.92	706.69
495.138	713.69
495.355	727.69
495.573	732.69
495.79	701.69
496.008	714.69
496.225	730.69
496.442	746.69
496.66	739.69
496.877	730.69
497.094	727.69
497.312	759.69
497.529	777.69
497.746	765.69
497.963	765.69
498.181	792.69
498.398	802.69
498.615	805.69
498.832	832.69
499.049	852.69
499.267	880.69
499.484	903.69
499.701	918.69
499.918	957.69
500.135	974.69
500.352	1034.69
500.569	1061.69
500.786	1081.69
501.003	1061.69
501.22	1010.69
501.437	990.69
501.654	941.69
501.871	952.69
502.088	922.69
502.305	860.69
502.522	852.69
502.739	812.69
502.956	824.69
503.172	782.69
503.389	776.69
503.606	790.69
503.823	777.69
504.04	807.69
504.256	796.69
504.473	735.69
504.69	718.69
504.907	749.69
505.123	722.69
505.34	730.69
505.557	712.69
505.773	697.69
505.99	677.69
506.207	717.69
506.423	706.69
506.64	697.69
506.856	676.69
507.073	675.69
507.289	683.69
507.506	697.69
507.722	677.69
507.939	703.69
508.155	716.69
508.372	697.69
508.588	668.69
508.805	670.69
509.021	665.69
509.238	667.69
509.454	694.69
509.67	633.69
509.887	661.69
510.103	650.69
510.319	653.69
510.536	723.69
510.752	1196.69
510.968	986.69
511.184	690.69
511.401	649.69
511.617	642.69
511.833	640.69
512.049	637.69
512.265	626.69
512.481	619.69
512.698	636.69
512.914	636.69
513.13	598.69
513.346	629.69
513.562	624.69
513.778	646.69
513.994	651.69
514.21	643.69
514.426	664.69
514.642	703.69
514.858	721.69
515.074	762.69
515.29	863.69
515.506	1196.69
515.721	1051.69
515.937	756.69
516.153	716.69
516.369	676.69
516.585	679.69
516.801	675.69
517.016	675.69
517.232	652.69
517.448	656.69
517.664	629.69
517.879	665.69
518.095	659.69
518.311	662.69
518.527	637.69
518.742	651.69
518.958	621.69
519.173	655.69
519.389	652.69
519.605	644.69
519.82	643.69
520.036	670.69
520.251	679.69
520.467	676.69
520.682	671.69
520.898	694.69
521.113	700.69
521.329	712.69
521.544	812.69
521.76	984.69
521.975	1525.69
522.19	1534.69
522.406	906.69
522.621	716.69
522.836	662.69
523.052	629.69
523.267	634.69
523.482	584.69
523.698	580.69
523.913	615.69
524.128	589.69
524.343	567.69
524.559	563.69
524.774	566.69
524.989	558.69
525.204	549.69
525.419	579.69
525.634	552.69
525.849	545.69
526.064	553.69
526.28	547.69
526.495	517.69
526.71	534.69
526.925	524.69
527.14	533.69
527.355	536.69
527.57	537.69
527.785	545.69
527.999	522.69
528.214	517.69
528.429	517.69
528.644	538.69
528.859	502.69
529.074	524.69
529.289	557.69
529.503	603.69
529.718	620.69
529.933	562.69
530.148	529.69
530.363	540.69
530.577	520.69
530.792	503.69
531.007	501.69
531.221	540.69
531.436	507.69
531.651	484.69
531.865	523.69
532.08	483.69
532.295	502.69
532.509	483.69
532.724	505.69
532.938	520.69
533.153	490.69
533.367	519.69
533.582	508.69
533.796	528.69
534.011	523.69
534.225	519.69
534.44	492.69
534.654	512.69
534.868	498.69
535.083	487.69
535.297	498.69
535.511	480.69
535.726	493.69
535.94	486.69
536.154	489.69
536.369	498.69
536.583	482.69
536.797	484.69
537.011	496.69
537.225	477.69
537.44	493.69
537.654	480.69
537.868	484.69
538.082	478.69
538.296	476.69
538.51	494.69
538.724	470.69
538.938	501.69
539.153	484.69
539.367	490.69
539.581	483.69
539.795	479.69
540.009	473.69
540.222	478.69
540.436	474.69
540.65	489.69
540.864	477.69
541.078	489.69
541.292	486.69
541.506	487.69
541.72	460.69
541.934	482.69
542.147	482.69
542.361	468.69
542.575	461.69
542.789	452.69
543.002	480.69
543.216	481.69
543.43	489.69
543.644	478.69
543.857	502.69
544.071	488.69
544.285	468.69
544.498	482.69
544.712	484.69
544.925	461.69
545.139	478.69
545.352	469.69
545.566	480.69
545.779	466.69
545.993	457.69
546.206	478.69
546.42	489.69
546.633	477.69
546.847	439.69
547.06	466.69
547.274	442.69
547.487	465.69
547.7	470.69
547.914	466.69
548.127	466.69
548.34	443.69
548.554	457.69
548.767	450.69
548.98	449.69
549.193	457.69
549.407	465.69
549.62	450.69
549.833	462.69
550.046	449.69
550.259	440.69
550.473	448.69
550.686	463.69
550.899	426.69
551.112	458.69
551.325	457.69
551.538	455.69
551.751	437.69
551.964	444.69
552.177	434.69
552.39	453.69
552.603	471.69
552.816	474.69
553.029	477.69
553.242	455.69
553.455	473.69
553.667	464.69
553.88	504.69
554.093	496.69
554.306	452.69
554.519	473.69
554.732	463.69
554.944	426.69
555.157	456.69
555.37	435.69
555.583	428.69
555.795	438.69
556.008	438.69
556.221	425.69
556.433	442.69
556.646	433.69
556.859	401.69
557.071	412.69
557.284	404.69
557.496	410.69
557.709	406.69
557.921	424.69
558.134	411.69
558.346	418.69
558.559	402.69
558.771	393.69
558.984	412.69
559.196	404.69
559.409	417.69
559.621	411.69
559.833	393.69
560.046	398.69
560.258	396.69
560.47	397.69
560.683	409.69
560.895	390.69
561.107	409.69
561.32	415.69
561.532	419.69
561.744	402.69
561.956	398.69
562.168	408.69
562.381	395.69
562.593	419.69
562.805	396.69
563.017	414.69
563.229	426.69
563.441	404.69
563.653	424.69
563.865	415.69
564.077	430.69
564.289	415.69
564.501	420.69
564.713	424.69
564.925	442.69
565.137	461.69
565.349	469.69
565.561	472.69
565.773	437.69
565.985	443.69
566.197	477.69
566.408	466.69
566.62	486.69
566.832	508.69
567.044	509.69
567.255	509.69
567.467	527.69
567.679	523.69
567.891	523.69
568.102	517.69
568.314	527.69
568.526	503.69
568.737	517.69
568.949	485.69
569.161	470.69
569.372	443.69
569.584	421.69
569.795	434.69
570.007	451.69
570.218	469.69
570.43	446.69
570.641	427.69
570.853	402.69
571.064	408.69
571.276	421.69
571.487	384.69
571.698	388.69
571.91	393.69
572.121	396.69
572.333	379.69
572.544	382.69
572.755	389.69
572.966	398.69
573.178	372.69
573.389	376.69
573.6	372.69
573.811	378.69
574.023	364.69
574.234	374.69
574.445	372.69
574.656	368.69
574.867	368.69
575.078	369.69
575.289	363.69
575.501	361.69
575.712	350.69
575.923	334.69
576.134	364.69
576.345	346.69
576.556	356.69
576.767	364.69
576.978	354.69
577.188	344.69
577.399	336.69
577.61	336.69
577.821	353.69
578.032	352.69
578.243	357.69
578.454	543.69
578.665	439.69
578.875	347.69
579.086	345.69
579.297	339.69
579.508	344.69
579.718	334.69
579.929	354.69
580.14	334.69
580.35	331.69
580.561	336.69
580.772	327.69
580.982	344.69
581.193	333.69
581.403	333.69
581.614	343.69
581.825	338.69
582.035	335.69
582.246	329.69
582.456	341.69
582.667	326.69
582.877	330.69
583.087	313.69
583.298	318.69
583.508	314.69
583.719	306.69
583.929	334.69
584.139	321.69
584.35	313.69
584.56	318.69
584.77	312.69
584.981	310.69
585.191	316.69
585.401	315.69
585.611	315.69
585.821	320.69
586.032	333.69
586.242	333.69
586.452	322.69
586.662	298.69
586.872	301.69
587.082	316.69
587.292	308.69
587.502	316.69
587.713	316.69
587.923	295.69
588.133	306.69
588.343	319.69
588.553	297.69
588.762	291.69
588.972	312.69
589.182	309.69
589.392	311.69
589.602	320.69
589.812	305.69
590.022	312.69
590.232	298.69
590.441	314.69
590.651	322.69
590.861	315.69
591.071	311.69
591.281	307.69
591.49	306.69
591.7	311.69
591.91	306.69
592.119	313.69
592.329	337.69
592.539	330.69
592.748	310.69
592.958	325.69
593.167	337.69
593.377	325.69
593.587	336.69
593.796	331.69
594.006	326.69
594.215	316.69
594.424	316.69
594.634	333.69
594.843	298.69
595.053	317.69
595.262	301.69
595.472	310.69
595.681	301.69
595.89	314.69
596.1	323.69
596.309	316.69
596.518	296.69
596.727	300.69
596.937	293.69
597.146	316.69
597.355	284.69
597.564	273.69
597.774	291.69
597.983	284.69
598.192	279.69
598.401	297.69
598.61	291.69
598.819	278.69
599.028	278.69
599.237	283.69
599.446	271.69
599.655	290.69
599.864	276.69
600.073	270.69
600.282	277.69
600.491	268.69
600.7	263.69
600.909	275.69
601.118	268.69
601.327	270.69
601.536	279.69
601.745	288.69
601.953	272.69
602.162	275.69
602.371	269.69
602.58	279.69
602.789	278.69
602.997	281.69
603.206	268.69
603.415	272.69
603.623	281.69
603.832	261.69
604.041	229.69
604.249	258.69
604.458	259.69
604.666	258.69
604.875	250.69
605.084	263.69
605.292	246.69
605.501	253.69
605.709	269.69
605.918	271.69
606.126	255.69
606.334	243.69
606.543	254.69
606.751	259.69
606.96	250.69
607.168	250.69
607.376	275.69
607.585	245.69
607.793	265.69
608.001	242.69
608.21	247.69
608.418	254.69
608.626	268.69
608.834	279.69
609.043	250.69
609.251	241.69
609.459	245.69
609.667	236.69
609.875	237.69
610.083	258.69
610.291	247.69
610.499	233.69
610.707	259.69
610.916	264.69
611.124	262.69
611.332	264.69
611.54	277.69
611.748	267.69
611.955	254.69
612.163	245.69
612.371	242.69
612.579	246.69
612.787	251.69
612.995	266.69
613.203	257.69
613.411	249.69
613.618	242.69
613.826	240.69
614.034	251.69
614.242	226.69
614.449	219.69
614.657	245.69
614.865	236.69
615.072	252.69
615.28	229.69
615.488	237.69
615.695	235.69
615.903	230.69
616.111	245.69
616.318	256.69
616.526	245.69
616.733	243.69
616.941	236.69
617.148	224.69
617.356	252.69
617.563	236.69
617.771	262.69
617.978	243.69
618.185	244.69
618.393	241.69
618.6	249.69
618.807	246.69
619.015	252.69
619.222	237.69
619.429	230.69
619.637	242.69
619.844	246.69
620.051	234.69
620.258	217.69
620.466	229.69
620.673	229.69
620.88	225.69
621.087	220.69
621.294	229.69
621.501	225.69
621.708	234.69
621.915	233.69
622.122	244.69
622.329	235.69
622.536	213.69
622.743	209.69
622.95	238.69
623.157	218.69
623.364	231.69
623.571	234.69
623.778	218.69
623.985	221.69
624.192	228.69
624.399	211.69
624.606	216.69
624.812	199.69
625.019	223.69
625.226	222.69
625.433	228.69
625.639	208.69
625.846	218.69
626.053	216.69
626.259	201.69
626.466	208.69
626.673	217.69
626.879	214.69
627.086	209.69
627.293	213.69
627.499	216.69
627.706	208.69
627.912	211.69
628.119	228.69
628.325	210.69
628.532	204.69
628.738	199.69
628.945	208.69
629.151	221.69
629.357	209.69
629.564	219.69
629.77	198.69
629.976	219.69
630.183	211.69
630.389	200.69
630.595	196.69
630.802	199.69
631.008	204.69
631.214	194.69
631.42	199.69
631.627	214.69
631.833	198.69
632.039	201.69
632.245	209.69
632.451	197.69
632.657	203.69
632.863	209.69
633.069	183.69
633.275	195.69
633.481	186.69
633.688	196.69
633.893	185.69
634.099	195.69
634.305	194.69
634.511	199.69
634.717	187.69
634.923	198.69
635.129	194.69
635.335	189.69
635.541	178.69
635.747	184.69
635.952	172.69
636.158	193.69
636.364	194.69
636.57	178.69
636.775	181.69
636.981	190.69
637.187	180.69
637.392	193.69
637.598	200.69
637.804	189.69
638.009	192.69
638.215	183.69
638.421	192.69
638.626	172.69
638.832	196.69
639.037	181.69
639.243	179.69
639.448	190.69
639.654	189.69
639.859	182.69
640.065	169.69
640.27	171.69
640.475	169.69
640.681	181.69
640.886	170.69
641.091	178.69
641.297	180.69
641.502	170.69
641.707	180.69
641.913	174.69
642.118	178.69
642.323	176.69
642.528	172.69
642.733	172.69
642.939	163.69
643.144	172.69
643.349	172.69
643.554	163.69
643.759	156.69
643.964	161.69
644.169	166.69
644.374	177.69
644.579	160.69
644.784	169.69
644.989	175.69
645.194	167.69
645.399	167.69
645.604	181.69
645.809	173.69
646.014	169.69
646.219	173.69
646.423	176.69
646.628	179.69
646.833	167.69
647.038	160.69
647.243	154.69
647.447	178.69
647.652	176.69
647.857	187.69
648.062	167.69
648.266	165.69
648.471	177.69
648.676	173.69
648.88	160.69
649.085	168.69
649.289	181.69
649.494	172.69
649.698	194.69
649.903	191.69
650.107	180.69
650.312	182.69
650.516	162.69
650.721	159.69
650.925	164.69
651.13	156.69
651.334	159.69
651.539	155.69
651.743	151.69
651.947	146.69
652.152	143.69
652.356	141.69
652.56	147.69
652.764	147.69
652.969	138.69
653.173	118.69
653.377	132.69
653.581	134.69
653.785	128.69
653.99	145.69
654.194	124.69
654.398	145.69
654.602	119.69
654.806	134.69
655.01	136.69
655.214	145.69
655.418	135.69
655.622	138.69
655.826	134.69
656.03	137.69
656.234	155.69
656.438	135.69
656.642	144.69
656.846	134.69
657.049	127.69
657.253	129.69
657.457	123.69
657.661	112.69
657.865	119.69
658.068	127.69
658.272	106.69
658.476	109.69
658.68	104.69
658.883	118.69
659.087	110.69
659.291	98.69
659.494	94.69
659.698	107.69
659.901	104.69
660.105	90.69
660.309	88.69
660.512	98.69
660.716	104.69
660.919	93.69
661.123	88.69
661.326	91.69
661.53	90.69
661.733	92.69
661.936	95.69
662.14	91.69
662.343	93.69
662.546	88.69
662.75	88.69
662.953	85.69
663.156	85.69
663.36	94.69
663.563	75.69
663.766	88.69
663.969	83.69
664.173	75.69
664.376	76.69
664.579	76.69
664.782	77.69
664.985	92.69
665.188	79.69
665.391	77.69
665.594	84.69
665.797	91.69
666	77.69
666.203	91.69
666.406	88.69
666.609	84.69
666.812	84.69
667.015	83.69
667.218	76.69
667.421	82.69
667.624	81.69
667.827	84.69
668.03	83.69
668.232	94.69
668.435	90.69
668.638	82.69
668.841	77.69
669.043	90.69
669.246	83.69
669.449	83.69
669.651	69.69
669.854	96.69
670.057	87.69
670.259	77.69
670.462	88.69
670.665	87.69
670.867	73.69
671.07	79.69
671.272	87.69
671.475	91.69
671.677	88.69
671.88	78.69
672.082	84.69
672.284	90.69
672.487	98.69
672.689	84.69
672.892	79.69
