Data from 1978.PennyLincolnUp.Lamp.En5.5.200Scan.071719.P1_HRD10591_16-14-28-864.txt Node
Date: Thu Jul 18 16:14:28 EDT 2019
User: cochatt
Spectrometer: HR+D1059
Trigger mode: 1
Integration Time (sec): 1.000000E-1
Scans to average: 1
Electric dark correction enabled: true
Nonlinearity correction enabled: false
Boxcar width: 0
XAxis mode: Wavelengths
Number of Pixels in Spectrum: 2048
>>>>>Begin Spectral Data<<<<<
223.165	-5.31
223.4	-5.31
223.635	-5.31
223.869	-14.31
224.104	-21.31
224.338	-16.31
224.573	-13.31
224.808	-27.31
225.042	-0.31
225.277	1.69
225.511	-5.31
225.746	6.69
225.98	2.69
226.215	13.69
226.449	11.69
226.683	22.69
226.918	18.69
227.152	25.69
227.387	29.69
227.621	29.69
227.856	37.69
228.09	42.69
228.324	35.69
228.559	46.69
228.793	51.69
229.027	97.69
229.262	110.69
229.496	101.69
229.73	131.69
229.964	148.69
230.199	143.69
230.433	121.69
230.667	106.69
230.901	103.69
231.136	100.69
231.37	105.69
231.604	109.69
231.838	93.69
232.072	110.69
232.306	119.69
232.541	119.69
232.775	117.69
233.009	112.69
233.243	118.69
233.477	102.69
233.711	109.69
233.945	107.69
234.179	98.69
234.413	109.69
234.647	99.69
234.881	115.69
235.115	131.69
235.349	105.69
235.583	117.69
235.817	98.69
236.051	120.69
236.285	123.69
236.519	116.69
236.753	119.69
236.987	141.69
237.221	173.69
237.455	259.69
237.689	191.69
237.922	124.69
238.156	127.69
238.39	126.69
238.624	118.69
238.858	121.69
239.091	121.69
239.325	131.69
239.559	131.69
239.793	126.69
240.027	134.69
240.26	132.69
240.494	143.69
240.728	135.69
240.961	132.69
241.195	155.69
241.429	131.69
241.662	129.69
241.896	125.69
242.13	120.69
242.363	138.69
242.597	151.69
242.83	136.69
243.064	145.69
243.298	130.69
243.531	128.69
243.765	133.69
243.998	146.69
244.232	137.69
244.465	129.69
244.699	146.69
244.932	140.69
245.166	147.69
245.399	130.69
245.633	122.69
245.866	156.69
246.099	151.69
246.333	129.69
246.566	141.69
246.8	145.69
247.033	153.69
247.266	148.69
247.5	160.69
247.733	166.69
247.966	170.69
248.2	154.69
248.433	173.69
248.666	172.69
248.899	173.69
249.133	175.69
249.366	210.69
249.599	178.69
249.832	178.69
250.066	169.69
250.299	180.69
250.532	170.69
250.765	192.69
250.998	205.69
251.231	191.69
251.465	201.69
251.698	191.69
251.931	181.69
252.164	195.69
252.397	175.69
252.63	203.69
252.863	199.69
253.096	197.69
253.329	206.69
253.562	197.69
253.795	204.69
254.028	218.69
254.261	201.69
254.494	223.69
254.727	242.69
254.96	271.69
255.193	245.69
255.426	231.69
255.659	206.69
255.892	218.69
256.124	226.69
256.357	222.69
256.59	207.69
256.823	210.69
257.056	198.69
257.289	212.69
257.521	209.69
257.754	185.69
257.987	189.69
258.22	199.69
258.452	202.69
258.685	197.69
258.918	213.69
259.151	209.69
259.383	196.69
259.616	213.69
259.849	208.69
260.081	210.69
260.314	234.69
260.547	247.69
260.779	216.69
261.012	220.69
261.244	219.69
261.477	222.69
261.71	204.69
261.942	216.69
262.175	226.69
262.407	228.69
262.64	211.69
262.872	215.69
263.105	207.69
263.337	209.69
263.57	211.69
263.802	205.69
264.035	215.69
264.267	205.69
264.499	212.69
264.732	197.69
264.964	206.69
265.197	205.69
265.429	204.69
265.661	214.69
265.894	212.69
266.126	207.69
266.358	209.69
266.591	209.69
266.823	222.69
267.055	217.69
267.287	223.69
267.52	237.69
267.752	221.69
267.984	229.69
268.216	215.69
268.448	238.69
268.681	232.69
268.913	235.69
269.145	266.69
269.377	264.69
269.609	273.69
269.841	254.69
270.073	244.69
270.306	272.69
270.538	308.69
270.77	311.69
271.002	307.69
271.234	271.69
271.466	276.69
271.698	292.69
271.93	298.69
272.162	316.69
272.394	313.69
272.626	286.69
272.858	276.69
273.09	263.69
273.322	269.69
273.553	253.69
273.785	255.69
274.017	266.69
274.249	261.69
274.481	239.69
274.713	255.69
274.945	271.69
275.176	259.69
275.408	260.69
275.64	269.69
275.872	277.69
276.104	273.69
276.335	246.69
276.567	269.69
276.799	296.69
277.031	309.69
277.262	293.69
277.494	310.69
277.726	289.69
277.957	275.69
278.189	278.69
278.421	275.69
278.652	265.69
278.884	260.69
279.115	263.69
279.347	251.69
279.579	264.69
279.81	261.69
280.042	269.69
280.273	267.69
280.505	265.69
280.736	265.69
280.968	244.69
281.199	273.69
281.431	265.69
281.662	268.69
281.894	259.69
282.125	279.69
282.356	271.69
282.588	290.69
282.819	308.69
283.051	279.69
283.282	281.69
283.513	279.69
283.745	270.69
283.976	263.69
284.207	287.69
284.439	268.69
284.67	277.69
284.901	277.69
285.132	266.69
285.364	279.69
285.595	267.69
285.826	277.69
286.057	286.69
286.288	268.69
286.52	285.69
286.751	296.69
286.982	286.69
287.213	275.69
287.444	280.69
287.675	283.69
287.906	285.69
288.138	277.69
288.369	288.69
288.6	306.69
288.831	301.69
289.062	297.69
289.293	285.69
289.524	289.69
289.755	284.69
289.986	278.69
290.217	304.69
290.448	286.69
290.679	279.69
290.91	286.69
291.141	291.69
291.371	283.69
291.602	285.69
291.833	264.69
292.064	290.69
292.295	297.69
292.526	287.69
292.757	285.69
292.987	282.69
293.218	274.69
293.449	293.69
293.68	279.69
293.91	282.69
294.141	288.69
294.372	289.69
294.603	298.69
294.833	293.69
295.064	314.69
295.295	303.69
295.525	281.69
295.756	313.69
295.987	314.69
296.217	329.69
296.448	346.69
296.679	318.69
296.909	295.69
297.14	308.69
297.37	324.69
297.601	319.69
297.831	302.69
298.062	298.69
298.292	317.69
298.523	312.69
298.753	317.69
298.984	321.69
299.214	317.69
299.445	298.69
299.675	317.69
299.905	299.69
300.136	325.69
300.366	304.69
300.597	318.69
300.827	328.69
301.057	310.69
301.288	330.69
301.518	331.69
301.748	337.69
301.979	353.69
302.209	325.69
302.439	311.69
302.669	322.69
302.9	317.69
303.13	331.69
303.36	340.69
303.59	338.69
303.82	332.69
304.051	328.69
304.281	338.69
304.511	327.69
304.741	323.69
304.971	322.69
305.201	324.69
305.431	335.69
305.661	327.69
305.891	315.69
306.121	320.69
306.352	337.69
306.582	323.69
306.812	317.69
307.042	323.69
307.272	340.69
307.502	323.69
307.731	334.69
307.961	324.69
308.191	318.69
308.421	330.69
308.651	336.69
308.881	319.69
309.111	358.69
309.341	349.69
309.571	368.69
309.8	357.69
310.03	363.69
310.26	376.69
310.49	354.69
310.72	363.69
310.949	398.69
311.179	405.69
311.409	396.69
311.639	362.69
311.868	373.69
312.098	377.69
312.328	384.69
312.557	405.69
312.787	407.69
313.017	398.69
313.246	400.69
313.476	378.69
313.706	389.69
313.935	379.69
314.165	374.69
314.394	431.69
314.624	398.69
314.853	381.69
315.083	381.69
315.312	376.69
315.542	371.69
315.771	365.69
316.001	375.69
316.23	351.69
316.46	357.69
316.689	372.69
316.919	379.69
317.148	409.69
317.377	406.69
317.607	384.69
317.836	401.69
318.065	381.69
318.295	385.69
318.524	372.69
318.753	359.69
318.983	369.69
319.212	377.69
319.441	396.69
319.67	396.69
319.9	387.69
320.129	375.69
320.358	374.69
320.587	393.69
320.816	372.69
321.046	407.69
321.275	392.69
321.504	401.69
321.733	409.69
321.962	406.69
322.191	423.69
322.42	416.69
322.649	449.69
322.878	452.69
323.108	472.69
323.337	479.69
323.566	496.69
323.795	525.69
324.024	575.69
324.253	704.69
324.482	990.69
324.71	1627.69
324.939	2507.69
325.168	2134.69
325.397	1049.69
325.626	690.69
325.855	543.69
326.084	524.69
326.313	519.69
326.542	537.69
326.77	563.69
326.999	681.69
327.228	925.69
327.457	1443.69
327.686	1845.69
327.914	1181.69
328.143	721.69
328.372	610.69
328.6	591.69
328.829	570.69
329.058	579.69
329.287	597.69
329.515	558.69
329.744	521.69
329.972	488.69
330.201	521.69
330.43	574.69
330.658	580.69
330.887	612.69
331.115	586.69
331.344	524.69
331.572	522.69
331.801	484.69
332.03	496.69
332.258	501.69
332.486	469.69
332.715	461.69
332.943	473.69
333.172	467.69
333.4	476.69
333.629	490.69
333.857	505.69
334.085	497.69
334.314	506.69
334.542	550.69
334.771	553.69
334.999	497.69
335.227	475.69
335.455	481.69
335.684	466.69
335.912	474.69
336.14	456.69
336.369	472.69
336.597	479.69
336.825	472.69
337.053	465.69
337.281	451.69
337.51	453.69
337.738	457.69
337.966	433.69
338.194	455.69
338.422	462.69
338.65	449.69
338.878	445.69
339.106	418.69
339.334	447.69
339.562	443.69
339.79	416.69
340.018	437.69
340.246	459.69
340.474	473.69
340.702	457.69
340.93	443.69
341.158	433.69
341.386	452.69
341.614	459.69
341.842	443.69
342.07	441.69
342.298	456.69
342.526	437.69
342.754	432.69
342.981	409.69
343.209	418.69
343.437	418.69
343.665	429.69
343.893	445.69
344.12	457.69
344.348	456.69
344.576	447.69
344.804	458.69
345.031	479.69
345.259	463.69
345.487	465.69
345.714	436.69
345.942	437.69
346.17	421.69
346.397	435.69
346.625	458.69
346.853	434.69
347.08	423.69
347.308	443.69
347.535	435.69
347.763	434.69
347.99	427.69
348.218	424.69
348.445	446.69
348.673	445.69
348.9	449.69
349.128	441.69
349.355	422.69
349.583	411.69
349.81	436.69
350.037	435.69
350.265	420.69
350.492	426.69
350.72	423.69
350.947	431.69
351.174	414.69
351.402	456.69
351.629	432.69
351.856	458.69
352.083	448.69
352.311	436.69
352.538	452.69
352.765	426.69
352.992	422.69
353.22	424.69
353.447	412.69
353.674	422.69
353.901	413.69
354.128	409.69
354.355	433.69
354.583	408.69
354.81	393.69
355.037	400.69
355.264	412.69
355.491	410.69
355.718	405.69
355.945	410.69
356.172	390.69
356.399	406.69
356.626	379.69
356.853	405.69
357.08	388.69
357.307	393.69
357.534	402.69
357.761	383.69
357.988	410.69
358.215	413.69
358.441	402.69
358.668	382.69
358.895	424.69
359.122	424.69
359.349	424.69
359.576	439.69
359.802	451.69
360.029	482.69
360.256	486.69
360.483	481.69
360.709	454.69
360.936	441.69
361.163	431.69
361.39	453.69
361.616	464.69
361.843	450.69
362.07	423.69
362.296	440.69
362.523	450.69
362.749	441.69
362.976	436.69
363.203	433.69
363.429	416.69
363.656	409.69
363.882	419.69
364.109	422.69
364.335	422.69
364.562	400.69
364.788	429.69
365.015	411.69
365.241	435.69
365.468	423.69
365.694	429.69
365.92	445.69
366.147	445.69
366.373	416.69
366.599	427.69
366.826	419.69
367.052	427.69
367.278	409.69
367.505	412.69
367.731	412.69
367.957	419.69
368.184	412.69
368.41	445.69
368.636	440.69
368.862	435.69
369.089	414.69
369.315	419.69
369.541	409.69
369.767	438.69
369.993	415.69
370.219	414.69
370.445	438.69
370.672	443.69
370.898	424.69
371.124	418.69
371.35	421.69
371.576	449.69
371.802	438.69
372.028	442.69
372.254	428.69
372.48	422.69
372.706	427.69
372.932	411.69
373.158	423.69
373.384	439.69
373.61	431.69
373.835	437.69
374.061	426.69
374.287	426.69
374.513	424.69
374.739	431.69
374.965	422.69
375.191	445.69
375.416	429.69
375.642	415.69
375.868	443.69
376.094	420.69
376.319	415.69
376.545	448.69
376.771	423.69
376.997	413.69
377.222	430.69
377.448	408.69
377.674	431.69
377.899	428.69
378.125	415.69
378.35	421.69
378.576	419.69
378.802	410.69
379.027	434.69
379.253	414.69
379.478	390.69
379.704	418.69
379.929	411.69
380.155	431.69
380.38	437.69
380.606	421.69
380.831	452.69
381.057	430.69
381.282	411.69
381.507	429.69
381.733	423.69
381.958	417.69
382.184	456.69
382.409	446.69
382.634	440.69
382.86	440.69
383.085	424.69
383.31	438.69
383.535	467.69
383.761	447.69
383.986	421.69
384.211	450.69
384.436	442.69
384.662	462.69
384.887	471.69
385.112	463.69
385.337	473.69
385.562	468.69
385.787	444.69
386.013	482.69
386.238	454.69
386.463	453.69
386.688	465.69
386.913	464.69
387.138	465.69
387.363	498.69
387.588	495.69
387.813	464.69
388.038	469.69
388.263	462.69
388.488	478.69
388.713	472.69
388.938	493.69
389.163	497.69
389.387	476.69
389.612	464.69
389.837	451.69
390.062	489.69
390.287	474.69
390.512	489.69
390.736	463.69
390.961	466.69
391.186	477.69
391.411	490.69
391.636	498.69
391.86	499.69
392.085	484.69
392.31	490.69
392.534	472.69
392.759	474.69
392.984	491.69
393.208	470.69
393.433	479.69
393.658	466.69
393.882	489.69
394.107	466.69
394.331	472.69
394.556	478.69
394.78	477.69
395.005	481.69
395.229	490.69
395.454	481.69
395.678	508.69
395.903	504.69
396.127	528.69
396.352	522.69
396.576	519.69
396.801	495.69
397.025	511.69
397.249	543.69
397.474	490.69
397.698	538.69
397.922	535.69
398.147	547.69
398.371	543.69
398.595	543.69
398.82	543.69
399.044	557.69
399.268	587.69
399.492	575.69
399.717	628.69
399.941	665.69
400.165	663.69
400.389	699.69
400.613	629.69
400.837	602.69
401.062	586.69
401.286	550.69
401.51	567.69
401.734	578.69
401.958	575.69
402.182	586.69
402.406	570.69
402.63	573.69
402.854	573.69
403.078	569.69
403.302	579.69
403.526	582.69
403.75	550.69
403.974	556.69
404.198	575.69
404.422	566.69
404.645	591.69
404.869	599.69
405.093	630.69
405.317	663.69
405.541	719.69
405.765	656.69
405.988	611.69
406.212	610.69
406.436	603.69
406.66	631.69
406.883	622.69
407.107	677.69
407.331	687.69
407.555	749.69
407.778	765.69
408.002	675.69
408.226	652.69
408.449	651.69
408.673	657.69
408.896	667.69
409.12	720.69
409.344	693.69
409.567	627.69
409.791	613.69
410.014	577.69
410.238	568.69
410.461	594.69
410.685	614.69
410.908	608.69
411.132	638.69
411.355	674.69
411.578	652.69
411.802	608.69
412.025	605.69
412.249	614.69
412.472	608.69
412.695	665.69
412.919	654.69
413.142	593.69
413.365	570.69
413.589	593.69
413.812	565.69
414.035	545.69
414.258	571.69
414.482	549.69
414.705	551.69
414.928	557.69
415.151	563.69
415.374	522.69
415.597	559.69
415.821	537.69
416.044	550.69
416.267	547.69
416.49	539.69
416.713	553.69
416.936	569.69
417.159	546.69
417.382	540.69
417.605	572.69
417.828	594.69
418.051	591.69
418.274	581.69
418.497	544.69
418.72	536.69
418.943	526.69
419.166	562.69
419.389	594.69
419.611	591.69
419.834	574.69
420.057	601.69
420.28	569.69
420.503	576.69
420.726	561.69
420.948	589.69
421.171	631.69
421.394	677.69
421.617	601.69
421.839	584.69
422.062	562.69
422.285	586.69
422.507	648.69
422.73	749.69
422.953	697.69
423.175	623.69
423.398	602.69
423.621	586.69
423.843	617.69
424.066	623.69
424.288	578.69
424.511	650.69
424.733	677.69
424.956	790.69
425.178	761.69
425.401	729.69
425.623	788.69
425.846	670.69
426.068	626.69
426.291	623.69
426.513	613.69
426.735	634.69
426.958	691.69
427.18	750.69
427.402	914.69
427.625	1032.69
427.847	847.69
428.069	769.69
428.292	675.69
428.514	628.69
428.736	599.69
428.958	599.69
429.181	578.69
429.403	565.69
429.625	593.69
429.847	608.69
430.069	687.69
430.292	694.69
430.514	602.69
430.736	596.69
430.958	557.69
431.18	524.69
431.402	545.69
431.624	539.69
431.846	537.69
432.068	545.69
432.29	546.69
432.512	545.69
432.734	527.69
432.956	547.69
433.178	550.69
433.4	549.69
433.622	540.69
433.844	549.69
434.066	554.69
434.287	561.69
434.509	571.69
434.731	553.69
434.953	587.69
435.175	576.69
435.397	602.69
435.618	623.69
435.84	655.69
436.062	784.69
436.284	873.69
436.505	687.69
436.727	638.69
436.949	584.69
437.17	559.69
437.392	573.69
437.614	575.69
437.835	622.69
438.057	727.69
438.278	847.69
438.5	846.69
438.721	926.69
438.943	909.69
439.165	698.69
439.386	632.69
439.608	610.69
439.829	625.69
440.05	671.69
440.272	713.69
440.493	680.69
440.715	622.69
440.936	561.69
441.158	565.69
441.379	577.69
441.6	591.69
441.822	606.69
442.043	637.69
442.264	750.69
442.486	822.69
442.707	676.69
442.928	609.69
443.149	612.69
443.371	661.69
443.592	705.69
443.813	814.69
444.034	899.69
444.255	729.69
444.476	639.69
444.698	627.69
444.919	641.69
445.14	733.69
445.361	701.69
445.582	685.69
445.803	743.69
446.024	843.69
446.245	878.69
446.466	773.69
446.687	692.69
446.908	607.69
447.129	601.69
447.35	586.69
447.571	573.69
447.792	559.69
448.013	561.69
448.234	581.69
448.455	629.69
448.675	744.69
448.896	901.69
449.117	777.69
449.338	724.69
449.559	871.69
449.779	975.69
450	777.69
450.221	615.69
450.442	571.69
450.662	548.69
450.883	545.69
451.104	550.69
451.324	558.69
451.545	546.69
451.766	523.69
451.986	493.69
452.207	503.69
452.428	493.69
452.648	495.69
452.869	478.69
453.089	517.69
453.31	537.69
453.53	498.69
453.751	518.69
453.971	502.69
454.192	522.69
454.412	520.69
454.633	491.69
454.853	493.69
455.073	501.69
455.294	544.69
455.514	611.69
455.734	605.69
455.955	505.69
456.175	489.69
456.395	498.69
456.616	475.69
456.836	469.69
457.056	466.69
457.276	470.69
457.497	482.69
457.717	471.69
457.937	497.69
458.157	500.69
458.377	511.69
458.598	536.69
458.818	595.69
459.038	633.69
459.258	706.69
459.478	605.69
459.698	545.69
459.918	553.69
460.138	563.69
460.358	574.69
460.578	569.69
460.798	537.69
461.018	560.69
461.238	571.69
461.458	563.69
461.678	542.69
461.898	577.69
462.118	564.69
462.338	559.69
462.558	595.69
462.777	581.69
462.997	611.69
463.217	609.69
463.437	631.69
463.657	575.69
463.876	591.69
464.096	595.69
464.316	588.69
464.536	606.69
464.755	593.69
464.975	605.69
465.195	618.69
465.414	709.69
465.634	605.69
465.854	580.69
466.073	569.69
466.293	553.69
466.512	557.69
466.732	532.69
466.951	541.69
467.171	535.69
467.391	509.69
467.61	530.69
467.829	545.69
468.049	530.69
468.268	538.69
468.488	519.69
468.707	503.69
468.927	523.69
469.146	502.69
469.365	509.69
469.585	497.69
469.804	527.69
470.023	540.69
470.243	538.69
470.462	558.69
470.681	566.69
470.901	565.69
471.12	533.69
471.339	523.69
471.558	537.69
471.777	543.69
471.997	538.69
472.216	546.69
472.435	573.69
472.654	557.69
472.873	537.69
473.092	538.69
473.311	500.69
473.53	531.69
473.749	528.69
473.968	588.69
474.187	709.69
474.406	723.69
474.625	600.69
474.844	552.69
475.063	551.69
475.282	528.69
475.501	524.69
475.72	549.69
475.939	558.69
476.158	547.69
476.377	554.69
476.596	544.69
476.814	536.69
477.033	552.69
477.252	576.69
477.471	542.69
477.69	582.69
477.908	581.69
478.127	561.69
478.346	573.69
478.564	587.69
478.783	586.69
479.002	600.69
479.22	592.69
479.439	618.69
479.658	633.69
479.876	647.69
480.095	645.69
480.313	687.69
480.532	664.69
480.751	643.69
480.969	671.69
481.188	695.69
481.406	748.69
481.624	669.69
481.843	675.69
482.061	670.69
482.28	648.69
482.498	629.69
482.717	605.69
482.935	623.69
483.153	628.69
483.372	634.69
483.59	639.69
483.808	627.69
484.027	629.69
484.245	646.69
484.463	631.69
484.681	662.69
484.9	612.69
485.118	633.69
485.336	655.69
485.554	673.69
485.772	643.69
485.99	633.69
486.209	661.69
486.427	649.69
486.645	652.69
486.863	667.69
487.081	674.69
487.299	679.69
487.517	663.69
487.735	656.69
487.953	669.69
488.171	649.69
488.389	655.69
488.607	678.69
488.825	646.69
489.043	666.69
489.261	686.69
489.479	666.69
489.696	679.69
489.914	673.69
490.132	682.69
490.35	694.69
490.568	693.69
490.786	728.69
491.003	716.69
491.221	734.69
491.439	741.69
491.657	772.69
491.874	732.69
492.092	753.69
492.31	753.69
492.527	754.69
492.745	728.69
492.963	759.69
493.18	763.69
493.398	765.69
493.615	795.69
493.833	808.69
494.05	757.69
494.268	758.69
494.485	772.69
494.703	774.69
494.92	751.69
495.138	785.69
495.355	752.69
495.573	776.69
495.79	817.69
496.008	769.69
496.225	787.69
496.442	784.69
496.66	764.69
496.877	768.69
497.094	793.69
497.312	815.69
497.529	813.69
497.746	846.69
497.963	796.69
498.181	871.69
498.398	884.69
498.615	884.69
498.832	919.69
499.049	934.69
499.267	938.69
499.484	993.69
499.701	978.69
499.918	997.69
500.135	1085.69
500.352	1157.69
500.569	1171.69
500.786	1161.69
501.003	1145.69
501.22	1085.69
501.437	1105.69
501.654	1046.69
501.871	1008.69
502.088	976.69
502.305	963.69
502.522	903.69
502.739	915.69
502.956	874.69
503.172	846.69
503.389	857.69
503.606	833.69
503.823	823.69
504.04	825.69
504.256	816.69
504.473	797.69
504.69	815.69
504.907	786.69
505.123	780.69
505.34	786.69
505.557	750.69
505.773	781.69
505.99	775.69
506.207	744.69
506.423	758.69
506.64	747.69
506.856	741.69
507.073	715.69
507.289	725.69
507.506	713.69
507.722	720.69
507.939	740.69
508.155	759.69
508.372	711.69
508.588	722.69
508.805	720.69
509.021	734.69
509.238	739.69
509.454	721.69
509.67	711.69
509.887	724.69
510.103	713.69
510.319	705.69
510.536	786.69
510.752	1221.69
510.968	1034.69
511.184	726.69
511.401	705.69
511.617	695.69
511.833	667.69
512.049	694.69
512.265	701.69
512.481	662.69
512.698	673.69
512.914	663.69
513.13	667.69
513.346	649.69
513.562	650.69
513.778	658.69
513.994	673.69
514.21	686.69
514.426	727.69
514.642	755.69
514.858	767.69
515.074	794.69
515.29	904.69
515.506	1264.69
515.721	1086.69
515.937	800.69
516.153	760.69
516.369	742.69
516.585	689.69
516.801	713.69
517.016	693.69
517.232	699.69
517.448	718.69
517.664	727.69
517.879	701.69
518.095	691.69
518.311	712.69
518.527	716.69
518.742	694.69
518.958	681.69
519.173	683.69
519.389	677.69
519.605	655.69
519.82	676.69
520.036	683.69
520.251	694.69
520.467	710.69
520.682	717.69
520.898	740.69
521.113	759.69
521.329	773.69
521.544	845.69
521.76	1025.69
521.975	1639.69
522.19	1581.69
522.406	957.69
522.621	750.69
522.836	679.69
523.052	658.69
523.267	651.69
523.482	629.69
523.698	630.69
523.913	614.69
524.128	627.69
524.343	603.69
524.559	602.69
524.774	593.69
524.989	595.69
525.204	630.69
525.419	589.69
525.634	597.69
525.849	585.69
526.064	562.69
526.28	568.69
526.495	557.69
526.71	576.69
526.925	569.69
527.14	566.69
527.355	546.69
527.57	575.69
527.785	555.69
527.999	532.69
528.214	576.69
528.429	565.69
528.644	557.69
528.859	548.69
529.074	549.69
529.289	594.69
529.503	637.69
529.718	635.69
529.933	599.69
530.148	575.69
530.363	568.69
530.577	536.69
530.792	550.69
531.007	543.69
531.221	559.69
531.436	541.69
531.651	543.69
531.865	551.69
532.08	567.69
532.295	545.69
532.509	536.69
532.724	546.69
532.938	564.69
533.153	544.69
533.367	555.69
533.582	557.69
533.796	538.69
534.011	535.69
534.225	523.69
534.44	565.69
534.654	505.69
534.868	526.69
535.083	526.69
535.297	521.69
535.511	516.69
535.726	545.69
535.94	537.69
536.154	542.69
536.369	548.69
536.583	519.69
536.797	526.69
537.011	513.69
537.225	543.69
537.44	517.69
537.654	491.69
537.868	523.69
538.082	525.69
538.296	532.69
538.51	521.69
538.724	537.69
538.938	518.69
539.153	489.69
539.367	527.69
539.581	545.69
539.795	504.69
540.009	517.69
540.222	518.69
540.436	516.69
540.65	502.69
540.864	523.69
541.078	521.69
541.292	501.69
541.506	497.69
541.72	509.69
541.934	501.69
542.147	526.69
542.361	529.69
542.575	514.69
542.789	513.69
543.002	505.69
543.216	498.69
543.43	522.69
543.644	500.69
543.857	493.69
544.071	518.69
544.285	487.69
544.498	509.69
544.712	507.69
544.925	525.69
545.139	485.69
545.352	513.69
545.566	496.69
545.779	515.69
545.993	510.69
546.206	497.69
546.42	488.69
546.633	481.69
546.847	505.69
547.06	489.69
547.274	491.69
547.487	485.69
547.7	477.69
547.914	478.69
548.127	484.69
548.34	483.69
548.554	486.69
548.767	471.69
548.98	494.69
549.193	478.69
549.407	491.69
549.62	482.69
549.833	493.69
550.046	484.69
550.259	474.69
550.473	475.69
550.686	472.69
550.899	478.69
551.112	461.69
551.325	475.69
551.538	469.69
551.751	464.69
551.964	498.69
552.177	487.69
552.39	498.69
552.603	495.69
552.816	504.69
553.029	505.69
553.242	509.69
553.455	486.69
553.667	524.69
553.88	498.69
554.093	491.69
554.306	484.69
554.519	493.69
554.732	473.69
554.944	478.69
555.157	461.69
555.37	483.69
555.583	477.69
555.795	466.69
556.008	477.69
556.221	455.69
556.433	448.69
556.646	454.69
556.859	448.69
557.071	434.69
557.284	457.69
557.496	430.69
557.709	457.69
557.921	433.69
558.134	456.69
558.346	451.69
558.559	437.69
558.771	433.69
558.984	446.69
559.196	429.69
559.409	425.69
559.621	439.69
559.833	433.69
560.046	442.69
560.258	457.69
560.47	426.69
560.683	425.69
560.895	454.69
561.107	437.69
561.32	425.69
561.532	424.69
561.744	438.69
561.956	441.69
562.168	418.69
562.381	426.69
562.593	453.69
562.805	454.69
563.017	442.69
563.229	448.69
563.441	422.69
563.653	440.69
563.865	438.69
564.077	450.69
564.289	441.69
564.501	447.69
564.713	464.69
564.925	480.69
565.137	469.69
565.349	481.69
565.561	484.69
565.773	472.69
565.985	468.69
566.197	505.69
566.408	509.69
566.62	527.69
566.832	552.69
567.044	515.69
567.255	560.69
567.467	554.69
567.679	585.69
567.891	554.69
568.102	557.69
568.314	545.69
568.526	515.69
568.737	518.69
568.949	494.69
569.161	497.69
569.372	478.69
569.584	469.69
569.795	473.69
570.007	454.69
570.218	481.69
570.43	472.69
570.641	436.69
570.853	446.69
571.064	424.69
571.276	423.69
571.487	431.69
571.698	423.69
571.91	408.69
572.121	412.69
572.333	390.69
572.544	408.69
572.755	409.69
572.966	406.69
573.178	397.69
573.389	394.69
573.6	388.69
573.811	398.69
574.023	394.69
574.234	385.69
574.445	374.69
574.656	371.69
574.867	369.69
575.078	369.69
575.289	378.69
575.501	369.69
575.712	379.69
575.923	369.69
576.134	379.69
576.345	374.69
576.556	370.69
576.767	366.69
576.978	359.69
577.188	360.69
577.399	369.69
577.61	375.69
577.821	367.69
578.032	358.69
578.243	393.69
578.454	564.69
578.665	460.69
578.875	362.69
579.086	369.69
579.297	365.69
579.508	362.69
579.718	365.69
579.929	359.69
580.14	339.69
580.35	349.69
580.561	322.69
580.772	356.69
580.982	338.69
581.193	365.69
581.403	341.69
581.614	362.69
581.825	341.69
582.035	338.69
582.246	365.69
582.456	353.69
582.667	326.69
582.877	318.69
583.087	316.69
583.298	329.69
583.508	331.69
583.719	335.69
583.929	330.69
584.139	357.69
584.35	337.69
584.56	345.69
584.77	351.69
584.981	329.69
585.191	329.69
585.401	341.69
585.611	328.69
585.821	325.69
586.032	328.69
586.242	330.69
586.452	321.69
586.662	338.69
586.872	320.69
587.082	344.69
587.292	334.69
587.502	328.69
587.713	331.69
587.923	326.69
588.133	334.69
588.343	321.69
588.553	322.69
588.762	319.69
588.972	331.69
589.182	322.69
589.392	346.69
589.602	340.69
589.812	331.69
590.022	325.69
590.232	321.69
590.441	323.69
590.651	317.69
590.861	327.69
591.071	317.69
591.281	326.69
591.49	343.69
591.7	314.69
591.91	344.69
592.119	348.69
592.329	340.69
592.539	326.69
592.748	340.69
592.958	351.69
593.167	360.69
593.377	343.69
593.587	372.69
593.796	353.69
594.006	357.69
594.215	339.69
594.424	377.69
594.634	381.69
594.843	333.69
595.053	331.69
595.262	331.69
595.472	346.69
595.681	329.69
595.89	322.69
596.1	314.69
596.309	341.69
596.518	325.69
596.727	307.69
596.937	319.69
597.146	323.69
597.355	299.69
597.564	301.69
597.774	315.69
597.983	311.69
598.192	295.69
598.401	281.69
598.61	290.69
598.819	314.69
599.028	293.69
599.237	309.69
599.446	297.69
599.655	304.69
599.864	281.69
600.073	260.69
600.282	290.69
600.491	279.69
600.7	281.69
600.909	283.69
601.118	262.69
601.327	286.69
601.536	295.69
601.745	287.69
601.953	274.69
602.162	279.69
602.371	288.69
602.58	280.69
602.789	268.69
602.997	289.69
603.206	287.69
603.415	288.69
603.623	268.69
603.832	272.69
604.041	274.69
604.249	275.69
604.458	267.69
604.666	272.69
604.875	265.69
605.084	271.69
605.292	249.69
605.501	258.69
605.709	278.69
605.918	265.69
606.126	279.69
606.334	269.69
606.543	277.69
606.751	273.69
606.96	281.69
607.168	266.69
607.376	254.69
607.585	265.69
607.793	254.69
608.001	263.69
608.21	246.69
608.418	240.69
608.626	257.69
608.834	256.69
609.043	254.69
609.251	248.69
609.459	248.69
609.667	267.69
609.875	264.69
610.083	278.69
610.291	255.69
610.499	260.69
610.707	261.69
610.916	258.69
611.124	268.69
611.332	265.69
611.54	273.69
611.748	283.69
611.955	262.69
612.163	247.69
612.371	270.69
612.579	279.69
612.787	267.69
612.995	263.69
613.203	268.69
613.411	250.69
613.618	271.69
613.826	254.69
614.034	261.69
614.242	264.69
614.449	234.69
614.657	236.69
614.865	251.69
615.072	257.69
615.28	254.69
615.488	249.69
615.695	246.69
615.903	259.69
616.111	271.69
616.318	262.69
616.526	248.69
616.733	270.69
616.941	258.69
617.148	246.69
617.356	253.69
617.563	261.69
617.771	267.69
617.978	255.69
618.185	240.69
618.393	255.69
618.6	249.69
618.807	263.69
619.015	262.69
619.222	243.69
619.429	257.69
619.637	232.69
619.844	237.69
620.051	260.69
620.258	242.69
620.466	239.69
620.673	233.69
620.88	237.69
621.087	241.69
621.294	257.69
621.501	246.69
621.708	232.69
621.915	233.69
622.122	239.69
622.329	234.69
622.536	253.69
622.743	244.69
622.95	244.69
623.157	229.69
623.364	240.69
623.571	233.69
623.778	223.69
623.985	234.69
624.192	210.69
624.399	234.69
624.606	235.69
624.812	239.69
625.019	222.69
625.226	222.69
625.433	230.69
625.639	230.69
625.846	213.69
626.053	217.69
626.259	226.69
626.466	211.69
626.673	222.69
626.879	216.69
627.086	221.69
627.293	222.69
627.499	232.69
627.706	230.69
627.912	221.69
628.119	207.69
628.325	217.69
628.532	224.69
628.738	219.69
628.945	222.69
629.151	228.69
629.357	216.69
629.564	218.69
629.77	216.69
629.976	214.69
630.183	228.69
630.389	211.69
630.595	204.69
630.802	213.69
631.008	198.69
631.214	205.69
631.42	209.69
631.627	215.69
631.833	206.69
632.039	194.69
632.245	212.69
632.451	198.69
632.657	192.69
632.863	206.69
633.069	210.69
633.275	192.69
633.481	192.69
633.688	199.69
633.893	202.69
634.099	192.69
634.305	202.69
634.511	187.69
634.717	210.69
634.923	192.69
635.129	187.69
635.335	197.69
635.541	185.69
635.747	182.69
635.952	191.69
636.158	198.69
636.364	200.69
636.57	203.69
636.775	186.69
636.981	202.69
637.187	173.69
637.392	179.69
637.598	192.69
637.804	200.69
638.009	202.69
638.215	192.69
638.421	184.69
638.626	175.69
638.832	180.69
639.037	185.69
639.243	191.69
639.448	193.69
639.654	174.69
639.859	207.69
640.065	174.69
640.27	185.69
640.475	183.69
640.681	192.69
640.886	205.69
641.091	188.69
641.297	182.69
641.502	169.69
641.707	177.69
641.913	178.69
642.118	189.69
642.323	183.69
642.528	165.69
642.733	168.69
642.939	176.69
643.144	179.69
643.349	189.69
643.554	184.69
643.759	167.69
643.964	168.69
644.169	162.69
644.374	162.69
644.579	169.69
644.784	181.69
644.989	166.69
645.194	175.69
645.399	173.69
645.604	172.69
645.809	172.69
646.014	175.69
646.219	159.69
646.423	165.69
646.628	169.69
646.833	182.69
647.038	183.69
647.243	163.69
647.447	185.69
647.652	193.69
647.857	193.69
648.062	190.69
648.266	191.69
648.471	168.69
648.676	161.69
648.88	185.69
649.085	179.69
649.289	181.69
649.494	180.69
649.698	188.69
649.903	194.69
650.107	182.69
650.312	158.69
650.516	184.69
650.721	162.69
650.925	164.69
651.13	159.69
651.334	150.69
651.539	147.69
651.743	159.69
651.947	171.69
652.152	145.69
652.356	134.69
652.56	143.69
652.764	135.69
652.969	162.69
653.173	147.69
653.377	148.69
653.581	135.69
653.785	149.69
653.99	155.69
654.194	146.69
654.398	151.69
654.602	139.69
654.806	144.69
655.01	139.69
655.214	141.69
655.418	154.69
655.622	131.69
655.826	129.69
656.03	127.69
656.234	131.69
656.438	146.69
656.642	145.69
656.846	130.69
657.049	141.69
657.253	133.69
657.457	124.69
657.661	99.69
657.865	109.69
658.068	105.69
658.272	109.69
658.476	116.69
658.68	104.69
658.883	106.69
659.087	95.69
659.291	104.69
659.494	103.69
659.698	94.69
659.901	97.69
660.105	101.69
660.309	104.69
660.512	83.69
660.716	79.69
660.919	82.69
661.123	103.69
661.326	97.69
661.53	82.69
661.733	83.69
661.936	96.69
662.14	87.69
662.343	82.69
662.546	64.69
662.75	100.69
662.953	92.69
663.156	86.69
663.36	85.69
663.563	73.69
663.766	76.69
663.969	72.69
664.173	82.69
664.376	72.69
664.579	83.69
664.782	79.69
664.985	84.69
665.188	65.69
665.391	78.69
665.594	84.69
665.797	79.69
666	73.69
666.203	73.69
666.406	64.69
666.609	67.69
666.812	86.69
667.015	86.69
667.218	84.69
667.421	74.69
667.624	82.69
667.827	89.69
668.03	80.69
668.232	98.69
668.435	73.69
668.638	81.69
668.841	75.69
669.043	80.69
669.246	82.69
669.449	97.69
669.651	87.69
669.854	66.69
670.057	65.69
670.259	76.69
670.462	88.69
670.665	91.69
670.867	82.69
671.07	80.69
671.272	67.69
671.475	83.69
671.677	74.69
671.88	82.69
672.082	80.69
672.284	79.69
672.487	83.69
672.689	85.69
672.892	77.69
