Data from 1978.PennyLincolnUp.Lamp.En5.5.200Scan.071719.P1_HRD10591_16-12-28-865.txt Node
Date: Thu Jul 18 16:12:28 EDT 2019
User: cochatt
Spectrometer: HR+D1059
Trigger mode: 1
Integration Time (sec): 1.000000E-1
Scans to average: 1
Electric dark correction enabled: true
Nonlinearity correction enabled: false
Boxcar width: 0
XAxis mode: Wavelengths
Number of Pixels in Spectrum: 2048
>>>>>Begin Spectral Data<<<<<
223.165	-17.94
223.4	-17.94
223.635	-17.94
223.869	2.06
224.104	-10.94
224.338	-19.94
224.573	-18.94
224.808	-7.94
225.042	-16.94
225.277	-1.94
225.511	-0.94
225.746	9.06
225.98	6.06
226.215	-0.94
226.449	16.06
226.683	21.06
226.918	19.06
227.152	23.06
227.387	38.06
227.621	31.06
227.856	45.06
228.09	37.06
228.324	47.06
228.559	50.06
228.793	59.06
229.027	97.06
229.262	108.06
229.496	105.06
229.73	117.06
229.964	132.06
230.199	123.06
230.433	105.06
230.667	110.06
230.901	111.06
231.136	96.06
231.37	111.06
231.604	107.06
231.838	100.06
232.072	101.06
232.306	105.06
232.541	111.06
232.775	111.06
233.009	108.06
233.243	120.06
233.477	111.06
233.711	107.06
233.945	118.06
234.179	124.06
234.413	104.06
234.647	102.06
234.881	96.06
235.115	114.06
235.349	121.06
235.583	122.06
235.817	120.06
236.051	127.06
236.285	116.06
236.519	126.06
236.753	121.06
236.987	137.06
237.221	166.06
237.455	202.06
237.689	166.06
237.922	131.06
238.156	124.06
238.39	145.06
238.624	126.06
238.858	106.06
239.091	105.06
239.325	117.06
239.559	120.06
239.793	123.06
240.027	120.06
240.26	138.06
240.494	133.06
240.728	148.06
240.961	134.06
241.195	134.06
241.429	127.06
241.662	118.06
241.896	122.06
242.13	121.06
242.363	126.06
242.597	121.06
242.83	133.06
243.064	143.06
243.298	131.06
243.531	136.06
243.765	136.06
243.998	138.06
244.232	133.06
244.465	150.06
244.699	142.06
244.932	141.06
245.166	142.06
245.399	143.06
245.633	149.06
245.866	146.06
246.099	141.06
246.333	142.06
246.566	152.06
246.8	147.06
247.033	152.06
247.266	148.06
247.5	139.06
247.733	158.06
247.966	164.06
248.2	155.06
248.433	155.06
248.666	156.06
248.899	152.06
249.133	196.06
249.366	180.06
249.599	189.06
249.832	170.06
250.066	156.06
250.299	160.06
250.532	159.06
250.765	182.06
250.998	193.06
251.231	186.06
251.465	191.06
251.698	176.06
251.931	192.06
252.164	185.06
252.397	189.06
252.63	175.06
252.863	187.06
253.096	200.06
253.329	206.06
253.562	203.06
253.795	195.06
254.028	199.06
254.261	194.06
254.494	199.06
254.727	219.06
254.96	244.06
255.193	234.06
255.426	220.06
255.659	217.06
255.892	208.06
256.124	198.06
256.357	203.06
256.59	196.06
256.823	186.06
257.056	212.06
257.289	205.06
257.521	182.06
257.754	184.06
257.987	179.06
258.22	196.06
258.452	195.06
258.685	193.06
258.918	189.06
259.151	193.06
259.383	203.06
259.616	210.06
259.849	205.06
260.081	215.06
260.314	237.06
260.547	229.06
260.779	202.06
261.012	205.06
261.244	197.06
261.477	204.06
261.71	199.06
261.942	218.06
262.175	218.06
262.407	207.06
262.64	207.06
262.872	190.06
263.105	199.06
263.337	206.06
263.57	206.06
263.802	195.06
264.035	200.06
264.267	186.06
264.499	184.06
264.732	200.06
264.964	179.06
265.197	201.06
265.429	197.06
265.661	203.06
265.894	198.06
266.126	222.06
266.358	198.06
266.591	194.06
266.823	219.06
267.055	215.06
267.287	229.06
267.52	202.06
267.752	205.06
267.984	218.06
268.216	205.06
268.448	211.06
268.681	215.06
268.913	234.06
269.145	244.06
269.377	262.06
269.609	260.06
269.841	243.06
270.073	248.06
270.306	262.06
270.538	267.06
270.77	271.06
271.002	256.06
271.234	265.06
271.466	244.06
271.698	257.06
271.93	260.06
272.162	279.06
272.394	268.06
272.626	260.06
272.858	243.06
273.09	240.06
273.322	242.06
273.553	238.06
273.785	239.06
274.017	247.06
274.249	248.06
274.481	242.06
274.713	255.06
274.945	257.06
275.176	255.06
275.408	249.06
275.64	250.06
275.872	244.06
276.104	260.06
276.335	253.06
276.567	256.06
276.799	265.06
277.031	280.06
277.262	291.06
277.494	295.06
277.726	260.06
277.957	271.06
278.189	260.06
278.421	248.06
278.652	256.06
278.884	242.06
279.115	247.06
279.347	232.06
279.579	252.06
279.81	244.06
280.042	266.06
280.273	266.06
280.505	275.06
280.736	246.06
280.968	259.06
281.199	264.06
281.431	253.06
281.662	265.06
281.894	265.06
282.125	270.06
282.356	282.06
282.588	290.06
282.819	286.06
283.051	286.06
283.282	262.06
283.513	282.06
283.745	267.06
283.976	273.06
284.207	287.06
284.439	266.06
284.67	254.06
284.901	255.06
285.132	261.06
285.364	281.06
285.595	266.06
285.826	278.06
286.057	240.06
286.288	248.06
286.52	272.06
286.751	264.06
286.982	275.06
287.213	263.06
287.444	271.06
287.675	277.06
287.906	276.06
288.138	300.06
288.369	279.06
288.6	286.06
288.831	262.06
289.062	290.06
289.293	281.06
289.524	287.06
289.755	266.06
289.986	268.06
290.217	289.06
290.448	284.06
290.679	294.06
290.91	274.06
291.141	267.06
291.371	283.06
291.602	268.06
291.833	271.06
292.064	286.06
292.295	263.06
292.526	258.06
292.757	278.06
292.987	279.06
293.218	267.06
293.449	264.06
293.68	286.06
293.91	284.06
294.141	290.06
294.372	272.06
294.603	288.06
294.833	280.06
295.064	275.06
295.295	276.06
295.525	291.06
295.756	282.06
295.987	292.06
296.217	298.06
296.448	303.06
296.679	290.06
296.909	301.06
297.14	287.06
297.37	281.06
297.601	296.06
297.831	289.06
298.062	298.06
298.292	295.06
298.523	285.06
298.753	296.06
298.984	291.06
299.214	284.06
299.445	304.06
299.675	295.06
299.905	299.06
300.136	303.06
300.366	286.06
300.597	332.06
300.827	303.06
301.057	307.06
301.288	312.06
301.518	313.06
301.748	313.06
301.979	297.06
302.209	325.06
302.439	332.06
302.669	301.06
302.9	310.06
303.13	318.06
303.36	301.06
303.59	312.06
303.82	315.06
304.051	317.06
304.281	323.06
304.511	301.06
304.741	320.06
304.971	321.06
305.201	323.06
305.431	318.06
305.661	315.06
305.891	307.06
306.121	321.06
306.352	328.06
306.582	332.06
306.812	306.06
307.042	314.06
307.272	331.06
307.502	318.06
307.731	314.06
307.961	323.06
308.191	323.06
308.421	312.06
308.651	317.06
308.881	321.06
309.111	331.06
309.341	346.06
309.571	346.06
309.8	343.06
310.03	341.06
310.26	339.06
310.49	366.06
310.72	361.06
310.949	365.06
311.179	376.06
311.409	358.06
311.639	342.06
311.868	345.06
312.098	348.06
312.328	368.06
312.557	373.06
312.787	366.06
313.017	363.06
313.246	383.06
313.476	366.06
313.706	351.06
313.935	342.06
314.165	377.06
314.394	367.06
314.624	380.06
314.853	361.06
315.083	357.06
315.312	360.06
315.542	366.06
315.771	364.06
316.001	353.06
316.23	355.06
316.46	370.06
316.689	349.06
316.919	383.06
317.148	389.06
317.377	378.06
317.607	372.06
317.836	380.06
318.065	356.06
318.295	378.06
318.524	350.06
318.753	365.06
318.983	366.06
319.212	355.06
319.441	382.06
319.67	378.06
319.9	364.06
320.129	347.06
320.358	363.06
320.587	353.06
320.816	376.06
321.046	374.06
321.275	376.06
321.504	372.06
321.733	394.06
321.962	390.06
322.191	412.06
322.42	387.06
322.649	417.06
322.878	419.06
323.108	430.06
323.337	424.06
323.566	473.06
323.795	466.06
324.024	496.06
324.253	598.06
324.482	847.06
324.71	1336.06
324.939	2052.06
325.168	1725.06
325.397	861.06
325.626	595.06
325.855	508.06
326.084	468.06
326.313	461.06
326.542	461.06
326.77	502.06
326.999	585.06
327.228	792.06
327.457	1217.06
327.686	1499.06
327.914	965.06
328.143	647.06
328.372	568.06
328.6	543.06
328.829	517.06
329.058	546.06
329.287	509.06
329.515	494.06
329.744	478.06
329.972	454.06
330.201	493.06
330.43	492.06
330.658	520.06
330.887	545.06
331.115	536.06
331.344	505.06
331.572	474.06
331.801	462.06
332.03	478.06
332.258	444.06
332.486	441.06
332.715	438.06
332.943	457.06
333.172	444.06
333.4	464.06
333.629	433.06
333.857	464.06
334.085	444.06
334.314	473.06
334.542	512.06
334.771	486.06
334.999	454.06
335.227	477.06
335.455	439.06
335.684	445.06
335.912	455.06
336.14	454.06
336.369	430.06
336.597	452.06
336.825	451.06
337.053	436.06
337.281	444.06
337.51	435.06
337.738	434.06
337.966	450.06
338.194	430.06
338.422	449.06
338.65	398.06
338.878	411.06
339.106	417.06
339.334	426.06
339.562	420.06
339.79	419.06
340.018	432.06
340.246	416.06
340.474	398.06
340.702	440.06
340.93	415.06
341.158	438.06
341.386	417.06
341.614	415.06
341.842	413.06
342.07	408.06
342.298	429.06
342.526	418.06
342.754	423.06
342.981	422.06
343.209	390.06
343.437	421.06
343.665	425.06
343.893	432.06
344.12	424.06
344.348	430.06
344.576	424.06
344.804	408.06
345.031	434.06
345.259	432.06
345.487	418.06
345.714	408.06
345.942	398.06
346.17	406.06
346.397	403.06
346.625	401.06
346.853	408.06
347.08	410.06
347.308	415.06
347.535	425.06
347.763	407.06
347.99	421.06
348.218	412.06
348.445	418.06
348.673	403.06
348.9	402.06
349.128	392.06
349.355	392.06
349.583	408.06
349.81	393.06
350.037	383.06
350.265	397.06
350.492	394.06
350.72	394.06
350.947	413.06
351.174	418.06
351.402	419.06
351.629	406.06
351.856	399.06
352.083	406.06
352.311	423.06
352.538	412.06
352.765	418.06
352.992	420.06
353.22	421.06
353.447	410.06
353.674	414.06
353.901	393.06
354.128	394.06
354.355	393.06
354.583	398.06
354.81	403.06
355.037	409.06
355.264	379.06
355.491	384.06
355.718	381.06
355.945	388.06
356.172	395.06
356.399	361.06
356.626	397.06
356.853	396.06
357.08	382.06
357.307	397.06
357.534	400.06
357.761	392.06
357.988	385.06
358.215	386.06
358.441	392.06
358.668	372.06
358.895	402.06
359.122	403.06
359.349	413.06
359.576	414.06
359.802	442.06
360.029	424.06
360.256	454.06
360.483	442.06
360.709	411.06
360.936	383.06
361.163	399.06
361.39	429.06
361.616	409.06
361.843	403.06
362.07	398.06
362.296	414.06
362.523	400.06
362.749	406.06
362.976	395.06
363.203	395.06
363.429	396.06
363.656	416.06
363.882	424.06
364.109	399.06
364.335	410.06
364.562	409.06
364.788	409.06
365.015	424.06
365.241	403.06
365.468	410.06
365.694	414.06
365.92	405.06
366.147	410.06
366.373	400.06
366.599	390.06
366.826	419.06
367.052	401.06
367.278	387.06
367.505	389.06
367.731	412.06
367.957	400.06
368.184	408.06
368.41	404.06
368.636	422.06
368.862	418.06
369.089	405.06
369.315	411.06
369.541	412.06
369.767	394.06
369.993	378.06
370.219	402.06
370.445	405.06
370.672	399.06
370.898	421.06
371.124	415.06
371.35	399.06
371.576	406.06
371.802	414.06
372.028	417.06
372.254	398.06
372.48	408.06
372.706	401.06
372.932	414.06
373.158	411.06
373.384	395.06
373.61	411.06
373.835	405.06
374.061	411.06
374.287	410.06
374.513	415.06
374.739	420.06
374.965	410.06
375.191	425.06
375.416	418.06
375.642	409.06
375.868	411.06
376.094	414.06
376.319	409.06
376.545	423.06
376.771	404.06
376.997	402.06
377.222	395.06
377.448	425.06
377.674	415.06
377.899	395.06
378.125	409.06
378.35	400.06
378.576	400.06
378.802	397.06
379.027	403.06
379.253	386.06
379.478	404.06
379.704	414.06
379.929	407.06
380.155	423.06
380.38	409.06
380.606	423.06
380.831	397.06
381.057	425.06
381.282	415.06
381.507	405.06
381.733	422.06
381.958	423.06
382.184	425.06
382.409	424.06
382.634	415.06
382.86	401.06
383.085	414.06
383.31	416.06
383.535	414.06
383.761	396.06
383.986	422.06
384.211	454.06
384.436	450.06
384.662	455.06
384.887	443.06
385.112	423.06
385.337	446.06
385.562	453.06
385.787	451.06
386.013	470.06
386.238	440.06
386.463	463.06
386.688	472.06
386.913	457.06
387.138	452.06
387.363	451.06
387.588	458.06
387.813	459.06
388.038	467.06
388.263	456.06
388.488	492.06
388.713	465.06
388.938	485.06
389.163	452.06
389.387	475.06
389.612	449.06
389.837	452.06
390.062	463.06
390.287	461.06
390.512	456.06
390.736	469.06
390.961	452.06
391.186	480.06
391.411	483.06
391.636	454.06
391.86	478.06
392.085	498.06
392.31	514.06
392.534	479.06
392.759	491.06
392.984	472.06
393.208	477.06
393.433	471.06
393.658	458.06
393.882	474.06
394.107	457.06
394.331	483.06
394.556	484.06
394.78	460.06
395.005	470.06
395.229	460.06
395.454	502.06
395.678	478.06
395.903	502.06
396.127	502.06
396.352	526.06
396.576	507.06
396.801	485.06
397.025	483.06
397.249	475.06
397.474	497.06
397.698	507.06
397.922	520.06
398.147	523.06
398.371	534.06
398.595	525.06
398.82	551.06
399.044	527.06
399.268	555.06
399.492	589.06
399.717	631.06
399.941	636.06
400.165	658.06
400.389	653.06
400.613	617.06
400.837	571.06
401.062	599.06
401.286	551.06
401.51	529.06
401.734	543.06
401.958	564.06
402.182	554.06
402.406	531.06
402.63	563.06
402.854	553.06
403.078	527.06
403.302	538.06
403.526	548.06
403.75	544.06
403.974	553.06
404.198	563.06
404.422	565.06
404.645	555.06
404.869	550.06
405.093	593.06
405.317	615.06
405.541	658.06
405.765	624.06
405.988	582.06
406.212	583.06
406.436	592.06
406.66	604.06
406.883	581.06
407.107	604.06
407.331	665.06
407.555	709.06
407.778	724.06
408.002	678.06
408.226	625.06
408.449	629.06
408.673	619.06
408.896	632.06
409.12	670.06
409.344	632.06
409.567	602.06
409.791	566.06
410.014	594.06
410.238	580.06
410.461	574.06
410.685	579.06
410.908	584.06
411.132	639.06
411.355	643.06
411.578	605.06
411.802	562.06
412.025	556.06
412.249	553.06
412.472	588.06
412.695	630.06
412.919	609.06
413.142	556.06
413.365	522.06
413.589	535.06
413.812	528.06
414.035	535.06
414.258	520.06
414.482	546.06
414.705	540.06
414.928	524.06
415.151	523.06
415.374	529.06
415.597	540.06
415.821	514.06
416.044	519.06
416.267	535.06
416.49	531.06
416.713	550.06
416.936	528.06
417.159	515.06
417.382	519.06
417.605	532.06
417.828	537.06
418.051	528.06
418.274	533.06
418.497	534.06
418.72	513.06
418.943	524.06
419.166	564.06
419.389	576.06
419.611	568.06
419.834	566.06
420.057	561.06
420.28	538.06
420.503	526.06
420.726	522.06
420.948	535.06
421.171	581.06
421.394	631.06
421.617	560.06
421.839	528.06
422.062	538.06
422.285	564.06
422.507	598.06
422.73	692.06
422.953	649.06
423.175	560.06
423.398	570.06
423.621	552.06
423.843	572.06
424.066	596.06
424.288	576.06
424.511	575.06
424.733	638.06
424.956	728.06
425.178	696.06
425.401	710.06
425.623	700.06
425.846	634.06
426.068	601.06
426.291	581.06
426.513	579.06
426.735	587.06
426.958	615.06
427.18	704.06
427.402	815.06
427.625	908.06
427.847	794.06
428.069	699.06
428.292	621.06
428.514	552.06
428.736	564.06
428.958	543.06
429.181	552.06
429.403	526.06
429.625	552.06
429.847	571.06
430.069	606.06
430.292	626.06
430.514	549.06
430.736	537.06
430.958	534.06
431.18	513.06
431.402	524.06
431.624	514.06
431.846	504.06
432.068	500.06
432.29	519.06
432.512	518.06
432.734	521.06
432.956	531.06
433.178	514.06
433.4	522.06
433.622	525.06
433.844	522.06
434.066	499.06
434.287	520.06
434.509	531.06
434.731	532.06
434.953	543.06
435.175	535.06
435.397	572.06
435.618	570.06
435.84	605.06
436.062	698.06
436.284	808.06
436.505	657.06
436.727	598.06
436.949	557.06
437.17	551.06
437.392	543.06
437.614	550.06
437.835	568.06
438.057	634.06
438.278	753.06
438.5	748.06
438.721	844.06
438.943	836.06
439.165	635.06
439.386	586.06
439.608	573.06
439.829	590.06
440.05	597.06
440.272	637.06
440.493	606.06
440.715	563.06
440.936	565.06
441.158	531.06
441.379	562.06
441.6	569.06
441.822	564.06
442.043	623.06
442.264	703.06
442.486	759.06
442.707	640.06
442.928	593.06
443.149	598.06
443.371	587.06
443.592	632.06
443.813	748.06
444.034	812.06
444.255	653.06
444.476	600.06
444.698	607.06
444.919	574.06
445.14	682.06
445.361	632.06
445.582	637.06
445.803	683.06
446.024	794.06
446.245	820.06
446.466	726.06
446.687	615.06
446.908	565.06
447.129	544.06
447.35	542.06
447.571	543.06
447.792	529.06
448.013	527.06
448.234	528.06
448.455	582.06
448.675	699.06
448.896	821.06
449.117	680.06
449.338	672.06
449.559	767.06
449.779	856.06
450	696.06
450.221	572.06
450.442	540.06
450.662	517.06
450.883	512.06
451.104	530.06
451.324	509.06
451.545	512.06
451.766	493.06
451.986	495.06
452.207	519.06
452.428	475.06
452.648	492.06
452.869	496.06
453.089	491.06
453.31	524.06
453.53	480.06
453.751	495.06
453.971	479.06
454.192	495.06
454.412	507.06
454.633	494.06
454.853	467.06
455.073	498.06
455.294	508.06
455.514	557.06
455.734	564.06
455.955	462.06
456.175	451.06
456.395	461.06
456.616	459.06
456.836	453.06
457.056	450.06
457.276	461.06
457.497	464.06
457.717	446.06
457.937	452.06
458.157	476.06
458.377	470.06
458.598	513.06
458.818	556.06
459.038	611.06
459.258	641.06
459.478	579.06
459.698	511.06
459.918	523.06
460.138	503.06
460.358	548.06
460.578	532.06
460.798	533.06
461.018	525.06
461.238	540.06
461.458	540.06
461.678	526.06
461.898	550.06
462.118	555.06
462.338	574.06
462.558	557.06
462.777	551.06
462.997	596.06
463.217	591.06
463.437	632.06
463.657	571.06
463.876	580.06
464.096	595.06
464.316	565.06
464.536	572.06
464.755	579.06
464.975	560.06
465.195	594.06
465.414	634.06
465.634	587.06
465.854	562.06
466.073	537.06
466.293	526.06
466.512	520.06
466.732	495.06
466.951	496.06
467.171	491.06
467.391	497.06
467.61	502.06
467.829	507.06
468.049	499.06
468.268	518.06
468.488	480.06
468.707	481.06
468.927	492.06
469.146	518.06
469.365	499.06
469.585	492.06
469.804	526.06
470.023	511.06
470.243	502.06
470.462	510.06
470.681	542.06
470.901	496.06
471.12	500.06
471.339	515.06
471.558	485.06
471.777	482.06
471.997	488.06
472.216	542.06
472.435	536.06
472.654	519.06
472.873	478.06
473.092	496.06
473.311	497.06
473.53	498.06
473.749	508.06
473.968	569.06
474.187	646.06
474.406	638.06
474.625	562.06
474.844	534.06
475.063	524.06
475.282	526.06
475.501	511.06
475.72	496.06
475.939	522.06
476.158	526.06
476.377	522.06
476.596	517.06
476.814	535.06
477.033	511.06
477.252	577.06
477.471	526.06
477.69	550.06
477.908	546.06
478.127	569.06
478.346	568.06
478.564	592.06
478.783	597.06
479.002	588.06
479.22	573.06
479.439	604.06
479.658	634.06
479.876	597.06
480.095	622.06
480.313	634.06
480.532	623.06
480.751	610.06
480.969	634.06
481.188	663.06
481.406	689.06
481.624	651.06
481.843	626.06
482.061	620.06
482.28	590.06
482.498	593.06
482.717	602.06
482.935	586.06
483.153	606.06
483.372	605.06
483.59	588.06
483.808	587.06
484.027	604.06
484.245	595.06
484.463	613.06
484.681	612.06
484.9	592.06
485.118	620.06
485.336	612.06
485.554	610.06
485.772	607.06
485.99	606.06
486.209	631.06
486.427	636.06
486.645	628.06
486.863	654.06
487.081	647.06
487.299	645.06
487.517	640.06
487.735	618.06
487.953	612.06
488.171	607.06
488.389	634.06
488.607	646.06
488.825	608.06
489.043	638.06
489.261	667.06
489.479	638.06
489.696	666.06
489.914	621.06
490.132	652.06
490.35	670.06
490.568	635.06
490.786	660.06
491.003	664.06
491.221	670.06
491.439	676.06
491.657	694.06
491.874	696.06
492.092	703.06
492.31	702.06
492.527	699.06
492.745	700.06
492.963	708.06
493.18	733.06
493.398	680.06
493.615	719.06
493.833	728.06
494.05	742.06
494.268	694.06
494.485	718.06
494.703	767.06
494.92	746.06
495.138	742.06
495.355	722.06
495.573	750.06
495.79	724.06
496.008	726.06
496.225	731.06
496.442	732.06
496.66	736.06
496.877	725.06
497.094	761.06
497.312	779.06
497.529	756.06
497.746	771.06
497.963	784.06
498.181	826.06
498.398	842.06
498.615	846.06
498.832	843.06
499.049	895.06
499.267	893.06
499.484	935.06
499.701	967.06
499.918	995.06
500.135	1027.06
500.352	1079.06
500.569	1120.06
500.786	1114.06
501.003	1103.06
501.22	1066.06
501.437	1007.06
501.654	1011.06
501.871	952.06
502.088	956.06
502.305	917.06
502.522	872.06
502.739	840.06
502.956	823.06
503.172	812.06
503.389	798.06
503.606	801.06
503.823	799.06
504.04	760.06
504.256	775.06
504.473	774.06
504.69	755.06
504.907	758.06
505.123	727.06
505.34	738.06
505.557	719.06
505.773	720.06
505.99	718.06
506.207	726.06
506.423	716.06
506.64	706.06
506.856	704.06
507.073	690.06
507.289	678.06
507.506	702.06
507.722	687.06
507.939	704.06
508.155	699.06
508.372	666.06
508.588	665.06
508.805	675.06
509.021	669.06
509.238	664.06
509.454	656.06
509.67	664.06
509.887	655.06
510.103	666.06
510.319	659.06
510.536	714.06
510.752	1148.06
510.968	938.06
511.184	656.06
511.401	644.06
511.617	654.06
511.833	632.06
512.049	630.06
512.265	639.06
512.481	629.06
512.698	654.06
512.914	633.06
513.13	642.06
513.346	613.06
513.562	615.06
513.778	622.06
513.994	634.06
514.21	648.06
514.426	676.06
514.642	699.06
514.858	725.06
515.074	740.06
515.29	846.06
515.506	1144.06
515.721	971.06
515.937	730.06
516.153	693.06
516.369	673.06
516.585	669.06
516.801	656.06
517.016	687.06
517.232	694.06
517.448	689.06
517.664	676.06
517.879	678.06
518.095	668.06
518.311	679.06
518.527	663.06
518.742	650.06
518.958	658.06
519.173	662.06
519.389	664.06
519.605	653.06
519.82	653.06
520.036	630.06
520.251	642.06
520.467	681.06
520.682	665.06
520.898	665.06
521.113	670.06
521.329	710.06
521.544	768.06
521.76	920.06
521.975	1384.06
522.19	1381.06
522.406	855.06
522.621	668.06
522.836	634.06
523.052	634.06
523.267	616.06
523.482	578.06
523.698	587.06
523.913	611.06
524.128	570.06
524.343	591.06
524.559	581.06
524.774	572.06
524.989	574.06
525.204	562.06
525.419	575.06
525.634	545.06
525.849	552.06
526.064	542.06
526.28	556.06
526.495	520.06
526.71	544.06
526.925	537.06
527.14	548.06
527.355	537.06
527.57	525.06
527.785	529.06
527.999	537.06
528.214	568.06
528.429	530.06
528.644	536.06
528.859	522.06
529.074	540.06
529.289	558.06
529.503	590.06
529.718	575.06
529.933	538.06
530.148	538.06
530.363	528.06
530.577	522.06
530.792	531.06
531.007	532.06
531.221	533.06
531.436	512.06
531.651	511.06
531.865	520.06
532.08	519.06
532.295	519.06
532.509	510.06
532.724	519.06
532.938	522.06
533.153	522.06
533.367	494.06
533.582	519.06
533.796	518.06
534.011	517.06
534.225	510.06
534.44	504.06
534.654	507.06
534.868	515.06
535.083	508.06
535.297	501.06
535.511	532.06
535.726	513.06
535.94	520.06
536.154	519.06
536.369	487.06
536.583	501.06
536.797	499.06
537.011	483.06
537.225	485.06
537.44	498.06
537.654	481.06
537.868	486.06
538.082	486.06
538.296	501.06
538.51	482.06
538.724	518.06
538.938	500.06
539.153	484.06
539.367	512.06
539.581	521.06
539.795	502.06
540.009	494.06
540.222	482.06
540.436	481.06
540.65	484.06
540.864	507.06
541.078	506.06
541.292	509.06
541.506	492.06
541.72	488.06
541.934	478.06
542.147	502.06
542.361	486.06
542.575	465.06
542.789	470.06
543.002	468.06
543.216	500.06
543.43	498.06
543.644	485.06
543.857	491.06
544.071	487.06
544.285	491.06
544.498	491.06
544.712	490.06
544.925	489.06
545.139	472.06
545.352	470.06
545.566	491.06
545.779	483.06
545.993	479.06
546.206	484.06
546.42	485.06
546.633	497.06
546.847	469.06
547.06	455.06
547.274	467.06
547.487	473.06
547.7	463.06
547.914	462.06
548.127	468.06
548.34	478.06
548.554	468.06
548.767	482.06
548.98	479.06
549.193	457.06
549.407	488.06
549.62	468.06
549.833	463.06
550.046	470.06
550.259	469.06
550.473	459.06
550.686	468.06
550.899	477.06
551.112	472.06
551.325	459.06
551.538	478.06
551.751	478.06
551.964	477.06
552.177	493.06
552.39	470.06
552.603	464.06
552.816	483.06
553.029	487.06
553.242	483.06
553.455	471.06
553.667	487.06
553.88	488.06
554.093	510.06
554.306	484.06
554.519	475.06
554.732	470.06
554.944	447.06
555.157	440.06
555.37	447.06
555.583	450.06
555.795	451.06
556.008	447.06
556.221	443.06
556.433	452.06
556.646	451.06
556.859	443.06
557.071	454.06
557.284	446.06
557.496	428.06
557.709	456.06
557.921	444.06
558.134	433.06
558.346	443.06
558.559	428.06
558.771	411.06
558.984	414.06
559.196	434.06
559.409	430.06
559.621	420.06
559.833	428.06
560.046	414.06
560.258	420.06
560.47	436.06
560.683	441.06
560.895	434.06
561.107	415.06
561.32	418.06
561.532	425.06
561.744	438.06
561.956	427.06
562.168	422.06
562.381	424.06
562.593	424.06
562.805	435.06
563.017	442.06
563.229	434.06
563.441	428.06
563.653	428.06
563.865	449.06
564.077	448.06
564.289	439.06
564.501	434.06
564.713	448.06
564.925	451.06
565.137	458.06
565.349	490.06
565.561	477.06
565.773	474.06
565.985	498.06
566.197	503.06
566.408	500.06
566.62	521.06
566.832	512.06
567.044	522.06
567.255	553.06
567.467	547.06
567.679	533.06
567.891	550.06
568.102	544.06
568.314	546.06
568.526	525.06
568.737	482.06
568.949	491.06
569.161	484.06
569.372	459.06
569.584	454.06
569.795	449.06
570.007	466.06
570.218	470.06
570.43	463.06
570.641	422.06
570.853	410.06
571.064	429.06
571.276	429.06
571.487	425.06
571.698	418.06
571.91	396.06
572.121	394.06
572.333	383.06
572.544	391.06
572.755	412.06
572.966	386.06
573.178	374.06
573.389	396.06
573.6	395.06
573.811	385.06
574.023	385.06
574.234	371.06
574.445	365.06
574.656	360.06
574.867	358.06
575.078	374.06
575.289	394.06
575.501	352.06
575.712	354.06
575.923	380.06
576.134	370.06
576.345	374.06
576.556	370.06
576.767	358.06
576.978	345.06
577.188	363.06
577.399	362.06
577.61	377.06
577.821	347.06
578.032	362.06
578.243	365.06
578.454	547.06
578.665	429.06
578.875	341.06
579.086	372.06
579.297	351.06
579.508	371.06
579.718	357.06
579.929	336.06
580.14	341.06
580.35	346.06
580.561	328.06
580.772	328.06
580.982	333.06
581.193	342.06
581.403	313.06
581.614	331.06
581.825	335.06
582.035	332.06
582.246	350.06
582.456	337.06
582.667	338.06
582.877	322.06
583.087	334.06
583.298	350.06
583.508	347.06
583.719	344.06
583.929	332.06
584.139	322.06
584.35	310.06
584.56	348.06
584.77	350.06
584.981	336.06
585.191	323.06
585.401	331.06
585.611	322.06
585.821	352.06
586.032	322.06
586.242	322.06
586.452	346.06
586.662	329.06
586.872	327.06
587.082	327.06
587.292	333.06
587.502	320.06
587.713	322.06
587.923	335.06
588.133	320.06
588.343	328.06
588.553	323.06
588.762	326.06
588.972	338.06
589.182	322.06
589.392	327.06
589.602	336.06
589.812	333.06
590.022	337.06
590.232	312.06
590.441	317.06
590.651	327.06
590.861	324.06
591.071	318.06
591.281	328.06
591.49	323.06
591.7	324.06
591.91	327.06
592.119	314.06
592.329	325.06
592.539	339.06
592.748	349.06
592.958	334.06
593.167	339.06
593.377	328.06
593.587	345.06
593.796	344.06
594.006	353.06
594.215	347.06
594.424	324.06
594.634	324.06
594.843	346.06
595.053	327.06
595.262	323.06
595.472	319.06
595.681	311.06
595.89	326.06
596.1	321.06
596.309	328.06
596.518	311.06
596.727	317.06
596.937	308.06
597.146	308.06
597.355	314.06
597.564	299.06
597.774	321.06
597.983	318.06
598.192	325.06
598.401	304.06
598.61	296.06
598.819	292.06
599.028	283.06
599.237	286.06
599.446	294.06
599.655	297.06
599.864	271.06
600.073	286.06
600.282	285.06
600.491	301.06
600.7	272.06
600.909	275.06
601.118	271.06
601.327	279.06
601.536	294.06
601.745	274.06
601.953	276.06
602.162	273.06
602.371	288.06
602.58	278.06
602.789	271.06
602.997	258.06
603.206	268.06
603.415	292.06
603.623	274.06
603.832	291.06
604.041	298.06
604.249	271.06
604.458	277.06
604.666	275.06
604.875	280.06
605.084	253.06
605.292	287.06
605.501	271.06
605.709	270.06
605.918	256.06
606.126	282.06
606.334	275.06
606.543	271.06
606.751	272.06
606.96	274.06
607.168	260.06
607.376	279.06
607.585	259.06
607.793	256.06
608.001	267.06
608.21	244.06
608.418	262.06
608.626	262.06
608.834	258.06
609.043	245.06
609.251	283.06
609.459	267.06
609.667	252.06
609.875	256.06
610.083	270.06
610.291	258.06
610.499	267.06
610.707	263.06
610.916	262.06
611.124	274.06
611.332	276.06
611.54	250.06
611.748	272.06
611.955	274.06
612.163	265.06
612.371	267.06
612.579	268.06
612.787	250.06
612.995	246.06
613.203	248.06
613.411	258.06
613.618	258.06
613.826	248.06
614.034	254.06
614.242	258.06
614.449	247.06
614.657	245.06
614.865	273.06
615.072	249.06
615.28	250.06
615.488	255.06
615.695	250.06
615.903	269.06
616.111	245.06
616.318	264.06
616.526	246.06
616.733	228.06
616.941	276.06
617.148	254.06
617.356	260.06
617.563	256.06
617.771	262.06
617.978	245.06
618.185	258.06
618.393	246.06
618.6	243.06
618.807	251.06
619.015	233.06
619.222	245.06
619.429	246.06
619.637	261.06
619.844	248.06
620.051	252.06
620.258	243.06
620.466	242.06
620.673	230.06
620.88	230.06
621.087	243.06
621.294	248.06
621.501	227.06
621.708	237.06
621.915	262.06
622.122	236.06
622.329	232.06
622.536	264.06
622.743	261.06
622.95	245.06
623.157	231.06
623.364	222.06
623.571	238.06
623.778	234.06
623.985	240.06
624.192	226.06
624.399	227.06
624.606	240.06
624.812	244.06
625.019	226.06
625.226	208.06
625.433	239.06
625.639	232.06
625.846	240.06
626.053	228.06
626.259	227.06
626.466	235.06
626.673	212.06
626.879	223.06
627.086	232.06
627.293	220.06
627.499	214.06
627.706	227.06
627.912	211.06
628.119	221.06
628.325	216.06
628.532	221.06
628.738	213.06
628.945	221.06
629.151	210.06
629.357	230.06
629.564	212.06
629.77	202.06
629.976	218.06
630.183	216.06
630.389	219.06
630.595	208.06
630.802	184.06
631.008	193.06
631.214	203.06
631.42	224.06
631.627	198.06
631.833	204.06
632.039	200.06
632.245	198.06
632.451	208.06
632.657	205.06
632.863	197.06
633.069	203.06
633.275	203.06
633.481	194.06
633.688	205.06
633.893	197.06
634.099	187.06
634.305	191.06
634.511	198.06
634.717	194.06
634.923	199.06
635.129	182.06
635.335	181.06
635.541	206.06
635.747	182.06
635.952	196.06
636.158	197.06
636.364	188.06
636.57	210.06
636.775	220.06
636.981	208.06
637.187	178.06
637.392	195.06
637.598	196.06
637.804	205.06
638.009	187.06
638.215	206.06
638.421	182.06
638.626	189.06
638.832	171.06
639.037	193.06
639.243	188.06
639.448	203.06
639.654	214.06
639.859	184.06
640.065	174.06
640.27	194.06
640.475	185.06
640.681	194.06
640.886	187.06
641.091	184.06
641.297	180.06
641.502	182.06
641.707	175.06
641.913	182.06
642.118	204.06
642.323	183.06
642.528	194.06
642.733	179.06
642.939	176.06
643.144	180.06
643.349	174.06
643.554	172.06
643.759	176.06
643.964	175.06
644.169	186.06
644.374	192.06
644.579	163.06
644.784	194.06
644.989	204.06
645.194	197.06
645.399	172.06
645.604	184.06
645.809	188.06
646.014	168.06
646.219	178.06
646.423	165.06
646.628	174.06
646.833	174.06
647.038	170.06
647.243	187.06
647.447	173.06
647.652	182.06
647.857	158.06
648.062	190.06
648.266	178.06
648.471	182.06
648.676	185.06
648.88	174.06
649.085	193.06
649.289	202.06
649.494	201.06
649.698	194.06
649.903	197.06
650.107	170.06
650.312	170.06
650.516	158.06
650.721	173.06
650.925	167.06
651.13	171.06
651.334	159.06
651.539	147.06
651.743	156.06
651.947	159.06
652.152	146.06
652.356	162.06
652.56	156.06
652.764	158.06
652.969	160.06
653.173	159.06
653.377	143.06
653.581	137.06
653.785	144.06
653.99	139.06
654.194	152.06
654.398	148.06
654.602	138.06
654.806	138.06
655.01	141.06
655.214	151.06
655.418	142.06
655.622	139.06
655.826	116.06
656.03	130.06
656.234	135.06
656.438	144.06
656.642	142.06
656.846	144.06
657.049	128.06
657.253	133.06
657.457	139.06
657.661	124.06
657.865	118.06
658.068	115.06
658.272	128.06
658.476	121.06
658.68	94.06
658.883	104.06
659.087	122.06
659.291	112.06
659.494	110.06
659.698	102.06
659.901	90.06
660.105	93.06
660.309	97.06
660.512	93.06
660.716	103.06
660.919	95.06
661.123	91.06
661.326	103.06
661.53	94.06
661.733	93.06
661.936	89.06
662.14	81.06
662.343	90.06
662.546	85.06
662.75	83.06
662.953	86.06
663.156	84.06
663.36	88.06
663.563	92.06
663.766	84.06
663.969	83.06
664.173	98.06
664.376	94.06
664.579	94.06
664.782	90.06
664.985	95.06
665.188	80.06
665.391	74.06
665.594	85.06
665.797	91.06
666	74.06
666.203	76.06
666.406	80.06
666.609	80.06
666.812	80.06
667.015	84.06
667.218	94.06
667.421	79.06
667.624	77.06
667.827	84.06
668.03	84.06
668.232	77.06
668.435	96.06
668.638	82.06
668.841	79.06
669.043	78.06
669.246	94.06
669.449	81.06
669.651	81.06
669.854	83.06
670.057	93.06
670.259	90.06
670.462	95.06
670.665	109.06
670.867	97.06
671.07	75.06
671.272	86.06
671.475	73.06
671.677	80.06
671.88	80.06
672.082	83.06
672.284	76.06
672.487	106.06
672.689	78.06
672.892	94.06
