Data from 1978.PennyLincolnUp.Lamp.En5.5.200Scan.071719.P1_HRD10591_16-13-31-864.txt Node
Date: Thu Jul 18 16:13:31 EDT 2019
User: cochatt
Spectrometer: HR+D1059
Trigger mode: 1
Integration Time (sec): 1.000000E-1
Scans to average: 1
Electric dark correction enabled: true
Nonlinearity correction enabled: false
Boxcar width: 0
XAxis mode: Wavelengths
Number of Pixels in Spectrum: 2048
>>>>>Begin Spectral Data<<<<<
223.165	-5.31
223.4	-5.31
223.635	-5.31
223.869	-27.31
224.104	-24.31
224.338	-17.31
224.573	-18.31
224.808	-11.31
225.042	-8.31
225.277	-1.31
225.511	2.69
225.746	-0.31
225.98	11.69
226.215	6.69
226.449	19.69
226.683	6.69
226.918	21.69
227.152	44.69
227.387	41.69
227.621	32.69
227.856	35.69
228.09	40.69
228.324	52.69
228.559	63.69
228.793	51.69
229.027	99.69
229.262	110.69
229.496	120.69
229.73	130.69
229.964	154.69
230.199	125.69
230.433	107.69
230.667	121.69
230.901	123.69
231.136	110.69
231.37	93.69
231.604	94.69
231.838	105.69
232.072	100.69
232.306	105.69
232.541	102.69
232.775	107.69
233.009	123.69
233.243	104.69
233.477	103.69
233.711	116.69
233.945	110.69
234.179	107.69
234.413	111.69
234.647	111.69
234.881	107.69
235.115	135.69
235.349	128.69
235.583	114.69
235.817	109.69
236.051	123.69
236.285	117.69
236.519	124.69
236.753	120.69
236.987	138.69
237.221	183.69
237.455	238.69
237.689	180.69
237.922	142.69
238.156	122.69
238.39	115.69
238.624	116.69
238.858	110.69
239.091	123.69
239.325	103.69
239.559	126.69
239.793	128.69
240.027	114.69
240.26	147.69
240.494	152.69
240.728	139.69
240.961	130.69
241.195	150.69
241.429	150.69
241.662	130.69
241.896	130.69
242.13	137.69
242.363	138.69
242.597	137.69
242.83	147.69
243.064	131.69
243.298	135.69
243.531	131.69
243.765	119.69
243.998	138.69
244.232	132.69
244.465	126.69
244.699	126.69
244.932	127.69
245.166	156.69
245.399	142.69
245.633	152.69
245.866	142.69
246.099	135.69
246.333	136.69
246.566	151.69
246.8	152.69
247.033	137.69
247.266	145.69
247.5	151.69
247.733	148.69
247.966	154.69
248.2	174.69
248.433	162.69
248.666	164.69
248.899	166.69
249.133	174.69
249.366	191.69
249.599	180.69
249.832	163.69
250.066	166.69
250.299	165.69
250.532	168.69
250.765	182.69
250.998	196.69
251.231	212.69
251.465	179.69
251.698	198.69
251.931	194.69
252.164	159.69
252.397	184.69
252.63	169.69
252.863	190.69
253.096	210.69
253.329	211.69
253.562	201.69
253.795	197.69
254.028	211.69
254.261	206.69
254.494	218.69
254.727	227.69
254.96	252.69
255.193	269.69
255.426	234.69
255.659	222.69
255.892	214.69
256.124	207.69
256.357	211.69
256.59	210.69
256.823	201.69
257.056	204.69
257.289	189.69
257.521	190.69
257.754	208.69
257.987	197.69
258.22	196.69
258.452	201.69
258.685	194.69
258.918	193.69
259.151	196.69
259.383	211.69
259.616	214.69
259.849	199.69
260.081	228.69
260.314	219.69
260.547	260.69
260.779	244.69
261.012	222.69
261.244	208.69
261.477	193.69
261.71	212.69
261.942	219.69
262.175	226.69
262.407	228.69
262.64	206.69
262.872	197.69
263.105	203.69
263.337	208.69
263.57	211.69
263.802	226.69
264.035	218.69
264.267	198.69
264.499	205.69
264.732	204.69
264.964	208.69
265.197	211.69
265.429	219.69
265.661	209.69
265.894	195.69
266.126	205.69
266.358	210.69
266.591	209.69
266.823	220.69
267.055	214.69
267.287	235.69
267.52	243.69
267.752	208.69
267.984	218.69
268.216	218.69
268.448	247.69
268.681	233.69
268.913	245.69
269.145	243.69
269.377	254.69
269.609	263.69
269.841	246.69
270.073	267.69
270.306	289.69
270.538	286.69
270.77	309.69
271.002	280.69
271.234	268.69
271.466	268.69
271.698	274.69
271.93	283.69
272.162	301.69
272.394	313.69
272.626	295.69
272.858	276.69
273.09	254.69
273.322	258.69
273.553	230.69
273.785	264.69
274.017	240.69
274.249	263.69
274.481	249.69
274.713	252.69
274.945	268.69
275.176	267.69
275.408	247.69
275.64	256.69
275.872	255.69
276.104	246.69
276.335	234.69
276.567	256.69
276.799	270.69
277.031	305.69
277.262	306.69
277.494	318.69
277.726	282.69
277.957	263.69
278.189	276.69
278.421	260.69
278.652	271.69
278.884	258.69
279.115	258.69
279.347	256.69
279.579	261.69
279.81	239.69
280.042	248.69
280.273	266.69
280.505	252.69
280.736	266.69
280.968	266.69
281.199	265.69
281.431	252.69
281.662	266.69
281.894	268.69
282.125	273.69
282.356	283.69
282.588	315.69
282.819	291.69
283.051	294.69
283.282	257.69
283.513	280.69
283.745	274.69
283.976	259.69
284.207	265.69
284.439	261.69
284.67	273.69
284.901	271.69
285.132	279.69
285.364	261.69
285.595	272.69
285.826	279.69
286.057	272.69
286.288	258.69
286.52	273.69
286.751	271.69
286.982	271.69
287.213	287.69
287.444	268.69
287.675	290.69
287.906	290.69
288.138	314.69
288.369	288.69
288.6	290.69
288.831	276.69
289.062	295.69
289.293	293.69
289.524	282.69
289.755	278.69
289.986	289.69
290.217	291.69
290.448	269.69
290.679	275.69
290.91	290.69
291.141	287.69
291.371	298.69
291.602	282.69
291.833	278.69
292.064	289.69
292.295	274.69
292.526	292.69
292.757	288.69
292.987	283.69
293.218	290.69
293.449	291.69
293.68	295.69
293.91	274.69
294.141	280.69
294.372	281.69
294.603	288.69
294.833	308.69
295.064	279.69
295.295	298.69
295.525	295.69
295.756	293.69
295.987	300.69
296.217	315.69
296.448	342.69
296.679	318.69
296.909	322.69
297.14	293.69
297.37	315.69
297.601	296.69
297.831	313.69
298.062	304.69
298.292	308.69
298.523	296.69
298.753	299.69
298.984	296.69
299.214	312.69
299.445	312.69
299.675	310.69
299.905	314.69
300.136	308.69
300.366	294.69
300.597	316.69
300.827	314.69
301.057	325.69
301.288	326.69
301.518	335.69
301.748	329.69
301.979	322.69
302.209	331.69
302.439	318.69
302.669	315.69
302.9	324.69
303.13	334.69
303.36	324.69
303.59	333.69
303.82	321.69
304.051	324.69
304.281	338.69
304.511	326.69
304.741	316.69
304.971	326.69
305.201	330.69
305.431	329.69
305.661	327.69
305.891	330.69
306.121	335.69
306.352	338.69
306.582	338.69
306.812	317.69
307.042	347.69
307.272	336.69
307.502	331.69
307.731	335.69
307.961	325.69
308.191	325.69
308.421	344.69
308.651	334.69
308.881	345.69
309.111	327.69
309.341	348.69
309.571	360.69
309.8	379.69
310.03	356.69
310.26	362.69
310.49	366.69
310.72	379.69
310.949	404.69
311.179	396.69
311.409	388.69
311.639	361.69
311.868	378.69
312.098	374.69
312.328	369.69
312.557	394.69
312.787	420.69
313.017	390.69
313.246	395.69
313.476	384.69
313.706	366.69
313.935	389.69
314.165	379.69
314.394	398.69
314.624	399.69
314.853	379.69
315.083	370.69
315.312	374.69
315.542	391.69
315.771	377.69
316.001	346.69
316.23	368.69
316.46	366.69
316.689	371.69
316.919	382.69
317.148	381.69
317.377	405.69
317.607	387.69
317.836	375.69
318.065	373.69
318.295	375.69
318.524	359.69
318.753	362.69
318.983	379.69
319.212	380.69
319.441	390.69
319.67	385.69
319.9	382.69
320.129	393.69
320.358	391.69
320.587	391.69
320.816	389.69
321.046	392.69
321.275	413.69
321.504	404.69
321.733	416.69
321.962	425.69
322.191	422.69
322.42	440.69
322.649	438.69
322.878	468.69
323.108	474.69
323.337	499.69
323.566	504.69
323.795	534.69
324.024	585.69
324.253	673.69
324.482	967.69
324.71	1582.69
324.939	2365.69
325.168	2071.69
325.397	1001.69
325.626	683.69
325.855	565.69
326.084	496.69
326.313	484.69
326.542	514.69
326.77	551.69
326.999	660.69
327.228	920.69
327.457	1414.69
327.686	1759.69
327.914	1144.69
328.143	722.69
328.372	614.69
328.6	609.69
328.829	537.69
329.058	556.69
329.287	574.69
329.515	566.69
329.744	503.69
329.972	514.69
330.201	507.69
330.43	551.69
330.658	574.69
330.887	592.69
331.115	576.69
331.344	527.69
331.572	484.69
331.801	506.69
332.03	509.69
332.258	483.69
332.486	455.69
332.715	449.69
332.943	471.69
333.172	485.69
333.4	467.69
333.629	486.69
333.857	481.69
334.085	489.69
334.314	520.69
334.542	532.69
334.771	550.69
334.999	520.69
335.227	491.69
335.455	460.69
335.684	472.69
335.912	446.69
336.14	461.69
336.369	460.69
336.597	436.69
336.825	454.69
337.053	455.69
337.281	474.69
337.51	440.69
337.738	451.69
337.966	456.69
338.194	470.69
338.422	451.69
338.65	458.69
338.878	450.69
339.106	441.69
339.334	460.69
339.562	432.69
339.79	430.69
340.018	427.69
340.246	459.69
340.474	447.69
340.702	443.69
340.93	430.69
341.158	434.69
341.386	448.69
341.614	433.69
341.842	436.69
342.07	437.69
342.298	438.69
342.526	451.69
342.754	426.69
342.981	420.69
343.209	423.69
343.437	430.69
343.665	445.69
343.893	441.69
344.12	469.69
344.348	451.69
344.576	434.69
344.804	464.69
345.031	451.69
345.259	459.69
345.487	450.69
345.714	450.69
345.942	454.69
346.17	432.69
346.397	426.69
346.625	423.69
346.853	449.69
347.08	424.69
347.308	432.69
347.535	433.69
347.763	460.69
347.99	441.69
348.218	436.69
348.445	442.69
348.673	456.69
348.9	418.69
349.128	428.69
349.355	416.69
349.583	410.69
349.81	420.69
350.037	423.69
350.265	410.69
350.492	417.69
350.72	411.69
350.947	433.69
351.174	417.69
351.402	438.69
351.629	442.69
351.856	433.69
352.083	439.69
352.311	450.69
352.538	434.69
352.765	461.69
352.992	438.69
353.22	438.69
353.447	425.69
353.674	423.69
353.901	407.69
354.128	396.69
354.355	411.69
354.583	410.69
354.81	391.69
355.037	400.69
355.264	411.69
355.491	376.69
355.718	401.69
355.945	391.69
356.172	400.69
356.399	408.69
356.626	393.69
356.853	407.69
357.08	398.69
357.307	415.69
357.534	408.69
357.761	407.69
357.988	399.69
358.215	397.69
358.441	402.69
358.668	403.69
358.895	409.69
359.122	414.69
359.349	404.69
359.576	432.69
359.802	447.69
360.029	467.69
360.256	478.69
360.483	446.69
360.709	446.69
360.936	437.69
361.163	412.69
361.39	424.69
361.616	406.69
361.843	438.69
362.07	447.69
362.296	444.69
362.523	420.69
362.749	436.69
362.976	422.69
363.203	440.69
363.429	420.69
363.656	407.69
363.882	418.69
364.109	395.69
364.335	418.69
364.562	404.69
364.788	415.69
365.015	424.69
365.241	405.69
365.468	437.69
365.694	436.69
365.92	431.69
366.147	414.69
366.373	418.69
366.599	415.69
366.826	402.69
367.052	406.69
367.278	420.69
367.505	392.69
367.731	427.69
367.957	420.69
368.184	408.69
368.41	439.69
368.636	447.69
368.862	439.69
369.089	453.69
369.315	423.69
369.541	419.69
369.767	396.69
369.993	409.69
370.219	413.69
370.445	398.69
370.672	422.69
370.898	398.69
371.124	407.69
371.35	419.69
371.576	408.69
371.802	423.69
372.028	419.69
372.254	434.69
372.48	425.69
372.706	426.69
372.932	427.69
373.158	419.69
373.384	421.69
373.61	433.69
373.835	427.69
374.061	422.69
374.287	430.69
374.513	434.69
374.739	436.69
374.965	431.69
375.191	430.69
375.416	431.69
375.642	446.69
375.868	433.69
376.094	432.69
376.319	423.69
376.545	418.69
376.771	425.69
376.997	425.69
377.222	427.69
377.448	416.69
377.674	442.69
377.899	428.69
378.125	407.69
378.35	421.69
378.576	415.69
378.802	424.69
379.027	443.69
379.253	428.69
379.478	414.69
379.704	411.69
379.929	426.69
380.155	426.69
380.38	415.69
380.606	424.69
380.831	432.69
381.057	423.69
381.282	434.69
381.507	450.69
381.733	424.69
381.958	439.69
382.184	438.69
382.409	434.69
382.634	437.69
382.86	444.69
383.085	426.69
383.31	445.69
383.535	426.69
383.761	451.69
383.986	452.69
384.211	427.69
384.436	449.69
384.662	426.69
384.887	465.69
385.112	448.69
385.337	457.69
385.562	446.69
385.787	456.69
386.013	464.69
386.238	469.69
386.463	468.69
386.688	459.69
386.913	443.69
387.138	464.69
387.363	474.69
387.588	460.69
387.813	477.69
388.038	485.69
388.263	471.69
388.488	471.69
388.713	460.69
388.938	455.69
389.163	471.69
389.387	486.69
389.612	492.69
389.837	486.69
390.062	475.69
390.287	470.69
390.512	481.69
390.736	469.69
390.961	463.69
391.186	469.69
391.411	482.69
391.636	486.69
391.86	489.69
392.085	524.69
392.31	496.69
392.534	480.69
392.759	480.69
392.984	475.69
393.208	498.69
393.433	475.69
393.658	480.69
393.882	463.69
394.107	500.69
394.331	483.69
394.556	466.69
394.78	467.69
395.005	472.69
395.229	484.69
395.454	491.69
395.678	508.69
395.903	529.69
396.127	529.69
396.352	544.69
396.576	525.69
396.801	494.69
397.025	498.69
397.249	507.69
397.474	512.69
397.698	520.69
397.922	531.69
398.147	546.69
398.371	538.69
398.595	532.69
398.82	562.69
399.044	570.69
399.268	600.69
399.492	611.69
399.717	634.69
399.941	664.69
400.165	686.69
400.389	697.69
400.613	634.69
400.837	601.69
401.062	572.69
401.286	568.69
401.51	571.69
401.734	558.69
401.958	564.69
402.182	579.69
402.406	581.69
402.63	579.69
402.854	547.69
403.078	556.69
403.302	577.69
403.526	585.69
403.75	582.69
403.974	566.69
404.198	543.69
404.422	592.69
404.645	575.69
404.869	572.69
405.093	619.69
405.317	653.69
405.541	694.69
405.765	632.69
405.988	609.69
406.212	639.69
406.436	630.69
406.66	656.69
406.883	617.69
407.107	631.69
407.331	709.69
407.555	779.69
407.778	783.69
408.002	694.69
408.226	652.69
408.449	662.69
408.673	630.69
408.896	658.69
409.12	732.69
409.344	674.69
409.567	623.69
409.791	588.69
410.014	583.69
410.238	597.69
410.461	578.69
410.685	589.69
410.908	616.69
411.132	653.69
411.355	675.69
411.578	640.69
411.802	600.69
412.025	565.69
412.249	591.69
412.472	630.69
412.695	638.69
412.919	626.69
413.142	575.69
413.365	558.69
413.589	564.69
413.812	554.69
414.035	554.69
414.258	541.69
414.482	552.69
414.705	563.69
414.928	534.69
415.151	566.69
415.374	540.69
415.597	545.69
415.821	506.69
416.044	534.69
416.267	551.69
416.49	532.69
416.713	538.69
416.936	535.69
417.159	543.69
417.382	555.69
417.605	550.69
417.828	538.69
418.051	585.69
418.274	558.69
418.497	531.69
418.72	528.69
418.943	543.69
419.166	564.69
419.389	610.69
419.611	591.69
419.834	545.69
420.057	587.69
420.28	582.69
420.503	568.69
420.726	563.69
420.948	563.69
421.171	622.69
421.394	670.69
421.617	579.69
421.839	558.69
422.062	564.69
422.285	592.69
422.507	647.69
422.73	754.69
422.953	708.69
423.175	611.69
423.398	599.69
423.621	600.69
423.843	623.69
424.066	592.69
424.288	609.69
424.511	619.69
424.733	670.69
424.956	766.69
425.178	763.69
425.401	752.69
425.623	775.69
425.846	651.69
426.068	597.69
426.291	604.69
426.513	591.69
426.735	591.69
426.958	664.69
427.18	742.69
427.402	888.69
427.625	998.69
427.847	867.69
428.069	746.69
428.292	671.69
428.514	562.69
428.736	601.69
428.958	575.69
429.181	574.69
429.403	544.69
429.625	565.69
429.847	600.69
430.069	682.69
430.292	674.69
430.514	586.69
430.736	574.69
430.958	549.69
431.18	558.69
431.402	548.69
431.624	528.69
431.846	539.69
432.068	532.69
432.29	512.69
432.512	546.69
432.734	536.69
432.956	533.69
433.178	576.69
433.4	570.69
433.622	544.69
433.844	540.69
434.066	524.69
434.287	547.69
434.509	560.69
434.731	534.69
434.953	558.69
435.175	578.69
435.397	591.69
435.618	594.69
435.84	626.69
436.062	765.69
436.284	838.69
436.505	704.69
436.727	633.69
436.949	581.69
437.17	555.69
437.392	546.69
437.614	571.69
437.835	606.69
438.057	708.69
438.278	838.69
438.5	848.69
438.721	908.69
438.943	869.69
439.165	692.69
439.386	628.69
439.608	617.69
439.829	606.69
440.05	651.69
440.272	706.69
440.493	656.69
440.715	595.69
440.936	590.69
441.158	574.69
441.379	575.69
441.6	603.69
441.822	596.69
442.043	657.69
442.264	728.69
442.486	776.69
442.707	662.69
442.928	618.69
443.149	622.69
443.371	653.69
443.592	688.69
443.813	781.69
444.034	890.69
444.255	726.69
444.476	632.69
444.698	611.69
444.919	617.69
445.14	718.69
445.361	697.69
445.582	657.69
445.803	714.69
446.024	857.69
446.245	862.69
446.466	788.69
446.687	649.69
446.908	595.69
447.129	566.69
447.35	564.69
447.571	567.69
447.792	547.69
448.013	565.69
448.234	577.69
448.455	605.69
448.675	761.69
448.896	882.69
449.117	781.69
449.338	714.69
449.559	820.69
449.779	966.69
450	766.69
450.221	612.69
450.442	563.69
450.662	552.69
450.883	551.69
451.104	555.69
451.324	555.69
451.545	564.69
451.766	507.69
451.986	506.69
452.207	514.69
452.428	491.69
452.648	505.69
452.869	521.69
453.089	495.69
453.31	507.69
453.53	522.69
453.751	494.69
453.971	501.69
454.192	539.69
454.412	518.69
454.633	485.69
454.853	487.69
455.073	491.69
455.294	514.69
455.514	598.69
455.734	581.69
455.955	486.69
456.175	476.69
456.395	456.69
456.616	494.69
456.836	473.69
457.056	479.69
457.276	482.69
457.497	459.69
457.717	480.69
457.937	482.69
458.157	492.69
458.377	515.69
458.598	534.69
458.818	570.69
459.038	650.69
459.258	691.69
459.478	578.69
459.698	544.69
459.918	551.69
460.138	536.69
460.358	551.69
460.578	537.69
460.798	549.69
461.018	563.69
461.238	539.69
461.458	548.69
461.678	545.69
461.898	550.69
462.118	568.69
462.338	570.69
462.558	579.69
462.777	582.69
462.997	624.69
463.217	604.69
463.437	597.69
463.657	614.69
463.876	583.69
464.096	593.69
464.316	580.69
464.536	587.69
464.755	599.69
464.975	599.69
465.195	642.69
465.414	696.69
465.634	626.69
465.854	583.69
466.073	549.69
466.293	551.69
466.512	543.69
466.732	512.69
466.951	518.69
467.171	535.69
467.391	548.69
467.61	515.69
467.829	536.69
468.049	538.69
468.268	529.69
468.488	514.69
468.707	513.69
468.927	488.69
469.146	481.69
469.365	494.69
469.585	516.69
469.804	514.69
470.023	539.69
470.243	525.69
470.462	544.69
470.681	555.69
470.901	548.69
471.12	521.69
471.339	532.69
471.558	534.69
471.777	534.69
471.997	514.69
472.216	537.69
472.435	564.69
472.654	553.69
472.873	540.69
473.092	546.69
473.311	512.69
473.53	518.69
473.749	531.69
473.968	564.69
474.187	676.69
474.406	706.69
474.625	605.69
474.844	547.69
475.063	518.69
475.282	540.69
475.501	522.69
475.72	534.69
475.939	526.69
476.158	529.69
476.377	518.69
476.596	530.69
476.814	572.69
477.033	568.69
477.252	565.69
477.471	553.69
477.69	560.69
477.908	585.69
478.127	563.69
478.346	568.69
478.564	598.69
478.783	570.69
479.002	599.69
479.22	623.69
479.439	606.69
479.658	656.69
479.876	637.69
480.095	636.69
480.313	662.69
480.532	668.69
480.751	632.69
480.969	634.69
481.188	689.69
481.406	748.69
481.624	684.69
481.843	654.69
482.061	623.69
482.28	635.69
482.498	640.69
482.717	619.69
482.935	638.69
483.153	633.69
483.372	607.69
483.59	614.69
483.808	606.69
484.027	631.69
484.245	593.69
484.463	640.69
484.681	609.69
484.9	606.69
485.118	629.69
485.336	632.69
485.554	641.69
485.772	630.69
485.99	630.69
486.209	661.69
486.427	632.69
486.645	640.69
486.863	666.69
487.081	672.69
487.299	657.69
487.517	656.69
487.735	658.69
487.953	652.69
488.171	646.69
488.389	677.69
488.607	649.69
488.825	673.69
489.043	662.69
489.261	675.69
489.479	652.69
489.696	660.69
489.914	691.69
490.132	676.69
490.35	691.69
490.568	716.69
490.786	690.69
491.003	693.69
491.221	709.69
491.439	714.69
491.657	716.69
491.874	756.69
492.092	734.69
492.31	732.69
492.527	770.69
492.745	754.69
492.963	744.69
493.18	743.69
493.398	736.69
493.615	750.69
493.833	776.69
494.05	774.69
494.268	753.69
494.485	752.69
494.703	751.69
494.92	769.69
495.138	792.69
495.355	764.69
495.573	787.69
495.79	770.69
496.008	786.69
496.225	776.69
496.442	780.69
496.66	790.69
496.877	778.69
497.094	788.69
497.312	834.69
497.529	836.69
497.746	852.69
497.963	792.69
498.181	826.69
498.398	858.69
498.615	883.69
498.832	922.69
499.049	923.69
499.267	940.69
499.484	991.69
499.701	1048.69
499.918	1002.69
500.135	1067.69
500.352	1121.69
500.569	1136.69
500.786	1160.69
501.003	1119.69
501.22	1110.69
501.437	1020.69
501.654	1033.69
501.871	1030.69
502.088	988.69
502.305	968.69
502.522	894.69
502.739	882.69
502.956	877.69
503.172	862.69
503.389	835.69
503.606	839.69
503.823	834.69
504.04	807.69
504.256	819.69
504.473	824.69
504.69	795.69
504.907	812.69
505.123	786.69
505.34	780.69
505.557	767.69
505.773	784.69
505.99	767.69
506.207	769.69
506.423	758.69
506.64	720.69
506.856	726.69
507.073	704.69
507.289	726.69
507.506	702.69
507.722	736.69
507.939	746.69
508.155	712.69
508.372	706.69
508.588	706.69
508.805	671.69
509.021	704.69
509.238	694.69
509.454	724.69
509.67	698.69
509.887	701.69
510.103	703.69
510.319	701.69
510.536	800.69
510.752	1248.69
510.968	1015.69
511.184	710.69
511.401	686.69
511.617	676.69
511.833	686.69
512.049	643.69
512.265	677.69
512.481	683.69
512.698	660.69
512.914	692.69
513.13	654.69
513.346	658.69
513.562	679.69
513.778	657.69
513.994	650.69
514.21	683.69
514.426	711.69
514.642	752.69
514.858	786.69
515.074	802.69
515.29	896.69
515.506	1267.69
515.721	1095.69
515.937	823.69
516.153	707.69
516.369	694.69
516.585	718.69
516.801	706.69
517.016	687.69
517.232	698.69
517.448	691.69
517.664	701.69
517.879	714.69
518.095	715.69
518.311	701.69
518.527	683.69
518.742	692.69
518.958	703.69
519.173	674.69
519.389	683.69
519.605	696.69
519.82	708.69
520.036	721.69
520.251	680.69
520.467	731.69
520.682	713.69
520.898	740.69
521.113	754.69
521.329	767.69
521.544	854.69
521.76	1038.69
521.975	1600.69
522.19	1613.69
522.406	893.69
522.621	766.69
522.836	693.69
523.052	676.69
523.267	641.69
523.482	641.69
523.698	611.69
523.913	615.69
524.128	625.69
524.343	610.69
524.559	592.69
524.774	584.69
524.989	620.69
525.204	608.69
525.419	593.69
525.634	598.69
525.849	588.69
526.064	569.69
526.28	550.69
526.495	564.69
526.71	570.69
526.925	558.69
527.14	564.69
527.355	570.69
527.57	564.69
527.785	535.69
527.999	526.69
528.214	546.69
528.429	546.69
528.644	536.69
528.859	566.69
529.074	555.69
529.289	581.69
529.503	646.69
529.718	631.69
529.933	604.69
530.148	574.69
530.363	566.69
530.577	545.69
530.792	556.69
531.007	553.69
531.221	543.69
531.436	524.69
531.651	554.69
531.865	545.69
532.08	541.69
532.295	530.69
532.509	543.69
532.724	542.69
532.938	530.69
533.153	520.69
533.367	528.69
533.582	537.69
533.796	522.69
534.011	518.69
534.225	524.69
534.44	535.69
534.654	519.69
534.868	521.69
535.083	539.69
535.297	519.69
535.511	521.69
535.726	542.69
535.94	544.69
536.154	537.69
536.369	531.69
536.583	532.69
536.797	533.69
537.011	533.69
537.225	507.69
537.44	520.69
537.654	519.69
537.868	514.69
538.082	522.69
538.296	502.69
538.51	517.69
538.724	508.69
538.938	525.69
539.153	516.69
539.367	524.69
539.581	502.69
539.795	512.69
540.009	501.69
540.222	508.69
540.436	535.69
540.65	508.69
540.864	496.69
541.078	497.69
541.292	522.69
541.506	498.69
541.72	480.69
541.934	496.69
542.147	512.69
542.361	491.69
542.575	505.69
542.789	500.69
543.002	485.69
543.216	526.69
543.43	506.69
543.644	513.69
543.857	508.69
544.071	500.69
544.285	497.69
544.498	507.69
544.712	514.69
544.925	498.69
545.139	498.69
545.352	494.69
545.566	478.69
545.779	490.69
545.993	512.69
546.206	515.69
546.42	491.69
546.633	496.69
546.847	478.69
547.06	479.69
547.274	485.69
547.487	486.69
547.7	481.69
547.914	495.69
548.127	483.69
548.34	506.69
548.554	498.69
548.767	491.69
548.98	474.69
549.193	478.69
549.407	506.69
549.62	482.69
549.833	460.69
550.046	486.69
550.259	498.69
550.473	474.69
550.686	502.69
550.899	486.69
551.112	487.69
551.325	471.69
551.538	496.69
551.751	497.69
551.964	481.69
552.177	488.69
552.39	489.69
552.603	487.69
552.816	481.69
553.029	507.69
553.242	496.69
553.455	497.69
553.667	499.69
553.88	490.69
554.093	482.69
554.306	494.69
554.519	492.69
554.732	483.69
554.944	473.69
555.157	472.69
555.37	495.69
555.583	446.69
555.795	484.69
556.008	481.69
556.221	462.69
556.433	450.69
556.646	451.69
556.859	464.69
557.071	441.69
557.284	442.69
557.496	447.69
557.709	432.69
557.921	438.69
558.134	440.69
558.346	445.69
558.559	447.69
558.771	454.69
558.984	435.69
559.196	424.69
559.409	404.69
559.621	419.69
559.833	439.69
560.046	451.69
560.258	435.69
560.47	417.69
560.683	421.69
560.895	436.69
561.107	430.69
561.32	443.69
561.532	424.69
561.744	431.69
561.956	439.69
562.168	419.69
562.381	443.69
562.593	425.69
562.805	426.69
563.017	433.69
563.229	451.69
563.441	447.69
563.653	455.69
563.865	459.69
564.077	466.69
564.289	440.69
564.501	421.69
564.713	439.69
564.925	488.69
565.137	455.69
565.349	456.69
565.561	491.69
565.773	481.69
565.985	498.69
566.197	505.69
566.408	531.69
566.62	510.69
566.832	543.69
567.044	516.69
567.255	543.69
567.467	538.69
567.679	546.69
567.891	571.69
568.102	560.69
568.314	539.69
568.526	530.69
568.737	523.69
568.949	510.69
569.161	505.69
569.372	459.69
569.584	476.69
569.795	466.69
570.007	469.69
570.218	491.69
570.43	463.69
570.641	432.69
570.853	425.69
571.064	414.69
571.276	430.69
571.487	439.69
571.698	411.69
571.91	419.69
572.121	421.69
572.333	408.69
572.544	392.69
572.755	406.69
572.966	398.69
573.178	372.69
573.389	391.69
573.6	392.69
573.811	388.69
574.023	387.69
574.234	388.69
574.445	409.69
574.656	390.69
574.867	373.69
575.078	358.69
575.289	400.69
575.501	386.69
575.712	366.69
575.923	372.69
576.134	374.69
576.345	368.69
576.556	378.69
576.767	378.69
576.978	352.69
577.188	376.69
577.399	360.69
577.61	361.69
577.821	361.69
578.032	354.69
578.243	401.69
578.454	585.69
578.665	461.69
578.875	374.69
579.086	349.69
579.297	357.69
579.508	351.69
579.718	351.69
579.929	359.69
580.14	333.69
580.35	361.69
580.561	362.69
580.772	347.69
580.982	344.69
581.193	358.69
581.403	345.69
581.614	329.69
581.825	344.69
582.035	334.69
582.246	328.69
582.456	342.69
582.667	344.69
582.877	355.69
583.087	331.69
583.298	346.69
583.508	338.69
583.719	340.69
583.929	331.69
584.139	329.69
584.35	335.69
584.56	340.69
584.77	348.69
584.981	338.69
585.191	323.69
585.401	325.69
585.611	329.69
585.821	332.69
586.032	331.69
586.242	338.69
586.452	341.69
586.662	325.69
586.872	311.69
587.082	328.69
587.292	308.69
587.502	337.69
587.713	331.69
587.923	338.69
588.133	347.69
588.343	325.69
588.553	324.69
588.762	338.69
588.972	308.69
589.182	318.69
589.392	326.69
589.602	332.69
589.812	300.69
590.022	328.69
590.232	319.69
590.441	312.69
590.651	343.69
590.861	316.69
591.071	339.69
591.281	328.69
591.49	319.69
591.7	328.69
591.91	332.69
592.119	329.69
592.329	313.69
592.539	339.69
592.748	336.69
592.958	350.69
593.167	342.69
593.377	351.69
593.587	355.69
593.796	358.69
594.006	351.69
594.215	357.69
594.424	347.69
594.634	346.69
594.843	329.69
595.053	324.69
595.262	348.69
595.472	337.69
595.681	324.69
595.89	325.69
596.1	330.69
596.309	310.69
596.518	320.69
596.727	314.69
596.937	327.69
597.146	313.69
597.355	294.69
597.564	304.69
597.774	318.69
597.983	286.69
598.192	307.69
598.401	304.69
598.61	307.69
598.819	289.69
599.028	288.69
599.237	297.69
599.446	296.69
599.655	293.69
599.864	282.69
600.073	286.69
600.282	280.69
600.491	286.69
600.7	283.69
600.909	286.69
601.118	300.69
601.327	284.69
601.536	282.69
601.745	292.69
601.953	287.69
602.162	274.69
602.371	267.69
602.58	268.69
602.789	277.69
602.997	301.69
603.206	296.69
603.415	279.69
603.623	291.69
603.832	269.69
604.041	267.69
604.249	280.69
604.458	259.69
604.666	270.69
604.875	266.69
605.084	267.69
605.292	272.69
605.501	258.69
605.709	266.69
605.918	256.69
606.126	277.69
606.334	275.69
606.543	265.69
606.751	262.69
606.96	262.69
607.168	269.69
607.376	256.69
607.585	274.69
607.793	261.69
608.001	264.69
608.21	267.69
608.418	263.69
608.626	269.69
608.834	279.69
609.043	261.69
609.251	262.69
609.459	268.69
609.667	256.69
609.875	264.69
610.083	261.69
610.291	268.69
610.499	259.69
610.707	266.69
610.916	275.69
611.124	270.69
611.332	282.69
611.54	262.69
611.748	278.69
611.955	281.69
612.163	266.69
612.371	260.69
612.579	229.69
612.787	242.69
612.995	245.69
613.203	280.69
613.411	269.69
613.618	249.69
613.826	262.69
614.034	257.69
614.242	262.69
614.449	239.69
614.657	270.69
614.865	243.69
615.072	264.69
615.28	265.69
615.488	248.69
615.695	243.69
615.903	241.69
616.111	246.69
616.318	260.69
616.526	246.69
616.733	258.69
616.941	259.69
617.148	258.69
617.356	240.69
617.563	248.69
617.771	252.69
617.978	248.69
618.185	251.69
618.393	230.69
618.6	258.69
618.807	260.69
619.015	258.69
619.222	259.69
619.429	235.69
619.637	241.69
619.844	245.69
620.051	241.69
620.258	252.69
620.466	235.69
620.673	224.69
620.88	227.69
621.087	234.69
621.294	248.69
621.501	229.69
621.708	244.69
621.915	238.69
622.122	226.69
622.329	234.69
622.536	243.69
622.743	233.69
622.95	225.69
623.157	238.69
623.364	233.69
623.571	238.69
623.778	238.69
623.985	228.69
624.192	216.69
624.399	234.69
624.606	230.69
624.812	215.69
625.019	223.69
625.226	223.69
625.433	219.69
625.639	223.69
625.846	219.69
626.053	202.69
626.259	238.69
626.466	205.69
626.673	225.69
626.879	224.69
627.086	240.69
627.293	240.69
627.499	238.69
627.706	213.69
627.912	240.69
628.119	230.69
628.325	225.69
628.532	209.69
628.738	209.69
628.945	220.69
629.151	214.69
629.357	213.69
629.564	227.69
629.77	218.69
629.976	230.69
630.183	208.69
630.389	218.69
630.595	204.69
630.802	221.69
631.008	210.69
631.214	210.69
631.42	208.69
631.627	211.69
631.833	201.69
632.039	201.69
632.245	203.69
632.451	201.69
632.657	200.69
632.863	201.69
633.069	196.69
633.275	212.69
633.481	200.69
633.688	188.69
633.893	198.69
634.099	204.69
634.305	202.69
634.511	198.69
634.717	201.69
634.923	193.69
635.129	207.69
635.335	203.69
635.541	194.69
635.747	186.69
635.952	201.69
636.158	191.69
636.364	178.69
636.57	207.69
636.775	212.69
636.981	196.69
637.187	194.69
637.392	181.69
637.598	194.69
637.804	200.69
638.009	178.69
638.215	186.69
638.421	181.69
638.626	204.69
638.832	197.69
639.037	169.69
639.243	202.69
639.448	187.69
639.654	177.69
639.859	177.69
640.065	174.69
640.27	199.69
640.475	187.69
640.681	186.69
640.886	178.69
641.091	192.69
641.297	178.69
641.502	187.69
641.707	183.69
641.913	185.69
642.118	184.69
642.323	188.69
642.528	194.69
642.733	166.69
642.939	184.69
643.144	180.69
643.349	188.69
643.554	199.69
643.759	172.69
643.964	179.69
644.169	170.69
644.374	157.69
644.579	184.69
644.784	168.69
644.989	186.69
645.194	178.69
645.399	178.69
645.604	174.69
645.809	186.69
646.014	171.69
646.219	163.69
646.423	182.69
646.628	164.69
646.833	174.69
647.038	180.69
647.243	171.69
647.447	182.69
647.652	170.69
647.857	176.69
648.062	178.69
648.266	181.69
648.471	171.69
648.676	180.69
648.88	174.69
649.085	174.69
649.289	170.69
649.494	180.69
649.698	194.69
649.903	204.69
650.107	171.69
650.312	166.69
650.516	168.69
650.721	164.69
650.925	166.69
651.13	160.69
651.334	151.69
651.539	163.69
651.743	155.69
651.947	168.69
652.152	140.69
652.356	163.69
652.56	152.69
652.764	140.69
652.969	144.69
653.173	144.69
653.377	149.69
653.581	147.69
653.785	143.69
653.99	140.69
654.194	152.69
654.398	138.69
654.602	134.69
654.806	136.69
655.01	125.69
655.214	149.69
655.418	129.69
655.622	138.69
655.826	148.69
656.03	152.69
656.234	133.69
656.438	137.69
656.642	138.69
656.846	130.69
657.049	137.69
657.253	126.69
657.457	132.69
657.661	126.69
657.865	122.69
658.068	107.69
658.272	118.69
658.476	89.69
658.68	109.69
658.883	112.69
659.087	104.69
659.291	102.69
659.494	90.69
659.698	100.69
659.901	91.69
660.105	95.69
660.309	110.69
660.512	90.69
660.716	88.69
660.919	80.69
661.123	88.69
661.326	83.69
661.53	96.69
661.733	104.69
661.936	102.69
662.14	95.69
662.343	83.69
662.546	68.69
662.75	81.69
662.953	82.69
663.156	82.69
663.36	80.69
663.563	87.69
663.766	80.69
663.969	80.69
664.173	79.69
664.376	71.69
664.579	69.69
664.782	79.69
664.985	87.69
665.188	89.69
665.391	87.69
665.594	82.69
665.797	68.69
666	72.69
666.203	75.69
666.406	75.69
666.609	86.69
666.812	83.69
667.015	84.69
667.218	98.69
667.421	80.69
667.624	81.69
667.827	75.69
668.03	87.69
668.232	70.69
668.435	73.69
668.638	87.69
668.841	81.69
669.043	80.69
669.246	75.69
669.449	69.69
669.651	84.69
669.854	74.69
670.057	82.69
670.259	58.69
670.462	81.69
670.665	77.69
670.867	68.69
671.07	82.69
671.272	70.69
671.475	80.69
671.677	79.69
671.88	88.69
672.082	85.69
672.284	95.69
672.487	77.69
672.689	76.69
672.892	71.69
