Data from 1978.PennyLincolnUp.Lamp.En5.5.200Scan.071719.P1_HRD10591_16-12-36-864.txt Node
Date: Thu Jul 18 16:12:36 EDT 2019
User: cochatt
Spectrometer: HR+D1059
Trigger mode: 1
Integration Time (sec): 1.000000E-1
Scans to average: 1
Electric dark correction enabled: true
Nonlinearity correction enabled: false
Boxcar width: 0
XAxis mode: Wavelengths
Number of Pixels in Spectrum: 2048
>>>>>Begin Spectral Data<<<<<
223.165	-22.19
223.4	-22.19
223.635	-22.19
223.869	-11.19
224.104	-16.19
224.338	-25.19
224.573	-22.19
224.808	-11.19
225.042	-26.19
225.277	10.81
225.511	6.81
225.746	1.81
225.98	-4.19
226.215	17.81
226.449	19.81
226.683	16.81
226.918	27.81
227.152	36.81
227.387	39.81
227.621	28.81
227.856	45.81
228.09	38.81
228.324	35.81
228.559	38.81
228.793	59.81
229.027	87.81
229.262	104.81
229.496	114.81
229.73	131.81
229.964	148.81
230.199	125.81
230.433	114.81
230.667	112.81
230.901	115.81
231.136	92.81
231.37	98.81
231.604	105.81
231.838	93.81
232.072	100.81
232.306	102.81
232.541	111.81
232.775	108.81
233.009	111.81
233.243	105.81
233.477	113.81
233.711	112.81
233.945	102.81
234.179	110.81
234.413	118.81
234.647	100.81
234.881	119.81
235.115	107.81
235.349	116.81
235.583	116.81
235.817	121.81
236.051	111.81
236.285	122.81
236.519	124.81
236.753	130.81
236.987	143.81
237.221	157.81
237.455	210.81
237.689	159.81
237.922	117.81
238.156	123.81
238.39	122.81
238.624	113.81
238.858	120.81
239.091	120.81
239.325	105.81
239.559	111.81
239.793	120.81
240.027	131.81
240.26	131.81
240.494	129.81
240.728	134.81
240.961	141.81
241.195	140.81
241.429	134.81
241.662	128.81
241.896	115.81
242.13	129.81
242.363	134.81
242.597	117.81
242.83	131.81
243.064	132.81
243.298	142.81
243.531	137.81
243.765	129.81
243.998	123.81
244.232	115.81
244.465	153.81
244.699	137.81
244.932	132.81
245.166	139.81
245.399	129.81
245.633	142.81
245.866	147.81
246.099	140.81
246.333	137.81
246.566	135.81
246.8	146.81
247.033	127.81
247.266	153.81
247.5	145.81
247.733	160.81
247.966	157.81
248.2	154.81
248.433	152.81
248.666	158.81
248.899	188.81
249.133	178.81
249.366	197.81
249.599	169.81
249.832	154.81
250.066	168.81
250.299	155.81
250.532	173.81
250.765	193.81
250.998	196.81
251.231	194.81
251.465	194.81
251.698	187.81
251.931	181.81
252.164	193.81
252.397	182.81
252.63	182.81
252.863	184.81
253.096	193.81
253.329	210.81
253.562	211.81
253.795	191.81
254.028	199.81
254.261	209.81
254.494	191.81
254.727	219.81
254.96	259.81
255.193	224.81
255.426	223.81
255.659	202.81
255.892	215.81
256.124	223.81
256.357	188.81
256.59	187.81
256.823	203.81
257.056	209.81
257.289	183.81
257.521	190.81
257.754	202.81
257.987	194.81
258.22	185.81
258.452	212.81
258.685	183.81
258.918	204.81
259.151	201.81
259.383	205.81
259.616	204.81
259.849	210.81
260.081	208.81
260.314	221.81
260.547	226.81
260.779	224.81
261.012	219.81
261.244	202.81
261.477	204.81
261.71	200.81
261.942	209.81
262.175	225.81
262.407	228.81
262.64	208.81
262.872	194.81
263.105	179.81
263.337	184.81
263.57	206.81
263.802	192.81
264.035	188.81
264.267	201.81
264.499	209.81
264.732	203.81
264.964	204.81
265.197	198.81
265.429	221.81
265.661	197.81
265.894	200.81
266.126	213.81
266.358	210.81
266.591	210.81
266.823	216.81
267.055	209.81
267.287	219.81
267.52	215.81
267.752	212.81
267.984	205.81
268.216	217.81
268.448	221.81
268.681	225.81
268.913	231.81
269.145	247.81
269.377	248.81
269.609	249.81
269.841	264.81
270.073	238.81
270.306	260.81
270.538	291.81
270.77	264.81
271.002	262.81
271.234	271.81
271.466	271.81
271.698	270.81
271.93	286.81
272.162	280.81
272.394	281.81
272.626	277.81
272.858	246.81
273.09	262.81
273.322	257.81
273.553	251.81
273.785	227.81
274.017	232.81
274.249	235.81
274.481	261.81
274.713	250.81
274.945	231.81
275.176	255.81
275.408	231.81
275.64	249.81
275.872	254.81
276.104	255.81
276.335	248.81
276.567	250.81
276.799	255.81
277.031	284.81
277.262	285.81
277.494	296.81
277.726	297.81
277.957	268.81
278.189	247.81
278.421	245.81
278.652	246.81
278.884	258.81
279.115	225.81
279.347	263.81
279.579	269.81
279.81	243.81
280.042	261.81
280.273	263.81
280.505	238.81
280.736	256.81
280.968	240.81
281.199	262.81
281.431	259.81
281.662	264.81
281.894	255.81
282.125	251.81
282.356	256.81
282.588	299.81
282.819	269.81
283.051	251.81
283.282	242.81
283.513	271.81
283.745	266.81
283.976	270.81
284.207	276.81
284.439	255.81
284.67	258.81
284.901	275.81
285.132	259.81
285.364	268.81
285.595	253.81
285.826	261.81
286.057	258.81
286.288	282.81
286.52	255.81
286.751	245.81
286.982	270.81
287.213	263.81
287.444	272.81
287.675	273.81
287.906	280.81
288.138	281.81
288.369	294.81
288.6	288.81
288.831	287.81
289.062	297.81
289.293	294.81
289.524	277.81
289.755	279.81
289.986	286.81
290.217	284.81
290.448	285.81
290.679	281.81
290.91	288.81
291.141	271.81
291.371	266.81
291.602	263.81
291.833	280.81
292.064	281.81
292.295	270.81
292.526	283.81
292.757	282.81
292.987	283.81
293.218	286.81
293.449	275.81
293.68	285.81
293.91	270.81
294.141	284.81
294.372	274.81
294.603	269.81
294.833	282.81
295.064	269.81
295.295	279.81
295.525	280.81
295.756	280.81
295.987	279.81
296.217	306.81
296.448	323.81
296.679	283.81
296.909	287.81
297.14	286.81
297.37	270.81
297.601	284.81
297.831	286.81
298.062	282.81
298.292	305.81
298.523	301.81
298.753	308.81
298.984	312.81
299.214	288.81
299.445	306.81
299.675	297.81
299.905	296.81
300.136	308.81
300.366	291.81
300.597	292.81
300.827	298.81
301.057	305.81
301.288	310.81
301.518	305.81
301.748	309.81
301.979	327.81
302.209	309.81
302.439	303.81
302.669	320.81
302.9	332.81
303.13	314.81
303.36	314.81
303.59	316.81
303.82	319.81
304.051	329.81
304.281	337.81
304.511	324.81
304.741	313.81
304.971	316.81
305.201	301.81
305.431	314.81
305.661	323.81
305.891	317.81
306.121	324.81
306.352	309.81
306.582	330.81
306.812	338.81
307.042	300.81
307.272	317.81
307.502	314.81
307.731	290.81
307.961	323.81
308.191	323.81
308.421	329.81
308.651	333.81
308.881	323.81
309.111	333.81
309.341	318.81
309.571	336.81
309.8	349.81
310.03	341.81
310.26	345.81
310.49	349.81
310.72	352.81
310.949	371.81
311.179	372.81
311.409	357.81
311.639	357.81
311.868	357.81
312.098	369.81
312.328	351.81
312.557	387.81
312.787	395.81
313.017	377.81
313.246	381.81
313.476	358.81
313.706	364.81
313.935	359.81
314.165	377.81
314.394	369.81
314.624	366.81
314.853	373.81
315.083	360.81
315.312	377.81
315.542	357.81
315.771	356.81
316.001	362.81
316.23	360.81
316.46	360.81
316.689	375.81
316.919	383.81
317.148	380.81
317.377	356.81
317.607	367.81
317.836	364.81
318.065	340.81
318.295	381.81
318.524	369.81
318.753	336.81
318.983	364.81
319.212	344.81
319.441	356.81
319.67	395.81
319.9	375.81
320.129	363.81
320.358	375.81
320.587	385.81
320.816	383.81
321.046	368.81
321.275	398.81
321.504	392.81
321.733	392.81
321.962	371.81
322.191	395.81
322.42	402.81
322.649	413.81
322.878	415.81
323.108	419.81
323.337	451.81
323.566	464.81
323.795	499.81
324.024	533.81
324.253	629.81
324.482	868.81
324.71	1369.81
324.939	2043.81
325.168	1761.81
325.397	855.81
325.626	596.81
325.855	504.81
326.084	472.81
326.313	472.81
326.542	479.81
326.77	545.81
326.999	581.81
327.228	800.81
327.457	1209.81
327.686	1539.81
327.914	1027.81
328.143	654.81
328.372	588.81
328.6	543.81
328.829	531.81
329.058	538.81
329.287	560.81
329.515	499.81
329.744	483.81
329.972	452.81
330.201	478.81
330.43	496.81
330.658	533.81
330.887	565.81
331.115	548.81
331.344	489.81
331.572	464.81
331.801	472.81
332.03	461.81
332.258	460.81
332.486	436.81
332.715	422.81
332.943	432.81
333.172	427.81
333.4	443.81
333.629	469.81
333.857	459.81
334.085	489.81
334.314	482.81
334.542	490.81
334.771	523.81
334.999	480.81
335.227	454.81
335.455	462.81
335.684	443.81
335.912	452.81
336.14	438.81
336.369	450.81
336.597	462.81
336.825	430.81
337.053	443.81
337.281	458.81
337.51	432.81
337.738	424.81
337.966	448.81
338.194	460.81
338.422	401.81
338.65	422.81
338.878	415.81
339.106	412.81
339.334	417.81
339.562	431.81
339.79	419.81
340.018	445.81
340.246	436.81
340.474	438.81
340.702	427.81
340.93	419.81
341.158	424.81
341.386	438.81
341.614	432.81
341.842	411.81
342.07	422.81
342.298	400.81
342.526	407.81
342.754	424.81
342.981	419.81
343.209	401.81
343.437	422.81
343.665	424.81
343.893	433.81
344.12	423.81
344.348	443.81
344.576	431.81
344.804	451.81
345.031	432.81
345.259	433.81
345.487	427.81
345.714	446.81
345.942	427.81
346.17	421.81
346.397	412.81
346.625	420.81
346.853	434.81
347.08	416.81
347.308	415.81
347.535	410.81
347.763	395.81
347.99	433.81
348.218	400.81
348.445	439.81
348.673	433.81
348.9	411.81
349.128	413.81
349.355	405.81
349.583	418.81
349.81	393.81
350.037	407.81
350.265	385.81
350.492	398.81
350.72	398.81
350.947	393.81
351.174	416.81
351.402	431.81
351.629	424.81
351.856	414.81
352.083	432.81
352.311	423.81
352.538	423.81
352.765	444.81
352.992	412.81
353.22	416.81
353.447	413.81
353.674	423.81
353.901	397.81
354.128	392.81
354.355	406.81
354.583	394.81
354.81	373.81
355.037	389.81
355.264	379.81
355.491	381.81
355.718	382.81
355.945	375.81
356.172	378.81
356.399	384.81
356.626	369.81
356.853	393.81
357.08	387.81
357.307	390.81
357.534	396.81
357.761	402.81
357.988	402.81
358.215	384.81
358.441	396.81
358.668	389.81
358.895	399.81
359.122	411.81
359.349	403.81
359.576	408.81
359.802	415.81
360.029	444.81
360.256	437.81
360.483	422.81
360.709	402.81
360.936	423.81
361.163	446.81
361.39	413.81
361.616	425.81
361.843	401.81
362.07	393.81
362.296	407.81
362.523	409.81
362.749	409.81
362.976	411.81
363.203	404.81
363.429	416.81
363.656	410.81
363.882	403.81
364.109	389.81
364.335	407.81
364.562	389.81
364.788	382.81
365.015	392.81
365.241	402.81
365.468	425.81
365.694	411.81
365.92	415.81
366.147	431.81
366.373	400.81
366.599	393.81
366.826	409.81
367.052	381.81
367.278	406.81
367.505	387.81
367.731	378.81
367.957	393.81
368.184	409.81
368.41	414.81
368.636	415.81
368.862	415.81
369.089	427.81
369.315	403.81
369.541	434.81
369.767	408.81
369.993	413.81
370.219	416.81
370.445	417.81
370.672	410.81
370.898	413.81
371.124	413.81
371.35	411.81
371.576	413.81
371.802	409.81
372.028	397.81
372.254	416.81
372.48	422.81
372.706	409.81
372.932	428.81
373.158	412.81
373.384	410.81
373.61	395.81
373.835	398.81
374.061	402.81
374.287	417.81
374.513	418.81
374.739	420.81
374.965	410.81
375.191	433.81
375.416	411.81
375.642	425.81
375.868	426.81
376.094	417.81
376.319	408.81
376.545	419.81
376.771	413.81
376.997	417.81
377.222	391.81
377.448	396.81
377.674	410.81
377.899	403.81
378.125	421.81
378.35	390.81
378.576	401.81
378.802	394.81
379.027	431.81
379.253	414.81
379.478	413.81
379.704	419.81
379.929	425.81
380.155	428.81
380.38	416.81
380.606	425.81
380.831	411.81
381.057	417.81
381.282	430.81
381.507	407.81
381.733	433.81
381.958	416.81
382.184	450.81
382.409	418.81
382.634	410.81
382.86	424.81
383.085	434.81
383.31	427.81
383.535	429.81
383.761	430.81
383.986	445.81
384.211	438.81
384.436	444.81
384.662	431.81
384.887	454.81
385.112	459.81
385.337	434.81
385.562	455.81
385.787	458.81
386.013	442.81
386.238	472.81
386.463	462.81
386.688	467.81
386.913	440.81
387.138	454.81
387.363	465.81
387.588	463.81
387.813	470.81
388.038	470.81
388.263	459.81
388.488	483.81
388.713	453.81
388.938	458.81
389.163	478.81
389.387	475.81
389.612	457.81
389.837	462.81
390.062	475.81
390.287	456.81
390.512	461.81
390.736	447.81
390.961	459.81
391.186	451.81
391.411	451.81
391.636	501.81
391.86	455.81
392.085	490.81
392.31	484.81
392.534	489.81
392.759	486.81
392.984	488.81
393.208	466.81
393.433	468.81
393.658	499.81
393.882	465.81
394.107	480.81
394.331	460.81
394.556	460.81
394.78	477.81
395.005	491.81
395.229	475.81
395.454	495.81
395.678	499.81
395.903	520.81
396.127	517.81
396.352	525.81
396.576	490.81
396.801	482.81
397.025	498.81
397.249	487.81
397.474	515.81
397.698	504.81
397.922	527.81
398.147	538.81
398.371	533.81
398.595	545.81
398.82	547.81
399.044	552.81
399.268	571.81
399.492	562.81
399.717	599.81
399.941	644.81
400.165	705.81
400.389	674.81
400.613	604.81
400.837	563.81
401.062	569.81
401.286	563.81
401.51	567.81
401.734	529.81
401.958	538.81
402.182	559.81
402.406	556.81
402.63	551.81
402.854	537.81
403.078	568.81
403.302	562.81
403.526	564.81
403.75	554.81
403.974	546.81
404.198	563.81
404.422	539.81
404.645	545.81
404.869	559.81
405.093	600.81
405.317	629.81
405.541	658.81
405.765	629.81
405.988	613.81
406.212	595.81
406.436	577.81
406.66	629.81
406.883	612.81
407.107	623.81
407.331	646.81
407.555	704.81
407.778	732.81
408.002	673.81
408.226	635.81
408.449	630.81
408.673	617.81
408.896	627.81
409.12	693.81
409.344	645.81
409.567	592.81
409.791	585.81
410.014	582.81
410.238	573.81
410.461	577.81
410.685	575.81
410.908	559.81
411.132	615.81
411.355	654.81
411.578	631.81
411.802	578.81
412.025	549.81
412.249	601.81
412.472	580.81
412.695	622.81
412.919	603.81
413.142	584.81
413.365	567.81
413.589	545.81
413.812	559.81
414.035	521.81
414.258	563.81
414.482	524.81
414.705	507.81
414.928	525.81
415.151	520.81
415.374	530.81
415.597	533.81
415.821	524.81
416.044	515.81
416.267	513.81
416.49	550.81
416.713	511.81
416.936	547.81
417.159	528.81
417.382	536.81
417.605	520.81
417.828	544.81
418.051	552.81
418.274	529.81
418.497	534.81
418.72	521.81
418.943	537.81
419.166	560.81
419.389	595.81
419.611	582.81
419.834	590.81
420.057	575.81
420.28	566.81
420.503	539.81
420.726	547.81
420.948	565.81
421.171	607.81
421.394	645.81
421.617	554.81
421.839	554.81
422.062	576.81
422.285	553.81
422.507	626.81
422.73	699.81
422.953	669.81
423.175	589.81
423.398	554.81
423.621	561.81
423.843	556.81
424.066	579.81
424.288	593.81
424.511	607.81
424.733	664.81
424.956	753.81
425.178	707.81
425.401	692.81
425.623	739.81
425.846	640.81
426.068	580.81
426.291	581.81
426.513	565.81
426.735	576.81
426.958	617.81
427.18	712.81
427.402	855.81
427.625	919.81
427.847	775.81
428.069	703.81
428.292	615.81
428.514	581.81
428.736	553.81
428.958	540.81
429.181	532.81
429.403	554.81
429.625	548.81
429.847	578.81
430.069	634.81
430.292	645.81
430.514	564.81
430.736	533.81
430.958	541.81
431.18	520.81
431.402	506.81
431.624	524.81
431.846	501.81
432.068	500.81
432.29	525.81
432.512	504.81
432.734	532.81
432.956	527.81
433.178	548.81
433.4	536.81
433.622	546.81
433.844	519.81
434.066	519.81
434.287	528.81
434.509	535.81
434.731	534.81
434.953	542.81
435.175	573.81
435.397	596.81
435.618	627.81
435.84	618.81
436.062	738.81
436.284	792.81
436.505	657.81
436.727	599.81
436.949	564.81
437.17	535.81
437.392	541.81
437.614	571.81
437.835	562.81
438.057	659.81
438.278	788.81
438.5	747.81
438.721	861.81
438.943	843.81
439.165	688.81
439.386	606.81
439.608	577.81
439.829	587.81
440.05	601.81
440.272	636.81
440.493	616.81
440.715	579.81
440.936	566.81
441.158	552.81
441.379	560.81
441.6	546.81
441.822	573.81
442.043	593.81
442.264	696.81
442.486	771.81
442.707	651.81
442.928	609.81
443.149	603.81
443.371	632.81
443.592	635.81
443.813	751.81
444.034	842.81
444.255	698.81
444.476	630.81
444.698	604.81
444.919	604.81
445.14	691.81
445.361	652.81
445.582	620.81
445.803	689.81
446.024	781.81
446.245	791.81
446.466	730.81
446.687	640.81
446.908	589.81
447.129	543.81
447.35	543.81
447.571	548.81
447.792	539.81
448.013	511.81
448.234	546.81
448.455	608.81
448.675	726.81
448.896	823.81
449.117	690.81
449.338	653.81
449.559	779.81
449.779	935.81
450	699.81
450.221	604.81
450.442	542.81
450.662	519.81
450.883	530.81
451.104	545.81
451.324	541.81
451.545	524.81
451.766	507.81
451.986	483.81
452.207	503.81
452.428	488.81
452.648	487.81
452.869	491.81
453.089	485.81
453.31	521.81
453.53	503.81
453.751	497.81
453.971	491.81
454.192	499.81
454.412	493.81
454.633	470.81
454.853	488.81
455.073	481.81
455.294	488.81
455.514	563.81
455.734	555.81
455.955	504.81
456.175	459.81
456.395	470.81
456.616	438.81
456.836	455.81
457.056	452.81
457.276	445.81
457.497	471.81
457.717	465.81
457.937	490.81
458.157	476.81
458.377	494.81
458.598	504.81
458.818	551.81
459.038	625.81
459.258	648.81
459.478	559.81
459.698	565.81
459.918	522.81
460.138	514.81
460.358	529.81
460.578	507.81
460.798	528.81
461.018	543.81
461.238	544.81
461.458	551.81
461.678	540.81
461.898	527.81
462.118	539.81
462.338	573.81
462.558	556.81
462.777	559.81
462.997	579.81
463.217	578.81
463.437	604.81
463.657	586.81
463.876	567.81
464.096	610.81
464.316	618.81
464.536	578.81
464.755	596.81
464.975	576.81
465.195	607.81
465.414	659.81
465.634	609.81
465.854	563.81
466.073	568.81
466.293	548.81
466.512	526.81
466.732	529.81
466.951	517.81
467.171	498.81
467.391	490.81
467.61	515.81
467.829	508.81
468.049	508.81
468.268	509.81
468.488	489.81
468.707	487.81
468.927	508.81
469.146	488.81
469.365	507.81
469.585	509.81
469.804	500.81
470.023	515.81
470.243	514.81
470.462	544.81
470.681	524.81
470.901	528.81
471.12	525.81
471.339	538.81
471.558	534.81
471.777	521.81
471.997	495.81
472.216	509.81
472.435	548.81
472.654	531.81
472.873	503.81
473.092	501.81
473.311	508.81
473.53	505.81
473.749	502.81
473.968	536.81
474.187	623.81
474.406	665.81
474.625	569.81
474.844	531.81
475.063	527.81
475.282	519.81
475.501	514.81
475.72	506.81
475.939	501.81
476.158	502.81
476.377	523.81
476.596	540.81
476.814	552.81
477.033	537.81
477.252	545.81
477.471	545.81
477.69	552.81
477.908	539.81
478.127	572.81
478.346	571.81
478.564	577.81
478.783	576.81
479.002	587.81
479.22	595.81
479.439	601.81
479.658	606.81
479.876	613.81
480.095	616.81
480.313	656.81
480.532	610.81
480.751	617.81
480.969	630.81
481.188	669.81
481.406	711.81
481.624	663.81
481.843	635.81
482.061	606.81
482.28	616.81
482.498	591.81
482.717	601.81
482.935	607.81
483.153	596.81
483.372	588.81
483.59	600.81
483.808	611.81
484.027	595.81
484.245	610.81
484.463	598.81
484.681	607.81
484.9	615.81
485.118	611.81
485.336	589.81
485.554	609.81
485.772	613.81
485.99	612.81
486.209	611.81
486.427	625.81
486.645	649.81
486.863	633.81
487.081	633.81
487.299	651.81
487.517	644.81
487.735	645.81
487.953	641.81
488.171	644.81
488.389	634.81
488.607	631.81
488.825	649.81
489.043	631.81
489.261	648.81
489.479	629.81
489.696	635.81
489.914	634.81
490.132	636.81
490.35	658.81
490.568	654.81
490.786	671.81
491.003	692.81
491.221	683.81
491.439	705.81
491.657	701.81
491.874	699.81
492.092	692.81
492.31	725.81
492.527	696.81
492.745	712.81
492.963	715.81
493.18	733.81
493.398	717.81
493.615	754.81
493.833	729.81
494.05	721.81
494.268	733.81
494.485	724.81
494.703	706.81
494.92	744.81
495.138	721.81
495.355	738.81
495.573	770.81
495.79	745.81
496.008	774.81
496.225	730.81
496.442	729.81
496.66	767.81
496.877	756.81
497.094	769.81
497.312	773.81
497.529	751.81
497.746	778.81
497.963	824.81
498.181	833.81
498.398	809.81
498.615	880.81
498.832	866.81
499.049	881.81
499.267	902.81
499.484	943.81
499.701	997.81
499.918	1010.81
500.135	1043.81
500.352	1109.81
500.569	1106.81
500.786	1109.81
501.003	1099.81
501.22	1062.81
501.437	1049.81
501.654	1019.81
501.871	986.81
502.088	923.81
502.305	939.81
502.522	881.81
502.739	875.81
502.956	853.81
503.172	840.81
503.389	818.81
503.606	797.81
503.823	797.81
504.04	788.81
504.256	800.81
504.473	779.81
504.69	782.81
504.907	781.81
505.123	732.81
505.34	756.81
505.557	727.81
505.773	717.81
505.99	724.81
506.207	708.81
506.423	705.81
506.64	699.81
506.856	694.81
507.073	694.81
507.289	707.81
507.506	693.81
507.722	704.81
507.939	716.81
508.155	697.81
508.372	665.81
508.588	670.81
508.805	659.81
509.021	685.81
509.238	674.81
509.454	672.81
509.67	670.81
509.887	680.81
510.103	663.81
510.319	682.81
510.536	751.81
510.752	1092.81
510.968	969.81
511.184	681.81
511.401	675.81
511.617	649.81
511.833	625.81
512.049	633.81
512.265	644.81
512.481	643.81
512.698	609.81
512.914	637.81
513.13	653.81
513.346	640.81
513.562	633.81
513.778	636.81
513.994	663.81
514.21	652.81
514.426	693.81
514.642	709.81
514.858	733.81
515.074	762.81
515.29	852.81
515.506	1141.81
515.721	1007.81
515.937	740.81
516.153	693.81
516.369	717.81
516.585	707.81
516.801	663.81
517.016	659.81
517.232	674.81
517.448	655.81
517.664	684.81
517.879	683.81
518.095	675.81
518.311	675.81
518.527	688.81
518.742	689.81
518.958	653.81
519.173	644.81
519.389	649.81
519.605	644.81
519.82	643.81
520.036	643.81
520.251	688.81
520.467	662.81
520.682	707.81
520.898	711.81
521.113	700.81
521.329	732.81
521.544	820.81
521.76	953.81
521.975	1403.81
522.19	1442.81
522.406	875.81
522.621	701.81
522.836	672.81
523.052	631.81
523.267	627.81
523.482	616.81
523.698	620.81
523.913	601.81
524.128	610.81
524.343	599.81
524.559	583.81
524.774	555.81
524.989	562.81
525.204	560.81
525.419	592.81
525.634	550.81
525.849	542.81
526.064	556.81
526.28	546.81
526.495	559.81
526.71	544.81
526.925	558.81
527.14	527.81
527.355	538.81
527.57	529.81
527.785	545.81
527.999	543.81
528.214	541.81
528.429	525.81
528.644	555.81
528.859	534.81
529.074	539.81
529.289	574.81
529.503	630.81
529.718	590.81
529.933	576.81
530.148	541.81
530.363	544.81
530.577	541.81
530.792	527.81
531.007	548.81
531.221	547.81
531.436	532.81
531.651	538.81
531.865	514.81
532.08	517.81
532.295	514.81
532.509	535.81
532.724	540.81
532.938	515.81
533.153	511.81
533.367	522.81
533.582	551.81
533.796	537.81
534.011	489.81
534.225	482.81
534.44	490.81
534.654	513.81
534.868	501.81
535.083	523.81
535.297	497.81
535.511	524.81
535.726	518.81
535.94	529.81
536.154	525.81
536.369	513.81
536.583	501.81
536.797	495.81
537.011	504.81
537.225	496.81
537.44	511.81
537.654	497.81
537.868	500.81
538.082	497.81
538.296	498.81
538.51	480.81
538.724	491.81
538.938	499.81
539.153	517.81
539.367	523.81
539.581	515.81
539.795	487.81
540.009	504.81
540.222	491.81
540.436	485.81
540.65	485.81
540.864	476.81
541.078	495.81
541.292	507.81
541.506	485.81
541.72	484.81
541.934	488.81
542.147	498.81
542.361	491.81
542.575	484.81
542.789	468.81
543.002	489.81
543.216	505.81
543.43	518.81
543.644	493.81
543.857	487.81
544.071	475.81
544.285	512.81
544.498	465.81
544.712	510.81
544.925	507.81
545.139	514.81
545.352	475.81
545.566	474.81
545.779	490.81
545.993	508.81
546.206	500.81
546.42	502.81
546.633	498.81
546.847	470.81
547.06	486.81
547.274	499.81
547.487	481.81
547.7	464.81
547.914	487.81
548.127	482.81
548.34	472.81
548.554	492.81
548.767	452.81
548.98	472.81
549.193	459.81
549.407	470.81
549.62	487.81
549.833	486.81
550.046	458.81
550.259	446.81
550.473	460.81
550.686	469.81
550.899	483.81
551.112	484.81
551.325	472.81
551.538	487.81
551.751	445.81
551.964	466.81
552.177	459.81
552.39	468.81
552.603	482.81
552.816	462.81
553.029	483.81
553.242	476.81
553.455	488.81
553.667	495.81
553.88	512.81
554.093	500.81
554.306	477.81
554.519	491.81
554.732	470.81
554.944	462.81
555.157	468.81
555.37	473.81
555.583	421.81
555.795	456.81
556.008	447.81
556.221	443.81
556.433	443.81
556.646	449.81
556.859	445.81
557.071	420.81
557.284	432.81
557.496	449.81
557.709	420.81
557.921	424.81
558.134	435.81
558.346	438.81
558.559	438.81
558.771	429.81
558.984	434.81
559.196	419.81
559.409	413.81
559.621	420.81
559.833	411.81
560.046	421.81
560.258	436.81
560.47	415.81
560.683	435.81
560.895	414.81
561.107	397.81
561.32	438.81
561.532	422.81
561.744	429.81
561.956	436.81
562.168	429.81
562.381	435.81
562.593	437.81
562.805	436.81
563.017	448.81
563.229	440.81
563.441	435.81
563.653	423.81
563.865	432.81
564.077	433.81
564.289	449.81
564.501	436.81
564.713	428.81
564.925	461.81
565.137	479.81
565.349	463.81
565.561	469.81
565.773	455.81
565.985	450.81
566.197	491.81
566.408	497.81
566.62	529.81
566.832	550.81
567.044	533.81
567.255	522.81
567.467	541.81
567.679	529.81
567.891	564.81
568.102	527.81
568.314	551.81
568.526	537.81
568.737	516.81
568.949	498.81
569.161	455.81
569.372	485.81
569.584	474.81
569.795	416.81
570.007	442.81
570.218	461.81
570.43	478.81
570.641	441.81
570.853	408.81
571.064	421.81
571.276	417.81
571.487	421.81
571.698	428.81
571.91	391.81
572.121	394.81
572.333	381.81
572.544	412.81
572.755	365.81
572.966	391.81
573.178	374.81
573.389	380.81
573.6	395.81
573.811	386.81
574.023	389.81
574.234	389.81
574.445	365.81
574.656	385.81
574.867	387.81
575.078	362.81
575.289	349.81
575.501	363.81
575.712	386.81
575.923	381.81
576.134	351.81
576.345	367.81
576.556	359.81
576.767	354.81
576.978	372.81
577.188	367.81
577.399	359.81
577.61	356.81
577.821	341.81
578.032	355.81
578.243	378.81
578.454	539.81
578.665	435.81
578.875	369.81
579.086	343.81
579.297	372.81
579.508	360.81
579.718	321.81
579.929	346.81
580.14	351.81
580.35	344.81
580.561	330.81
580.772	321.81
580.982	333.81
581.193	355.81
581.403	353.81
581.614	351.81
581.825	353.81
582.035	329.81
582.246	326.81
582.456	338.81
582.667	322.81
582.877	335.81
583.087	344.81
583.298	356.81
583.508	350.81
583.719	351.81
583.929	339.81
584.139	344.81
584.35	331.81
584.56	339.81
584.77	330.81
584.981	339.81
585.191	339.81
585.401	327.81
585.611	342.81
585.821	348.81
586.032	340.81
586.242	333.81
586.452	331.81
586.662	325.81
586.872	324.81
587.082	325.81
587.292	335.81
587.502	327.81
587.713	335.81
587.923	331.81
588.133	326.81
588.343	328.81
588.553	310.81
588.762	331.81
588.972	324.81
589.182	320.81
589.392	319.81
589.602	322.81
589.812	314.81
590.022	319.81
590.232	313.81
590.441	332.81
590.651	321.81
590.861	335.81
591.071	322.81
591.281	307.81
591.49	313.81
591.7	308.81
591.91	317.81
592.119	324.81
592.329	335.81
592.539	337.81
592.748	342.81
592.958	351.81
593.167	358.81
593.377	353.81
593.587	354.81
593.796	333.81
594.006	351.81
594.215	341.81
594.424	334.81
594.634	346.81
594.843	338.81
595.053	345.81
595.262	342.81
595.472	326.81
595.681	317.81
595.89	320.81
596.1	320.81
596.309	325.81
596.518	300.81
596.727	333.81
596.937	309.81
597.146	305.81
597.355	295.81
597.564	299.81
597.774	305.81
597.983	305.81
598.192	300.81
598.401	299.81
598.61	296.81
598.819	295.81
599.028	304.81
599.237	306.81
599.446	299.81
599.655	297.81
599.864	276.81
600.073	275.81
600.282	278.81
600.491	283.81
600.7	296.81
600.909	275.81
601.118	261.81
601.327	272.81
601.536	273.81
601.745	283.81
601.953	313.81
602.162	284.81
602.371	276.81
602.58	302.81
602.789	290.81
602.997	290.81
603.206	261.81
603.415	288.81
603.623	277.81
603.832	268.81
604.041	264.81
604.249	263.81
604.458	273.81
604.666	239.81
604.875	290.81
605.084	273.81
605.292	266.81
605.501	268.81
605.709	266.81
605.918	270.81
606.126	258.81
606.334	268.81
606.543	280.81
606.751	283.81
606.96	259.81
607.168	268.81
607.376	276.81
607.585	269.81
607.793	267.81
608.001	285.81
608.21	272.81
608.418	269.81
608.626	251.81
608.834	262.81
609.043	273.81
609.251	267.81
609.459	263.81
609.667	282.81
609.875	255.81
610.083	271.81
610.291	265.81
610.499	266.81
610.707	291.81
610.916	272.81
611.124	274.81
611.332	278.81
611.54	278.81
611.748	245.81
611.955	263.81
612.163	267.81
612.371	266.81
612.579	245.81
612.787	260.81
612.995	252.81
613.203	251.81
613.411	257.81
613.618	251.81
613.826	251.81
614.034	260.81
614.242	257.81
614.449	243.81
614.657	256.81
614.865	247.81
615.072	267.81
615.28	248.81
615.488	232.81
615.695	246.81
615.903	246.81
616.111	248.81
616.318	250.81
616.526	246.81
616.733	272.81
616.941	247.81
617.148	250.81
617.356	251.81
617.563	243.81
617.771	235.81
617.978	229.81
618.185	244.81
618.393	261.81
618.6	259.81
618.807	256.81
619.015	255.81
619.222	259.81
619.429	256.81
619.637	247.81
619.844	251.81
620.051	242.81
620.258	237.81
620.466	235.81
620.673	239.81
620.88	240.81
621.087	230.81
621.294	239.81
621.501	218.81
621.708	237.81
621.915	242.81
622.122	237.81
622.329	261.81
622.536	244.81
622.743	218.81
622.95	246.81
623.157	212.81
623.364	229.81
623.571	244.81
623.778	222.81
623.985	237.81
624.192	229.81
624.399	214.81
624.606	230.81
624.812	241.81
625.019	237.81
625.226	221.81
625.433	215.81
625.639	212.81
625.846	215.81
626.053	227.81
626.259	210.81
626.466	210.81
626.673	200.81
626.879	223.81
627.086	216.81
627.293	222.81
627.499	225.81
627.706	220.81
627.912	214.81
628.119	202.81
628.325	218.81
628.532	211.81
628.738	208.81
628.945	207.81
629.151	221.81
629.357	199.81
629.564	208.81
629.77	214.81
629.976	226.81
630.183	220.81
630.389	208.81
630.595	214.81
630.802	213.81
631.008	215.81
631.214	221.81
631.42	216.81
631.627	208.81
631.833	197.81
632.039	202.81
632.245	203.81
632.451	208.81
632.657	209.81
632.863	193.81
633.069	199.81
633.275	213.81
633.481	201.81
633.688	185.81
633.893	198.81
634.099	184.81
634.305	191.81
634.511	210.81
634.717	193.81
634.923	200.81
635.129	188.81
635.335	196.81
635.541	200.81
635.747	186.81
635.952	206.81
636.158	187.81
636.364	188.81
636.57	197.81
636.775	183.81
636.981	187.81
637.187	209.81
637.392	206.81
637.598	200.81
637.804	202.81
638.009	188.81
638.215	186.81
638.421	192.81
638.626	203.81
638.832	193.81
639.037	174.81
639.243	197.81
639.448	187.81
639.654	198.81
639.859	199.81
640.065	185.81
640.27	200.81
640.475	205.81
640.681	179.81
640.886	187.81
641.091	200.81
641.297	182.81
641.502	183.81
641.707	175.81
641.913	183.81
642.118	186.81
642.323	170.81
642.528	178.81
642.733	175.81
642.939	177.81
643.144	164.81
643.349	168.81
643.554	187.81
643.759	166.81
643.964	179.81
644.169	175.81
644.374	168.81
644.579	172.81
644.784	186.81
644.989	182.81
645.194	186.81
645.399	191.81
645.604	171.81
645.809	173.81
646.014	163.81
646.219	178.81
646.423	155.81
646.628	182.81
646.833	181.81
647.038	179.81
647.243	165.81
647.447	183.81
647.652	185.81
647.857	170.81
648.062	187.81
648.266	171.81
648.471	177.81
648.676	180.81
648.88	190.81
649.085	182.81
649.289	171.81
649.494	172.81
649.698	194.81
649.903	200.81
650.107	189.81
650.312	180.81
650.516	172.81
650.721	148.81
650.925	159.81
651.13	168.81
651.334	165.81
651.539	157.81
651.743	161.81
651.947	148.81
652.152	147.81
652.356	152.81
652.56	138.81
652.764	147.81
652.969	145.81
653.173	158.81
653.377	159.81
653.581	155.81
653.785	137.81
653.99	148.81
654.194	146.81
654.398	143.81
654.602	137.81
654.806	147.81
655.01	141.81
655.214	140.81
655.418	139.81
655.622	125.81
655.826	143.81
656.03	144.81
656.234	145.81
656.438	124.81
656.642	136.81
656.846	116.81
657.049	136.81
657.253	144.81
657.457	123.81
657.661	129.81
657.865	107.81
658.068	97.81
658.272	116.81
658.476	105.81
658.68	106.81
658.883	107.81
659.087	107.81
659.291	106.81
659.494	107.81
659.698	90.81
659.901	104.81
660.105	99.81
660.309	98.81
660.512	96.81
660.716	99.81
660.919	98.81
661.123	103.81
661.326	104.81
661.53	86.81
661.733	98.81
661.936	83.81
662.14	95.81
662.343	89.81
662.546	92.81
662.75	83.81
662.953	77.81
663.156	91.81
663.36	86.81
663.563	77.81
663.766	92.81
663.969	100.81
664.173	91.81
664.376	85.81
664.579	90.81
664.782	85.81
664.985	79.81
665.188	68.81
665.391	85.81
665.594	86.81
665.797	80.81
666	81.81
666.203	74.81
666.406	80.81
666.609	65.81
666.812	88.81
667.015	79.81
667.218	91.81
667.421	77.81
667.624	82.81
667.827	78.81
668.03	85.81
668.232	73.81
668.435	80.81
668.638	90.81
668.841	75.81
669.043	73.81
669.246	82.81
669.449	70.81
669.651	83.81
669.854	76.81
670.057	69.81
670.259	79.81
670.462	89.81
670.665	77.81
670.867	75.81
671.07	84.81
671.272	72.81
671.475	87.81
671.677	88.81
671.88	77.81
672.082	76.81
672.284	91.81
672.487	76.81
672.689	87.81
672.892	77.81
