Data from 1978.PennyLincolnUp.Lamp.En5.5.200Scan.071719.P1_HRD10591_16-13-09-864.txt Node
Date: Thu Jul 18 16:13:09 EDT 2019
User: cochatt
Spectrometer: HR+D1059
Trigger mode: 1
Integration Time (sec): 1.000000E-1
Scans to average: 1
Electric dark correction enabled: true
Nonlinearity correction enabled: false
Boxcar width: 0
XAxis mode: Wavelengths
Number of Pixels in Spectrum: 2048
>>>>>Begin Spectral Data<<<<<
223.165	-8.31
223.4	-8.31
223.635	-8.31
223.869	-27.31
224.104	-29.31
224.338	-18.31
224.573	-23.31
224.808	-8.31
225.042	-4.31
225.277	-1.31
225.511	-0.31
225.746	2.69
225.98	1.69
226.215	9.69
226.449	15.69
226.683	21.69
226.918	35.69
227.152	33.69
227.387	41.69
227.621	34.69
227.856	35.69
228.09	44.69
228.324	45.69
228.559	31.69
228.793	66.69
229.027	94.69
229.262	100.69
229.496	107.69
229.73	116.69
229.964	153.69
230.199	119.69
230.433	123.69
230.667	101.69
230.901	119.69
231.136	106.69
231.37	108.69
231.604	110.69
231.838	118.69
232.072	115.69
232.306	113.69
232.541	118.69
232.775	110.69
233.009	107.69
233.243	115.69
233.477	105.69
233.711	118.69
233.945	119.69
234.179	114.69
234.413	117.69
234.647	107.69
234.881	106.69
235.115	116.69
235.349	108.69
235.583	127.69
235.817	109.69
236.051	129.69
236.285	131.69
236.519	134.69
236.753	127.69
236.987	130.69
237.221	170.69
237.455	215.69
237.689	190.69
237.922	148.69
238.156	127.69
238.39	125.69
238.624	110.69
238.858	131.69
239.091	127.69
239.325	122.69
239.559	123.69
239.793	132.69
240.027	125.69
240.26	144.69
240.494	143.69
240.728	146.69
240.961	151.69
241.195	151.69
241.429	132.69
241.662	137.69
241.896	128.69
242.13	123.69
242.363	130.69
242.597	133.69
242.83	143.69
243.064	140.69
243.298	143.69
243.531	150.69
243.765	132.69
243.998	133.69
244.232	129.69
244.465	147.69
244.699	133.69
244.932	140.69
245.166	141.69
245.399	149.69
245.633	131.69
245.866	136.69
246.099	155.69
246.333	137.69
246.566	129.69
246.8	131.69
247.033	152.69
247.266	170.69
247.5	146.69
247.733	144.69
247.966	164.69
248.2	171.69
248.433	153.69
248.666	169.69
248.899	189.69
249.133	191.69
249.366	182.69
249.599	192.69
249.832	168.69
250.066	170.69
250.299	181.69
250.532	183.69
250.765	195.69
250.998	188.69
251.231	223.69
251.465	199.69
251.698	194.69
251.931	173.69
252.164	189.69
252.397	188.69
252.63	180.69
252.863	189.69
253.096	205.69
253.329	203.69
253.562	202.69
253.795	207.69
254.028	199.69
254.261	195.69
254.494	207.69
254.727	238.69
254.96	257.69
255.193	238.69
255.426	227.69
255.659	226.69
255.892	208.69
256.124	220.69
256.357	205.69
256.59	193.69
256.823	192.69
257.056	192.69
257.289	201.69
257.521	211.69
257.754	207.69
257.987	209.69
258.22	202.69
258.452	203.69
258.685	191.69
258.918	195.69
259.151	204.69
259.383	207.69
259.616	213.69
259.849	226.69
260.081	215.69
260.314	236.69
260.547	241.69
260.779	236.69
261.012	206.69
261.244	211.69
261.477	206.69
261.71	222.69
261.942	220.69
262.175	205.69
262.407	204.69
262.64	227.69
262.872	210.69
263.105	213.69
263.337	217.69
263.57	217.69
263.802	197.69
264.035	202.69
264.267	202.69
264.499	197.69
264.732	208.69
264.964	215.69
265.197	202.69
265.429	215.69
265.661	210.69
265.894	202.69
266.126	211.69
266.358	196.69
266.591	211.69
266.823	230.69
267.055	210.69
267.287	201.69
267.52	205.69
267.752	206.69
267.984	209.69
268.216	212.69
268.448	233.69
268.681	215.69
268.913	221.69
269.145	259.69
269.377	243.69
269.609	247.69
269.841	249.69
270.073	256.69
270.306	292.69
270.538	291.69
270.77	293.69
271.002	287.69
271.234	280.69
271.466	264.69
271.698	273.69
271.93	287.69
272.162	305.69
272.394	309.69
272.626	279.69
272.858	274.69
273.09	268.69
273.322	252.69
273.553	266.69
273.785	255.69
274.017	261.69
274.249	255.69
274.481	258.69
274.713	269.69
274.945	279.69
275.176	241.69
275.408	246.69
275.64	260.69
275.872	276.69
276.104	258.69
276.335	250.69
276.567	253.69
276.799	271.69
277.031	286.69
277.262	285.69
277.494	296.69
277.726	300.69
277.957	274.69
278.189	270.69
278.421	262.69
278.652	278.69
278.884	255.69
279.115	270.69
279.347	263.69
279.579	248.69
279.81	255.69
280.042	245.69
280.273	257.69
280.505	268.69
280.736	238.69
280.968	274.69
281.199	261.69
281.431	277.69
281.662	274.69
281.894	271.69
282.125	285.69
282.356	281.69
282.588	284.69
282.819	277.69
283.051	259.69
283.282	267.69
283.513	275.69
283.745	267.69
283.976	265.69
284.207	271.69
284.439	271.69
284.67	274.69
284.901	270.69
285.132	276.69
285.364	255.69
285.595	283.69
285.826	284.69
286.057	283.69
286.288	275.69
286.52	276.69
286.751	262.69
286.982	265.69
287.213	269.69
287.444	263.69
287.675	279.69
287.906	287.69
288.138	303.69
288.369	306.69
288.6	298.69
288.831	287.69
289.062	295.69
289.293	276.69
289.524	281.69
289.755	292.69
289.986	299.69
290.217	285.69
290.448	285.69
290.679	280.69
290.91	289.69
291.141	283.69
291.371	263.69
291.602	281.69
291.833	270.69
292.064	289.69
292.295	275.69
292.526	299.69
292.757	302.69
292.987	285.69
293.218	293.69
293.449	267.69
293.68	291.69
293.91	283.69
294.141	280.69
294.372	277.69
294.603	276.69
294.833	285.69
295.064	278.69
295.295	293.69
295.525	293.69
295.756	296.69
295.987	289.69
296.217	317.69
296.448	321.69
296.679	301.69
296.909	296.69
297.14	292.69
297.37	309.69
297.601	303.69
297.831	301.69
298.062	309.69
298.292	306.69
298.523	297.69
298.753	306.69
298.984	311.69
299.214	302.69
299.445	296.69
299.675	318.69
299.905	311.69
300.136	321.69
300.366	297.69
300.597	331.69
300.827	321.69
301.057	307.69
301.288	318.69
301.518	314.69
301.748	309.69
301.979	319.69
302.209	321.69
302.439	311.69
302.669	327.69
302.9	327.69
303.13	314.69
303.36	323.69
303.59	315.69
303.82	326.69
304.051	337.69
304.281	329.69
304.511	340.69
304.741	323.69
304.971	319.69
305.201	329.69
305.431	332.69
305.661	328.69
305.891	326.69
306.121	325.69
306.352	325.69
306.582	317.69
306.812	326.69
307.042	322.69
307.272	316.69
307.502	328.69
307.731	327.69
307.961	317.69
308.191	318.69
308.421	322.69
308.651	342.69
308.881	326.69
309.111	331.69
309.341	342.69
309.571	346.69
309.8	345.69
310.03	350.69
310.26	351.69
310.49	360.69
310.72	376.69
310.949	385.69
311.179	391.69
311.409	373.69
311.639	364.69
311.868	351.69
312.098	379.69
312.328	378.69
312.557	383.69
312.787	375.69
313.017	397.69
313.246	370.69
313.476	375.69
313.706	390.69
313.935	382.69
314.165	379.69
314.394	393.69
314.624	389.69
314.853	382.69
315.083	361.69
315.312	387.69
315.542	374.69
315.771	364.69
316.001	377.69
316.23	392.69
316.46	370.69
316.689	374.69
316.919	369.69
317.148	382.69
317.377	394.69
317.607	391.69
317.836	373.69
318.065	378.69
318.295	381.69
318.524	371.69
318.753	366.69
318.983	364.69
319.212	356.69
319.441	357.69
319.67	370.69
319.9	382.69
320.129	395.69
320.358	403.69
320.587	389.69
320.816	379.69
321.046	394.69
321.275	380.69
321.504	389.69
321.733	397.69
321.962	415.69
322.191	412.69
322.42	409.69
322.649	415.69
322.878	437.69
323.108	453.69
323.337	475.69
323.566	482.69
323.795	515.69
324.024	572.69
324.253	656.69
324.482	941.69
324.71	1514.69
324.939	2251.69
325.168	1969.69
325.397	968.69
325.626	652.69
325.855	541.69
326.084	494.69
326.313	476.69
326.542	486.69
326.77	522.69
326.999	608.69
327.228	863.69
327.457	1387.69
327.686	1709.69
327.914	1081.69
328.143	681.69
328.372	633.69
328.6	586.69
328.829	564.69
329.058	574.69
329.287	562.69
329.515	559.69
329.744	503.69
329.972	486.69
330.201	517.69
330.43	549.69
330.658	557.69
330.887	586.69
331.115	579.69
331.344	526.69
331.572	493.69
331.801	486.69
332.03	469.69
332.258	481.69
332.486	438.69
332.715	444.69
332.943	437.69
333.172	452.69
333.4	441.69
333.629	475.69
333.857	502.69
334.085	486.69
334.314	491.69
334.542	517.69
334.771	531.69
334.999	505.69
335.227	476.69
335.455	477.69
335.684	461.69
335.912	461.69
336.14	461.69
336.369	460.69
336.597	470.69
336.825	450.69
337.053	452.69
337.281	441.69
337.51	448.69
337.738	466.69
337.966	451.69
338.194	468.69
338.422	448.69
338.65	450.69
338.878	442.69
339.106	425.69
339.334	447.69
339.562	428.69
339.79	439.69
340.018	453.69
340.246	435.69
340.474	446.69
340.702	441.69
340.93	437.69
341.158	441.69
341.386	439.69
341.614	435.69
341.842	430.69
342.07	432.69
342.298	442.69
342.526	418.69
342.754	438.69
342.981	405.69
343.209	405.69
343.437	428.69
343.665	419.69
343.893	447.69
344.12	451.69
344.348	467.69
344.576	458.69
344.804	444.69
345.031	444.69
345.259	472.69
345.487	446.69
345.714	452.69
345.942	428.69
346.17	433.69
346.397	434.69
346.625	415.69
346.853	430.69
347.08	390.69
347.308	427.69
347.535	430.69
347.763	461.69
347.99	423.69
348.218	437.69
348.445	447.69
348.673	441.69
348.9	426.69
349.128	443.69
349.355	417.69
349.583	413.69
349.81	428.69
350.037	418.69
350.265	426.69
350.492	414.69
350.72	415.69
350.947	407.69
351.174	426.69
351.402	435.69
351.629	425.69
351.856	414.69
352.083	443.69
352.311	433.69
352.538	437.69
352.765	457.69
352.992	421.69
353.22	439.69
353.447	453.69
353.674	410.69
353.901	427.69
354.128	384.69
354.355	398.69
354.583	396.69
354.81	392.69
355.037	391.69
355.264	399.69
355.491	398.69
355.718	412.69
355.945	390.69
356.172	405.69
356.399	397.69
356.626	420.69
356.853	406.69
357.08	395.69
357.307	403.69
357.534	389.69
357.761	418.69
357.988	406.69
358.215	413.69
358.441	407.69
358.668	409.69
358.895	417.69
359.122	412.69
359.349	426.69
359.576	417.69
359.802	445.69
360.029	455.69
360.256	482.69
360.483	469.69
360.709	446.69
360.936	435.69
361.163	424.69
361.39	421.69
361.616	418.69
361.843	428.69
362.07	434.69
362.296	421.69
362.523	437.69
362.749	433.69
362.976	455.69
363.203	427.69
363.429	433.69
363.656	409.69
363.882	417.69
364.109	401.69
364.335	401.69
364.562	410.69
364.788	399.69
365.015	405.69
365.241	410.69
365.468	414.69
365.694	430.69
365.92	410.69
366.147	392.69
366.373	403.69
366.599	407.69
366.826	411.69
367.052	402.69
367.278	415.69
367.505	403.69
367.731	419.69
367.957	401.69
368.184	435.69
368.41	397.69
368.636	433.69
368.862	437.69
369.089	434.69
369.315	413.69
369.541	426.69
369.767	418.69
369.993	410.69
370.219	411.69
370.445	434.69
370.672	415.69
370.898	430.69
371.124	417.69
371.35	419.69
371.576	433.69
371.802	449.69
372.028	445.69
372.254	403.69
372.48	403.69
372.706	425.69
372.932	430.69
373.158	425.69
373.384	422.69
373.61	425.69
373.835	436.69
374.061	399.69
374.287	441.69
374.513	413.69
374.739	429.69
374.965	449.69
375.191	418.69
375.416	437.69
375.642	411.69
375.868	434.69
376.094	436.69
376.319	421.69
376.545	433.69
376.771	411.69
376.997	413.69
377.222	430.69
377.448	414.69
377.674	430.69
377.899	418.69
378.125	426.69
378.35	425.69
378.576	401.69
378.802	421.69
379.027	423.69
379.253	438.69
379.478	415.69
379.704	423.69
379.929	430.69
380.155	417.69
380.38	425.69
380.606	439.69
380.831	415.69
381.057	443.69
381.282	436.69
381.507	436.69
381.733	418.69
381.958	417.69
382.184	437.69
382.409	426.69
382.634	431.69
382.86	437.69
383.085	433.69
383.31	436.69
383.535	456.69
383.761	434.69
383.986	447.69
384.211	428.69
384.436	433.69
384.662	433.69
384.887	463.69
385.112	436.69
385.337	458.69
385.562	445.69
385.787	461.69
386.013	453.69
386.238	458.69
386.463	467.69
386.688	458.69
386.913	455.69
387.138	471.69
387.363	473.69
387.588	481.69
387.813	471.69
388.038	472.69
388.263	451.69
388.488	471.69
388.713	445.69
388.938	472.69
389.163	468.69
389.387	460.69
389.612	468.69
389.837	466.69
390.062	468.69
390.287	456.69
390.512	463.69
390.736	481.69
390.961	469.69
391.186	467.69
391.411	477.69
391.636	487.69
391.86	475.69
392.085	497.69
392.31	501.69
392.534	482.69
392.759	504.69
392.984	495.69
393.208	479.69
393.433	495.69
393.658	487.69
393.882	502.69
394.107	486.69
394.331	492.69
394.556	469.69
394.78	505.69
395.005	507.69
395.229	478.69
395.454	481.69
395.678	478.69
395.903	497.69
396.127	534.69
396.352	539.69
396.576	493.69
396.801	484.69
397.025	478.69
397.249	496.69
397.474	519.69
397.698	492.69
397.922	513.69
398.147	545.69
398.371	529.69
398.595	517.69
398.82	542.69
399.044	539.69
399.268	584.69
399.492	625.69
399.717	659.69
399.941	676.69
400.165	671.69
400.389	705.69
400.613	621.69
400.837	595.69
401.062	587.69
401.286	571.69
401.51	582.69
401.734	555.69
401.958	567.69
402.182	537.69
402.406	561.69
402.63	552.69
402.854	559.69
403.078	561.69
403.302	557.69
403.526	604.69
403.75	575.69
403.974	568.69
404.198	565.69
404.422	581.69
404.645	580.69
404.869	589.69
405.093	611.69
405.317	641.69
405.541	709.69
405.765	629.69
405.988	622.69
406.212	607.69
406.436	637.69
406.66	637.69
406.883	640.69
407.107	639.69
407.331	683.69
407.555	761.69
407.778	751.69
408.002	700.69
408.226	654.69
408.449	637.69
408.673	656.69
408.896	675.69
409.12	703.69
409.344	661.69
409.567	606.69
409.791	603.69
410.014	581.69
410.238	570.69
410.461	615.69
410.685	575.69
410.908	592.69
411.132	649.69
411.355	687.69
411.578	650.69
411.802	596.69
412.025	558.69
412.249	574.69
412.472	603.69
412.695	645.69
412.919	639.69
413.142	597.69
413.365	600.69
413.589	564.69
413.812	547.69
414.035	582.69
414.258	554.69
414.482	550.69
414.705	530.69
414.928	539.69
415.151	552.69
415.374	552.69
415.597	549.69
415.821	549.69
416.044	567.69
416.267	545.69
416.49	549.69
416.713	537.69
416.936	552.69
417.159	554.69
417.382	547.69
417.605	524.69
417.828	547.69
418.051	576.69
418.274	567.69
418.497	549.69
418.72	553.69
418.943	554.69
419.166	580.69
419.389	599.69
419.611	572.69
419.834	585.69
420.057	559.69
420.28	572.69
420.503	552.69
420.726	543.69
420.948	570.69
421.171	617.69
421.394	657.69
421.617	589.69
421.839	573.69
422.062	572.69
422.285	549.69
422.507	639.69
422.73	736.69
422.953	721.69
423.175	609.69
423.398	601.69
423.621	559.69
423.843	627.69
424.066	611.69
424.288	612.69
424.511	622.69
424.733	675.69
424.956	759.69
425.178	732.69
425.401	723.69
425.623	761.69
425.846	649.69
426.068	614.69
426.291	606.69
426.513	588.69
426.735	621.69
426.958	638.69
427.18	744.69
427.402	882.69
427.625	969.69
427.847	849.69
428.069	736.69
428.292	644.69
428.514	620.69
428.736	590.69
428.958	578.69
429.181	567.69
429.403	573.69
429.625	575.69
429.847	582.69
430.069	682.69
430.292	679.69
430.514	581.69
430.736	552.69
430.958	557.69
431.18	527.69
431.402	544.69
431.624	533.69
431.846	529.69
432.068	533.69
432.29	532.69
432.512	546.69
432.734	548.69
432.956	548.69
433.178	527.69
433.4	541.69
433.622	534.69
433.844	554.69
434.066	502.69
434.287	534.69
434.509	538.69
434.731	537.69
434.953	551.69
435.175	556.69
435.397	586.69
435.618	595.69
435.84	649.69
436.062	739.69
436.284	849.69
436.505	706.69
436.727	627.69
436.949	590.69
437.17	567.69
437.392	574.69
437.614	575.69
437.835	622.69
438.057	707.69
438.278	836.69
438.5	807.69
438.721	910.69
438.943	870.69
439.165	653.69
439.386	638.69
439.608	616.69
439.829	600.69
440.05	626.69
440.272	665.69
440.493	659.69
440.715	591.69
440.936	580.69
441.158	565.69
441.379	551.69
441.6	582.69
441.822	612.69
442.043	633.69
442.264	715.69
442.486	787.69
442.707	672.69
442.928	623.69
443.149	633.69
443.371	627.69
443.592	687.69
443.813	773.69
444.034	873.69
444.255	699.69
444.476	644.69
444.698	639.69
444.919	635.69
445.14	725.69
445.361	675.69
445.582	643.69
445.803	725.69
446.024	831.69
446.245	847.69
446.466	776.69
446.687	663.69
446.908	607.69
447.129	563.69
447.35	562.69
447.571	564.69
447.792	549.69
448.013	548.69
448.234	578.69
448.455	615.69
448.675	784.69
448.896	891.69
449.117	743.69
449.338	704.69
449.559	839.69
449.779	978.69
450	742.69
450.221	606.69
450.442	583.69
450.662	550.69
450.883	564.69
451.104	532.69
451.324	557.69
451.545	522.69
451.766	519.69
451.986	499.69
452.207	532.69
452.428	488.69
452.648	515.69
452.869	490.69
453.089	507.69
453.31	515.69
453.53	537.69
453.751	515.69
453.971	497.69
454.192	511.69
454.412	525.69
454.633	486.69
454.853	517.69
455.073	485.69
455.294	516.69
455.514	601.69
455.734	595.69
455.955	514.69
456.175	500.69
456.395	462.69
456.616	477.69
456.836	462.69
457.056	467.69
457.276	461.69
457.497	474.69
457.717	493.69
457.937	485.69
458.157	502.69
458.377	498.69
458.598	508.69
458.818	545.69
459.038	639.69
459.258	671.69
459.478	564.69
459.698	571.69
459.918	529.69
460.138	561.69
460.358	551.69
460.578	534.69
460.798	539.69
461.018	548.69
461.238	539.69
461.458	562.69
461.678	545.69
461.898	569.69
462.118	569.69
462.338	574.69
462.558	576.69
462.777	576.69
462.997	594.69
463.217	606.69
463.437	612.69
463.657	619.69
463.876	619.69
464.096	607.69
464.316	577.69
464.536	602.69
464.755	614.69
464.975	595.69
465.195	619.69
465.414	702.69
465.634	609.69
465.854	574.69
466.073	556.69
466.293	539.69
466.512	539.69
466.732	543.69
466.951	523.69
467.171	519.69
467.391	525.69
467.61	533.69
467.829	543.69
468.049	535.69
468.268	528.69
468.488	530.69
468.707	499.69
468.927	526.69
469.146	500.69
469.365	525.69
469.585	517.69
469.804	533.69
470.023	519.69
470.243	538.69
470.462	542.69
470.681	527.69
470.901	526.69
471.12	544.69
471.339	529.69
471.558	525.69
471.777	507.69
471.997	525.69
472.216	547.69
472.435	558.69
472.654	548.69
472.873	547.69
473.092	517.69
473.311	529.69
473.53	518.69
473.749	530.69
473.968	546.69
474.187	676.69
474.406	725.69
474.625	596.69
474.844	525.69
475.063	541.69
475.282	523.69
475.501	539.69
475.72	532.69
475.939	538.69
476.158	542.69
476.377	525.69
476.596	541.69
476.814	542.69
477.033	542.69
477.252	580.69
477.471	549.69
477.69	538.69
477.908	586.69
478.127	575.69
478.346	587.69
478.564	589.69
478.783	598.69
479.002	569.69
479.22	605.69
479.439	610.69
479.658	620.69
479.876	641.69
480.095	630.69
480.313	674.69
480.532	660.69
480.751	635.69
480.969	659.69
481.188	677.69
481.406	710.69
481.624	669.69
481.843	641.69
482.061	634.69
482.28	646.69
482.498	625.69
482.717	619.69
482.935	597.69
483.153	586.69
483.372	604.69
483.59	632.69
483.808	627.69
484.027	629.69
484.245	607.69
484.463	607.69
484.681	613.69
484.9	619.69
485.118	608.69
485.336	632.69
485.554	632.69
485.772	628.69
485.99	637.69
486.209	637.69
486.427	643.69
486.645	670.69
486.863	681.69
487.081	629.69
487.299	671.69
487.517	645.69
487.735	655.69
487.953	645.69
488.171	673.69
488.389	647.69
488.607	644.69
488.825	673.69
489.043	660.69
489.261	643.69
489.479	676.69
489.696	685.69
489.914	664.69
490.132	648.69
490.35	679.69
490.568	670.69
490.786	701.69
491.003	703.69
491.221	715.69
491.439	765.69
491.657	704.69
491.874	726.69
492.092	739.69
492.31	738.69
492.527	753.69
492.745	718.69
492.963	715.69
493.18	727.69
493.398	746.69
493.615	755.69
493.833	749.69
494.05	761.69
494.268	781.69
494.485	764.69
494.703	758.69
494.92	775.69
495.138	749.69
495.355	777.69
495.573	783.69
495.79	787.69
496.008	792.69
496.225	758.69
496.442	780.69
496.66	773.69
496.877	758.69
497.094	776.69
497.312	781.69
497.529	809.69
497.746	799.69
497.963	855.69
498.181	858.69
498.398	870.69
498.615	877.69
498.832	893.69
499.049	902.69
499.267	923.69
499.484	938.69
499.701	979.69
499.918	1002.69
500.135	1041.69
500.352	1082.69
500.569	1109.69
500.786	1118.69
501.003	1136.69
501.22	1083.69
501.437	1043.69
501.654	1005.69
501.871	1016.69
502.088	964.69
502.305	942.69
502.522	923.69
502.739	889.69
502.956	873.69
503.172	853.69
503.389	812.69
503.606	837.69
503.823	803.69
504.04	837.69
504.256	808.69
504.473	772.69
504.69	787.69
504.907	801.69
505.123	779.69
505.34	789.69
505.557	746.69
505.773	757.69
505.99	740.69
506.207	734.69
506.423	749.69
506.64	736.69
506.856	718.69
507.073	715.69
507.289	731.69
507.506	713.69
507.722	727.69
507.939	734.69
508.155	719.69
508.372	704.69
508.588	685.69
508.805	682.69
509.021	695.69
509.238	694.69
509.454	719.69
509.67	705.69
509.887	679.69
510.103	663.69
510.319	678.69
510.536	774.69
510.752	1223.69
510.968	1001.69
511.184	707.69
511.401	652.69
511.617	693.69
511.833	679.69
512.049	670.69
512.265	671.69
512.481	662.69
512.698	663.69
512.914	641.69
513.13	656.69
513.346	672.69
513.562	681.69
513.778	663.69
513.994	689.69
514.21	681.69
514.426	678.69
514.642	725.69
514.858	754.69
515.074	785.69
515.29	923.69
515.506	1251.69
515.721	1048.69
515.937	794.69
516.153	723.69
516.369	713.69
516.585	721.69
516.801	702.69
517.016	707.69
517.232	707.69
517.448	703.69
517.664	722.69
517.879	711.69
518.095	693.69
518.311	706.69
518.527	679.69
518.742	679.69
518.958	697.69
519.173	677.69
519.389	693.69
519.605	691.69
519.82	677.69
520.036	666.69
520.251	690.69
520.467	714.69
520.682	724.69
520.898	737.69
521.113	693.69
521.329	748.69
521.544	830.69
521.76	1009.69
521.975	1573.69
522.19	1557.69
522.406	917.69
522.621	729.69
522.836	692.69
523.052	660.69
523.267	644.69
523.482	596.69
523.698	645.69
523.913	608.69
524.128	610.69
524.343	581.69
524.559	598.69
524.774	593.69
524.989	586.69
525.204	598.69
525.419	588.69
525.634	593.69
525.849	573.69
526.064	557.69
526.28	554.69
526.495	559.69
526.71	542.69
526.925	571.69
527.14	540.69
527.355	553.69
527.57	577.69
527.785	556.69
527.999	556.69
528.214	545.69
528.429	563.69
528.644	547.69
528.859	569.69
529.074	561.69
529.289	586.69
529.503	645.69
529.718	629.69
529.933	569.69
530.148	571.69
530.363	570.69
530.577	549.69
530.792	556.69
531.007	528.69
531.221	554.69
531.436	553.69
531.651	546.69
531.865	548.69
532.08	537.69
532.295	551.69
532.509	537.69
532.724	532.69
532.938	513.69
533.153	544.69
533.367	535.69
533.582	535.69
533.796	527.69
534.011	513.69
534.225	513.69
534.44	524.69
534.654	528.69
534.868	525.69
535.083	527.69
535.297	530.69
535.511	520.69
535.726	565.69
535.94	533.69
536.154	523.69
536.369	518.69
536.583	540.69
536.797	533.69
537.011	516.69
537.225	520.69
537.44	499.69
537.654	513.69
537.868	531.69
538.082	516.69
538.296	518.69
538.51	509.69
538.724	507.69
538.938	513.69
539.153	505.69
539.367	530.69
539.581	542.69
539.795	485.69
540.009	509.69
540.222	513.69
540.436	511.69
540.65	503.69
540.864	494.69
541.078	513.69
541.292	510.69
541.506	495.69
541.72	509.69
541.934	519.69
542.147	505.69
542.361	501.69
542.575	497.69
542.789	497.69
543.002	501.69
543.216	508.69
543.43	497.69
543.644	509.69
543.857	484.69
544.071	504.69
544.285	504.69
544.498	515.69
544.712	475.69
544.925	509.69
545.139	514.69
545.352	485.69
545.566	487.69
545.779	509.69
545.993	481.69
546.206	501.69
546.42	502.69
546.633	478.69
546.847	468.69
547.06	490.69
547.274	493.69
547.487	481.69
547.7	466.69
547.914	487.69
548.127	485.69
548.34	491.69
548.554	483.69
548.767	485.69
548.98	478.69
549.193	487.69
549.407	498.69
549.62	490.69
549.833	495.69
550.046	462.69
550.259	491.69
550.473	469.69
550.686	463.69
550.899	489.69
551.112	502.69
551.325	476.69
551.538	480.69
551.751	477.69
551.964	468.69
552.177	484.69
552.39	482.69
552.603	474.69
552.816	491.69
553.029	490.69
553.242	477.69
553.455	479.69
553.667	512.69
553.88	483.69
554.093	480.69
554.306	473.69
554.519	471.69
554.732	467.69
554.944	493.69
555.157	487.69
555.37	490.69
555.583	472.69
555.795	490.69
556.008	428.69
556.221	455.69
556.433	454.69
556.646	467.69
556.859	452.69
557.071	454.69
557.284	435.69
557.496	435.69
557.709	444.69
557.921	444.69
558.134	450.69
558.346	453.69
558.559	442.69
558.771	415.69
558.984	413.69
559.196	435.69
559.409	437.69
559.621	423.69
559.833	433.69
560.046	423.69
560.258	423.69
560.47	424.69
560.683	425.69
560.895	435.69
561.107	414.69
561.32	436.69
561.532	434.69
561.744	447.69
561.956	447.69
562.168	426.69
562.381	417.69
562.593	439.69
562.805	436.69
563.017	459.69
563.229	461.69
563.441	431.69
563.653	454.69
563.865	435.69
564.077	467.69
564.289	444.69
564.501	456.69
564.713	455.69
564.925	471.69
565.137	484.69
565.349	473.69
565.561	497.69
565.773	493.69
565.985	488.69
566.197	513.69
566.408	505.69
566.62	525.69
566.832	531.69
567.044	531.69
567.255	533.69
567.467	542.69
567.679	534.69
567.891	585.69
568.102	566.69
568.314	570.69
568.526	541.69
568.737	541.69
568.949	512.69
569.161	485.69
569.372	473.69
569.584	476.69
569.795	475.69
570.007	467.69
570.218	506.69
570.43	470.69
570.641	443.69
570.853	434.69
571.064	437.69
571.276	412.69
571.487	430.69
571.698	422.69
571.91	417.69
572.121	399.69
572.333	399.69
572.544	407.69
572.755	405.69
572.966	383.69
573.178	379.69
573.389	387.69
573.6	403.69
573.811	385.69
574.023	399.69
574.234	392.69
574.445	374.69
574.656	371.69
574.867	374.69
575.078	391.69
575.289	380.69
575.501	373.69
575.712	353.69
575.923	347.69
576.134	358.69
576.345	365.69
576.556	369.69
576.767	369.69
576.978	373.69
577.188	366.69
577.399	361.69
577.61	363.69
577.821	389.69
578.032	343.69
578.243	399.69
578.454	579.69
578.665	454.69
578.875	356.69
579.086	352.69
579.297	357.69
579.508	359.69
579.718	349.69
579.929	361.69
580.14	347.69
580.35	341.69
580.561	365.69
580.772	361.69
580.982	341.69
581.193	331.69
581.403	356.69
581.614	344.69
581.825	353.69
582.035	348.69
582.246	334.69
582.456	369.69
582.667	347.69
582.877	345.69
583.087	348.69
583.298	333.69
583.508	341.69
583.719	343.69
583.929	341.69
584.139	348.69
584.35	327.69
584.56	321.69
584.77	356.69
584.981	346.69
585.191	351.69
585.401	343.69
585.611	339.69
585.821	330.69
586.032	341.69
586.242	339.69
586.452	324.69
586.662	327.69
586.872	331.69
587.082	334.69
587.292	343.69
587.502	343.69
587.713	318.69
587.923	332.69
588.133	331.69
588.343	316.69
588.553	322.69
588.762	317.69
588.972	339.69
589.182	327.69
589.392	326.69
589.602	343.69
589.812	332.69
590.022	318.69
590.232	313.69
590.441	321.69
590.651	328.69
590.861	346.69
591.071	340.69
591.281	357.69
591.49	346.69
591.7	335.69
591.91	356.69
592.119	343.69
592.329	341.69
592.539	344.69
592.748	347.69
592.958	341.69
593.167	344.69
593.377	345.69
593.587	344.69
593.796	347.69
594.006	369.69
594.215	349.69
594.424	346.69
594.634	330.69
594.843	332.69
595.053	332.69
595.262	356.69
595.472	325.69
595.681	328.69
595.89	331.69
596.1	325.69
596.309	321.69
596.518	307.69
596.727	316.69
596.937	317.69
597.146	325.69
597.355	303.69
597.564	301.69
597.774	299.69
597.983	313.69
598.192	286.69
598.401	301.69
598.61	305.69
598.819	287.69
599.028	293.69
599.237	294.69
599.446	293.69
599.655	299.69
599.864	303.69
600.073	285.69
600.282	292.69
600.491	285.69
600.7	283.69
600.909	298.69
601.118	296.69
601.327	273.69
601.536	285.69
601.745	287.69
601.953	272.69
602.162	268.69
602.371	309.69
602.58	289.69
602.789	284.69
602.997	289.69
603.206	270.69
603.415	278.69
603.623	275.69
603.832	269.69
604.041	281.69
604.249	290.69
604.458	263.69
604.666	289.69
604.875	285.69
605.084	285.69
605.292	283.69
605.501	257.69
605.709	270.69
605.918	283.69
606.126	274.69
606.334	269.69
606.543	281.69
606.751	269.69
606.96	274.69
607.168	265.69
607.376	267.69
607.585	265.69
607.793	274.69
608.001	264.69
608.21	251.69
608.418	263.69
608.626	251.69
608.834	278.69
609.043	266.69
609.251	264.69
609.459	282.69
609.667	243.69
609.875	258.69
610.083	258.69
610.291	265.69
610.499	227.69
610.707	257.69
610.916	266.69
611.124	283.69
611.332	278.69
611.54	265.69
611.748	269.69
611.955	260.69
612.163	275.69
612.371	261.69
612.579	264.69
612.787	271.69
612.995	269.69
613.203	251.69
613.411	258.69
613.618	259.69
613.826	250.69
614.034	269.69
614.242	253.69
614.449	264.69
614.657	253.69
614.865	245.69
615.072	260.69
615.28	275.69
615.488	234.69
615.695	244.69
615.903	257.69
616.111	272.69
616.318	267.69
616.526	257.69
616.733	269.69
616.941	274.69
617.148	263.69
617.356	258.69
617.563	269.69
617.771	242.69
617.978	263.69
618.185	248.69
618.393	253.69
618.6	246.69
618.807	254.69
619.015	254.69
619.222	254.69
619.429	241.69
619.637	261.69
619.844	235.69
620.051	244.69
620.258	255.69
620.466	245.69
620.673	228.69
620.88	231.69
621.087	233.69
621.294	233.69
621.501	245.69
621.708	253.69
621.915	231.69
622.122	242.69
622.329	249.69
622.536	251.69
622.743	254.69
622.95	230.69
623.157	219.69
623.364	238.69
623.571	234.69
623.778	227.69
623.985	241.69
624.192	226.69
624.399	238.69
624.606	224.69
624.812	213.69
625.019	224.69
625.226	223.69
625.433	230.69
625.639	221.69
625.846	236.69
626.053	242.69
626.259	251.69
626.466	234.69
626.673	207.69
626.879	212.69
627.086	230.69
627.293	219.69
627.499	228.69
627.706	219.69
627.912	223.69
628.119	242.69
628.325	234.69
628.532	207.69
628.738	210.69
628.945	211.69
629.151	218.69
629.357	204.69
629.564	220.69
629.77	217.69
629.976	222.69
630.183	210.69
630.389	206.69
630.595	219.69
630.802	209.69
631.008	203.69
631.214	226.69
631.42	215.69
631.627	207.69
631.833	195.69
632.039	203.69
632.245	203.69
632.451	200.69
632.657	207.69
632.863	188.69
633.069	201.69
633.275	208.69
633.481	181.69
633.688	200.69
633.893	201.69
634.099	200.69
634.305	199.69
634.511	194.69
634.717	196.69
634.923	194.69
635.129	193.69
635.335	204.69
635.541	198.69
635.747	192.69
635.952	199.69
636.158	198.69
636.364	202.69
636.57	216.69
636.775	212.69
636.981	195.69
637.187	207.69
637.392	187.69
637.598	189.69
637.804	183.69
638.009	204.69
638.215	192.69
638.421	183.69
638.626	200.69
638.832	185.69
639.037	185.69
639.243	197.69
639.448	187.69
639.654	175.69
639.859	184.69
640.065	195.69
640.27	190.69
640.475	189.69
640.681	177.69
640.886	196.69
641.091	172.69
641.297	191.69
641.502	174.69
641.707	182.69
641.913	182.69
642.118	186.69
642.323	187.69
642.528	201.69
642.733	169.69
642.939	180.69
643.144	189.69
643.349	181.69
643.554	194.69
643.759	177.69
643.964	194.69
644.169	170.69
644.374	175.69
644.579	174.69
644.784	185.69
644.989	175.69
645.194	173.69
645.399	178.69
645.604	170.69
645.809	179.69
646.014	184.69
646.219	196.69
646.423	197.69
646.628	182.69
646.833	172.69
647.038	162.69
647.243	179.69
647.447	179.69
647.652	181.69
647.857	174.69
648.062	172.69
648.266	189.69
648.471	188.69
648.676	188.69
648.88	180.69
649.085	193.69
649.289	163.69
649.494	180.69
649.698	189.69
649.903	200.69
650.107	177.69
650.312	165.69
650.516	166.69
650.721	172.69
650.925	190.69
651.13	170.69
651.334	166.69
651.539	167.69
651.743	177.69
651.947	149.69
652.152	163.69
652.356	150.69
652.56	143.69
652.764	165.69
652.969	149.69
653.173	136.69
653.377	143.69
653.581	135.69
653.785	147.69
653.99	157.69
654.194	142.69
654.398	142.69
654.602	159.69
654.806	148.69
655.01	151.69
655.214	154.69
655.418	140.69
655.622	138.69
655.826	142.69
656.03	140.69
656.234	141.69
656.438	137.69
656.642	150.69
656.846	150.69
657.049	127.69
657.253	135.69
657.457	114.69
657.661	134.69
657.865	130.69
658.068	126.69
658.272	114.69
658.476	109.69
658.68	115.69
658.883	109.69
659.087	97.69
659.291	109.69
659.494	106.69
659.698	99.69
659.901	90.69
660.105	105.69
660.309	101.69
660.512	104.69
660.716	100.69
660.919	106.69
661.123	91.69
661.326	94.69
661.53	108.69
661.733	92.69
661.936	82.69
662.14	81.69
662.343	92.69
662.546	90.69
662.75	92.69
662.953	99.69
663.156	108.69
663.36	99.69
663.563	89.69
663.766	94.69
663.969	96.69
664.173	89.69
664.376	83.69
664.579	97.69
664.782	77.69
664.985	98.69
665.188	93.69
665.391	81.69
665.594	83.69
665.797	80.69
666	89.69
666.203	97.69
666.406	78.69
666.609	87.69
666.812	77.69
667.015	83.69
667.218	90.69
667.421	87.69
667.624	76.69
667.827	84.69
668.03	82.69
668.232	84.69
668.435	81.69
668.638	77.69
668.841	84.69
669.043	71.69
669.246	77.69
669.449	78.69
669.651	77.69
669.854	85.69
670.057	84.69
670.259	81.69
670.462	82.69
670.665	87.69
670.867	110.69
671.07	82.69
671.272	89.69
671.475	95.69
671.677	85.69
671.88	84.69
672.082	82.69
672.284	85.69
672.487	90.69
672.689	86.69
672.892	81.69
