Data from 1978.PennyLincolnUp.Lamp.En5.5.200Scan.071719.P1_HRD10591_16-13-43-864.txt Node
Date: Thu Jul 18 16:13:43 EDT 2019
User: cochatt
Spectrometer: HR+D1059
Trigger mode: 1
Integration Time (sec): 1.000000E-1
Scans to average: 1
Electric dark correction enabled: true
Nonlinearity correction enabled: false
Boxcar width: 0
XAxis mode: Wavelengths
Number of Pixels in Spectrum: 2048
>>>>>Begin Spectral Data<<<<<
223.165	-5.19
223.4	-5.19
223.635	-5.19
223.869	-16.19
224.104	-31.19
224.338	-6.19
224.573	-26.19
224.808	-13.19
225.042	-1.19
225.277	-4.19
225.511	-1.19
225.746	1.81
225.98	5.81
226.215	14.81
226.449	19.81
226.683	9.81
226.918	22.81
227.152	29.81
227.387	23.81
227.621	17.81
227.856	15.81
228.09	34.81
228.324	60.81
228.559	48.81
228.793	69.81
229.027	90.81
229.262	102.81
229.496	105.81
229.73	119.81
229.964	144.81
230.199	120.81
230.433	104.81
230.667	117.81
230.901	102.81
231.136	116.81
231.37	111.81
231.604	109.81
231.838	109.81
232.072	121.81
232.306	110.81
232.541	120.81
232.775	115.81
233.009	98.81
233.243	99.81
233.477	102.81
233.711	109.81
233.945	111.81
234.179	100.81
234.413	114.81
234.647	105.81
234.881	114.81
235.115	125.81
235.349	117.81
235.583	121.81
235.817	125.81
236.051	118.81
236.285	113.81
236.519	114.81
236.753	134.81
236.987	139.81
237.221	170.81
237.455	229.81
237.689	175.81
237.922	142.81
238.156	134.81
238.39	128.81
238.624	115.81
238.858	119.81
239.091	122.81
239.325	115.81
239.559	121.81
239.793	119.81
240.027	131.81
240.26	129.81
240.494	149.81
240.728	131.81
240.961	136.81
241.195	137.81
241.429	132.81
241.662	130.81
241.896	124.81
242.13	121.81
242.363	116.81
242.597	122.81
242.83	128.81
243.064	127.81
243.298	129.81
243.531	134.81
243.765	160.81
243.998	141.81
244.232	124.81
244.465	142.81
244.699	146.81
244.932	124.81
245.166	125.81
245.399	133.81
245.633	123.81
245.866	123.81
246.099	128.81
246.333	155.81
246.566	155.81
246.8	135.81
247.033	137.81
247.266	127.81
247.5	157.81
247.733	148.81
247.966	143.81
248.2	170.81
248.433	154.81
248.666	163.81
248.899	179.81
249.133	186.81
249.366	193.81
249.599	177.81
249.832	162.81
250.066	169.81
250.299	187.81
250.532	167.81
250.765	181.81
250.998	188.81
251.231	205.81
251.465	189.81
251.698	169.81
251.931	189.81
252.164	155.81
252.397	189.81
252.63	188.81
252.863	195.81
253.096	207.81
253.329	195.81
253.562	201.81
253.795	182.81
254.028	221.81
254.261	209.81
254.494	203.81
254.727	246.81
254.96	241.81
255.193	242.81
255.426	218.81
255.659	213.81
255.892	220.81
256.124	222.81
256.357	207.81
256.59	200.81
256.823	212.81
257.056	189.81
257.289	183.81
257.521	198.81
257.754	201.81
257.987	198.81
258.22	183.81
258.452	203.81
258.685	169.81
258.918	182.81
259.151	179.81
259.383	190.81
259.616	212.81
259.849	202.81
260.081	205.81
260.314	230.81
260.547	240.81
260.779	219.81
261.012	201.81
261.244	212.81
261.477	216.81
261.71	206.81
261.942	193.81
262.175	212.81
262.407	208.81
262.64	215.81
262.872	195.81
263.105	207.81
263.337	193.81
263.57	205.81
263.802	211.81
264.035	207.81
264.267	195.81
264.499	198.81
264.732	198.81
264.964	188.81
265.197	201.81
265.429	209.81
265.661	201.81
265.894	211.81
266.126	206.81
266.358	210.81
266.591	195.81
266.823	194.81
267.055	206.81
267.287	209.81
267.52	211.81
267.752	201.81
267.984	210.81
268.216	209.81
268.448	213.81
268.681	203.81
268.913	227.81
269.145	241.81
269.377	231.81
269.609	245.81
269.841	241.81
270.073	250.81
270.306	251.81
270.538	265.81
270.77	271.81
271.002	271.81
271.234	274.81
271.466	264.81
271.698	290.81
271.93	290.81
272.162	281.81
272.394	279.81
272.626	257.81
272.858	282.81
273.09	243.81
273.322	263.81
273.553	238.81
273.785	249.81
274.017	230.81
274.249	246.81
274.481	254.81
274.713	233.81
274.945	242.81
275.176	223.81
275.408	240.81
275.64	256.81
275.872	242.81
276.104	240.81
276.335	241.81
276.567	258.81
276.799	267.81
277.031	279.81
277.262	298.81
277.494	286.81
277.726	294.81
277.957	262.81
278.189	258.81
278.421	233.81
278.652	260.81
278.884	265.81
279.115	281.81
279.347	259.81
279.579	263.81
279.81	251.81
280.042	243.81
280.273	258.81
280.505	262.81
280.736	257.81
280.968	249.81
281.199	250.81
281.431	258.81
281.662	262.81
281.894	246.81
282.125	258.81
282.356	258.81
282.588	301.81
282.819	294.81
283.051	274.81
283.282	257.81
283.513	264.81
283.745	282.81
283.976	265.81
284.207	243.81
284.439	259.81
284.67	280.81
284.901	269.81
285.132	269.81
285.364	269.81
285.595	265.81
285.826	261.81
286.057	277.81
286.288	274.81
286.52	261.81
286.751	267.81
286.982	258.81
287.213	256.81
287.444	286.81
287.675	278.81
287.906	271.81
288.138	282.81
288.369	285.81
288.6	285.81
288.831	266.81
289.062	279.81
289.293	280.81
289.524	285.81
289.755	260.81
289.986	280.81
290.217	304.81
290.448	276.81
290.679	286.81
290.91	258.81
291.141	275.81
291.371	273.81
291.602	283.81
291.833	283.81
292.064	287.81
292.295	275.81
292.526	276.81
292.757	277.81
292.987	262.81
293.218	275.81
293.449	263.81
293.68	282.81
293.91	283.81
294.141	266.81
294.372	286.81
294.603	273.81
294.833	288.81
295.064	270.81
295.295	281.81
295.525	273.81
295.756	282.81
295.987	292.81
296.217	322.81
296.448	303.81
296.679	291.81
296.909	290.81
297.14	299.81
297.37	302.81
297.601	288.81
297.831	299.81
298.062	287.81
298.292	281.81
298.523	306.81
298.753	294.81
298.984	296.81
299.214	298.81
299.445	292.81
299.675	305.81
299.905	305.81
300.136	314.81
300.366	292.81
300.597	299.81
300.827	313.81
301.057	318.81
301.288	313.81
301.518	302.81
301.748	320.81
301.979	322.81
302.209	311.81
302.439	316.81
302.669	296.81
302.9	301.81
303.13	321.81
303.36	321.81
303.59	308.81
303.82	318.81
304.051	317.81
304.281	312.81
304.511	313.81
304.741	313.81
304.971	330.81
305.201	319.81
305.431	309.81
305.661	322.81
305.891	324.81
306.121	319.81
306.352	319.81
306.582	323.81
306.812	319.81
307.042	321.81
307.272	308.81
307.502	313.81
307.731	313.81
307.961	330.81
308.191	313.81
308.421	331.81
308.651	317.81
308.881	326.81
309.111	329.81
309.341	323.81
309.571	333.81
309.8	343.81
310.03	352.81
310.26	349.81
310.49	353.81
310.72	358.81
310.949	383.81
311.179	389.81
311.409	387.81
311.639	358.81
311.868	360.81
312.098	357.81
312.328	368.81
312.557	381.81
312.787	371.81
313.017	383.81
313.246	378.81
313.476	371.81
313.706	345.81
313.935	381.81
314.165	389.81
314.394	377.81
314.624	361.81
314.853	372.81
315.083	353.81
315.312	337.81
315.542	371.81
315.771	367.81
316.001	351.81
316.23	376.81
316.46	352.81
316.689	371.81
316.919	381.81
317.148	380.81
317.377	376.81
317.607	384.81
317.836	382.81
318.065	370.81
318.295	357.81
318.524	369.81
318.753	373.81
318.983	343.81
319.212	367.81
319.441	373.81
319.67	379.81
319.9	345.81
320.129	366.81
320.358	367.81
320.587	379.81
320.816	384.81
321.046	389.81
321.275	401.81
321.504	389.81
321.733	377.81
321.962	406.81
322.191	403.81
322.42	436.81
322.649	418.81
322.878	449.81
323.108	431.81
323.337	445.81
323.566	477.81
323.795	513.81
324.024	539.81
324.253	643.81
324.482	959.81
324.71	1515.81
324.939	2297.81
325.168	1948.81
325.397	943.81
325.626	636.81
325.855	529.81
326.084	501.81
326.313	482.81
326.542	485.81
326.77	522.81
326.999	612.81
327.228	890.81
327.457	1353.81
327.686	1711.81
327.914	1101.81
328.143	693.81
328.372	587.81
328.6	565.81
328.829	535.81
329.058	541.81
329.287	538.81
329.515	521.81
329.744	468.81
329.972	493.81
330.201	517.81
330.43	516.81
330.658	569.81
330.887	590.81
331.115	567.81
331.344	491.81
331.572	470.81
331.801	493.81
332.03	465.81
332.258	469.81
332.486	466.81
332.715	453.81
332.943	445.81
333.172	442.81
333.4	472.81
333.629	449.81
333.857	468.81
334.085	461.81
334.314	489.81
334.542	527.81
334.771	535.81
334.999	493.81
335.227	465.81
335.455	471.81
335.684	445.81
335.912	456.81
336.14	437.81
336.369	422.81
336.597	427.81
336.825	442.81
337.053	448.81
337.281	421.81
337.51	435.81
337.738	455.81
337.966	447.81
338.194	432.81
338.422	424.81
338.65	444.81
338.878	426.81
339.106	411.81
339.334	436.81
339.562	401.81
339.79	408.81
340.018	448.81
340.246	433.81
340.474	422.81
340.702	426.81
340.93	422.81
341.158	432.81
341.386	437.81
341.614	432.81
341.842	415.81
342.07	442.81
342.298	427.81
342.526	421.81
342.754	411.81
342.981	409.81
343.209	408.81
343.437	408.81
343.665	410.81
343.893	434.81
344.12	450.81
344.348	449.81
344.576	443.81
344.804	434.81
345.031	431.81
345.259	432.81
345.487	444.81
345.714	435.81
345.942	432.81
346.17	415.81
346.397	417.81
346.625	408.81
346.853	427.81
347.08	417.81
347.308	400.81
347.535	413.81
347.763	435.81
347.99	407.81
348.218	433.81
348.445	454.81
348.673	411.81
348.9	433.81
349.128	407.81
349.355	424.81
349.583	422.81
349.81	405.81
350.037	393.81
350.265	401.81
350.492	391.81
350.72	403.81
350.947	392.81
351.174	405.81
351.402	425.81
351.629	440.81
351.856	446.81
352.083	436.81
352.311	423.81
352.538	444.81
352.765	427.81
352.992	427.81
353.22	417.81
353.447	417.81
353.674	425.81
353.901	400.81
354.128	419.81
354.355	391.81
354.583	405.81
354.81	396.81
355.037	386.81
355.264	402.81
355.491	391.81
355.718	394.81
355.945	384.81
356.172	380.81
356.399	395.81
356.626	386.81
356.853	374.81
357.08	396.81
357.307	387.81
357.534	385.81
357.761	375.81
357.988	397.81
358.215	401.81
358.441	386.81
358.668	389.81
358.895	382.81
359.122	361.81
359.349	395.81
359.576	393.81
359.802	438.81
360.029	456.81
360.256	467.81
360.483	437.81
360.709	429.81
360.936	411.81
361.163	393.81
361.39	404.81
361.616	401.81
361.843	412.81
362.07	424.81
362.296	431.81
362.523	417.81
362.749	425.81
362.976	408.81
363.203	413.81
363.429	418.81
363.656	419.81
363.882	392.81
364.109	403.81
364.335	406.81
364.562	397.81
364.788	388.81
365.015	398.81
365.241	410.81
365.468	378.81
365.694	421.81
365.92	416.81
366.147	410.81
366.373	381.81
366.599	387.81
366.826	393.81
367.052	394.81
367.278	403.81
367.505	407.81
367.731	416.81
367.957	399.81
368.184	410.81
368.41	430.81
368.636	417.81
368.862	417.81
369.089	408.81
369.315	423.81
369.541	421.81
369.767	415.81
369.993	400.81
370.219	390.81
370.445	406.81
370.672	410.81
370.898	416.81
371.124	399.81
371.35	397.81
371.576	389.81
371.802	413.81
372.028	408.81
372.254	394.81
372.48	386.81
372.706	408.81
372.932	425.81
373.158	443.81
373.384	429.81
373.61	412.81
373.835	413.81
374.061	408.81
374.287	400.81
374.513	409.81
374.739	419.81
374.965	416.81
375.191	409.81
375.416	417.81
375.642	416.81
375.868	413.81
376.094	415.81
376.319	414.81
376.545	414.81
376.771	415.81
376.997	415.81
377.222	395.81
377.448	393.81
377.674	434.81
377.899	406.81
378.125	407.81
378.35	409.81
378.576	403.81
378.802	418.81
379.027	407.81
379.253	391.81
379.478	407.81
379.704	413.81
379.929	410.81
380.155	396.81
380.38	418.81
380.606	418.81
380.831	395.81
381.057	418.81
381.282	415.81
381.507	423.81
381.733	419.81
381.958	399.81
382.184	437.81
382.409	429.81
382.634	436.81
382.86	431.81
383.085	407.81
383.31	452.81
383.535	419.81
383.761	414.81
383.986	417.81
384.211	463.81
384.436	421.81
384.662	424.81
384.887	429.81
385.112	426.81
385.337	421.81
385.562	464.81
385.787	447.81
386.013	470.81
386.238	457.81
386.463	462.81
386.688	459.81
386.913	460.81
387.138	449.81
387.363	429.81
387.588	452.81
387.813	454.81
388.038	470.81
388.263	478.81
388.488	459.81
388.713	473.81
388.938	464.81
389.163	464.81
389.387	463.81
389.612	461.81
389.837	453.81
390.062	456.81
390.287	448.81
390.512	451.81
390.736	472.81
390.961	476.81
391.186	466.81
391.411	460.81
391.636	479.81
391.86	454.81
392.085	475.81
392.31	476.81
392.534	480.81
392.759	472.81
392.984	469.81
393.208	486.81
393.433	473.81
393.658	488.81
393.882	463.81
394.107	465.81
394.331	473.81
394.556	469.81
394.78	467.81
395.005	468.81
395.229	465.81
395.454	486.81
395.678	497.81
395.903	504.81
396.127	521.81
396.352	511.81
396.576	496.81
396.801	493.81
397.025	514.81
397.249	497.81
397.474	500.81
397.698	502.81
397.922	510.81
398.147	522.81
398.371	534.81
398.595	535.81
398.82	524.81
399.044	537.81
399.268	559.81
399.492	605.81
399.717	615.81
399.941	641.81
400.165	661.81
400.389	657.81
400.613	611.81
400.837	579.81
401.062	558.81
401.286	538.81
401.51	544.81
401.734	553.81
401.958	523.81
402.182	549.81
402.406	559.81
402.63	565.81
402.854	546.81
403.078	566.81
403.302	553.81
403.526	567.81
403.75	561.81
403.974	550.81
404.198	553.81
404.422	551.81
404.645	544.81
404.869	568.81
405.093	591.81
405.317	646.81
405.541	637.81
405.765	632.81
405.988	589.81
406.212	577.81
406.436	627.81
406.66	632.81
406.883	595.81
407.107	614.81
407.331	662.81
407.555	755.81
407.778	738.81
408.002	678.81
408.226	632.81
408.449	623.81
408.673	625.81
408.896	635.81
409.12	681.81
409.344	641.81
409.567	603.81
409.791	574.81
410.014	592.81
410.238	566.81
410.461	569.81
410.685	562.81
410.908	577.81
411.132	617.81
411.355	646.81
411.578	645.81
411.802	593.81
412.025	553.81
412.249	546.81
412.472	612.81
412.695	613.81
412.919	631.81
413.142	582.81
413.365	536.81
413.589	555.81
413.812	532.81
414.035	527.81
414.258	543.81
414.482	523.81
414.705	537.81
414.928	503.81
415.151	505.81
415.374	545.81
415.597	534.81
415.821	521.81
416.044	550.81
416.267	517.81
416.49	553.81
416.713	512.81
416.936	525.81
417.159	498.81
417.382	528.81
417.605	540.81
417.828	552.81
418.051	546.81
418.274	547.81
418.497	503.81
418.72	530.81
418.943	512.81
419.166	540.81
419.389	560.81
419.611	578.81
419.834	537.81
420.057	561.81
420.28	562.81
420.503	541.81
420.726	557.81
420.948	571.81
421.171	596.81
421.394	652.81
421.617	571.81
421.839	577.81
422.062	541.81
422.285	579.81
422.507	634.81
422.73	722.81
422.953	674.81
423.175	602.81
423.398	565.81
423.621	577.81
423.843	591.81
424.066	597.81
424.288	583.81
424.511	606.81
424.733	662.81
424.956	757.81
425.178	727.81
425.401	690.81
425.623	737.81
425.846	642.81
426.068	597.81
426.291	597.81
426.513	575.81
426.735	608.81
426.958	641.81
427.18	721.81
427.402	897.81
427.625	970.81
427.847	820.81
428.069	715.81
428.292	626.81
428.514	591.81
428.736	560.81
428.958	562.81
429.181	547.81
429.403	527.81
429.625	537.81
429.847	579.81
430.069	667.81
430.292	674.81
430.514	571.81
430.736	542.81
430.958	537.81
431.18	506.81
431.402	519.81
431.624	503.81
431.846	518.81
432.068	492.81
432.29	519.81
432.512	517.81
432.734	536.81
432.956	519.81
433.178	539.81
433.4	513.81
433.622	540.81
433.844	508.81
434.066	524.81
434.287	526.81
434.509	534.81
434.731	526.81
434.953	547.81
435.175	544.81
435.397	586.81
435.618	596.81
435.84	637.81
436.062	737.81
436.284	805.81
436.505	673.81
436.727	631.81
436.949	573.81
437.17	544.81
437.392	557.81
437.614	556.81
437.835	593.81
438.057	694.81
438.278	820.81
438.5	817.81
438.721	861.81
438.943	863.81
439.165	659.81
439.386	608.81
439.608	600.81
439.829	579.81
440.05	608.81
440.272	658.81
440.493	660.81
440.715	587.81
440.936	557.81
441.158	545.81
441.379	549.81
441.6	574.81
441.822	561.81
442.043	625.81
442.264	726.81
442.486	769.81
442.707	653.81
442.928	625.81
443.149	628.81
443.371	646.81
443.592	688.81
443.813	791.81
444.034	849.81
444.255	725.81
444.476	637.81
444.698	625.81
444.919	591.81
445.14	695.81
445.361	672.81
445.582	655.81
445.803	728.81
446.024	826.81
446.245	831.81
446.466	754.81
446.687	651.81
446.908	593.81
447.129	571.81
447.35	569.81
447.571	548.81
447.792	542.81
448.013	551.81
448.234	562.81
448.455	634.81
448.675	733.81
448.896	879.81
449.117	743.81
449.338	687.81
449.559	825.81
449.779	935.81
450	729.81
450.221	593.81
450.442	550.81
450.662	547.81
450.883	562.81
451.104	550.81
451.324	535.81
451.545	521.81
451.766	499.81
451.986	514.81
452.207	463.81
452.428	478.81
452.648	496.81
452.869	490.81
453.089	467.81
453.31	505.81
453.53	509.81
453.751	481.81
453.971	473.81
454.192	515.81
454.412	496.81
454.633	465.81
454.853	471.81
455.073	472.81
455.294	523.81
455.514	577.81
455.734	558.81
455.955	485.81
456.175	479.81
456.395	455.81
456.616	458.81
456.836	464.81
457.056	473.81
457.276	461.81
457.497	467.81
457.717	465.81
457.937	464.81
458.157	475.81
458.377	479.81
458.598	517.81
458.818	574.81
459.038	650.81
459.258	659.81
459.478	589.81
459.698	547.81
459.918	534.81
460.138	531.81
460.358	525.81
460.578	523.81
460.798	557.81
461.018	559.81
461.238	543.81
461.458	550.81
461.678	546.81
461.898	545.81
462.118	562.81
462.338	527.81
462.558	542.81
462.777	559.81
462.997	555.81
463.217	569.81
463.437	608.81
463.657	591.81
463.876	587.81
464.096	579.81
464.316	593.81
464.536	581.81
464.755	603.81
464.975	565.81
465.195	619.81
465.414	659.81
465.634	616.81
465.854	575.81
466.073	555.81
466.293	553.81
466.512	511.81
466.732	483.81
466.951	498.81
467.171	513.81
467.391	498.81
467.61	521.81
467.829	524.81
468.049	495.81
468.268	511.81
468.488	516.81
468.707	501.81
468.927	490.81
469.146	480.81
469.365	515.81
469.585	509.81
469.804	496.81
470.023	498.81
470.243	530.81
470.462	514.81
470.681	535.81
470.901	518.81
471.12	512.81
471.339	502.81
471.558	530.81
471.777	530.81
471.997	520.81
472.216	529.81
472.435	540.81
472.654	531.81
472.873	494.81
473.092	497.81
473.311	517.81
473.53	494.81
473.749	503.81
473.968	570.81
474.187	651.81
474.406	711.81
474.625	581.81
474.844	522.81
475.063	514.81
475.282	533.81
475.501	515.81
475.72	537.81
475.939	520.81
476.158	516.81
476.377	544.81
476.596	528.81
476.814	552.81
477.033	542.81
477.252	530.81
477.471	542.81
477.69	528.81
477.908	539.81
478.127	539.81
478.346	551.81
478.564	564.81
478.783	567.81
479.002	578.81
479.22	583.81
479.439	599.81
479.658	621.81
479.876	596.81
480.095	624.81
480.313	629.81
480.532	633.81
480.751	618.81
480.969	637.81
481.188	690.81
481.406	682.81
481.624	656.81
481.843	635.81
482.061	623.81
482.28	605.81
482.498	593.81
482.717	601.81
482.935	599.81
483.153	583.81
483.372	597.81
483.59	594.81
483.808	581.81
484.027	609.81
484.245	603.81
484.463	608.81
484.681	638.81
484.9	588.81
485.118	632.81
485.336	607.81
485.554	608.81
485.772	614.81
485.99	619.81
486.209	605.81
486.427	632.81
486.645	654.81
486.863	657.81
487.081	643.81
487.299	643.81
487.517	633.81
487.735	624.81
487.953	627.81
488.171	633.81
488.389	655.81
488.607	645.81
488.825	643.81
489.043	645.81
489.261	659.81
489.479	628.81
489.696	631.81
489.914	661.81
490.132	667.81
490.35	682.81
490.568	663.81
490.786	669.81
491.003	693.81
491.221	694.81
491.439	701.81
491.657	696.81
491.874	685.81
492.092	703.81
492.31	720.81
492.527	718.81
492.745	749.81
492.963	729.81
493.18	729.81
493.398	714.81
493.615	732.81
493.833	746.81
494.05	710.81
494.268	727.81
494.485	728.81
494.703	752.81
494.92	735.81
495.138	764.81
495.355	757.81
495.573	749.81
495.79	772.81
496.008	735.81
496.225	759.81
496.442	770.81
496.66	745.81
496.877	771.81
497.094	775.81
497.312	779.81
497.529	786.81
497.746	802.81
497.963	830.81
498.181	833.81
498.398	860.81
498.615	892.81
498.832	869.81
499.049	880.81
499.267	886.81
499.484	943.81
499.701	971.81
499.918	1019.81
500.135	1037.81
500.352	1071.81
500.569	1094.81
500.786	1114.81
501.003	1101.81
501.22	1062.81
501.437	1032.81
501.654	989.81
501.871	988.81
502.088	976.81
502.305	912.81
502.522	862.81
502.739	874.81
502.956	839.81
503.172	831.81
503.389	832.81
503.606	811.81
503.823	827.81
504.04	774.81
504.256	773.81
504.473	777.81
504.69	777.81
504.907	790.81
505.123	745.81
505.34	758.81
505.557	735.81
505.773	745.81
505.99	738.81
506.207	742.81
506.423	716.81
506.64	715.81
506.856	722.81
507.073	714.81
507.289	705.81
507.506	697.81
507.722	718.81
507.939	714.81
508.155	693.81
508.372	682.81
508.588	691.81
508.805	657.81
509.021	683.81
509.238	660.81
509.454	678.81
509.67	685.81
509.887	674.81
510.103	666.81
510.319	687.81
510.536	775.81
510.752	1193.81
510.968	970.81
511.184	711.81
511.401	669.81
511.617	645.81
511.833	658.81
512.049	652.81
512.265	662.81
512.481	650.81
512.698	647.81
512.914	617.81
513.13	647.81
513.346	637.81
513.562	614.81
513.778	641.81
513.994	646.81
514.21	669.81
514.426	690.81
514.642	721.81
514.858	716.81
515.074	756.81
515.29	883.81
515.506	1205.81
515.721	1028.81
515.937	769.81
516.153	711.81
516.369	712.81
516.585	674.81
516.801	669.81
517.016	681.81
517.232	687.81
517.448	656.81
517.664	710.81
517.879	685.81
518.095	706.81
518.311	671.81
518.527	672.81
518.742	672.81
518.958	647.81
519.173	648.81
519.389	642.81
519.605	629.81
519.82	643.81
520.036	671.81
520.251	691.81
520.467	697.81
520.682	665.81
520.898	703.81
521.113	689.81
521.329	756.81
521.544	817.81
521.76	979.81
521.975	1549.81
522.19	1487.81
522.406	907.81
522.621	709.81
522.836	661.81
523.052	637.81
523.267	622.81
523.482	600.81
523.698	599.81
523.913	626.81
524.128	610.81
524.343	580.81
524.559	579.81
524.774	577.81
524.989	575.81
525.204	565.81
525.419	589.81
525.634	558.81
525.849	570.81
526.064	557.81
526.28	557.81
526.495	538.81
526.71	533.81
526.925	529.81
527.14	547.81
527.355	537.81
527.57	538.81
527.785	571.81
527.999	550.81
528.214	542.81
528.429	549.81
528.644	532.81
528.859	546.81
529.074	530.81
529.289	584.81
529.503	633.81
529.718	605.81
529.933	585.81
530.148	548.81
530.363	538.81
530.577	552.81
530.792	563.81
531.007	546.81
531.221	536.81
531.436	503.81
531.651	525.81
531.865	559.81
532.08	514.81
532.295	533.81
532.509	533.81
532.724	521.81
532.938	520.81
533.153	510.81
533.367	526.81
533.582	511.81
533.796	519.81
534.011	500.81
534.225	492.81
534.44	502.81
534.654	516.81
534.868	516.81
535.083	494.81
535.297	506.81
535.511	508.81
535.726	511.81
535.94	540.81
536.154	531.81
536.369	521.81
536.583	486.81
536.797	507.81
537.011	523.81
537.225	507.81
537.44	498.81
537.654	488.81
537.868	483.81
538.082	481.81
538.296	481.81
538.51	489.81
538.724	481.81
538.938	506.81
539.153	494.81
539.367	497.81
539.581	499.81
539.795	504.81
540.009	496.81
540.222	512.81
540.436	480.81
540.65	486.81
540.864	506.81
541.078	506.81
541.292	510.81
541.506	513.81
541.72	478.81
541.934	481.81
542.147	494.81
542.361	499.81
542.575	491.81
542.789	485.81
543.002	486.81
543.216	488.81
543.43	490.81
543.644	502.81
543.857	490.81
544.071	493.81
544.285	478.81
544.498	489.81
544.712	494.81
544.925	479.81
545.139	479.81
545.352	493.81
545.566	502.81
545.779	488.81
545.993	472.81
546.206	475.81
546.42	482.81
546.633	473.81
546.847	469.81
547.06	479.81
547.274	467.81
547.487	475.81
547.7	476.81
547.914	461.81
548.127	453.81
548.34	469.81
548.554	462.81
548.767	466.81
548.98	472.81
549.193	438.81
549.407	486.81
549.62	474.81
549.833	472.81
550.046	455.81
550.259	480.81
550.473	470.81
550.686	471.81
550.899	463.81
551.112	478.81
551.325	475.81
551.538	471.81
551.751	466.81
551.964	448.81
552.177	465.81
552.39	485.81
552.603	478.81
552.816	463.81
553.029	496.81
553.242	488.81
553.455	498.81
553.667	486.81
553.88	495.81
554.093	515.81
554.306	474.81
554.519	489.81
554.732	456.81
554.944	445.81
555.157	457.81
555.37	439.81
555.583	478.81
555.795	446.81
556.008	449.81
556.221	442.81
556.433	432.81
556.646	427.81
556.859	437.81
557.071	424.81
557.284	431.81
557.496	439.81
557.709	431.81
557.921	440.81
558.134	410.81
558.346	434.81
558.559	439.81
558.771	437.81
558.984	418.81
559.196	405.81
559.409	418.81
559.621	409.81
559.833	419.81
560.046	419.81
560.258	438.81
560.47	425.81
560.683	432.81
560.895	421.81
561.107	419.81
561.32	413.81
561.532	417.81
561.744	430.81
561.956	433.81
562.168	425.81
562.381	424.81
562.593	438.81
562.805	427.81
563.017	421.81
563.229	435.81
563.441	437.81
563.653	439.81
563.865	434.81
564.077	416.81
564.289	433.81
564.501	431.81
564.713	437.81
564.925	439.81
565.137	464.81
565.349	465.81
565.561	472.81
565.773	465.81
565.985	480.81
566.197	475.81
566.408	478.81
566.62	497.81
566.832	511.81
567.044	544.81
567.255	509.81
567.467	537.81
567.679	527.81
567.891	542.81
568.102	541.81
568.314	541.81
568.526	509.81
568.737	517.81
568.949	490.81
569.161	483.81
569.372	465.81
569.584	458.81
569.795	459.81
570.007	439.81
570.218	471.81
570.43	444.81
570.641	422.81
570.853	448.81
571.064	409.81
571.276	417.81
571.487	411.81
571.698	391.81
571.91	392.81
572.121	395.81
572.333	413.81
572.544	402.81
572.755	391.81
572.966	378.81
573.178	369.81
573.389	378.81
573.6	380.81
573.811	358.81
574.023	371.81
574.234	380.81
574.445	369.81
574.656	358.81
574.867	348.81
575.078	367.81
575.289	372.81
575.501	365.81
575.712	378.81
575.923	344.81
576.134	369.81
576.345	362.81
576.556	346.81
576.767	343.81
576.978	362.81
577.188	375.81
577.399	356.81
577.61	357.81
577.821	346.81
578.032	367.81
578.243	390.81
578.454	562.81
578.665	441.81
578.875	366.81
579.086	343.81
579.297	361.81
579.508	349.81
579.718	352.81
579.929	359.81
580.14	345.81
580.35	326.81
580.561	328.81
580.772	335.81
580.982	328.81
581.193	321.81
581.403	345.81
581.614	335.81
581.825	337.81
582.035	327.81
582.246	314.81
582.456	340.81
582.667	345.81
582.877	331.81
583.087	352.81
583.298	328.81
583.508	342.81
583.719	323.81
583.929	322.81
584.139	340.81
584.35	319.81
584.56	327.81
584.77	339.81
584.981	331.81
585.191	323.81
585.401	314.81
585.611	318.81
585.821	320.81
586.032	333.81
586.242	325.81
586.452	314.81
586.662	324.81
586.872	310.81
587.082	313.81
587.292	323.81
587.502	299.81
587.713	338.81
587.923	312.81
588.133	352.81
588.343	308.81
588.553	336.81
588.762	335.81
588.972	327.81
589.182	309.81
589.392	301.81
589.602	318.81
589.812	317.81
590.022	313.81
590.232	303.81
590.441	318.81
590.651	337.81
590.861	324.81
591.071	315.81
591.281	328.81
591.49	321.81
591.7	329.81
591.91	323.81
592.119	324.81
592.329	359.81
592.539	343.81
592.748	356.81
592.958	330.81
593.167	321.81
593.377	335.81
593.587	342.81
593.796	349.81
594.006	342.81
594.215	343.81
594.424	336.81
594.634	312.81
594.843	333.81
595.053	329.81
595.262	319.81
595.472	321.81
595.681	322.81
595.89	298.81
596.1	318.81
596.309	298.81
596.518	306.81
596.727	289.81
596.937	305.81
597.146	294.81
597.355	296.81
597.564	278.81
597.774	312.81
597.983	267.81
598.192	285.81
598.401	290.81
598.61	290.81
598.819	294.81
599.028	280.81
599.237	274.81
599.446	276.81
599.655	284.81
599.864	298.81
600.073	305.81
600.282	294.81
600.491	281.81
600.7	273.81
600.909	281.81
601.118	287.81
601.327	283.81
601.536	291.81
601.745	275.81
601.953	272.81
602.162	283.81
602.371	279.81
602.58	262.81
602.789	245.81
602.997	281.81
603.206	281.81
603.415	275.81
603.623	271.81
603.832	274.81
604.041	274.81
604.249	267.81
604.458	256.81
604.666	264.81
604.875	255.81
605.084	275.81
605.292	259.81
605.501	265.81
605.709	271.81
605.918	257.81
606.126	259.81
606.334	267.81
606.543	266.81
606.751	249.81
606.96	261.81
607.168	271.81
607.376	247.81
607.585	262.81
607.793	248.81
608.001	254.81
608.21	245.81
608.418	245.81
608.626	252.81
608.834	265.81
609.043	250.81
609.251	274.81
609.459	266.81
609.667	275.81
609.875	255.81
610.083	244.81
610.291	262.81
610.499	256.81
610.707	260.81
610.916	249.81
611.124	257.81
611.332	276.81
611.54	268.81
611.748	270.81
611.955	270.81
612.163	254.81
612.371	262.81
612.579	256.81
612.787	248.81
612.995	270.81
613.203	253.81
613.411	262.81
613.618	252.81
613.826	242.81
614.034	234.81
614.242	250.81
614.449	256.81
614.657	267.81
614.865	244.81
615.072	232.81
615.28	256.81
615.488	246.81
615.695	257.81
615.903	253.81
616.111	247.81
616.318	261.81
616.526	274.81
616.733	259.81
616.941	247.81
617.148	249.81
617.356	258.81
617.563	250.81
617.771	236.81
617.978	243.81
618.185	233.81
618.393	260.81
618.6	245.81
618.807	251.81
619.015	250.81
619.222	264.81
619.429	257.81
619.637	255.81
619.844	223.81
620.051	254.81
620.258	242.81
620.466	237.81
620.673	239.81
620.88	229.81
621.087	222.81
621.294	229.81
621.501	231.81
621.708	241.81
621.915	216.81
622.122	261.81
622.329	221.81
622.536	239.81
622.743	234.81
622.95	218.81
623.157	227.81
623.364	228.81
623.571	230.81
623.778	231.81
623.985	227.81
624.192	225.81
624.399	232.81
624.606	209.81
624.812	226.81
625.019	226.81
625.226	224.81
625.433	223.81
625.639	206.81
625.846	219.81
626.053	221.81
626.259	223.81
626.466	215.81
626.673	224.81
626.879	223.81
627.086	234.81
627.293	213.81
627.499	212.81
627.706	222.81
627.912	214.81
628.119	209.81
628.325	214.81
628.532	205.81
628.738	207.81
628.945	210.81
629.151	221.81
629.357	209.81
629.564	215.81
629.77	188.81
629.976	210.81
630.183	213.81
630.389	202.81
630.595	213.81
630.802	221.81
631.008	199.81
631.214	198.81
631.42	206.81
631.627	219.81
631.833	209.81
632.039	190.81
632.245	223.81
632.451	196.81
632.657	193.81
632.863	188.81
633.069	200.81
633.275	198.81
633.481	189.81
633.688	217.81
633.893	204.81
634.099	182.81
634.305	194.81
634.511	185.81
634.717	188.81
634.923	183.81
635.129	182.81
635.335	201.81
635.541	200.81
635.747	197.81
635.952	191.81
636.158	190.81
636.364	188.81
636.57	199.81
636.775	196.81
636.981	181.81
637.187	194.81
637.392	189.81
637.598	186.81
637.804	189.81
638.009	181.81
638.215	179.81
638.421	193.81
638.626	194.81
638.832	180.81
639.037	201.81
639.243	200.81
639.448	186.81
639.654	189.81
639.859	160.81
640.065	179.81
640.27	171.81
640.475	173.81
640.681	180.81
640.886	186.81
641.091	166.81
641.297	166.81
641.502	175.81
641.707	179.81
641.913	166.81
642.118	193.81
642.323	167.81
642.528	181.81
642.733	181.81
642.939	167.81
643.144	186.81
643.349	175.81
643.554	179.81
643.759	177.81
643.964	163.81
644.169	174.81
644.374	162.81
644.579	179.81
644.784	179.81
644.989	169.81
645.194	158.81
645.399	199.81
645.604	160.81
645.809	169.81
646.014	181.81
646.219	171.81
646.423	155.81
646.628	183.81
646.833	179.81
647.038	161.81
647.243	165.81
647.447	173.81
647.652	165.81
647.857	181.81
648.062	165.81
648.266	169.81
648.471	181.81
648.676	154.81
648.88	184.81
649.085	170.81
649.289	181.81
649.494	176.81
649.698	197.81
649.903	205.81
650.107	167.81
650.312	177.81
650.516	160.81
650.721	165.81
650.925	156.81
651.13	145.81
651.334	157.81
651.539	145.81
651.743	153.81
651.947	149.81
652.152	164.81
652.356	163.81
652.56	151.81
652.764	148.81
652.969	137.81
653.173	135.81
653.377	136.81
653.581	156.81
653.785	137.81
653.99	146.81
654.194	135.81
654.398	143.81
654.602	124.81
654.806	141.81
655.01	145.81
655.214	145.81
655.418	151.81
655.622	133.81
655.826	127.81
656.03	140.81
656.234	142.81
656.438	131.81
656.642	149.81
656.846	111.81
657.049	130.81
657.253	119.81
657.457	125.81
657.661	115.81
657.865	127.81
658.068	128.81
658.272	115.81
658.476	123.81
658.68	100.81
658.883	99.81
659.087	87.81
659.291	109.81
659.494	98.81
659.698	99.81
659.901	93.81
660.105	102.81
660.309	95.81
660.512	97.81
660.716	98.81
660.919	96.81
661.123	96.81
661.326	84.81
661.53	90.81
661.733	88.81
661.936	95.81
662.14	81.81
662.343	75.81
662.546	80.81
662.75	83.81
662.953	83.81
663.156	75.81
663.36	80.81
663.563	92.81
663.766	86.81
663.969	73.81
664.173	82.81
664.376	65.81
664.579	80.81
664.782	79.81
664.985	82.81
665.188	80.81
665.391	79.81
665.594	82.81
665.797	82.81
666	92.81
666.203	82.81
666.406	78.81
666.609	75.81
666.812	73.81
667.015	82.81
667.218	73.81
667.421	82.81
667.624	78.81
667.827	78.81
668.03	88.81
668.232	75.81
668.435	75.81
668.638	65.81
668.841	68.81
669.043	74.81
669.246	83.81
669.449	77.81
669.651	89.81
669.854	73.81
670.057	96.81
670.259	71.81
670.462	80.81
670.665	71.81
670.867	69.81
671.07	76.81
671.272	78.81
671.475	80.81
671.677	89.81
671.88	75.81
672.082	77.81
672.284	82.81
672.487	84.81
672.689	69.81
672.892	83.81
