Data from 1978.PennyLincolnUp.Lamp.En5.5.200Scan.071719.P1_HRD10591_16-13-15-863.txt Node
Date: Thu Jul 18 16:13:15 EDT 2019
User: cochatt
Spectrometer: HR+D1059
Trigger mode: 1
Integration Time (sec): 1.000000E-1
Scans to average: 1
Electric dark correction enabled: true
Nonlinearity correction enabled: false
Boxcar width: 0
XAxis mode: Wavelengths
Number of Pixels in Spectrum: 2048
>>>>>Begin Spectral Data<<<<<
223.165	-15.31
223.4	-15.31
223.635	-15.31
223.869	-14.31
224.104	-13.31
224.338	-21.31
224.573	-12.31
224.808	-18.31
225.042	-6.31
225.277	-10.31
225.511	-5.31
225.746	-6.31
225.98	-1.31
226.215	19.69
226.449	16.69
226.683	31.69
226.918	26.69
227.152	29.69
227.387	25.69
227.621	38.69
227.856	45.69
228.09	45.69
228.324	29.69
228.559	68.69
228.793	66.69
229.027	94.69
229.262	106.69
229.496	126.69
229.73	120.69
229.964	147.69
230.199	117.69
230.433	116.69
230.667	130.69
230.901	101.69
231.136	117.69
231.37	125.69
231.604	121.69
231.838	106.69
232.072	103.69
232.306	106.69
232.541	96.69
232.775	117.69
233.009	108.69
233.243	108.69
233.477	102.69
233.711	118.69
233.945	117.69
234.179	110.69
234.413	128.69
234.647	111.69
234.881	117.69
235.115	113.69
235.349	119.69
235.583	119.69
235.817	123.69
236.051	110.69
236.285	123.69
236.519	123.69
236.753	124.69
236.987	131.69
237.221	187.69
237.455	242.69
237.689	185.69
237.922	145.69
238.156	127.69
238.39	135.69
238.624	141.69
238.858	135.69
239.091	101.69
239.325	121.69
239.559	111.69
239.793	129.69
240.027	132.69
240.26	134.69
240.494	146.69
240.728	137.69
240.961	137.69
241.195	137.69
241.429	141.69
241.662	127.69
241.896	110.69
242.13	125.69
242.363	133.69
242.597	129.69
242.83	124.69
243.064	153.69
243.298	126.69
243.531	134.69
243.765	129.69
243.998	132.69
244.232	138.69
244.465	136.69
244.699	137.69
244.932	144.69
245.166	141.69
245.399	145.69
245.633	149.69
245.866	134.69
246.099	141.69
246.333	132.69
246.566	141.69
246.8	143.69
247.033	157.69
247.266	147.69
247.5	156.69
247.733	149.69
247.966	165.69
248.2	172.69
248.433	145.69
248.666	161.69
248.899	166.69
249.133	181.69
249.366	177.69
249.599	194.69
249.832	174.69
250.066	166.69
250.299	179.69
250.532	182.69
250.765	198.69
250.998	207.69
251.231	211.69
251.465	199.69
251.698	186.69
251.931	181.69
252.164	190.69
252.397	170.69
252.63	191.69
252.863	187.69
253.096	202.69
253.329	207.69
253.562	203.69
253.795	198.69
254.028	196.69
254.261	201.69
254.494	194.69
254.727	228.69
254.96	262.69
255.193	236.69
255.426	238.69
255.659	217.69
255.892	228.69
256.124	199.69
256.357	213.69
256.59	214.69
256.823	192.69
257.056	196.69
257.289	197.69
257.521	203.69
257.754	189.69
257.987	194.69
258.22	190.69
258.452	198.69
258.685	199.69
258.918	197.69
259.151	206.69
259.383	212.69
259.616	193.69
259.849	195.69
260.081	228.69
260.314	233.69
260.547	239.69
260.779	231.69
261.012	211.69
261.244	207.69
261.477	204.69
261.71	213.69
261.942	211.69
262.175	212.69
262.407	226.69
262.64	207.69
262.872	214.69
263.105	192.69
263.337	202.69
263.57	205.69
263.802	196.69
264.035	207.69
264.267	202.69
264.499	197.69
264.732	202.69
264.964	203.69
265.197	196.69
265.429	213.69
265.661	208.69
265.894	194.69
266.126	206.69
266.358	203.69
266.591	207.69
266.823	220.69
267.055	215.69
267.287	208.69
267.52	210.69
267.752	223.69
267.984	221.69
268.216	207.69
268.448	217.69
268.681	226.69
268.913	228.69
269.145	237.69
269.377	260.69
269.609	261.69
269.841	236.69
270.073	251.69
270.306	287.69
270.538	300.69
270.77	289.69
271.002	289.69
271.234	266.69
271.466	261.69
271.698	285.69
271.93	289.69
272.162	297.69
272.394	279.69
272.626	285.69
272.858	286.69
273.09	261.69
273.322	268.69
273.553	271.69
273.785	229.69
274.017	235.69
274.249	235.69
274.481	239.69
274.713	249.69
274.945	260.69
275.176	242.69
275.408	254.69
275.64	246.69
275.872	262.69
276.104	237.69
276.335	271.69
276.567	281.69
276.799	276.69
277.031	295.69
277.262	299.69
277.494	298.69
277.726	288.69
277.957	279.69
278.189	268.69
278.421	264.69
278.652	245.69
278.884	269.69
279.115	256.69
279.347	254.69
279.579	265.69
279.81	251.69
280.042	270.69
280.273	255.69
280.505	259.69
280.736	266.69
280.968	263.69
281.199	247.69
281.431	251.69
281.662	260.69
281.894	270.69
282.125	270.69
282.356	272.69
282.588	309.69
282.819	325.69
283.051	273.69
283.282	257.69
283.513	270.69
283.745	266.69
283.976	275.69
284.207	271.69
284.439	268.69
284.67	282.69
284.901	279.69
285.132	258.69
285.364	283.69
285.595	292.69
285.826	276.69
286.057	260.69
286.288	277.69
286.52	294.69
286.751	267.69
286.982	265.69
287.213	262.69
287.444	285.69
287.675	269.69
287.906	279.69
288.138	294.69
288.369	284.69
288.6	298.69
288.831	278.69
289.062	288.69
289.293	291.69
289.524	281.69
289.755	273.69
289.986	301.69
290.217	280.69
290.448	289.69
290.679	271.69
290.91	289.69
291.141	269.69
291.371	284.69
291.602	272.69
291.833	266.69
292.064	286.69
292.295	295.69
292.526	301.69
292.757	275.69
292.987	280.69
293.218	282.69
293.449	295.69
293.68	284.69
293.91	292.69
294.141	291.69
294.372	292.69
294.603	281.69
294.833	294.69
295.064	285.69
295.295	286.69
295.525	306.69
295.756	299.69
295.987	305.69
296.217	328.69
296.448	324.69
296.679	316.69
296.909	302.69
297.14	286.69
297.37	280.69
297.601	285.69
297.831	295.69
298.062	298.69
298.292	288.69
298.523	296.69
298.753	297.69
298.984	294.69
299.214	307.69
299.445	305.69
299.675	320.69
299.905	287.69
300.136	302.69
300.366	316.69
300.597	334.69
300.827	312.69
301.057	313.69
301.288	324.69
301.518	334.69
301.748	318.69
301.979	333.69
302.209	316.69
302.439	328.69
302.669	318.69
302.9	309.69
303.13	339.69
303.36	316.69
303.59	335.69
303.82	334.69
304.051	348.69
304.281	334.69
304.511	328.69
304.741	330.69
304.971	331.69
305.201	330.69
305.431	300.69
305.661	306.69
305.891	321.69
306.121	322.69
306.352	330.69
306.582	335.69
306.812	316.69
307.042	312.69
307.272	326.69
307.502	324.69
307.731	319.69
307.961	349.69
308.191	322.69
308.421	317.69
308.651	325.69
308.881	330.69
309.111	347.69
309.341	339.69
309.571	347.69
309.8	346.69
310.03	361.69
310.26	369.69
310.49	367.69
310.72	366.69
310.949	378.69
311.179	384.69
311.409	377.69
311.639	369.69
311.868	355.69
312.098	372.69
312.328	375.69
312.557	367.69
312.787	393.69
313.017	389.69
313.246	375.69
313.476	368.69
313.706	374.69
313.935	374.69
314.165	367.69
314.394	397.69
314.624	391.69
314.853	375.69
315.083	370.69
315.312	377.69
315.542	380.69
315.771	365.69
316.001	374.69
316.23	365.69
316.46	375.69
316.689	361.69
316.919	387.69
317.148	383.69
317.377	370.69
317.607	381.69
317.836	391.69
318.065	382.69
318.295	362.69
318.524	364.69
318.753	357.69
318.983	352.69
319.212	370.69
319.441	377.69
319.67	382.69
319.9	374.69
320.129	389.69
320.358	378.69
320.587	389.69
320.816	377.69
321.046	386.69
321.275	402.69
321.504	399.69
321.733	409.69
321.962	390.69
322.191	409.69
322.42	416.69
322.649	418.69
322.878	441.69
323.108	449.69
323.337	447.69
323.566	459.69
323.795	526.69
324.024	585.69
324.253	673.69
324.482	942.69
324.71	1445.69
324.939	2258.69
325.168	1924.69
325.397	939.69
325.626	644.69
325.855	565.69
326.084	491.69
326.313	497.69
326.542	491.69
326.77	503.69
326.999	641.69
327.228	852.69
327.457	1346.69
327.686	1683.69
327.914	1100.69
328.143	678.69
328.372	622.69
328.6	577.69
328.829	552.69
329.058	565.69
329.287	549.69
329.515	530.69
329.744	517.69
329.972	497.69
330.201	524.69
330.43	538.69
330.658	556.69
330.887	557.69
331.115	579.69
331.344	514.69
331.572	479.69
331.801	488.69
332.03	467.69
332.258	461.69
332.486	445.69
332.715	455.69
332.943	446.69
333.172	443.69
333.4	470.69
333.629	489.69
333.857	478.69
334.085	486.69
334.314	489.69
334.542	505.69
334.771	526.69
334.999	496.69
335.227	477.69
335.455	465.69
335.684	466.69
335.912	467.69
336.14	462.69
336.369	440.69
336.597	479.69
336.825	451.69
337.053	437.69
337.281	413.69
337.51	428.69
337.738	451.69
337.966	464.69
338.194	445.69
338.422	431.69
338.65	442.69
338.878	447.69
339.106	443.69
339.334	453.69
339.562	434.69
339.79	441.69
340.018	429.69
340.246	409.69
340.474	424.69
340.702	405.69
340.93	432.69
341.158	410.69
341.386	430.69
341.614	429.69
341.842	420.69
342.07	430.69
342.298	430.69
342.526	410.69
342.754	404.69
342.981	393.69
343.209	419.69
343.437	421.69
343.665	429.69
343.893	430.69
344.12	445.69
344.348	433.69
344.576	448.69
344.804	453.69
345.031	448.69
345.259	453.69
345.487	453.69
345.714	443.69
345.942	447.69
346.17	427.69
346.397	423.69
346.625	430.69
346.853	429.69
347.08	413.69
347.308	399.69
347.535	442.69
347.763	442.69
347.99	437.69
348.218	443.69
348.445	424.69
348.673	437.69
348.9	446.69
349.128	435.69
349.355	418.69
349.583	413.69
349.81	401.69
350.037	400.69
350.265	404.69
350.492	412.69
350.72	421.69
350.947	389.69
351.174	419.69
351.402	429.69
351.629	431.69
351.856	418.69
352.083	439.69
352.311	439.69
352.538	418.69
352.765	425.69
352.992	414.69
353.22	435.69
353.447	401.69
353.674	407.69
353.901	399.69
354.128	390.69
354.355	413.69
354.583	399.69
354.81	385.69
355.037	406.69
355.264	378.69
355.491	376.69
355.718	403.69
355.945	395.69
356.172	393.69
356.399	410.69
356.626	391.69
356.853	400.69
357.08	389.69
357.307	418.69
357.534	403.69
357.761	389.69
357.988	389.69
358.215	386.69
358.441	399.69
358.668	410.69
358.895	398.69
359.122	428.69
359.349	412.69
359.576	408.69
359.802	437.69
360.029	445.69
360.256	501.69
360.483	455.69
360.709	447.69
360.936	424.69
361.163	430.69
361.39	438.69
361.616	425.69
361.843	411.69
362.07	427.69
362.296	422.69
362.523	425.69
362.749	413.69
362.976	400.69
363.203	414.69
363.429	400.69
363.656	414.69
363.882	417.69
364.109	417.69
364.335	407.69
364.562	426.69
364.788	407.69
365.015	419.69
365.241	415.69
365.468	409.69
365.694	422.69
365.92	420.69
366.147	418.69
366.373	407.69
366.599	401.69
366.826	413.69
367.052	415.69
367.278	409.69
367.505	420.69
367.731	423.69
367.957	396.69
368.184	422.69
368.41	402.69
368.636	437.69
368.862	430.69
369.089	411.69
369.315	402.69
369.541	415.69
369.767	432.69
369.993	399.69
370.219	427.69
370.445	422.69
370.672	408.69
370.898	407.69
371.124	433.69
371.35	431.69
371.576	421.69
371.802	427.69
372.028	410.69
372.254	410.69
372.48	426.69
372.706	434.69
372.932	412.69
373.158	427.69
373.384	433.69
373.61	401.69
373.835	418.69
374.061	413.69
374.287	429.69
374.513	433.69
374.739	441.69
374.965	425.69
375.191	435.69
375.416	425.69
375.642	430.69
375.868	424.69
376.094	435.69
376.319	428.69
376.545	423.69
376.771	407.69
376.997	438.69
377.222	434.69
377.448	406.69
377.674	404.69
377.899	405.69
378.125	396.69
378.35	404.69
378.576	416.69
378.802	413.69
379.027	422.69
379.253	438.69
379.478	414.69
379.704	441.69
379.929	419.69
380.155	439.69
380.38	416.69
380.606	421.69
380.831	441.69
381.057	418.69
381.282	416.69
381.507	437.69
381.733	438.69
381.958	424.69
382.184	429.69
382.409	427.69
382.634	429.69
382.86	447.69
383.085	460.69
383.31	420.69
383.535	440.69
383.761	439.69
383.986	442.69
384.211	445.69
384.436	458.69
384.662	429.69
384.887	445.69
385.112	462.69
385.337	464.69
385.562	427.69
385.787	451.69
386.013	450.69
386.238	471.69
386.463	467.69
386.688	458.69
386.913	462.69
387.138	478.69
387.363	464.69
387.588	445.69
387.813	442.69
388.038	445.69
388.263	480.69
388.488	475.69
388.713	472.69
388.938	452.69
389.163	452.69
389.387	470.69
389.612	473.69
389.837	451.69
390.062	452.69
390.287	471.69
390.512	456.69
390.736	447.69
390.961	467.69
391.186	453.69
391.411	485.69
391.636	491.69
391.86	470.69
392.085	486.69
392.31	468.69
392.534	500.69
392.759	493.69
392.984	477.69
393.208	479.69
393.433	507.69
393.658	495.69
393.882	514.69
394.107	483.69
394.331	489.69
394.556	478.69
394.78	467.69
395.005	509.69
395.229	463.69
395.454	510.69
395.678	489.69
395.903	526.69
396.127	515.69
396.352	531.69
396.576	509.69
396.801	477.69
397.025	492.69
397.249	513.69
397.474	493.69
397.698	509.69
397.922	532.69
398.147	535.69
398.371	543.69
398.595	528.69
398.82	540.69
399.044	555.69
399.268	572.69
399.492	564.69
399.717	633.69
399.941	641.69
400.165	667.69
400.389	698.69
400.613	605.69
400.837	589.69
401.062	587.69
401.286	564.69
401.51	571.69
401.734	541.69
401.958	565.69
402.182	532.69
402.406	566.69
402.63	556.69
402.854	539.69
403.078	564.69
403.302	559.69
403.526	580.69
403.75	579.69
403.974	554.69
404.198	552.69
404.422	551.69
404.645	570.69
404.869	592.69
405.093	610.69
405.317	646.69
405.541	684.69
405.765	637.69
405.988	594.69
406.212	606.69
406.436	635.69
406.66	624.69
406.883	607.69
407.107	620.69
407.331	659.69
407.555	762.69
407.778	758.69
408.002	673.69
408.226	646.69
408.449	625.69
408.673	609.69
408.896	677.69
409.12	703.69
409.344	666.69
409.567	630.69
409.791	618.69
410.014	571.69
410.238	575.69
410.461	583.69
410.685	587.69
410.908	585.69
411.132	626.69
411.355	676.69
411.578	628.69
411.802	616.69
412.025	579.69
412.249	600.69
412.472	614.69
412.695	654.69
412.919	635.69
413.142	575.69
413.365	557.69
413.589	573.69
413.812	587.69
414.035	539.69
414.258	540.69
414.482	551.69
414.705	533.69
414.928	538.69
415.151	543.69
415.374	541.69
415.597	539.69
415.821	549.69
416.044	538.69
416.267	544.69
416.49	538.69
416.713	522.69
416.936	543.69
417.159	543.69
417.382	528.69
417.605	535.69
417.828	558.69
418.051	573.69
418.274	550.69
418.497	540.69
418.72	541.69
418.943	529.69
419.166	559.69
419.389	602.69
419.611	581.69
419.834	575.69
420.057	565.69
420.28	547.69
420.503	547.69
420.726	567.69
420.948	572.69
421.171	626.69
421.394	663.69
421.617	580.69
421.839	561.69
422.062	574.69
422.285	575.69
422.507	643.69
422.73	716.69
422.953	713.69
423.175	590.69
423.398	581.69
423.621	598.69
423.843	604.69
424.066	611.69
424.288	591.69
424.511	632.69
424.733	656.69
424.956	756.69
425.178	719.69
425.401	731.69
425.623	734.69
425.846	640.69
426.068	584.69
426.291	583.69
426.513	595.69
426.735	599.69
426.958	659.69
427.18	719.69
427.402	887.69
427.625	974.69
427.847	832.69
428.069	716.69
428.292	653.69
428.514	587.69
428.736	573.69
428.958	549.69
429.181	569.69
429.403	541.69
429.625	578.69
429.847	581.69
430.069	682.69
430.292	663.69
430.514	581.69
430.736	556.69
430.958	553.69
431.18	538.69
431.402	526.69
431.624	506.69
431.846	513.69
432.068	527.69
432.29	522.69
432.512	537.69
432.734	534.69
432.956	554.69
433.178	567.69
433.4	553.69
433.622	561.69
433.844	520.69
434.066	525.69
434.287	536.69
434.509	566.69
434.731	548.69
434.953	567.69
435.175	546.69
435.397	577.69
435.618	595.69
435.84	635.69
436.062	742.69
436.284	843.69
436.505	684.69
436.727	612.69
436.949	596.69
437.17	557.69
437.392	552.69
437.614	575.69
437.835	620.69
438.057	686.69
438.278	819.69
438.5	801.69
438.721	886.69
438.943	857.69
439.165	655.69
439.386	612.69
439.608	597.69
439.829	637.69
440.05	631.69
440.272	686.69
440.493	653.69
440.715	606.69
440.936	569.69
441.158	555.69
441.379	556.69
441.6	588.69
441.822	591.69
442.043	616.69
442.264	739.69
442.486	801.69
442.707	674.69
442.928	621.69
443.149	631.69
443.371	651.69
443.592	677.69
443.813	778.69
444.034	832.69
444.255	701.69
444.476	630.69
444.698	617.69
444.919	608.69
445.14	719.69
445.361	699.69
445.582	637.69
445.803	724.69
446.024	826.69
446.245	813.69
446.466	780.69
446.687	649.69
446.908	604.69
447.129	577.69
447.35	570.69
447.571	555.69
447.792	550.69
448.013	538.69
448.234	582.69
448.455	595.69
448.675	725.69
448.896	859.69
449.117	743.69
449.338	701.69
449.559	805.69
449.779	916.69
450	729.69
450.221	604.69
450.442	546.69
450.662	531.69
450.883	542.69
451.104	556.69
451.324	547.69
451.545	530.69
451.766	493.69
451.986	519.69
452.207	511.69
452.428	501.69
452.648	504.69
452.869	516.69
453.089	495.69
453.31	515.69
453.53	498.69
453.751	500.69
453.971	484.69
454.192	517.69
454.412	490.69
454.633	501.69
454.853	486.69
455.073	493.69
455.294	515.69
455.514	586.69
455.734	578.69
455.955	514.69
456.175	476.69
456.395	470.69
456.616	499.69
456.836	473.69
457.056	450.69
457.276	463.69
457.497	491.69
457.717	468.69
457.937	469.69
458.157	481.69
458.377	486.69
458.598	504.69
458.818	563.69
459.038	634.69
459.258	673.69
459.478	594.69
459.698	541.69
459.918	529.69
460.138	547.69
460.358	554.69
460.578	552.69
460.798	558.69
461.018	562.69
461.238	545.69
461.458	547.69
461.678	564.69
461.898	557.69
462.118	568.69
462.338	555.69
462.558	576.69
462.777	582.69
462.997	601.69
463.217	599.69
463.437	633.69
463.657	595.69
463.876	609.69
464.096	618.69
464.316	595.69
464.536	578.69
464.755	591.69
464.975	575.69
465.195	611.69
465.414	683.69
465.634	612.69
465.854	591.69
466.073	555.69
466.293	550.69
466.512	526.69
466.732	513.69
466.951	529.69
467.171	526.69
467.391	535.69
467.61	528.69
467.829	519.69
468.049	522.69
468.268	500.69
468.488	498.69
468.707	497.69
468.927	495.69
469.146	492.69
469.365	511.69
469.585	501.69
469.804	513.69
470.023	529.69
470.243	506.69
470.462	526.69
470.681	550.69
470.901	532.69
471.12	527.69
471.339	506.69
471.558	535.69
471.777	516.69
471.997	501.69
472.216	539.69
472.435	559.69
472.654	542.69
472.873	513.69
473.092	518.69
473.311	517.69
473.53	535.69
473.749	526.69
473.968	573.69
474.187	670.69
474.406	718.69
474.625	576.69
474.844	542.69
475.063	523.69
475.282	533.69
475.501	543.69
475.72	545.69
475.939	524.69
476.158	558.69
476.377	521.69
476.596	543.69
476.814	540.69
477.033	533.69
477.252	558.69
477.471	542.69
477.69	562.69
477.908	574.69
478.127	586.69
478.346	580.69
478.564	580.69
478.783	585.69
479.002	611.69
479.22	602.69
479.439	591.69
479.658	625.69
479.876	629.69
480.095	627.69
480.313	643.69
480.532	652.69
480.751	665.69
480.969	655.69
481.188	681.69
481.406	710.69
481.624	655.69
481.843	645.69
482.061	626.69
482.28	625.69
482.498	615.69
482.717	609.69
482.935	638.69
483.153	625.69
483.372	613.69
483.59	605.69
483.808	613.69
484.027	594.69
484.245	620.69
484.463	637.69
484.681	631.69
484.9	628.69
485.118	641.69
485.336	636.69
485.554	633.69
485.772	622.69
485.99	634.69
486.209	638.69
486.427	640.69
486.645	648.69
486.863	653.69
487.081	651.69
487.299	656.69
487.517	650.69
487.735	651.69
487.953	646.69
488.171	652.69
488.389	638.69
488.607	658.69
488.825	689.69
489.043	666.69
489.261	675.69
489.479	650.69
489.696	661.69
489.914	673.69
490.132	661.69
490.35	673.69
490.568	690.69
490.786	682.69
491.003	669.69
491.221	718.69
491.439	708.69
491.657	710.69
491.874	707.69
492.092	710.69
492.31	737.69
492.527	707.69
492.745	711.69
492.963	750.69
493.18	719.69
493.398	732.69
493.615	768.69
493.833	778.69
494.05	751.69
494.268	745.69
494.485	734.69
494.703	765.69
494.92	747.69
495.138	747.69
495.355	773.69
495.573	755.69
495.79	733.69
496.008	759.69
496.225	770.69
496.442	783.69
496.66	763.69
496.877	731.69
497.094	770.69
497.312	803.69
497.529	781.69
497.746	834.69
497.963	841.69
498.181	823.69
498.398	853.69
498.615	873.69
498.832	885.69
499.049	891.69
499.267	916.69
499.484	953.69
499.701	993.69
499.918	1016.69
500.135	1061.69
500.352	1100.69
500.569	1110.69
500.786	1125.69
501.003	1110.69
501.22	1073.69
501.437	1056.69
501.654	1010.69
501.871	1007.69
502.088	965.69
502.305	958.69
502.522	922.69
502.739	867.69
502.956	862.69
503.172	842.69
503.389	827.69
503.606	817.69
503.823	797.69
504.04	825.69
504.256	798.69
504.473	797.69
504.69	774.69
504.907	782.69
505.123	782.69
505.34	750.69
505.557	762.69
505.773	750.69
505.99	745.69
506.207	751.69
506.423	733.69
506.64	742.69
506.856	725.69
507.073	724.69
507.289	703.69
507.506	718.69
507.722	735.69
507.939	733.69
508.155	710.69
508.372	703.69
508.588	702.69
508.805	700.69
509.021	689.69
509.238	720.69
509.454	727.69
509.67	669.69
509.887	677.69
510.103	675.69
510.319	702.69
510.536	792.69
510.752	1170.69
510.968	1010.69
511.184	707.69
511.401	669.69
511.617	675.69
511.833	667.69
512.049	638.69
512.265	654.69
512.481	648.69
512.698	648.69
512.914	652.69
513.13	670.69
513.346	653.69
513.562	663.69
513.778	650.69
513.994	674.69
514.21	683.69
514.426	669.69
514.642	730.69
514.858	750.69
515.074	783.69
515.29	895.69
515.506	1211.69
515.721	1028.69
515.937	750.69
516.153	718.69
516.369	702.69
516.585	695.69
516.801	679.69
517.016	680.69
517.232	708.69
517.448	721.69
517.664	691.69
517.879	694.69
518.095	671.69
518.311	692.69
518.527	673.69
518.742	689.69
518.958	673.69
519.173	678.69
519.389	647.69
519.605	672.69
519.82	670.69
520.036	674.69
520.251	693.69
520.467	703.69
520.682	695.69
520.898	709.69
521.113	717.69
521.329	754.69
521.544	823.69
521.76	1030.69
521.975	1561.69
522.19	1557.69
522.406	874.69
522.621	736.69
522.836	677.69
523.052	654.69
523.267	635.69
523.482	615.69
523.698	604.69
523.913	620.69
524.128	622.69
524.343	599.69
524.559	594.69
524.774	558.69
524.989	580.69
525.204	581.69
525.419	574.69
525.634	573.69
525.849	571.69
526.064	573.69
526.28	538.69
526.495	552.69
526.71	560.69
526.925	557.69
527.14	536.69
527.355	545.69
527.57	561.69
527.785	561.69
527.999	561.69
528.214	554.69
528.429	557.69
528.644	549.69
528.859	548.69
529.074	552.69
529.289	574.69
529.503	649.69
529.718	636.69
529.933	561.69
530.148	564.69
530.363	574.69
530.577	528.69
530.792	541.69
531.007	539.69
531.221	571.69
531.436	574.69
531.651	534.69
531.865	518.69
532.08	563.69
532.295	550.69
532.509	540.69
532.724	509.69
532.938	518.69
533.153	535.69
533.367	503.69
533.582	536.69
533.796	530.69
534.011	513.69
534.225	512.69
534.44	522.69
534.654	537.69
534.868	521.69
535.083	537.69
535.297	513.69
535.511	527.69
535.726	537.69
535.94	531.69
536.154	528.69
536.369	499.69
536.583	501.69
536.797	542.69
537.011	497.69
537.225	495.69
537.44	522.69
537.654	518.69
537.868	509.69
538.082	501.69
538.296	519.69
538.51	510.69
538.724	514.69
538.938	508.69
539.153	486.69
539.367	527.69
539.581	517.69
539.795	494.69
540.009	513.69
540.222	502.69
540.436	503.69
540.65	506.69
540.864	523.69
541.078	501.69
541.292	506.69
541.506	507.69
541.72	495.69
541.934	488.69
542.147	492.69
542.361	478.69
542.575	504.69
542.789	482.69
543.002	495.69
543.216	502.69
543.43	494.69
543.644	501.69
543.857	492.69
544.071	509.69
544.285	501.69
544.498	491.69
544.712	483.69
544.925	508.69
545.139	508.69
545.352	483.69
545.566	481.69
545.779	482.69
545.993	490.69
546.206	506.69
546.42	509.69
546.633	490.69
546.847	489.69
547.06	489.69
547.274	494.69
547.487	492.69
547.7	482.69
547.914	502.69
548.127	491.69
548.34	502.69
548.554	468.69
548.767	483.69
548.98	468.69
549.193	478.69
549.407	502.69
549.62	480.69
549.833	486.69
550.046	473.69
550.259	487.69
550.473	489.69
550.686	493.69
550.899	497.69
551.112	480.69
551.325	474.69
551.538	492.69
551.751	484.69
551.964	469.69
552.177	526.69
552.39	481.69
552.603	494.69
552.816	500.69
553.029	491.69
553.242	521.69
553.455	486.69
553.667	504.69
553.88	482.69
554.093	489.69
554.306	501.69
554.519	482.69
554.732	463.69
554.944	471.69
555.157	467.69
555.37	478.69
555.583	495.69
555.795	484.69
556.008	454.69
556.221	450.69
556.433	446.69
556.646	439.69
556.859	465.69
557.071	466.69
557.284	461.69
557.496	433.69
557.709	449.69
557.921	431.69
558.134	428.69
558.346	445.69
558.559	446.69
558.771	424.69
558.984	419.69
559.196	431.69
559.409	442.69
559.621	433.69
559.833	442.69
560.046	419.69
560.258	424.69
560.47	426.69
560.683	424.69
560.895	433.69
561.107	423.69
561.32	420.69
561.532	418.69
561.744	435.69
561.956	461.69
562.168	437.69
562.381	424.69
562.593	445.69
562.805	445.69
563.017	439.69
563.229	446.69
563.441	427.69
563.653	445.69
563.865	450.69
564.077	457.69
564.289	443.69
564.501	461.69
564.713	473.69
564.925	465.69
565.137	476.69
565.349	478.69
565.561	473.69
565.773	502.69
565.985	482.69
566.197	499.69
566.408	517.69
566.62	531.69
566.832	542.69
567.044	534.69
567.255	537.69
567.467	549.69
567.679	543.69
567.891	573.69
568.102	557.69
568.314	533.69
568.526	521.69
568.737	525.69
568.949	493.69
569.161	494.69
569.372	474.69
569.584	466.69
569.795	471.69
570.007	436.69
570.218	467.69
570.43	463.69
570.641	443.69
570.853	428.69
571.064	427.69
571.276	429.69
571.487	419.69
571.698	415.69
571.91	391.69
572.121	415.69
572.333	395.69
572.544	385.69
572.755	386.69
572.966	405.69
573.178	417.69
573.389	395.69
573.6	399.69
573.811	393.69
574.023	394.69
574.234	379.69
574.445	379.69
574.656	382.69
574.867	375.69
575.078	382.69
575.289	385.69
575.501	397.69
575.712	381.69
575.923	360.69
576.134	371.69
576.345	362.69
576.556	359.69
576.767	382.69
576.978	364.69
577.188	379.69
577.399	375.69
577.61	364.69
577.821	356.69
578.032	365.69
578.243	395.69
578.454	589.69
578.665	460.69
578.875	387.69
579.086	369.69
579.297	360.69
579.508	349.69
579.718	349.69
579.929	342.69
580.14	361.69
580.35	374.69
580.561	339.69
580.772	329.69
580.982	343.69
581.193	350.69
581.403	326.69
581.614	358.69
581.825	331.69
582.035	335.69
582.246	345.69
582.456	349.69
582.667	329.69
582.877	342.69
583.087	328.69
583.298	327.69
583.508	316.69
583.719	341.69
583.929	342.69
584.139	353.69
584.35	345.69
584.56	336.69
584.77	329.69
584.981	321.69
585.191	335.69
585.401	313.69
585.611	350.69
585.821	340.69
586.032	322.69
586.242	329.69
586.452	336.69
586.662	319.69
586.872	312.69
587.082	338.69
587.292	322.69
587.502	331.69
587.713	313.69
587.923	307.69
588.133	319.69
588.343	326.69
588.553	333.69
588.762	323.69
588.972	323.69
589.182	333.69
589.392	343.69
589.602	325.69
589.812	315.69
590.022	338.69
590.232	349.69
590.441	329.69
590.651	318.69
590.861	338.69
591.071	320.69
591.281	346.69
591.49	322.69
591.7	318.69
591.91	327.69
592.119	327.69
592.329	325.69
592.539	326.69
592.748	329.69
592.958	341.69
593.167	340.69
593.377	347.69
593.587	360.69
593.796	364.69
594.006	358.69
594.215	364.69
594.424	340.69
594.634	341.69
594.843	339.69
595.053	333.69
595.262	338.69
595.472	334.69
595.681	320.69
595.89	334.69
596.1	296.69
596.309	298.69
596.518	307.69
596.727	310.69
596.937	296.69
597.146	302.69
597.355	295.69
597.564	320.69
597.774	302.69
597.983	310.69
598.192	292.69
598.401	288.69
598.61	290.69
598.819	288.69
599.028	295.69
599.237	294.69
599.446	294.69
599.655	288.69
599.864	295.69
600.073	284.69
600.282	290.69
600.491	290.69
600.7	307.69
600.909	281.69
601.118	282.69
601.327	288.69
601.536	281.69
601.745	281.69
601.953	276.69
602.162	294.69
602.371	278.69
602.58	272.69
602.789	271.69
602.997	293.69
603.206	287.69
603.415	291.69
603.623	273.69
603.832	281.69
604.041	266.69
604.249	283.69
604.458	275.69
604.666	270.69
604.875	271.69
605.084	274.69
605.292	285.69
605.501	263.69
605.709	250.69
605.918	248.69
606.126	272.69
606.334	269.69
606.543	275.69
606.751	280.69
606.96	271.69
607.168	268.69
607.376	263.69
607.585	282.69
607.793	273.69
608.001	273.69
608.21	256.69
608.418	265.69
608.626	269.69
608.834	269.69
609.043	250.69
609.251	268.69
609.459	242.69
609.667	251.69
609.875	259.69
610.083	258.69
610.291	249.69
610.499	277.69
610.707	269.69
610.916	252.69
611.124	275.69
611.332	262.69
611.54	264.69
611.748	270.69
611.955	267.69
612.163	251.69
612.371	249.69
612.579	258.69
612.787	257.69
612.995	266.69
613.203	258.69
613.411	268.69
613.618	250.69
613.826	251.69
614.034	245.69
614.242	254.69
614.449	236.69
614.657	245.69
614.865	259.69
615.072	257.69
615.28	266.69
615.488	269.69
615.695	258.69
615.903	243.69
616.111	242.69
616.318	267.69
616.526	246.69
616.733	250.69
616.941	266.69
617.148	270.69
617.356	259.69
617.563	243.69
617.771	261.69
617.978	277.69
618.185	248.69
618.393	259.69
618.6	257.69
618.807	264.69
619.015	265.69
619.222	245.69
619.429	247.69
619.637	265.69
619.844	265.69
620.051	248.69
620.258	245.69
620.466	238.69
620.673	234.69
620.88	213.69
621.087	243.69
621.294	245.69
621.501	253.69
621.708	248.69
621.915	247.69
622.122	253.69
622.329	236.69
622.536	245.69
622.743	249.69
622.95	225.69
623.157	242.69
623.364	234.69
623.571	246.69
623.778	221.69
623.985	229.69
624.192	219.69
624.399	205.69
624.606	234.69
624.812	219.69
625.019	221.69
625.226	243.69
625.433	238.69
625.639	236.69
625.846	219.69
626.053	217.69
626.259	215.69
626.466	225.69
626.673	230.69
626.879	224.69
627.086	228.69
627.293	220.69
627.499	233.69
627.706	235.69
627.912	237.69
628.119	206.69
628.325	230.69
628.532	237.69
628.738	212.69
628.945	225.69
629.151	204.69
629.357	226.69
629.564	228.69
629.77	216.69
629.976	205.69
630.183	223.69
630.389	218.69
630.595	216.69
630.802	187.69
631.008	217.69
631.214	219.69
631.42	216.69
631.627	219.69
631.833	194.69
632.039	203.69
632.245	203.69
632.451	198.69
632.657	198.69
632.863	199.69
633.069	204.69
633.275	208.69
633.481	205.69
633.688	184.69
633.893	195.69
634.099	201.69
634.305	185.69
634.511	199.69
634.717	203.69
634.923	198.69
635.129	204.69
635.335	204.69
635.541	207.69
635.747	189.69
635.952	197.69
636.158	211.69
636.364	210.69
636.57	201.69
636.775	204.69
636.981	185.69
637.187	206.69
637.392	199.69
637.598	194.69
637.804	196.69
638.009	190.69
638.215	204.69
638.421	184.69
638.626	200.69
638.832	202.69
639.037	187.69
639.243	191.69
639.448	181.69
639.654	191.69
639.859	186.69
640.065	187.69
640.27	166.69
640.475	180.69
640.681	183.69
640.886	183.69
641.091	178.69
641.297	168.69
641.502	184.69
641.707	188.69
641.913	184.69
642.118	181.69
642.323	175.69
642.528	181.69
642.733	163.69
642.939	167.69
643.144	181.69
643.349	189.69
643.554	192.69
643.759	184.69
643.964	189.69
644.169	184.69
644.374	177.69
644.579	173.69
644.784	187.69
644.989	181.69
645.194	161.69
645.399	190.69
645.604	163.69
645.809	193.69
646.014	175.69
646.219	184.69
646.423	183.69
646.628	173.69
646.833	177.69
647.038	185.69
647.243	171.69
647.447	169.69
647.652	183.69
647.857	188.69
648.062	194.69
648.266	186.69
648.471	191.69
648.676	186.69
648.88	169.69
649.085	186.69
649.289	165.69
649.494	181.69
649.698	211.69
649.903	201.69
650.107	170.69
650.312	179.69
650.516	168.69
650.721	178.69
650.925	167.69
651.13	162.69
651.334	162.69
651.539	163.69
651.743	165.69
651.947	157.69
652.152	146.69
652.356	162.69
652.56	157.69
652.764	143.69
652.969	154.69
653.173	156.69
653.377	135.69
653.581	144.69
653.785	147.69
653.99	163.69
654.194	147.69
654.398	154.69
654.602	135.69
654.806	145.69
655.01	145.69
655.214	151.69
655.418	137.69
655.622	148.69
655.826	126.69
656.03	150.69
656.234	145.69
656.438	149.69
656.642	137.69
656.846	132.69
657.049	133.69
657.253	115.69
657.457	124.69
657.661	123.69
657.865	129.69
658.068	116.69
658.272	109.69
658.476	115.69
658.68	105.69
658.883	105.69
659.087	100.69
659.291	94.69
659.494	103.69
659.698	105.69
659.901	100.69
660.105	91.69
660.309	98.69
660.512	113.69
660.716	101.69
660.919	107.69
661.123	89.69
661.326	101.69
661.53	82.69
661.733	98.69
661.936	89.69
662.14	96.69
662.343	95.69
662.546	79.69
662.75	74.69
662.953	93.69
663.156	85.69
663.36	78.69
663.563	101.69
663.766	89.69
663.969	94.69
664.173	88.69
664.376	79.69
664.579	90.69
664.782	75.69
664.985	78.69
665.188	86.69
665.391	89.69
665.594	86.69
665.797	80.69
666	79.69
666.203	72.69
666.406	72.69
666.609	83.69
666.812	89.69
667.015	72.69
667.218	87.69
667.421	85.69
667.624	79.69
667.827	76.69
668.03	90.69
668.232	81.69
668.435	71.69
668.638	90.69
668.841	91.69
669.043	77.69
669.246	78.69
669.449	91.69
669.651	81.69
669.854	72.69
670.057	77.69
670.259	82.69
670.462	88.69
670.665	95.69
670.867	86.69
671.07	86.69
671.272	71.69
671.475	98.69
671.677	82.69
671.88	81.69
672.082	89.69
672.284	88.69
672.487	83.69
672.689	81.69
672.892	80.69
