Data from 1978.PennyLincolnUp.Lamp.En5.5.200Scan.071719.P1_HRD10591_16-14-35-864.txt Node
Date: Thu Jul 18 16:14:35 EDT 2019
User: cochatt
Spectrometer: HR+D1059
Trigger mode: 1
Integration Time (sec): 1.000000E-1
Scans to average: 1
Electric dark correction enabled: true
Nonlinearity correction enabled: false
Boxcar width: 0
XAxis mode: Wavelengths
Number of Pixels in Spectrum: 2048
>>>>>Begin Spectral Data<<<<<
223.165	-25.25
223.4	-25.25
223.635	-25.25
223.869	-24.25
224.104	-12.25
224.338	-4.25
224.573	-8.25
224.808	-16.25
225.042	7.75
225.277	-20.25
225.511	-13.25
225.746	20.75
225.98	7.75
226.215	8.75
226.449	14.75
226.683	18.75
226.918	14.75
227.152	30.75
227.387	35.75
227.621	44.75
227.856	30.75
228.09	37.75
228.324	35.75
228.559	55.75
228.793	58.75
229.027	99.75
229.262	110.75
229.496	118.75
229.73	120.75
229.964	159.75
230.199	123.75
230.433	98.75
230.667	116.75
230.901	116.75
231.136	108.75
231.37	108.75
231.604	110.75
231.838	125.75
232.072	105.75
232.306	117.75
232.541	124.75
232.775	125.75
233.009	90.75
233.243	97.75
233.477	125.75
233.711	124.75
233.945	123.75
234.179	113.75
234.413	108.75
234.647	103.75
234.881	115.75
235.115	110.75
235.349	117.75
235.583	117.75
235.817	118.75
236.051	120.75
236.285	131.75
236.519	134.75
236.753	121.75
236.987	143.75
237.221	174.75
237.455	230.75
237.689	192.75
237.922	135.75
238.156	129.75
238.39	133.75
238.624	117.75
238.858	138.75
239.091	116.75
239.325	107.75
239.559	122.75
239.793	122.75
240.027	135.75
240.26	141.75
240.494	151.75
240.728	128.75
240.961	144.75
241.195	142.75
241.429	145.75
241.662	129.75
241.896	130.75
242.13	129.75
242.363	115.75
242.597	124.75
242.83	145.75
243.064	139.75
243.298	136.75
243.531	145.75
243.765	138.75
243.998	129.75
244.232	131.75
244.465	129.75
244.699	139.75
244.932	143.75
245.166	136.75
245.399	158.75
245.633	136.75
245.866	143.75
246.099	148.75
246.333	139.75
246.566	139.75
246.8	136.75
247.033	153.75
247.266	152.75
247.5	152.75
247.733	145.75
247.966	168.75
248.2	153.75
248.433	160.75
248.666	154.75
248.899	167.75
249.133	196.75
249.366	195.75
249.599	198.75
249.832	164.75
250.066	171.75
250.299	168.75
250.532	164.75
250.765	180.75
250.998	192.75
251.231	215.75
251.465	207.75
251.698	186.75
251.931	199.75
252.164	196.75
252.397	193.75
252.63	188.75
252.863	193.75
253.096	205.75
253.329	202.75
253.562	219.75
253.795	206.75
254.028	203.75
254.261	196.75
254.494	202.75
254.727	240.75
254.96	250.75
255.193	263.75
255.426	236.75
255.659	227.75
255.892	204.75
256.124	212.75
256.357	231.75
256.59	219.75
256.823	221.75
257.056	210.75
257.289	186.75
257.521	198.75
257.754	193.75
257.987	194.75
258.22	201.75
258.452	183.75
258.685	186.75
258.918	206.75
259.151	191.75
259.383	198.75
259.616	209.75
259.849	201.75
260.081	223.75
260.314	227.75
260.547	258.75
260.779	231.75
261.012	230.75
261.244	202.75
261.477	185.75
261.71	217.75
261.942	215.75
262.175	210.75
262.407	227.75
262.64	202.75
262.872	207.75
263.105	196.75
263.337	214.75
263.57	204.75
263.802	194.75
264.035	216.75
264.267	211.75
264.499	200.75
264.732	200.75
264.964	207.75
265.197	209.75
265.429	222.75
265.661	187.75
265.894	208.75
266.126	221.75
266.358	224.75
266.591	206.75
266.823	217.75
267.055	227.75
267.287	230.75
267.52	216.75
267.752	243.75
267.984	229.75
268.216	233.75
268.448	223.75
268.681	223.75
268.913	241.75
269.145	248.75
269.377	265.75
269.609	261.75
269.841	266.75
270.073	254.75
270.306	279.75
270.538	311.75
270.77	293.75
271.002	268.75
271.234	297.75
271.466	276.75
271.698	309.75
271.93	306.75
272.162	314.75
272.394	305.75
272.626	285.75
272.858	287.75
273.09	255.75
273.322	278.75
273.553	265.75
273.785	252.75
274.017	253.75
274.249	268.75
274.481	259.75
274.713	268.75
274.945	254.75
275.176	264.75
275.408	266.75
275.64	257.75
275.872	250.75
276.104	255.75
276.335	267.75
276.567	256.75
276.799	263.75
277.031	285.75
277.262	301.75
277.494	300.75
277.726	282.75
277.957	288.75
278.189	280.75
278.421	257.75
278.652	258.75
278.884	250.75
279.115	274.75
279.347	253.75
279.579	266.75
279.81	281.75
280.042	273.75
280.273	257.75
280.505	249.75
280.736	266.75
280.968	263.75
281.199	280.75
281.431	250.75
281.662	256.75
281.894	258.75
282.125	269.75
282.356	280.75
282.588	299.75
282.819	300.75
283.051	270.75
283.282	264.75
283.513	267.75
283.745	264.75
283.976	271.75
284.207	288.75
284.439	274.75
284.67	288.75
284.901	286.75
285.132	256.75
285.364	261.75
285.595	279.75
285.826	278.75
286.057	271.75
286.288	259.75
286.52	273.75
286.751	279.75
286.982	288.75
287.213	284.75
287.444	290.75
287.675	294.75
287.906	278.75
288.138	295.75
288.369	289.75
288.6	306.75
288.831	286.75
289.062	293.75
289.293	280.75
289.524	290.75
289.755	282.75
289.986	268.75
290.217	284.75
290.448	277.75
290.679	293.75
290.91	303.75
291.141	286.75
291.371	283.75
291.602	283.75
291.833	271.75
292.064	282.75
292.295	292.75
292.526	299.75
292.757	282.75
292.987	306.75
293.218	296.75
293.449	302.75
293.68	295.75
293.91	302.75
294.141	310.75
294.372	279.75
294.603	289.75
294.833	287.75
295.064	293.75
295.295	298.75
295.525	305.75
295.756	289.75
295.987	286.75
296.217	303.75
296.448	328.75
296.679	310.75
296.909	287.75
297.14	290.75
297.37	294.75
297.601	297.75
297.831	299.75
298.062	292.75
298.292	305.75
298.523	300.75
298.753	318.75
298.984	299.75
299.214	310.75
299.445	322.75
299.675	311.75
299.905	312.75
300.136	304.75
300.366	300.75
300.597	324.75
300.827	331.75
301.057	313.75
301.288	314.75
301.518	325.75
301.748	320.75
301.979	332.75
302.209	331.75
302.439	330.75
302.669	311.75
302.9	324.75
303.13	328.75
303.36	330.75
303.59	343.75
303.82	330.75
304.051	335.75
304.281	329.75
304.511	315.75
304.741	328.75
304.971	321.75
305.201	325.75
305.431	327.75
305.661	330.75
305.891	304.75
306.121	318.75
306.352	306.75
306.582	346.75
306.812	324.75
307.042	327.75
307.272	329.75
307.502	343.75
307.731	338.75
307.961	332.75
308.191	339.75
308.421	340.75
308.651	332.75
308.881	327.75
309.111	333.75
309.341	330.75
309.571	358.75
309.8	358.75
310.03	370.75
310.26	354.75
310.49	356.75
310.72	372.75
310.949	386.75
311.179	371.75
311.409	388.75
311.639	370.75
311.868	361.75
312.098	371.75
312.328	383.75
312.557	377.75
312.787	398.75
313.017	399.75
313.246	391.75
313.476	382.75
313.706	375.75
313.935	366.75
314.165	399.75
314.394	399.75
314.624	404.75
314.853	393.75
315.083	376.75
315.312	362.75
315.542	360.75
315.771	369.75
316.001	400.75
316.23	354.75
316.46	369.75
316.689	370.75
316.919	382.75
317.148	379.75
317.377	372.75
317.607	376.75
317.836	409.75
318.065	392.75
318.295	375.75
318.524	376.75
318.753	376.75
318.983	385.75
319.212	377.75
319.441	373.75
319.67	382.75
319.9	374.75
320.129	376.75
320.358	388.75
320.587	371.75
320.816	399.75
321.046	414.75
321.275	414.75
321.504	405.75
321.733	397.75
321.962	399.75
322.191	408.75
322.42	431.75
322.649	444.75
322.878	446.75
323.108	451.75
323.337	499.75
323.566	483.75
323.795	522.75
324.024	563.75
324.253	716.75
324.482	1022.75
324.71	1654.75
324.939	2510.75
325.168	2143.75
325.397	1005.75
325.626	665.75
325.855	550.75
326.084	540.75
326.313	503.75
326.542	511.75
326.77	570.75
326.999	660.75
327.228	942.75
327.457	1482.75
327.686	1858.75
327.914	1189.75
328.143	716.75
328.372	653.75
328.6	600.75
328.829	569.75
329.058	582.75
329.287	584.75
329.515	550.75
329.744	517.75
329.972	502.75
330.201	526.75
330.43	552.75
330.658	598.75
330.887	602.75
331.115	579.75
331.344	514.75
331.572	499.75
331.801	482.75
332.03	491.75
332.258	492.75
332.486	481.75
332.715	451.75
332.943	466.75
333.172	461.75
333.4	474.75
333.629	481.75
333.857	475.75
334.085	485.75
334.314	487.75
334.542	571.75
334.771	551.75
334.999	525.75
335.227	490.75
335.455	459.75
335.684	476.75
335.912	455.75
336.14	461.75
336.369	449.75
336.597	463.75
336.825	474.75
337.053	468.75
337.281	471.75
337.51	456.75
337.738	446.75
337.966	441.75
338.194	460.75
338.422	462.75
338.65	440.75
338.878	449.75
339.106	454.75
339.334	450.75
339.562	431.75
339.79	436.75
340.018	441.75
340.246	438.75
340.474	447.75
340.702	419.75
340.93	441.75
341.158	449.75
341.386	436.75
341.614	436.75
341.842	427.75
342.07	427.75
342.298	437.75
342.526	431.75
342.754	431.75
342.981	433.75
343.209	420.75
343.437	411.75
343.665	434.75
343.893	456.75
344.12	459.75
344.348	447.75
344.576	448.75
344.804	452.75
345.031	456.75
345.259	463.75
345.487	435.75
345.714	450.75
345.942	443.75
346.17	455.75
346.397	422.75
346.625	422.75
346.853	393.75
347.08	409.75
347.308	415.75
347.535	432.75
347.763	428.75
347.99	420.75
348.218	421.75
348.445	442.75
348.673	455.75
348.9	427.75
349.128	424.75
349.355	419.75
349.583	421.75
349.81	407.75
350.037	427.75
350.265	423.75
350.492	413.75
350.72	413.75
350.947	409.75
351.174	434.75
351.402	447.75
351.629	406.75
351.856	424.75
352.083	437.75
352.311	433.75
352.538	438.75
352.765	438.75
352.992	423.75
353.22	442.75
353.447	450.75
353.674	419.75
353.901	397.75
354.128	419.75
354.355	401.75
354.583	420.75
354.81	417.75
355.037	402.75
355.264	399.75
355.491	399.75
355.718	387.75
355.945	389.75
356.172	406.75
356.399	417.75
356.626	393.75
356.853	388.75
357.08	392.75
357.307	404.75
357.534	409.75
357.761	416.75
357.988	407.75
358.215	401.75
358.441	408.75
358.668	388.75
358.895	421.75
359.122	420.75
359.349	421.75
359.576	438.75
359.802	459.75
360.029	475.75
360.256	484.75
360.483	472.75
360.709	436.75
360.936	434.75
361.163	424.75
361.39	444.75
361.616	419.75
361.843	421.75
362.07	437.75
362.296	443.75
362.523	436.75
362.749	407.75
362.976	426.75
363.203	422.75
363.429	400.75
363.656	421.75
363.882	421.75
364.109	431.75
364.335	438.75
364.562	400.75
364.788	412.75
365.015	421.75
365.241	407.75
365.468	407.75
365.694	417.75
365.92	436.75
366.147	422.75
366.373	416.75
366.599	406.75
366.826	435.75
367.052	431.75
367.278	431.75
367.505	399.75
367.731	407.75
367.957	391.75
368.184	436.75
368.41	416.75
368.636	430.75
368.862	438.75
369.089	439.75
369.315	420.75
369.541	423.75
369.767	410.75
369.993	420.75
370.219	400.75
370.445	401.75
370.672	415.75
370.898	418.75
371.124	428.75
371.35	415.75
371.576	416.75
371.802	403.75
372.028	434.75
372.254	421.75
372.48	406.75
372.706	406.75
372.932	424.75
373.158	404.75
373.384	441.75
373.61	442.75
373.835	416.75
374.061	436.75
374.287	423.75
374.513	432.75
374.739	419.75
374.965	444.75
375.191	426.75
375.416	439.75
375.642	408.75
375.868	452.75
376.094	433.75
376.319	414.75
376.545	441.75
376.771	436.75
376.997	404.75
377.222	424.75
377.448	432.75
377.674	421.75
377.899	415.75
378.125	411.75
378.35	416.75
378.576	426.75
378.802	429.75
379.027	423.75
379.253	415.75
379.478	444.75
379.704	416.75
379.929	420.75
380.155	410.75
380.38	436.75
380.606	427.75
380.831	424.75
381.057	433.75
381.282	425.75
381.507	432.75
381.733	456.75
381.958	423.75
382.184	431.75
382.409	428.75
382.634	448.75
382.86	434.75
383.085	451.75
383.31	416.75
383.535	452.75
383.761	443.75
383.986	447.75
384.211	458.75
384.436	451.75
384.662	450.75
384.887	470.75
385.112	450.75
385.337	447.75
385.562	467.75
385.787	446.75
386.013	461.75
386.238	458.75
386.463	476.75
386.688	463.75
386.913	463.75
387.138	492.75
387.363	475.75
387.588	465.75
387.813	458.75
388.038	486.75
388.263	470.75
388.488	467.75
388.713	456.75
388.938	477.75
389.163	478.75
389.387	490.75
389.612	471.75
389.837	467.75
390.062	472.75
390.287	474.75
390.512	464.75
390.736	478.75
390.961	496.75
391.186	480.75
391.411	482.75
391.636	479.75
391.86	477.75
392.085	504.75
392.31	512.75
392.534	497.75
392.759	499.75
392.984	482.75
393.208	472.75
393.433	488.75
393.658	494.75
393.882	476.75
394.107	502.75
394.331	518.75
394.556	481.75
394.78	500.75
395.005	477.75
395.229	466.75
395.454	501.75
395.678	499.75
395.903	497.75
396.127	542.75
396.352	531.75
396.576	494.75
396.801	500.75
397.025	498.75
397.249	507.75
397.474	499.75
397.698	496.75
397.922	533.75
398.147	543.75
398.371	538.75
398.595	527.75
398.82	533.75
399.044	545.75
399.268	575.75
399.492	619.75
399.717	634.75
399.941	648.75
400.165	675.75
400.389	687.75
400.613	632.75
400.837	584.75
401.062	568.75
401.286	569.75
401.51	550.75
401.734	542.75
401.958	552.75
402.182	580.75
402.406	562.75
402.63	562.75
402.854	588.75
403.078	552.75
403.302	587.75
403.526	569.75
403.75	578.75
403.974	556.75
404.198	576.75
404.422	588.75
404.645	579.75
404.869	591.75
405.093	600.75
405.317	658.75
405.541	692.75
405.765	631.75
405.988	622.75
406.212	631.75
406.436	626.75
406.66	634.75
406.883	607.75
407.107	654.75
407.331	680.75
407.555	755.75
407.778	772.75
408.002	697.75
408.226	648.75
408.449	649.75
408.673	636.75
408.896	653.75
409.12	723.75
409.344	683.75
409.567	623.75
409.791	610.75
410.014	580.75
410.238	578.75
410.461	579.75
410.685	569.75
410.908	583.75
411.132	624.75
411.355	691.75
411.578	650.75
411.802	616.75
412.025	595.75
412.249	577.75
412.472	627.75
412.695	667.75
412.919	633.75
413.142	568.75
413.365	568.75
413.589	555.75
413.812	552.75
414.035	567.75
414.258	549.75
414.482	546.75
414.705	546.75
414.928	561.75
415.151	556.75
415.374	539.75
415.597	551.75
415.821	526.75
416.044	537.75
416.267	532.75
416.49	543.75
416.713	532.75
416.936	536.75
417.159	545.75
417.382	534.75
417.605	570.75
417.828	563.75
418.051	576.75
418.274	561.75
418.497	524.75
418.72	564.75
418.943	531.75
419.166	583.75
419.389	584.75
419.611	603.75
419.834	578.75
420.057	566.75
420.28	572.75
420.503	583.75
420.726	556.75
420.948	565.75
421.171	627.75
421.394	638.75
421.617	568.75
421.839	560.75
422.062	575.75
422.285	580.75
422.507	624.75
422.73	741.75
422.953	704.75
423.175	628.75
423.398	607.75
423.621	598.75
423.843	594.75
424.066	597.75
424.288	604.75
424.511	624.75
424.733	690.75
424.956	784.75
425.178	754.75
425.401	725.75
425.623	778.75
425.846	654.75
426.068	606.75
426.291	576.75
426.513	595.75
426.735	619.75
426.958	671.75
427.18	741.75
427.402	898.75
427.625	1014.75
427.847	844.75
428.069	732.75
428.292	654.75
428.514	575.75
428.736	599.75
428.958	574.75
429.181	560.75
429.403	547.75
429.625	592.75
429.847	591.75
430.069	675.75
430.292	681.75
430.514	595.75
430.736	575.75
430.958	558.75
431.18	526.75
431.402	549.75
431.624	533.75
431.846	540.75
432.068	534.75
432.29	534.75
432.512	540.75
432.734	538.75
432.956	533.75
433.178	558.75
433.4	568.75
433.622	538.75
433.844	540.75
434.066	535.75
434.287	522.75
434.509	548.75
434.731	569.75
434.953	564.75
435.175	571.75
435.397	613.75
435.618	609.75
435.84	657.75
436.062	753.75
436.284	838.75
436.505	688.75
436.727	611.75
436.949	578.75
437.17	566.75
437.392	564.75
437.614	567.75
437.835	612.75
438.057	711.75
438.278	839.75
438.5	826.75
438.721	917.75
438.943	894.75
439.165	664.75
439.386	661.75
439.608	633.75
439.829	628.75
440.05	659.75
440.272	682.75
440.493	665.75
440.715	599.75
440.936	582.75
441.158	580.75
441.379	569.75
441.6	593.75
441.822	595.75
442.043	640.75
442.264	729.75
442.486	812.75
442.707	681.75
442.928	628.75
443.149	638.75
443.371	643.75
443.592	732.75
443.813	816.75
444.034	911.75
444.255	730.75
444.476	650.75
444.698	611.75
444.919	613.75
445.14	706.75
445.361	692.75
445.582	697.75
445.803	751.75
446.024	881.75
446.245	873.75
446.466	786.75
446.687	663.75
446.908	611.75
447.129	579.75
447.35	557.75
447.571	551.75
447.792	546.75
448.013	569.75
448.234	601.75
448.455	625.75
448.675	770.75
448.896	905.75
449.117	771.75
449.338	690.75
449.559	827.75
449.779	970.75
450	744.75
450.221	624.75
450.442	572.75
450.662	577.75
450.883	558.75
451.104	584.75
451.324	535.75
451.545	525.75
451.766	527.75
451.986	503.75
452.207	515.75
452.428	525.75
452.648	498.75
452.869	534.75
453.089	508.75
453.31	517.75
453.53	502.75
453.751	489.75
453.971	499.75
454.192	522.75
454.412	491.75
454.633	502.75
454.853	481.75
455.073	475.75
455.294	542.75
455.514	586.75
455.734	600.75
455.955	516.75
456.175	475.75
456.395	484.75
456.616	487.75
456.836	464.75
457.056	474.75
457.276	478.75
457.497	471.75
457.717	466.75
457.937	501.75
458.157	486.75
458.377	499.75
458.598	526.75
458.818	561.75
459.038	666.75
459.258	703.75
459.478	574.75
459.698	544.75
459.918	539.75
460.138	516.75
460.358	553.75
460.578	552.75
460.798	556.75
461.018	574.75
461.238	547.75
461.458	554.75
461.678	538.75
461.898	559.75
462.118	547.75
462.338	590.75
462.558	578.75
462.777	606.75
462.997	598.75
463.217	611.75
463.437	603.75
463.657	601.75
463.876	610.75
464.096	598.75
464.316	590.75
464.536	596.75
464.755	623.75
464.975	572.75
465.195	634.75
465.414	711.75
465.634	615.75
465.854	584.75
466.073	570.75
466.293	539.75
466.512	517.75
466.732	514.75
466.951	516.75
467.171	529.75
467.391	517.75
467.61	536.75
467.829	547.75
468.049	536.75
468.268	514.75
468.488	535.75
468.707	509.75
468.927	512.75
469.146	524.75
469.365	520.75
469.585	513.75
469.804	496.75
470.023	540.75
470.243	530.75
470.462	543.75
470.681	535.75
470.901	532.75
471.12	544.75
471.339	535.75
471.558	544.75
471.777	528.75
471.997	558.75
472.216	523.75
472.435	574.75
472.654	544.75
472.873	542.75
473.092	552.75
473.311	550.75
473.53	533.75
473.749	550.75
473.968	567.75
474.187	698.75
474.406	686.75
474.625	599.75
474.844	543.75
475.063	535.75
475.282	538.75
475.501	535.75
475.72	531.75
475.939	524.75
476.158	523.75
476.377	548.75
476.596	549.75
476.814	540.75
477.033	555.75
477.252	560.75
477.471	563.75
477.69	543.75
477.908	584.75
478.127	569.75
478.346	615.75
478.564	597.75
478.783	594.75
479.002	616.75
479.22	619.75
479.439	616.75
479.658	626.75
479.876	658.75
480.095	649.75
480.313	652.75
480.532	650.75
480.751	645.75
480.969	661.75
481.188	713.75
481.406	741.75
481.624	671.75
481.843	612.75
482.061	632.75
482.28	631.75
482.498	611.75
482.717	629.75
482.935	642.75
483.153	611.75
483.372	626.75
483.59	624.75
483.808	635.75
484.027	609.75
484.245	620.75
484.463	604.75
484.681	630.75
484.9	636.75
485.118	638.75
485.336	639.75
485.554	626.75
485.772	645.75
485.99	660.75
486.209	634.75
486.427	644.75
486.645	653.75
486.863	651.75
487.081	674.75
487.299	668.75
487.517	674.75
487.735	648.75
487.953	630.75
488.171	648.75
488.389	668.75
488.607	666.75
488.825	669.75
489.043	634.75
489.261	670.75
489.479	672.75
489.696	673.75
489.914	674.75
490.132	688.75
490.35	682.75
490.568	672.75
490.786	674.75
491.003	681.75
491.221	736.75
491.439	699.75
491.657	714.75
491.874	764.75
492.092	726.75
492.31	729.75
492.527	731.75
492.745	739.75
492.963	760.75
493.18	770.75
493.398	761.75
493.615	775.75
493.833	757.75
494.05	766.75
494.268	762.75
494.485	770.75
494.703	770.75
494.92	766.75
495.138	755.75
495.355	750.75
495.573	775.75
495.79	802.75
496.008	785.75
496.225	773.75
496.442	768.75
496.66	783.75
496.877	815.75
497.094	810.75
497.312	798.75
497.529	810.75
497.746	790.75
497.963	826.75
498.181	859.75
498.398	899.75
498.615	898.75
498.832	895.75
499.049	897.75
499.267	957.75
499.484	959.75
499.701	991.75
499.918	1047.75
500.135	1082.75
500.352	1113.75
500.569	1158.75
500.786	1148.75
501.003	1107.75
501.22	1084.75
501.437	1030.75
501.654	1035.75
501.871	1035.75
502.088	992.75
502.305	955.75
502.522	910.75
502.739	902.75
502.956	861.75
503.172	852.75
503.389	830.75
503.606	831.75
503.823	817.75
504.04	809.75
504.256	811.75
504.473	790.75
504.69	803.75
504.907	832.75
505.123	793.75
505.34	788.75
505.557	779.75
505.773	775.75
505.99	728.75
506.207	758.75
506.423	779.75
506.64	743.75
506.856	729.75
507.073	717.75
507.289	721.75
507.506	716.75
507.722	723.75
507.939	729.75
508.155	723.75
508.372	694.75
508.588	705.75
508.805	705.75
509.021	687.75
509.238	722.75
509.454	708.75
509.67	710.75
509.887	682.75
510.103	672.75
510.319	694.75
510.536	812.75
510.752	1226.75
510.968	1043.75
511.184	708.75
511.401	669.75
511.617	659.75
511.833	656.75
512.049	679.75
512.265	660.75
512.481	662.75
512.698	677.75
512.914	684.75
513.13	670.75
513.346	655.75
513.562	662.75
513.778	635.75
513.994	657.75
514.21	670.75
514.426	677.75
514.642	739.75
514.858	784.75
515.074	796.75
515.29	906.75
515.506	1311.75
515.721	1088.75
515.937	785.75
516.153	722.75
516.369	736.75
516.585	720.75
516.801	719.75
517.016	681.75
517.232	720.75
517.448	719.75
517.664	700.75
517.879	718.75
518.095	705.75
518.311	699.75
518.527	676.75
518.742	713.75
518.958	663.75
519.173	686.75
519.389	665.75
519.605	674.75
519.82	681.75
520.036	706.75
520.251	696.75
520.467	714.75
520.682	743.75
520.898	716.75
521.113	746.75
521.329	790.75
521.544	851.75
521.76	1029.75
521.975	1600.75
522.19	1611.75
522.406	924.75
522.621	752.75
522.836	680.75
523.052	680.75
523.267	645.75
523.482	621.75
523.698	631.75
523.913	635.75
524.128	599.75
524.343	612.75
524.559	569.75
524.774	593.75
524.989	597.75
525.204	609.75
525.419	589.75
525.634	561.75
525.849	589.75
526.064	585.75
526.28	560.75
526.495	579.75
526.71	578.75
526.925	563.75
527.14	559.75
527.355	581.75
527.57	545.75
527.785	551.75
527.999	532.75
528.214	557.75
528.429	564.75
528.644	535.75
528.859	562.75
529.074	556.75
529.289	568.75
529.503	627.75
529.718	619.75
529.933	587.75
530.148	565.75
530.363	579.75
530.577	544.75
530.792	571.75
531.007	532.75
531.221	544.75
531.436	539.75
531.651	538.75
531.865	538.75
532.08	525.75
532.295	552.75
532.509	540.75
532.724	541.75
532.938	524.75
533.153	554.75
533.367	549.75
533.582	538.75
533.796	532.75
534.011	531.75
534.225	521.75
534.44	515.75
534.654	530.75
534.868	531.75
535.083	539.75
535.297	548.75
535.511	537.75
535.726	541.75
535.94	528.75
536.154	523.75
536.369	524.75
536.583	511.75
536.797	539.75
537.011	522.75
537.225	498.75
537.44	511.75
537.654	515.75
537.868	533.75
538.082	534.75
538.296	526.75
538.51	532.75
538.724	513.75
538.938	520.75
539.153	513.75
539.367	511.75
539.581	535.75
539.795	511.75
540.009	518.75
540.222	495.75
540.436	518.75
540.65	508.75
540.864	528.75
541.078	531.75
541.292	528.75
541.506	508.75
541.72	474.75
541.934	490.75
542.147	509.75
542.361	524.75
542.575	483.75
542.789	487.75
543.002	512.75
543.216	501.75
543.43	516.75
543.644	510.75
543.857	496.75
544.071	486.75
544.285	499.75
544.498	518.75
544.712	503.75
544.925	508.75
545.139	488.75
545.352	497.75
545.566	490.75
545.779	457.75
545.993	500.75
546.206	516.75
546.42	495.75
546.633	506.75
546.847	490.75
547.06	473.75
547.274	474.75
547.487	495.75
547.7	494.75
547.914	484.75
548.127	481.75
548.34	491.75
548.554	474.75
548.767	472.75
548.98	500.75
549.193	496.75
549.407	478.75
549.62	474.75
549.833	513.75
550.046	505.75
550.259	466.75
550.473	482.75
550.686	462.75
550.899	484.75
551.112	474.75
551.325	459.75
551.538	463.75
551.751	476.75
551.964	467.75
552.177	473.75
552.39	468.75
552.603	492.75
552.816	501.75
553.029	483.75
553.242	484.75
553.455	494.75
553.667	500.75
553.88	507.75
554.093	497.75
554.306	528.75
554.519	484.75
554.732	491.75
554.944	471.75
555.157	461.75
555.37	462.75
555.583	466.75
555.795	454.75
556.008	443.75
556.221	431.75
556.433	454.75
556.646	453.75
556.859	444.75
557.071	453.75
557.284	449.75
557.496	435.75
557.709	442.75
557.921	434.75
558.134	425.75
558.346	440.75
558.559	410.75
558.771	442.75
558.984	443.75
559.196	434.75
559.409	442.75
559.621	440.75
559.833	427.75
560.046	423.75
560.258	423.75
560.47	435.75
560.683	441.75
560.895	422.75
561.107	422.75
561.32	426.75
561.532	436.75
561.744	406.75
561.956	432.75
562.168	433.75
562.381	430.75
562.593	431.75
562.805	456.75
563.017	436.75
563.229	439.75
563.441	443.75
563.653	430.75
563.865	461.75
564.077	457.75
564.289	449.75
564.501	435.75
564.713	483.75
564.925	468.75
565.137	469.75
565.349	475.75
565.561	475.75
565.773	476.75
565.985	481.75
566.197	490.75
566.408	489.75
566.62	511.75
566.832	534.75
567.044	537.75
567.255	532.75
567.467	541.75
567.679	564.75
567.891	576.75
568.102	578.75
568.314	561.75
568.526	541.75
568.737	520.75
568.949	506.75
569.161	463.75
569.372	449.75
569.584	467.75
569.795	460.75
570.007	453.75
570.218	475.75
570.43	466.75
570.641	448.75
570.853	426.75
571.064	430.75
571.276	423.75
571.487	404.75
571.698	394.75
571.91	415.75
572.121	389.75
572.333	404.75
572.544	389.75
572.755	402.75
572.966	385.75
573.178	401.75
573.389	394.75
573.6	408.75
573.811	378.75
574.023	382.75
574.234	386.75
574.445	397.75
574.656	376.75
574.867	377.75
575.078	388.75
575.289	375.75
575.501	384.75
575.712	366.75
575.923	392.75
576.134	367.75
576.345	368.75
576.556	377.75
576.767	380.75
576.978	361.75
577.188	374.75
577.399	377.75
577.61	332.75
577.821	352.75
578.032	360.75
578.243	397.75
578.454	579.75
578.665	459.75
578.875	379.75
579.086	372.75
579.297	338.75
579.508	356.75
579.718	348.75
579.929	346.75
580.14	354.75
580.35	332.75
580.561	345.75
580.772	327.75
580.982	332.75
581.193	359.75
581.403	346.75
581.614	352.75
581.825	344.75
582.035	336.75
582.246	333.75
582.456	332.75
582.667	336.75
582.877	350.75
583.087	334.75
583.298	335.75
583.508	330.75
583.719	345.75
583.929	326.75
584.139	339.75
584.35	344.75
584.56	326.75
584.77	341.75
584.981	329.75
585.191	343.75
585.401	310.75
585.611	340.75
585.821	341.75
586.032	335.75
586.242	318.75
586.452	335.75
586.662	340.75
586.872	325.75
587.082	342.75
587.292	316.75
587.502	332.75
587.713	330.75
587.923	320.75
588.133	326.75
588.343	321.75
588.553	331.75
588.762	324.75
588.972	332.75
589.182	326.75
589.392	318.75
589.602	332.75
589.812	322.75
590.022	327.75
590.232	325.75
590.441	336.75
590.651	318.75
590.861	319.75
591.071	322.75
591.281	343.75
591.49	323.75
591.7	316.75
591.91	336.75
592.119	318.75
592.329	318.75
592.539	350.75
592.748	343.75
592.958	345.75
593.167	356.75
593.377	311.75
593.587	338.75
593.796	345.75
594.006	345.75
594.215	339.75
594.424	333.75
594.634	339.75
594.843	340.75
595.053	344.75
595.262	358.75
595.472	330.75
595.681	312.75
595.89	319.75
596.1	322.75
596.309	300.75
596.518	302.75
596.727	324.75
596.937	309.75
597.146	312.75
597.355	311.75
597.564	298.75
597.774	294.75
597.983	304.75
598.192	297.75
598.401	294.75
598.61	307.75
598.819	300.75
599.028	275.75
599.237	304.75
599.446	297.75
599.655	298.75
599.864	291.75
600.073	279.75
600.282	281.75
600.491	285.75
600.7	275.75
600.909	281.75
601.118	281.75
601.327	283.75
601.536	272.75
601.745	274.75
601.953	278.75
602.162	281.75
602.371	265.75
602.58	268.75
602.789	266.75
602.997	266.75
603.206	276.75
603.415	278.75
603.623	286.75
603.832	280.75
604.041	280.75
604.249	276.75
604.458	267.75
604.666	282.75
604.875	265.75
605.084	258.75
605.292	267.75
605.501	273.75
605.709	266.75
605.918	276.75
606.126	267.75
606.334	252.75
606.543	257.75
606.751	260.75
606.96	272.75
607.168	267.75
607.376	259.75
607.585	245.75
607.793	267.75
608.001	280.75
608.21	257.75
608.418	275.75
608.626	248.75
608.834	257.75
609.043	258.75
609.251	273.75
609.459	273.75
609.667	256.75
609.875	256.75
610.083	267.75
610.291	260.75
610.499	248.75
610.707	268.75
610.916	269.75
611.124	248.75
611.332	260.75
611.54	247.75
611.748	251.75
611.955	263.75
612.163	245.75
612.371	250.75
612.579	263.75
612.787	264.75
612.995	263.75
613.203	269.75
613.411	261.75
613.618	254.75
613.826	259.75
614.034	245.75
614.242	244.75
614.449	242.75
614.657	238.75
614.865	256.75
615.072	248.75
615.28	262.75
615.488	252.75
615.695	246.75
615.903	248.75
616.111	247.75
616.318	244.75
616.526	243.75
616.733	269.75
616.941	246.75
617.148	243.75
617.356	255.75
617.563	255.75
617.771	244.75
617.978	243.75
618.185	238.75
618.393	242.75
618.6	254.75
618.807	256.75
619.015	253.75
619.222	231.75
619.429	244.75
619.637	227.75
619.844	234.75
620.051	240.75
620.258	234.75
620.466	231.75
620.673	231.75
620.88	249.75
621.087	230.75
621.294	256.75
621.501	250.75
621.708	234.75
621.915	245.75
622.122	236.75
622.329	238.75
622.536	227.75
622.743	254.75
622.95	254.75
623.157	217.75
623.364	234.75
623.571	238.75
623.778	242.75
623.985	218.75
624.192	218.75
624.399	212.75
624.606	232.75
624.812	228.75
625.019	235.75
625.226	223.75
625.433	218.75
625.639	226.75
625.846	237.75
626.053	222.75
626.259	247.75
626.466	226.75
626.673	224.75
626.879	229.75
627.086	215.75
627.293	227.75
627.499	226.75
627.706	204.75
627.912	199.75
628.119	201.75
628.325	209.75
628.532	204.75
628.738	209.75
628.945	215.75
629.151	213.75
629.357	196.75
629.564	197.75
629.77	233.75
629.976	208.75
630.183	205.75
630.389	210.75
630.595	218.75
630.802	209.75
631.008	200.75
631.214	202.75
631.42	202.75
631.627	204.75
631.833	195.75
632.039	198.75
632.245	208.75
632.451	193.75
632.657	179.75
632.863	191.75
633.069	213.75
633.275	196.75
633.481	185.75
633.688	185.75
633.893	204.75
634.099	211.75
634.305	206.75
634.511	184.75
634.717	192.75
634.923	184.75
635.129	183.75
635.335	200.75
635.541	201.75
635.747	201.75
635.952	196.75
636.158	195.75
636.364	182.75
636.57	209.75
636.775	199.75
636.981	214.75
637.187	193.75
637.392	188.75
637.598	179.75
637.804	198.75
638.009	182.75
638.215	179.75
638.421	186.75
638.626	185.75
638.832	209.75
639.037	186.75
639.243	204.75
639.448	194.75
639.654	171.75
639.859	195.75
640.065	177.75
640.27	181.75
640.475	194.75
640.681	194.75
640.886	191.75
641.091	187.75
641.297	183.75
641.502	182.75
641.707	172.75
641.913	168.75
642.118	185.75
642.323	177.75
642.528	170.75
642.733	172.75
642.939	194.75
643.144	182.75
643.349	170.75
643.554	179.75
643.759	164.75
643.964	162.75
644.169	190.75
644.374	164.75
644.579	174.75
644.784	184.75
644.989	193.75
645.194	171.75
645.399	175.75
645.604	177.75
645.809	187.75
646.014	167.75
646.219	187.75
646.423	176.75
646.628	181.75
646.833	178.75
647.038	183.75
647.243	178.75
647.447	178.75
647.652	168.75
647.857	175.75
648.062	180.75
648.266	168.75
648.471	168.75
648.676	190.75
648.88	191.75
649.085	170.75
649.289	182.75
649.494	182.75
649.698	188.75
649.903	190.75
650.107	174.75
650.312	164.75
650.516	160.75
650.721	170.75
650.925	184.75
651.13	167.75
651.334	147.75
651.539	162.75
651.743	163.75
651.947	155.75
652.152	153.75
652.356	166.75
652.56	158.75
652.764	147.75
652.969	152.75
653.173	146.75
653.377	160.75
653.581	143.75
653.785	129.75
653.99	151.75
654.194	146.75
654.398	139.75
654.602	126.75
654.806	154.75
655.01	150.75
655.214	147.75
655.418	145.75
655.622	126.75
655.826	131.75
656.03	114.75
656.234	141.75
656.438	150.75
656.642	138.75
656.846	121.75
657.049	116.75
657.253	118.75
657.457	123.75
657.661	122.75
657.865	107.75
658.068	116.75
658.272	113.75
658.476	100.75
658.68	98.75
658.883	108.75
659.087	102.75
659.291	104.75
659.494	106.75
659.698	87.75
659.901	108.75
660.105	86.75
660.309	97.75
660.512	106.75
660.716	82.75
660.919	91.75
661.123	84.75
661.326	107.75
661.53	85.75
661.733	95.75
661.936	94.75
662.14	77.75
662.343	75.75
662.546	87.75
662.75	85.75
662.953	81.75
663.156	89.75
663.36	78.75
663.563	84.75
663.766	86.75
663.969	87.75
664.173	75.75
664.376	81.75
664.579	76.75
664.782	85.75
664.985	91.75
665.188	86.75
665.391	69.75
665.594	68.75
665.797	79.75
666	81.75
666.203	85.75
666.406	77.75
666.609	71.75
666.812	91.75
667.015	85.75
667.218	70.75
667.421	81.75
667.624	72.75
667.827	91.75
668.03	73.75
668.232	93.75
668.435	92.75
668.638	91.75
668.841	80.75
669.043	82.75
669.246	71.75
669.449	78.75
669.651	73.75
669.854	80.75
670.057	70.75
670.259	75.75
670.462	85.75
670.665	76.75
670.867	81.75
671.07	76.75
671.272	80.75
671.475	82.75
671.677	77.75
671.88	87.75
672.082	81.75
672.284	78.75
672.487	66.75
672.689	75.75
672.892	68.75
