Data from 1978.PennyLincolnUp.Lamp.En5.5.200Scan.071719.P1_HRD10591_16-14-16-864.txt Node
Date: Thu Jul 18 16:14:16 EDT 2019
User: cochatt
Spectrometer: HR+D1059
Trigger mode: 1
Integration Time (sec): 1.000000E-1
Scans to average: 1
Electric dark correction enabled: true
Nonlinearity correction enabled: false
Boxcar width: 0
XAxis mode: Wavelengths
Number of Pixels in Spectrum: 2048
>>>>>Begin Spectral Data<<<<<
223.165	5.06
223.4	5.06
223.635	5.06
223.869	-26.94
224.104	-15.94
224.338	-19.94
224.573	-19.94
224.808	-14.94
225.042	0.06
225.277	-11.94
225.511	-13.94
225.746	1.06
225.98	17.06
226.215	6.06
226.449	18.06
226.683	9.06
226.918	27.06
227.152	40.06
227.387	25.06
227.621	40.06
227.856	38.06
228.09	45.06
228.324	67.06
228.559	76.06
228.793	69.06
229.027	106.06
229.262	86.06
229.496	108.06
229.73	125.06
229.964	150.06
230.199	123.06
230.433	120.06
230.667	109.06
230.901	116.06
231.136	114.06
231.37	117.06
231.604	117.06
231.838	120.06
232.072	102.06
232.306	116.06
232.541	114.06
232.775	116.06
233.009	117.06
233.243	120.06
233.477	114.06
233.711	114.06
233.945	103.06
234.179	123.06
234.413	124.06
234.647	107.06
234.881	126.06
235.115	135.06
235.349	126.06
235.583	114.06
235.817	123.06
236.051	129.06
236.285	141.06
236.519	119.06
236.753	124.06
236.987	150.06
237.221	203.06
237.455	230.06
237.689	185.06
237.922	148.06
238.156	134.06
238.39	138.06
238.624	129.06
238.858	127.06
239.091	129.06
239.325	121.06
239.559	142.06
239.793	124.06
240.027	128.06
240.26	141.06
240.494	156.06
240.728	150.06
240.961	149.06
241.195	141.06
241.429	126.06
241.662	143.06
241.896	131.06
242.13	124.06
242.363	121.06
242.597	135.06
242.83	132.06
243.064	132.06
243.298	134.06
243.531	140.06
243.765	138.06
243.998	135.06
244.232	136.06
244.465	151.06
244.699	138.06
244.932	139.06
245.166	122.06
245.399	160.06
245.633	141.06
245.866	147.06
246.099	146.06
246.333	138.06
246.566	148.06
246.8	149.06
247.033	158.06
247.266	149.06
247.5	163.06
247.733	163.06
247.966	177.06
248.2	159.06
248.433	160.06
248.666	156.06
248.899	184.06
249.133	189.06
249.366	198.06
249.599	175.06
249.832	180.06
250.066	171.06
250.299	172.06
250.532	179.06
250.765	184.06
250.998	201.06
251.231	229.06
251.465	213.06
251.698	201.06
251.931	186.06
252.164	208.06
252.397	189.06
252.63	185.06
252.863	186.06
253.096	213.06
253.329	227.06
253.562	225.06
253.795	212.06
254.028	217.06
254.261	213.06
254.494	225.06
254.727	230.06
254.96	245.06
255.193	262.06
255.426	238.06
255.659	213.06
255.892	210.06
256.124	218.06
256.357	228.06
256.59	222.06
256.823	198.06
257.056	213.06
257.289	209.06
257.521	207.06
257.754	203.06
257.987	200.06
258.22	200.06
258.452	198.06
258.685	205.06
258.918	213.06
259.151	202.06
259.383	204.06
259.616	199.06
259.849	220.06
260.081	215.06
260.314	242.06
260.547	251.06
260.779	236.06
261.012	227.06
261.244	232.06
261.477	221.06
261.71	232.06
261.942	221.06
262.175	239.06
262.407	221.06
262.64	209.06
262.872	207.06
263.105	209.06
263.337	204.06
263.57	214.06
263.802	211.06
264.035	223.06
264.267	206.06
264.499	212.06
264.732	201.06
264.964	209.06
265.197	204.06
265.429	211.06
265.661	204.06
265.894	200.06
266.126	216.06
266.358	226.06
266.591	200.06
266.823	208.06
267.055	222.06
267.287	212.06
267.52	209.06
267.752	210.06
267.984	218.06
268.216	229.06
268.448	232.06
268.681	220.06
268.913	242.06
269.145	251.06
269.377	264.06
269.609	256.06
269.841	260.06
270.073	261.06
270.306	286.06
270.538	322.06
270.77	307.06
271.002	274.06
271.234	269.06
271.466	290.06
271.698	301.06
271.93	300.06
272.162	308.06
272.394	294.06
272.626	284.06
272.858	276.06
273.09	273.06
273.322	283.06
273.553	257.06
273.785	263.06
274.017	254.06
274.249	277.06
274.481	259.06
274.713	270.06
274.945	270.06
275.176	249.06
275.408	256.06
275.64	240.06
275.872	248.06
276.104	256.06
276.335	254.06
276.567	270.06
276.799	261.06
277.031	324.06
277.262	304.06
277.494	304.06
277.726	300.06
277.957	282.06
278.189	281.06
278.421	268.06
278.652	244.06
278.884	261.06
279.115	264.06
279.347	279.06
279.579	266.06
279.81	258.06
280.042	266.06
280.273	261.06
280.505	268.06
280.736	258.06
280.968	262.06
281.199	277.06
281.431	256.06
281.662	262.06
281.894	281.06
282.125	267.06
282.356	283.06
282.588	323.06
282.819	295.06
283.051	292.06
283.282	261.06
283.513	279.06
283.745	280.06
283.976	282.06
284.207	296.06
284.439	299.06
284.67	264.06
284.901	263.06
285.132	276.06
285.364	258.06
285.595	277.06
285.826	275.06
286.057	284.06
286.288	274.06
286.52	272.06
286.751	279.06
286.982	297.06
287.213	273.06
287.444	294.06
287.675	289.06
287.906	299.06
288.138	279.06
288.369	277.06
288.6	284.06
288.831	294.06
289.062	315.06
289.293	283.06
289.524	297.06
289.755	283.06
289.986	289.06
290.217	287.06
290.448	283.06
290.679	271.06
290.91	281.06
291.141	299.06
291.371	295.06
291.602	289.06
291.833	280.06
292.064	285.06
292.295	280.06
292.526	288.06
292.757	289.06
292.987	281.06
293.218	294.06
293.449	274.06
293.68	294.06
293.91	289.06
294.141	294.06
294.372	305.06
294.603	301.06
294.833	290.06
295.064	302.06
295.295	305.06
295.525	285.06
295.756	290.06
295.987	321.06
296.217	313.06
296.448	311.06
296.679	307.06
296.909	293.06
297.14	298.06
297.37	306.06
297.601	315.06
297.831	311.06
298.062	305.06
298.292	316.06
298.523	305.06
298.753	314.06
298.984	309.06
299.214	306.06
299.445	299.06
299.675	304.06
299.905	329.06
300.136	317.06
300.366	322.06
300.597	333.06
300.827	317.06
301.057	307.06
301.288	338.06
301.518	331.06
301.748	338.06
301.979	331.06
302.209	312.06
302.439	334.06
302.669	319.06
302.9	340.06
303.13	335.06
303.36	329.06
303.59	338.06
303.82	333.06
304.051	315.06
304.281	328.06
304.511	318.06
304.741	326.06
304.971	345.06
305.201	325.06
305.431	334.06
305.661	334.06
305.891	341.06
306.121	323.06
306.352	336.06
306.582	337.06
306.812	324.06
307.042	335.06
307.272	331.06
307.502	333.06
307.731	338.06
307.961	318.06
308.191	309.06
308.421	320.06
308.651	347.06
308.881	326.06
309.111	359.06
309.341	336.06
309.571	361.06
309.8	365.06
310.03	360.06
310.26	368.06
310.49	384.06
310.72	380.06
310.949	386.06
311.179	404.06
311.409	386.06
311.639	376.06
311.868	370.06
312.098	387.06
312.328	394.06
312.557	394.06
312.787	401.06
313.017	422.06
313.246	395.06
313.476	389.06
313.706	387.06
313.935	389.06
314.165	390.06
314.394	404.06
314.624	379.06
314.853	376.06
315.083	381.06
315.312	374.06
315.542	380.06
315.771	389.06
316.001	361.06
316.23	369.06
316.46	368.06
316.689	377.06
316.919	384.06
317.148	374.06
317.377	378.06
317.607	380.06
317.836	395.06
318.065	377.06
318.295	377.06
318.524	369.06
318.753	379.06
318.983	379.06
319.212	373.06
319.441	388.06
319.67	392.06
319.9	373.06
320.129	377.06
320.358	389.06
320.587	374.06
320.816	396.06
321.046	404.06
321.275	388.06
321.504	418.06
321.733	409.06
321.962	394.06
322.191	433.06
322.42	438.06
322.649	464.06
322.878	464.06
323.108	462.06
323.337	476.06
323.566	504.06
323.795	498.06
324.024	582.06
324.253	671.06
324.482	993.06
324.71	1617.06
324.939	2474.06
325.168	2108.06
325.397	1003.06
325.626	658.06
325.855	536.06
326.084	515.06
326.313	500.06
326.542	524.06
326.77	595.06
326.999	666.06
327.228	922.06
327.457	1432.06
327.686	1809.06
327.914	1201.06
328.143	737.06
328.372	632.06
328.6	596.06
328.829	576.06
329.058	603.06
329.287	580.06
329.515	557.06
329.744	514.06
329.972	502.06
330.201	524.06
330.43	549.06
330.658	602.06
330.887	627.06
331.115	593.06
331.344	541.06
331.572	484.06
331.801	493.06
332.03	494.06
332.258	477.06
332.486	474.06
332.715	465.06
332.943	466.06
333.172	482.06
333.4	464.06
333.629	460.06
333.857	494.06
334.085	482.06
334.314	502.06
334.542	549.06
334.771	576.06
334.999	532.06
335.227	489.06
335.455	468.06
335.684	472.06
335.912	448.06
336.14	463.06
336.369	458.06
336.597	466.06
336.825	480.06
337.053	454.06
337.281	460.06
337.51	435.06
337.738	452.06
337.966	450.06
338.194	459.06
338.422	463.06
338.65	473.06
338.878	433.06
339.106	451.06
339.334	438.06
339.562	438.06
339.79	441.06
340.018	434.06
340.246	461.06
340.474	457.06
340.702	445.06
340.93	448.06
341.158	438.06
341.386	426.06
341.614	452.06
341.842	439.06
342.07	422.06
342.298	456.06
342.526	415.06
342.754	417.06
342.981	429.06
343.209	427.06
343.437	428.06
343.665	452.06
343.893	445.06
344.12	459.06
344.348	442.06
344.576	453.06
344.804	442.06
345.031	455.06
345.259	468.06
345.487	461.06
345.714	431.06
345.942	433.06
346.17	413.06
346.397	427.06
346.625	442.06
346.853	436.06
347.08	438.06
347.308	454.06
347.535	454.06
347.763	443.06
347.99	436.06
348.218	442.06
348.445	448.06
348.673	445.06
348.9	442.06
349.128	425.06
349.355	410.06
349.583	409.06
349.81	415.06
350.037	410.06
350.265	418.06
350.492	419.06
350.72	427.06
350.947	422.06
351.174	428.06
351.402	448.06
351.629	437.06
351.856	438.06
352.083	423.06
352.311	436.06
352.538	454.06
352.765	450.06
352.992	427.06
353.22	429.06
353.447	432.06
353.674	416.06
353.901	410.06
354.128	416.06
354.355	421.06
354.583	408.06
354.81	425.06
355.037	404.06
355.264	407.06
355.491	391.06
355.718	378.06
355.945	408.06
356.172	424.06
356.399	404.06
356.626	415.06
356.853	418.06
357.08	407.06
357.307	413.06
357.534	415.06
357.761	408.06
357.988	424.06
358.215	406.06
358.441	399.06
358.668	418.06
358.895	411.06
359.122	399.06
359.349	419.06
359.576	433.06
359.802	450.06
360.029	457.06
360.256	471.06
360.483	451.06
360.709	450.06
360.936	439.06
361.163	422.06
361.39	431.06
361.616	448.06
361.843	446.06
362.07	425.06
362.296	427.06
362.523	416.06
362.749	428.06
362.976	423.06
363.203	436.06
363.429	422.06
363.656	429.06
363.882	420.06
364.109	396.06
364.335	405.06
364.562	426.06
364.788	396.06
365.015	416.06
365.241	414.06
365.468	443.06
365.694	419.06
365.92	428.06
366.147	457.06
366.373	420.06
366.599	419.06
366.826	426.06
367.052	417.06
367.278	389.06
367.505	429.06
367.731	420.06
367.957	419.06
368.184	413.06
368.41	430.06
368.636	459.06
368.862	435.06
369.089	428.06
369.315	441.06
369.541	429.06
369.767	417.06
369.993	430.06
370.219	417.06
370.445	426.06
370.672	427.06
370.898	422.06
371.124	416.06
371.35	425.06
371.576	426.06
371.802	410.06
372.028	425.06
372.254	411.06
372.48	437.06
372.706	439.06
372.932	430.06
373.158	418.06
373.384	433.06
373.61	433.06
373.835	438.06
374.061	410.06
374.287	418.06
374.513	438.06
374.739	426.06
374.965	423.06
375.191	447.06
375.416	435.06
375.642	429.06
375.868	443.06
376.094	440.06
376.319	422.06
376.545	414.06
376.771	433.06
376.997	422.06
377.222	430.06
377.448	424.06
377.674	427.06
377.899	431.06
378.125	441.06
378.35	432.06
378.576	426.06
378.802	418.06
379.027	430.06
379.253	446.06
379.478	423.06
379.704	420.06
379.929	420.06
380.155	414.06
380.38	411.06
380.606	418.06
380.831	432.06
381.057	418.06
381.282	433.06
381.507	428.06
381.733	453.06
381.958	423.06
382.184	422.06
382.409	422.06
382.634	428.06
382.86	434.06
383.085	451.06
383.31	437.06
383.535	435.06
383.761	453.06
383.986	450.06
384.211	441.06
384.436	446.06
384.662	456.06
384.887	460.06
385.112	483.06
385.337	481.06
385.562	476.06
385.787	478.06
386.013	480.06
386.238	472.06
386.463	462.06
386.688	479.06
386.913	460.06
387.138	489.06
387.363	496.06
387.588	467.06
387.813	453.06
388.038	470.06
388.263	481.06
388.488	462.06
388.713	456.06
388.938	479.06
389.163	473.06
389.387	474.06
389.612	482.06
389.837	481.06
390.062	468.06
390.287	475.06
390.512	459.06
390.736	513.06
390.961	482.06
391.186	483.06
391.411	492.06
391.636	492.06
391.86	503.06
392.085	498.06
392.31	499.06
392.534	475.06
392.759	494.06
392.984	498.06
393.208	504.06
393.433	486.06
393.658	491.06
393.882	473.06
394.107	475.06
394.331	486.06
394.556	498.06
394.78	503.06
395.005	506.06
395.229	494.06
395.454	508.06
395.678	509.06
395.903	520.06
396.127	556.06
396.352	529.06
396.576	525.06
396.801	510.06
397.025	505.06
397.249	514.06
397.474	520.06
397.698	512.06
397.922	531.06
398.147	549.06
398.371	557.06
398.595	561.06
398.82	548.06
399.044	568.06
399.268	587.06
399.492	624.06
399.717	634.06
399.941	664.06
400.165	693.06
400.389	678.06
400.613	642.06
400.837	601.06
401.062	564.06
401.286	574.06
401.51	563.06
401.734	565.06
401.958	544.06
402.182	562.06
402.406	566.06
402.63	565.06
402.854	560.06
403.078	570.06
403.302	593.06
403.526	562.06
403.75	587.06
403.974	587.06
404.198	569.06
404.422	557.06
404.645	591.06
404.869	601.06
405.093	618.06
405.317	648.06
405.541	684.06
405.765	620.06
405.988	605.06
406.212	614.06
406.436	635.06
406.66	646.06
406.883	620.06
407.107	642.06
407.331	697.06
407.555	770.06
407.778	772.06
408.002	718.06
408.226	642.06
408.449	641.06
408.673	644.06
408.896	689.06
409.12	724.06
409.344	660.06
409.567	612.06
409.791	598.06
410.014	586.06
410.238	583.06
410.461	621.06
410.685	602.06
410.908	612.06
411.132	650.06
411.355	660.06
411.578	644.06
411.802	586.06
412.025	602.06
412.249	590.06
412.472	604.06
412.695	646.06
412.919	652.06
413.142	578.06
413.365	585.06
413.589	581.06
413.812	565.06
414.035	547.06
414.258	585.06
414.482	565.06
414.705	548.06
414.928	540.06
415.151	545.06
415.374	571.06
415.597	544.06
415.821	531.06
416.044	546.06
416.267	555.06
416.49	573.06
416.713	561.06
416.936	545.06
417.159	528.06
417.382	563.06
417.605	550.06
417.828	564.06
418.051	598.06
418.274	558.06
418.497	533.06
418.72	520.06
418.943	545.06
419.166	568.06
419.389	598.06
419.611	589.06
419.834	602.06
420.057	575.06
420.28	562.06
420.503	573.06
420.726	563.06
420.948	569.06
421.171	628.06
421.394	685.06
421.617	588.06
421.839	566.06
422.062	584.06
422.285	581.06
422.507	653.06
422.73	761.06
422.953	710.06
423.175	628.06
423.398	604.06
423.621	603.06
423.843	605.06
424.066	621.06
424.288	603.06
424.511	627.06
424.733	670.06
424.956	784.06
425.178	745.06
425.401	739.06
425.623	777.06
425.846	668.06
426.068	622.06
426.291	610.06
426.513	601.06
426.735	621.06
426.958	673.06
427.18	732.06
427.402	895.06
427.625	1020.06
427.847	857.06
428.069	734.06
428.292	672.06
428.514	599.06
428.736	587.06
428.958	572.06
429.181	578.06
429.403	560.06
429.625	566.06
429.847	611.06
430.069	708.06
430.292	686.06
430.514	601.06
430.736	548.06
430.958	549.06
431.18	540.06
431.402	539.06
431.624	529.06
431.846	534.06
432.068	534.06
432.29	527.06
432.512	531.06
432.734	544.06
432.956	549.06
433.178	572.06
433.4	579.06
433.622	521.06
433.844	570.06
434.066	545.06
434.287	540.06
434.509	561.06
434.731	568.06
434.953	568.06
435.175	583.06
435.397	617.06
435.618	604.06
435.84	655.06
436.062	763.06
436.284	853.06
436.505	712.06
436.727	645.06
436.949	566.06
437.17	580.06
437.392	577.06
437.614	589.06
437.835	640.06
438.057	709.06
438.278	845.06
438.5	834.06
438.721	929.06
438.943	892.06
439.165	706.06
439.386	623.06
439.608	656.06
439.829	602.06
440.05	640.06
440.272	726.06
440.493	671.06
440.715	594.06
440.936	589.06
441.158	596.06
441.379	578.06
441.6	585.06
441.822	609.06
442.043	650.06
442.264	757.06
442.486	792.06
442.707	675.06
442.928	630.06
443.149	626.06
443.371	672.06
443.592	714.06
443.813	793.06
444.034	872.06
444.255	722.06
444.476	642.06
444.698	636.06
444.919	613.06
445.14	716.06
445.361	663.06
445.582	673.06
445.803	732.06
446.024	856.06
446.245	884.06
446.466	774.06
446.687	685.06
446.908	612.06
447.129	590.06
447.35	573.06
447.571	554.06
447.792	547.06
448.013	558.06
448.234	594.06
448.455	637.06
448.675	788.06
448.896	897.06
449.117	756.06
449.338	710.06
449.559	842.06
449.779	967.06
450	754.06
450.221	626.06
450.442	589.06
450.662	571.06
450.883	553.06
451.104	572.06
451.324	553.06
451.545	509.06
451.766	531.06
451.986	530.06
452.207	505.06
452.428	509.06
452.648	516.06
452.869	511.06
453.089	531.06
453.31	539.06
453.53	505.06
453.751	520.06
453.971	497.06
454.192	534.06
454.412	527.06
454.633	510.06
454.853	501.06
455.073	489.06
455.294	517.06
455.514	640.06
455.734	616.06
455.955	514.06
456.175	474.06
456.395	510.06
456.616	478.06
456.836	481.06
457.056	494.06
457.276	488.06
457.497	507.06
457.717	492.06
457.937	498.06
458.157	496.06
458.377	486.06
458.598	516.06
458.818	568.06
459.038	647.06
459.258	696.06
459.478	600.06
459.698	556.06
459.918	558.06
460.138	554.06
460.358	544.06
460.578	558.06
460.798	555.06
461.018	562.06
461.238	554.06
461.458	553.06
461.678	574.06
461.898	556.06
462.118	566.06
462.338	588.06
462.558	612.06
462.777	615.06
462.997	601.06
463.217	616.06
463.437	615.06
463.657	622.06
463.876	604.06
464.096	587.06
464.316	603.06
464.536	607.06
464.755	597.06
464.975	606.06
465.195	630.06
465.414	694.06
465.634	638.06
465.854	598.06
466.073	565.06
466.293	569.06
466.512	525.06
466.732	532.06
466.951	520.06
467.171	525.06
467.391	526.06
467.61	518.06
467.829	551.06
468.049	524.06
468.268	531.06
468.488	522.06
468.707	522.06
468.927	515.06
469.146	504.06
469.365	519.06
469.585	518.06
469.804	516.06
470.023	523.06
470.243	535.06
470.462	553.06
470.681	547.06
470.901	533.06
471.12	541.06
471.339	538.06
471.558	525.06
471.777	543.06
471.997	537.06
472.216	546.06
472.435	561.06
472.654	567.06
472.873	541.06
473.092	518.06
473.311	517.06
473.53	530.06
473.749	542.06
473.968	574.06
474.187	718.06
474.406	718.06
474.625	597.06
474.844	552.06
475.063	536.06
475.282	524.06
475.501	514.06
475.72	532.06
475.939	565.06
476.158	547.06
476.377	555.06
476.596	531.06
476.814	566.06
477.033	561.06
477.252	577.06
477.471	577.06
477.69	573.06
477.908	574.06
478.127	586.06
478.346	577.06
478.564	603.06
478.783	602.06
479.002	627.06
479.22	604.06
479.439	649.06
479.658	614.06
479.876	633.06
480.095	653.06
480.313	677.06
480.532	649.06
480.751	662.06
480.969	634.06
481.188	684.06
481.406	733.06
481.624	660.06
481.843	645.06
482.061	620.06
482.28	629.06
482.498	662.06
482.717	610.06
482.935	600.06
483.153	610.06
483.372	613.06
483.59	611.06
483.808	624.06
484.027	625.06
484.245	633.06
484.463	640.06
484.681	638.06
484.9	620.06
485.118	649.06
485.336	642.06
485.554	651.06
485.772	646.06
485.99	635.06
486.209	659.06
486.427	651.06
486.645	649.06
486.863	660.06
487.081	677.06
487.299	673.06
487.517	649.06
487.735	654.06
487.953	661.06
488.171	664.06
488.389	673.06
488.607	678.06
488.825	664.06
489.043	654.06
489.261	672.06
489.479	672.06
489.696	700.06
489.914	667.06
490.132	691.06
490.35	701.06
490.568	695.06
490.786	701.06
491.003	693.06
491.221	737.06
491.439	747.06
491.657	732.06
491.874	758.06
492.092	739.06
492.31	738.06
492.527	780.06
492.745	754.06
492.963	766.06
493.18	748.06
493.398	773.06
493.615	754.06
493.833	777.06
494.05	785.06
494.268	748.06
494.485	789.06
494.703	760.06
494.92	778.06
495.138	783.06
495.355	788.06
495.573	767.06
495.79	780.06
496.008	798.06
496.225	789.06
496.442	781.06
496.66	772.06
496.877	769.06
497.094	787.06
497.312	808.06
497.529	788.06
497.746	826.06
497.963	841.06
498.181	858.06
498.398	875.06
498.615	864.06
498.832	898.06
499.049	932.06
499.267	939.06
499.484	969.06
499.701	1009.06
499.918	1074.06
500.135	1085.06
500.352	1102.06
500.569	1120.06
500.786	1165.06
501.003	1145.06
501.22	1120.06
501.437	1077.06
501.654	1038.06
501.871	1051.06
502.088	985.06
502.305	955.06
502.522	939.06
502.739	912.06
502.956	898.06
503.172	886.06
503.389	861.06
503.606	845.06
503.823	842.06
504.04	844.06
504.256	820.06
504.473	824.06
504.69	805.06
504.907	805.06
505.123	779.06
505.34	760.06
505.557	770.06
505.773	771.06
505.99	759.06
506.207	768.06
506.423	738.06
506.64	747.06
506.856	745.06
507.073	732.06
507.289	730.06
507.506	722.06
507.722	724.06
507.939	756.06
508.155	726.06
508.372	712.06
508.588	731.06
508.805	710.06
509.021	707.06
509.238	717.06
509.454	726.06
509.67	713.06
509.887	702.06
510.103	713.06
510.319	699.06
510.536	792.06
510.752	1234.06
510.968	1033.06
511.184	728.06
511.401	685.06
511.617	703.06
511.833	704.06
512.049	680.06
512.265	674.06
512.481	681.06
512.698	669.06
512.914	666.06
513.13	649.06
513.346	669.06
513.562	683.06
513.778	678.06
513.994	674.06
514.21	684.06
514.426	722.06
514.642	739.06
514.858	755.06
515.074	808.06
515.29	910.06
515.506	1226.06
515.721	1076.06
515.937	817.06
516.153	757.06
516.369	711.06
516.585	712.06
516.801	713.06
517.016	702.06
517.232	736.06
517.448	672.06
517.664	696.06
517.879	682.06
518.095	718.06
518.311	715.06
518.527	701.06
518.742	711.06
518.958	696.06
519.173	670.06
519.389	678.06
519.605	675.06
519.82	690.06
520.036	680.06
520.251	713.06
520.467	725.06
520.682	712.06
520.898	725.06
521.113	746.06
521.329	781.06
521.544	839.06
521.76	1048.06
521.975	1595.06
522.19	1568.06
522.406	934.06
522.621	752.06
522.836	685.06
523.052	650.06
523.267	651.06
523.482	631.06
523.698	610.06
523.913	634.06
524.128	636.06
524.343	617.06
524.559	589.06
524.774	596.06
524.989	600.06
525.204	604.06
525.419	582.06
525.634	603.06
525.849	578.06
526.064	570.06
526.28	574.06
526.495	567.06
526.71	556.06
526.925	582.06
527.14	545.06
527.355	564.06
527.57	561.06
527.785	562.06
527.999	567.06
528.214	548.06
528.429	548.06
528.644	577.06
528.859	552.06
529.074	576.06
529.289	565.06
529.503	644.06
529.718	644.06
529.933	596.06
530.148	569.06
530.363	555.06
530.577	562.06
530.792	568.06
531.007	565.06
531.221	556.06
531.436	544.06
531.651	549.06
531.865	553.06
532.08	541.06
532.295	554.06
532.509	534.06
532.724	548.06
532.938	518.06
533.153	549.06
533.367	536.06
533.582	536.06
533.796	551.06
534.011	540.06
534.225	541.06
534.44	549.06
534.654	523.06
534.868	511.06
535.083	539.06
535.297	527.06
535.511	538.06
535.726	542.06
535.94	553.06
536.154	521.06
536.369	517.06
536.583	538.06
536.797	523.06
537.011	532.06
537.225	524.06
537.44	527.06
537.654	519.06
537.868	524.06
538.082	522.06
538.296	509.06
538.51	505.06
538.724	523.06
538.938	518.06
539.153	509.06
539.367	530.06
539.581	531.06
539.795	529.06
540.009	524.06
540.222	520.06
540.436	496.06
540.65	498.06
540.864	521.06
541.078	534.06
541.292	526.06
541.506	512.06
541.72	488.06
541.934	511.06
542.147	512.06
542.361	516.06
542.575	510.06
542.789	509.06
543.002	525.06
543.216	507.06
543.43	514.06
543.644	503.06
543.857	512.06
544.071	501.06
544.285	524.06
544.498	488.06
544.712	505.06
544.925	498.06
545.139	493.06
545.352	499.06
545.566	501.06
545.779	500.06
545.993	498.06
546.206	510.06
546.42	510.06
546.633	507.06
546.847	482.06
547.06	512.06
547.274	493.06
547.487	470.06
547.7	494.06
547.914	488.06
548.127	499.06
548.34	488.06
548.554	498.06
548.767	476.06
548.98	490.06
549.193	501.06
549.407	507.06
549.62	484.06
549.833	487.06
550.046	485.06
550.259	474.06
550.473	462.06
550.686	499.06
550.899	468.06
551.112	486.06
551.325	483.06
551.538	471.06
551.751	483.06
551.964	481.06
552.177	478.06
552.39	499.06
552.603	494.06
552.816	499.06
553.029	500.06
553.242	502.06
553.455	518.06
553.667	508.06
553.88	510.06
554.093	490.06
554.306	504.06
554.519	490.06
554.732	481.06
554.944	476.06
555.157	476.06
555.37	467.06
555.583	471.06
555.795	466.06
556.008	449.06
556.221	461.06
556.433	446.06
556.646	479.06
556.859	450.06
557.071	458.06
557.284	447.06
557.496	460.06
557.709	432.06
557.921	459.06
558.134	455.06
558.346	444.06
558.559	422.06
558.771	427.06
558.984	452.06
559.196	446.06
559.409	452.06
559.621	425.06
559.833	425.06
560.046	429.06
560.258	418.06
560.47	442.06
560.683	420.06
560.895	436.06
561.107	441.06
561.32	444.06
561.532	441.06
561.744	416.06
561.956	407.06
562.168	442.06
562.381	435.06
562.593	429.06
562.805	461.06
563.017	450.06
563.229	454.06
563.441	440.06
563.653	448.06
563.865	448.06
564.077	456.06
564.289	444.06
564.501	443.06
564.713	453.06
564.925	450.06
565.137	477.06
565.349	478.06
565.561	490.06
565.773	480.06
565.985	513.06
566.197	514.06
566.408	515.06
566.62	513.06
566.832	540.06
567.044	528.06
567.255	548.06
567.467	550.06
567.679	568.06
567.891	580.06
568.102	566.06
568.314	580.06
568.526	531.06
568.737	539.06
568.949	501.06
569.161	481.06
569.372	473.06
569.584	477.06
569.795	474.06
570.007	467.06
570.218	474.06
570.43	469.06
570.641	437.06
570.853	437.06
571.064	435.06
571.276	424.06
571.487	439.06
571.698	417.06
571.91	424.06
572.121	411.06
572.333	410.06
572.544	396.06
572.755	378.06
572.966	430.06
573.178	399.06
573.389	404.06
573.6	403.06
573.811	389.06
574.023	374.06
574.234	378.06
574.445	373.06
574.656	382.06
574.867	390.06
575.078	372.06
575.289	379.06
575.501	379.06
575.712	387.06
575.923	371.06
576.134	381.06
576.345	381.06
576.556	372.06
576.767	357.06
576.978	360.06
577.188	392.06
577.399	349.06
577.61	360.06
577.821	381.06
578.032	364.06
578.243	381.06
578.454	582.06
578.665	476.06
578.875	373.06
579.086	356.06
579.297	357.06
579.508	365.06
579.718	369.06
579.929	335.06
580.14	354.06
580.35	361.06
580.561	347.06
580.772	365.06
580.982	354.06
581.193	338.06
581.403	361.06
581.614	356.06
581.825	357.06
582.035	345.06
582.246	338.06
582.456	332.06
582.667	344.06
582.877	341.06
583.087	343.06
583.298	339.06
583.508	344.06
583.719	342.06
583.929	330.06
584.139	340.06
584.35	328.06
584.56	341.06
584.77	335.06
584.981	347.06
585.191	337.06
585.401	327.06
585.611	339.06
585.821	332.06
586.032	343.06
586.242	351.06
586.452	341.06
586.662	325.06
586.872	340.06
587.082	349.06
587.292	331.06
587.502	338.06
587.713	338.06
587.923	332.06
588.133	346.06
588.343	331.06
588.553	336.06
588.762	344.06
588.972	337.06
589.182	336.06
589.392	335.06
589.602	346.06
589.812	340.06
590.022	338.06
590.232	345.06
590.441	308.06
590.651	322.06
590.861	321.06
591.071	323.06
591.281	333.06
591.49	352.06
591.7	349.06
591.91	332.06
592.119	345.06
592.329	343.06
592.539	332.06
592.748	352.06
592.958	352.06
593.167	352.06
593.377	348.06
593.587	367.06
593.796	357.06
594.006	345.06
594.215	352.06
594.424	342.06
594.634	349.06
594.843	321.06
595.053	344.06
595.262	336.06
595.472	336.06
595.681	326.06
595.89	327.06
596.1	308.06
596.309	321.06
596.518	324.06
596.727	330.06
596.937	317.06
597.146	307.06
597.355	323.06
597.564	313.06
597.774	315.06
597.983	301.06
598.192	292.06
598.401	320.06
598.61	295.06
598.819	301.06
599.028	294.06
599.237	279.06
599.446	290.06
599.655	304.06
599.864	294.06
600.073	269.06
600.282	297.06
600.491	293.06
600.7	294.06
600.909	286.06
601.118	295.06
601.327	277.06
601.536	282.06
601.745	275.06
601.953	291.06
602.162	297.06
602.371	294.06
602.58	279.06
602.789	296.06
602.997	276.06
603.206	290.06
603.415	283.06
603.623	289.06
603.832	279.06
604.041	294.06
604.249	283.06
604.458	269.06
604.666	280.06
604.875	290.06
605.084	271.06
605.292	278.06
605.501	288.06
605.709	269.06
605.918	279.06
606.126	287.06
606.334	267.06
606.543	262.06
606.751	262.06
606.96	262.06
607.168	269.06
607.376	273.06
607.585	266.06
607.793	284.06
608.001	270.06
608.21	272.06
608.418	263.06
608.626	273.06
608.834	260.06
609.043	270.06
609.251	247.06
609.459	277.06
609.667	274.06
609.875	275.06
610.083	282.06
610.291	280.06
610.499	284.06
610.707	268.06
610.916	263.06
611.124	278.06
611.332	272.06
611.54	293.06
611.748	278.06
611.955	301.06
612.163	251.06
612.371	256.06
612.579	243.06
612.787	270.06
612.995	265.06
613.203	256.06
613.411	259.06
613.618	251.06
613.826	265.06
614.034	259.06
614.242	259.06
614.449	247.06
614.657	254.06
614.865	251.06
615.072	268.06
615.28	240.06
615.488	261.06
615.695	264.06
615.903	262.06
616.111	272.06
616.318	265.06
616.526	278.06
616.733	285.06
616.941	263.06
617.148	259.06
617.356	278.06
617.563	246.06
617.771	264.06
617.978	267.06
618.185	250.06
618.393	252.06
618.6	246.06
618.807	246.06
619.015	246.06
619.222	253.06
619.429	242.06
619.637	248.06
619.844	247.06
620.051	260.06
620.258	234.06
620.466	234.06
620.673	244.06
620.88	230.06
621.087	227.06
621.294	225.06
621.501	232.06
621.708	259.06
621.915	245.06
622.122	245.06
622.329	242.06
622.536	226.06
622.743	231.06
622.95	244.06
623.157	230.06
623.364	242.06
623.571	258.06
623.778	240.06
623.985	238.06
624.192	244.06
624.399	227.06
624.606	251.06
624.812	245.06
625.019	219.06
625.226	236.06
625.433	221.06
625.639	225.06
625.846	227.06
626.053	224.06
626.259	221.06
626.466	253.06
626.673	233.06
626.879	212.06
627.086	221.06
627.293	235.06
627.499	219.06
627.706	206.06
627.912	224.06
628.119	224.06
628.325	231.06
628.532	214.06
628.738	220.06
628.945	196.06
629.151	206.06
629.357	215.06
629.564	207.06
629.77	218.06
629.976	234.06
630.183	213.06
630.389	217.06
630.595	222.06
630.802	217.06
631.008	205.06
631.214	203.06
631.42	194.06
631.627	208.06
631.833	200.06
632.039	197.06
632.245	194.06
632.451	201.06
632.657	204.06
632.863	203.06
633.069	189.06
633.275	213.06
633.481	200.06
633.688	210.06
633.893	203.06
634.099	212.06
634.305	212.06
634.511	206.06
634.717	208.06
634.923	200.06
635.129	188.06
635.335	187.06
635.541	205.06
635.747	195.06
635.952	195.06
636.158	186.06
636.364	185.06
636.57	189.06
636.775	216.06
636.981	202.06
637.187	210.06
637.392	194.06
637.598	206.06
637.804	186.06
638.009	185.06
638.215	202.06
638.421	191.06
638.626	183.06
638.832	189.06
639.037	188.06
639.243	179.06
639.448	186.06
639.654	190.06
639.859	177.06
640.065	178.06
640.27	199.06
640.475	198.06
640.681	194.06
640.886	178.06
641.091	187.06
641.297	181.06
641.502	189.06
641.707	183.06
641.913	195.06
642.118	186.06
642.323	183.06
642.528	168.06
642.733	180.06
642.939	170.06
643.144	184.06
643.349	197.06
643.554	180.06
643.759	172.06
643.964	185.06
644.169	176.06
644.374	165.06
644.579	178.06
644.784	183.06
644.989	162.06
645.194	178.06
645.399	194.06
645.604	183.06
645.809	182.06
646.014	165.06
646.219	184.06
646.423	205.06
646.628	180.06
646.833	182.06
647.038	181.06
647.243	184.06
647.447	162.06
647.652	182.06
647.857	188.06
648.062	181.06
648.266	179.06
648.471	180.06
648.676	179.06
648.88	200.06
649.085	180.06
649.289	186.06
649.494	194.06
649.698	200.06
649.903	194.06
650.107	180.06
650.312	176.06
650.516	176.06
650.721	169.06
650.925	161.06
651.13	164.06
651.334	164.06
651.539	155.06
651.743	165.06
651.947	156.06
652.152	149.06
652.356	151.06
652.56	154.06
652.764	164.06
652.969	143.06
653.173	148.06
653.377	140.06
653.581	160.06
653.785	154.06
653.99	133.06
654.194	152.06
654.398	156.06
654.602	141.06
654.806	138.06
655.01	138.06
655.214	168.06
655.418	149.06
655.622	136.06
655.826	144.06
656.03	131.06
656.234	150.06
656.438	142.06
656.642	139.06
656.846	122.06
657.049	143.06
657.253	121.06
657.457	124.06
657.661	124.06
657.865	106.06
658.068	125.06
658.272	113.06
658.476	96.06
658.68	112.06
658.883	105.06
659.087	125.06
659.291	105.06
659.494	96.06
659.698	91.06
659.901	100.06
660.105	96.06
660.309	106.06
660.512	86.06
660.716	100.06
660.919	90.06
661.123	101.06
661.326	86.06
661.53	88.06
661.733	85.06
661.936	78.06
662.14	84.06
662.343	78.06
662.546	80.06
662.75	84.06
662.953	96.06
663.156	91.06
663.36	83.06
663.563	84.06
663.766	81.06
663.969	97.06
664.173	77.06
664.376	87.06
664.579	80.06
664.782	99.06
664.985	90.06
665.188	84.06
665.391	77.06
665.594	88.06
665.797	69.06
666	84.06
666.203	81.06
666.406	79.06
666.609	84.06
666.812	90.06
667.015	75.06
667.218	74.06
667.421	78.06
667.624	88.06
667.827	83.06
668.03	76.06
668.232	84.06
668.435	91.06
668.638	74.06
668.841	98.06
669.043	70.06
669.246	85.06
669.449	84.06
669.651	82.06
669.854	90.06
670.057	81.06
670.259	80.06
670.462	87.06
670.665	76.06
670.867	83.06
671.07	81.06
671.272	74.06
671.475	85.06
671.677	84.06
671.88	71.06
672.082	91.06
672.284	86.06
672.487	87.06
672.689	77.06
672.892	88.06
