Data from 1978.PennyLincolnUp.Lamp.En5.5.200Scan.071719.P1_HRD10591_16-12-13-865.txt Node
Date: Thu Jul 18 16:12:13 EDT 2019
User: cochatt
Spectrometer: HR+D1059
Trigger mode: 1
Integration Time (sec): 1.000000E-1
Scans to average: 1
Electric dark correction enabled: true
Nonlinearity correction enabled: false
Boxcar width: 0
XAxis mode: Wavelengths
Number of Pixels in Spectrum: 2048
>>>>>Begin Spectral Data<<<<<
223.165	-23.25
223.4	-23.25
223.635	-23.25
223.869	-10.25
224.104	-3.25
224.338	-21.25
224.573	-8.25
224.808	-24.25
225.042	-28.25
225.277	-2.25
225.511	10.75
225.746	4.75
225.98	6.75
226.215	9.75
226.449	24.75
226.683	7.75
226.918	31.75
227.152	24.75
227.387	20.75
227.621	32.75
227.856	35.75
228.09	46.75
228.324	44.75
228.559	57.75
228.793	70.75
229.027	81.75
229.262	93.75
229.496	90.75
229.73	125.75
229.964	140.75
230.199	102.75
230.433	104.75
230.667	100.75
230.901	114.75
231.136	97.75
231.37	123.75
231.604	118.75
231.838	94.75
232.072	98.75
232.306	117.75
232.541	102.75
232.775	99.75
233.009	104.75
233.243	105.75
233.477	111.75
233.711	111.75
233.945	100.75
234.179	108.75
234.413	94.75
234.647	107.75
234.881	106.75
235.115	98.75
235.349	92.75
235.583	115.75
235.817	97.75
236.051	108.75
236.285	105.75
236.519	113.75
236.753	111.75
236.987	119.75
237.221	161.75
237.455	192.75
237.689	165.75
237.922	125.75
238.156	114.75
238.39	111.75
238.624	115.75
238.858	115.75
239.091	119.75
239.325	109.75
239.559	113.75
239.793	115.75
240.027	121.75
240.26	115.75
240.494	151.75
240.728	122.75
240.961	131.75
241.195	133.75
241.429	120.75
241.662	123.75
241.896	119.75
242.13	116.75
242.363	115.75
242.597	128.75
242.83	122.75
243.064	122.75
243.298	133.75
243.531	127.75
243.765	117.75
243.998	122.75
244.232	127.75
244.465	127.75
244.699	134.75
244.932	140.75
245.166	134.75
245.399	135.75
245.633	145.75
245.866	128.75
246.099	133.75
246.333	153.75
246.566	125.75
246.8	146.75
247.033	125.75
247.266	130.75
247.5	141.75
247.733	165.75
247.966	154.75
248.2	139.75
248.433	169.75
248.666	139.75
248.899	151.75
249.133	172.75
249.366	191.75
249.599	177.75
249.832	159.75
250.066	167.75
250.299	161.75
250.532	168.75
250.765	180.75
250.998	175.75
251.231	178.75
251.465	177.75
251.698	157.75
251.931	175.75
252.164	179.75
252.397	183.75
252.63	176.75
252.863	169.75
253.096	172.75
253.329	192.75
253.562	177.75
253.795	197.75
254.028	193.75
254.261	192.75
254.494	194.75
254.727	211.75
254.96	234.75
255.193	216.75
255.426	188.75
255.659	192.75
255.892	206.75
256.124	193.75
256.357	193.75
256.59	194.75
256.823	176.75
257.056	197.75
257.289	171.75
257.521	185.75
257.754	164.75
257.987	185.75
258.22	178.75
258.452	189.75
258.685	200.75
258.918	194.75
259.151	195.75
259.383	213.75
259.616	193.75
259.849	181.75
260.081	202.75
260.314	208.75
260.547	201.75
260.779	204.75
261.012	202.75
261.244	190.75
261.477	218.75
261.71	189.75
261.942	219.75
262.175	180.75
262.407	206.75
262.64	193.75
262.872	184.75
263.105	200.75
263.337	196.75
263.57	189.75
263.802	192.75
264.035	193.75
264.267	173.75
264.499	187.75
264.732	172.75
264.964	208.75
265.197	198.75
265.429	186.75
265.661	192.75
265.894	200.75
266.126	192.75
266.358	188.75
266.591	204.75
266.823	194.75
267.055	208.75
267.287	198.75
267.52	201.75
267.752	220.75
267.984	209.75
268.216	206.75
268.448	217.75
268.681	216.75
268.913	217.75
269.145	224.75
269.377	223.75
269.609	228.75
269.841	239.75
270.073	223.75
270.306	247.75
270.538	259.75
270.77	250.75
271.002	230.75
271.234	243.75
271.466	243.75
271.698	258.75
271.93	243.75
272.162	261.75
272.394	251.75
272.626	264.75
272.858	225.75
273.09	228.75
273.322	234.75
273.553	230.75
273.785	239.75
274.017	237.75
274.249	230.75
274.481	241.75
274.713	219.75
274.945	235.75
275.176	244.75
275.408	232.75
275.64	227.75
275.872	235.75
276.104	229.75
276.335	244.75
276.567	233.75
276.799	255.75
277.031	258.75
277.262	251.75
277.494	291.75
277.726	231.75
277.957	248.75
278.189	241.75
278.421	224.75
278.652	240.75
278.884	246.75
279.115	259.75
279.347	249.75
279.579	250.75
279.81	243.75
280.042	248.75
280.273	243.75
280.505	239.75
280.736	236.75
280.968	239.75
281.199	248.75
281.431	243.75
281.662	252.75
281.894	230.75
282.125	248.75
282.356	262.75
282.588	268.75
282.819	272.75
283.051	251.75
283.282	222.75
283.513	257.75
283.745	244.75
283.976	242.75
284.207	249.75
284.439	245.75
284.67	248.75
284.901	248.75
285.132	252.75
285.364	248.75
285.595	243.75
285.826	266.75
286.057	257.75
286.288	253.75
286.52	253.75
286.751	258.75
286.982	255.75
287.213	240.75
287.444	250.75
287.675	272.75
287.906	280.75
288.138	269.75
288.369	276.75
288.6	276.75
288.831	271.75
289.062	265.75
289.293	268.75
289.524	264.75
289.755	252.75
289.986	267.75
290.217	252.75
290.448	255.75
290.679	284.75
290.91	265.75
291.141	264.75
291.371	277.75
291.602	271.75
291.833	275.75
292.064	269.75
292.295	273.75
292.526	261.75
292.757	260.75
292.987	281.75
293.218	253.75
293.449	276.75
293.68	267.75
293.91	274.75
294.141	264.75
294.372	255.75
294.603	267.75
294.833	263.75
295.064	266.75
295.295	264.75
295.525	268.75
295.756	277.75
295.987	268.75
296.217	304.75
296.448	289.75
296.679	287.75
296.909	287.75
297.14	276.75
297.37	285.75
297.601	291.75
297.831	269.75
298.062	268.75
298.292	277.75
298.523	306.75
298.753	278.75
298.984	293.75
299.214	274.75
299.445	268.75
299.675	292.75
299.905	292.75
300.136	297.75
300.366	282.75
300.597	277.75
300.827	290.75
301.057	298.75
301.288	288.75
301.518	315.75
301.748	311.75
301.979	288.75
302.209	320.75
302.439	316.75
302.669	299.75
302.9	294.75
303.13	298.75
303.36	292.75
303.59	293.75
303.82	298.75
304.051	300.75
304.281	306.75
304.511	311.75
304.741	295.75
304.971	303.75
305.201	306.75
305.431	304.75
305.661	308.75
305.891	305.75
306.121	293.75
306.352	304.75
306.582	291.75
306.812	279.75
307.042	300.75
307.272	295.75
307.502	315.75
307.731	320.75
307.961	304.75
308.191	316.75
308.421	290.75
308.651	310.75
308.881	307.75
309.111	326.75
309.341	303.75
309.571	313.75
309.8	330.75
310.03	340.75
310.26	323.75
310.49	326.75
310.72	353.75
310.949	352.75
311.179	347.75
311.409	338.75
311.639	316.75
311.868	323.75
312.098	353.75
312.328	351.75
312.557	341.75
312.787	351.75
313.017	346.75
313.246	367.75
313.476	341.75
313.706	361.75
313.935	355.75
314.165	350.75
314.394	345.75
314.624	352.75
314.853	349.75
315.083	345.75
315.312	330.75
315.542	339.75
315.771	323.75
316.001	338.75
316.23	331.75
316.46	347.75
316.689	352.75
316.919	344.75
317.148	346.75
317.377	317.75
317.607	322.75
317.836	344.75
318.065	354.75
318.295	348.75
318.524	361.75
318.753	348.75
318.983	343.75
319.212	349.75
319.441	338.75
319.67	351.75
319.9	346.75
320.129	348.75
320.358	345.75
320.587	353.75
320.816	358.75
321.046	365.75
321.275	372.75
321.504	335.75
321.733	345.75
321.962	361.75
322.191	385.75
322.42	392.75
322.649	392.75
322.878	389.75
323.108	422.75
323.337	425.75
323.566	408.75
323.795	436.75
324.024	465.75
324.253	557.75
324.482	780.75
324.71	1205.75
324.939	1871.75
325.168	1601.75
325.397	805.75
325.626	575.75
325.855	466.75
326.084	467.75
326.313	431.75
326.542	428.75
326.77	484.75
326.999	537.75
327.228	722.75
327.457	1123.75
327.686	1417.75
327.914	888.75
328.143	616.75
328.372	506.75
328.6	490.75
328.829	487.75
329.058	482.75
329.287	507.75
329.515	465.75
329.744	445.75
329.972	445.75
330.201	467.75
330.43	476.75
330.658	519.75
330.887	515.75
331.115	502.75
331.344	449.75
331.572	421.75
331.801	439.75
332.03	443.75
332.258	427.75
332.486	417.75
332.715	416.75
332.943	416.75
333.172	419.75
333.4	415.75
333.629	434.75
333.857	443.75
334.085	448.75
334.314	452.75
334.542	499.75
334.771	488.75
334.999	459.75
335.227	445.75
335.455	419.75
335.684	427.75
335.912	432.75
336.14	407.75
336.369	425.75
336.597	412.75
336.825	412.75
337.053	405.75
337.281	433.75
337.51	405.75
337.738	405.75
337.966	420.75
338.194	413.75
338.422	424.75
338.65	416.75
338.878	401.75
339.106	410.75
339.334	425.75
339.562	398.75
339.79	413.75
340.018	422.75
340.246	387.75
340.474	388.75
340.702	406.75
340.93	397.75
341.158	388.75
341.386	397.75
341.614	406.75
341.842	399.75
342.07	396.75
342.298	395.75
342.526	419.75
342.754	389.75
342.981	378.75
343.209	410.75
343.437	381.75
343.665	405.75
343.893	437.75
344.12	413.75
344.348	394.75
344.576	416.75
344.804	432.75
345.031	428.75
345.259	434.75
345.487	428.75
345.714	407.75
345.942	397.75
346.17	402.75
346.397	396.75
346.625	381.75
346.853	387.75
347.08	387.75
347.308	378.75
347.535	400.75
347.763	404.75
347.99	383.75
348.218	405.75
348.445	409.75
348.673	407.75
348.9	410.75
349.128	380.75
349.355	369.75
349.583	391.75
349.81	387.75
350.037	397.75
350.265	381.75
350.492	369.75
350.72	387.75
350.947	420.75
351.174	420.75
351.402	399.75
351.629	396.75
351.856	363.75
352.083	403.75
352.311	411.75
352.538	411.75
352.765	413.75
352.992	400.75
353.22	371.75
353.447	387.75
353.674	390.75
353.901	369.75
354.128	387.75
354.355	375.75
354.583	375.75
354.81	368.75
355.037	356.75
355.264	376.75
355.491	352.75
355.718	362.75
355.945	377.75
356.172	343.75
356.399	375.75
356.626	377.75
356.853	388.75
357.08	364.75
357.307	367.75
357.534	389.75
357.761	363.75
357.988	373.75
358.215	370.75
358.441	388.75
358.668	385.75
358.895	371.75
359.122	388.75
359.349	384.75
359.576	380.75
359.802	389.75
360.029	433.75
360.256	430.75
360.483	425.75
360.709	426.75
360.936	385.75
361.163	394.75
361.39	399.75
361.616	377.75
361.843	388.75
362.07	412.75
362.296	387.75
362.523	390.75
362.749	392.75
362.976	397.75
363.203	375.75
363.429	399.75
363.656	391.75
363.882	377.75
364.109	397.75
364.335	387.75
364.562	380.75
364.788	375.75
365.015	383.75
365.241	387.75
365.468	375.75
365.694	384.75
365.92	386.75
366.147	394.75
366.373	392.75
366.599	389.75
366.826	361.75
367.052	377.75
367.278	384.75
367.505	402.75
367.731	393.75
367.957	393.75
368.184	382.75
368.41	381.75
368.636	399.75
368.862	396.75
369.089	408.75
369.315	394.75
369.541	391.75
369.767	389.75
369.993	383.75
370.219	373.75
370.445	372.75
370.672	398.75
370.898	401.75
371.124	401.75
371.35	379.75
371.576	385.75
371.802	393.75
372.028	383.75
372.254	402.75
372.48	388.75
372.706	389.75
372.932	407.75
373.158	423.75
373.384	410.75
373.61	372.75
373.835	384.75
374.061	394.75
374.287	396.75
374.513	404.75
374.739	416.75
374.965	417.75
375.191	417.75
375.416	398.75
375.642	419.75
375.868	395.75
376.094	391.75
376.319	392.75
376.545	391.75
376.771	380.75
376.997	397.75
377.222	381.75
377.448	390.75
377.674	403.75
377.899	405.75
378.125	381.75
378.35	406.75
378.576	407.75
378.802	411.75
379.027	402.75
379.253	400.75
379.478	405.75
379.704	403.75
379.929	407.75
380.155	397.75
380.38	387.75
380.606	391.75
380.831	410.75
381.057	407.75
381.282	406.75
381.507	404.75
381.733	395.75
381.958	411.75
382.184	423.75
382.409	424.75
382.634	406.75
382.86	394.75
383.085	409.75
383.31	434.75
383.535	403.75
383.761	404.75
383.986	429.75
384.211	415.75
384.436	425.75
384.662	422.75
384.887	441.75
385.112	419.75
385.337	436.75
385.562	429.75
385.787	420.75
386.013	461.75
386.238	431.75
386.463	455.75
386.688	436.75
386.913	442.75
387.138	441.75
387.363	450.75
387.588	423.75
387.813	442.75
388.038	439.75
388.263	445.75
388.488	447.75
388.713	445.75
388.938	456.75
389.163	445.75
389.387	444.75
389.612	451.75
389.837	448.75
390.062	433.75
390.287	459.75
390.512	449.75
390.736	453.75
390.961	443.75
391.186	461.75
391.411	453.75
391.636	455.75
391.86	468.75
392.085	458.75
392.31	464.75
392.534	475.75
392.759	467.75
392.984	464.75
393.208	442.75
393.433	471.75
393.658	457.75
393.882	450.75
394.107	442.75
394.331	449.75
394.556	456.75
394.78	442.75
395.005	447.75
395.229	466.75
395.454	469.75
395.678	486.75
395.903	481.75
396.127	477.75
396.352	476.75
396.576	465.75
396.801	478.75
397.025	473.75
397.249	491.75
397.474	467.75
397.698	473.75
397.922	483.75
398.147	490.75
398.371	490.75
398.595	517.75
398.82	523.75
399.044	541.75
399.268	562.75
399.492	568.75
399.717	598.75
399.941	636.75
400.165	657.75
400.389	657.75
400.613	565.75
400.837	552.75
401.062	535.75
401.286	536.75
401.51	533.75
401.734	527.75
401.958	526.75
402.182	506.75
402.406	523.75
402.63	543.75
402.854	533.75
403.078	547.75
403.302	550.75
403.526	521.75
403.75	532.75
403.974	516.75
404.198	515.75
404.422	513.75
404.645	567.75
404.869	555.75
405.093	602.75
405.317	624.75
405.541	653.75
405.765	593.75
405.988	559.75
406.212	561.75
406.436	594.75
406.66	604.75
406.883	579.75
407.107	582.75
407.331	633.75
407.555	695.75
407.778	697.75
408.002	643.75
408.226	594.75
408.449	607.75
408.673	612.75
408.896	619.75
409.12	647.75
409.344	603.75
409.567	554.75
409.791	556.75
410.014	549.75
410.238	563.75
410.461	565.75
410.685	551.75
410.908	563.75
411.132	607.75
411.355	600.75
411.578	609.75
411.802	543.75
412.025	539.75
412.249	540.75
412.472	562.75
412.695	587.75
412.919	569.75
413.142	537.75
413.365	523.75
413.589	534.75
413.812	524.75
414.035	495.75
414.258	509.75
414.482	530.75
414.705	532.75
414.928	533.75
415.151	518.75
415.374	485.75
415.597	481.75
415.821	499.75
416.044	507.75
416.267	527.75
416.49	525.75
416.713	498.75
416.936	517.75
417.159	513.75
417.382	498.75
417.605	488.75
417.828	508.75
418.051	515.75
418.274	523.75
418.497	513.75
418.72	487.75
418.943	503.75
419.166	512.75
419.389	557.75
419.611	548.75
419.834	546.75
420.057	528.75
420.28	531.75
420.503	517.75
420.726	518.75
420.948	561.75
421.171	573.75
421.394	600.75
421.617	562.75
421.839	529.75
422.062	534.75
422.285	537.75
422.507	589.75
422.73	651.75
422.953	630.75
423.175	550.75
423.398	531.75
423.621	566.75
423.843	541.75
424.066	565.75
424.288	588.75
424.511	578.75
424.733	593.75
424.956	699.75
425.178	671.75
425.401	661.75
425.623	680.75
425.846	573.75
426.068	575.75
426.291	547.75
426.513	554.75
426.735	570.75
426.958	581.75
427.18	668.75
427.402	783.75
427.625	872.75
427.847	751.75
428.069	643.75
428.292	600.75
428.514	553.75
428.736	536.75
428.958	529.75
429.181	522.75
429.403	501.75
429.625	511.75
429.847	568.75
430.069	610.75
430.292	603.75
430.514	537.75
430.736	517.75
430.958	523.75
431.18	519.75
431.402	496.75
431.624	469.75
431.846	497.75
432.068	484.75
432.29	511.75
432.512	505.75
432.734	478.75
432.956	479.75
433.178	489.75
433.4	505.75
433.622	507.75
433.844	497.75
434.066	497.75
434.287	492.75
434.509	511.75
434.731	522.75
434.953	520.75
435.175	529.75
435.397	568.75
435.618	544.75
435.84	570.75
436.062	672.75
436.284	768.75
436.505	640.75
436.727	580.75
436.949	554.75
437.17	526.75
437.392	532.75
437.614	530.75
437.835	552.75
438.057	624.75
438.278	747.75
438.5	743.75
438.721	825.75
438.943	784.75
439.165	602.75
439.386	552.75
439.608	560.75
439.829	549.75
440.05	568.75
440.272	602.75
440.493	597.75
440.715	554.75
440.936	555.75
441.158	528.75
441.379	518.75
441.6	547.75
441.822	535.75
442.043	588.75
442.264	641.75
442.486	693.75
442.707	606.75
442.928	581.75
443.149	565.75
443.371	577.75
443.592	625.75
443.813	701.75
444.034	775.75
444.255	671.75
444.476	573.75
444.698	589.75
444.919	577.75
445.14	643.75
445.361	627.75
445.582	595.75
445.803	649.75
446.024	775.75
446.245	743.75
446.466	700.75
446.687	563.75
446.908	555.75
447.129	538.75
447.35	524.75
447.571	514.75
447.792	517.75
448.013	531.75
448.234	535.75
448.455	559.75
448.675	690.75
448.896	801.75
449.117	687.75
449.338	605.75
449.559	734.75
449.779	846.75
450	678.75
450.221	547.75
450.442	541.75
450.662	492.75
450.883	485.75
451.104	505.75
451.324	499.75
451.545	487.75
451.766	458.75
451.986	458.75
452.207	465.75
452.428	472.75
452.648	478.75
452.869	482.75
453.089	477.75
453.31	486.75
453.53	472.75
453.751	448.75
453.971	446.75
454.192	479.75
454.412	466.75
454.633	462.75
454.853	476.75
455.073	474.75
455.294	484.75
455.514	547.75
455.734	515.75
455.955	475.75
456.175	449.75
456.395	449.75
456.616	443.75
456.836	451.75
457.056	461.75
457.276	439.75
457.497	461.75
457.717	459.75
457.937	471.75
458.157	463.75
458.377	461.75
458.598	457.75
458.818	501.75
459.038	544.75
459.258	625.75
459.478	531.75
459.698	511.75
459.918	503.75
460.138	498.75
460.358	531.75
460.578	513.75
460.798	511.75
461.018	536.75
461.238	522.75
461.458	516.75
461.678	505.75
461.898	543.75
462.118	517.75
462.338	551.75
462.558	544.75
462.777	559.75
462.997	583.75
463.217	559.75
463.437	584.75
463.657	570.75
463.876	582.75
464.096	575.75
464.316	546.75
464.536	558.75
464.755	564.75
464.975	566.75
465.195	579.75
465.414	629.75
465.634	558.75
465.854	530.75
466.073	523.75
466.293	514.75
466.512	504.75
466.732	501.75
466.951	480.75
467.171	482.75
467.391	503.75
467.61	492.75
467.829	493.75
468.049	472.75
468.268	492.75
468.488	461.75
468.707	470.75
468.927	480.75
469.146	465.75
469.365	461.75
469.585	493.75
469.804	471.75
470.023	480.75
470.243	490.75
470.462	482.75
470.681	520.75
470.901	503.75
471.12	504.75
471.339	486.75
471.558	504.75
471.777	485.75
471.997	474.75
472.216	477.75
472.435	509.75
472.654	496.75
472.873	484.75
473.092	480.75
473.311	473.75
473.53	505.75
473.749	521.75
473.968	513.75
474.187	609.75
474.406	640.75
474.625	533.75
474.844	501.75
475.063	500.75
475.282	495.75
475.501	491.75
475.72	519.75
475.939	504.75
476.158	531.75
476.377	495.75
476.596	502.75
476.814	512.75
477.033	516.75
477.252	517.75
477.471	540.75
477.69	533.75
477.908	533.75
478.127	554.75
478.346	560.75
478.564	545.75
478.783	569.75
479.002	580.75
479.22	565.75
479.439	584.75
479.658	563.75
479.876	588.75
480.095	582.75
480.313	626.75
480.532	581.75
480.751	602.75
480.969	609.75
481.188	643.75
481.406	657.75
481.624	626.75
481.843	600.75
482.061	619.75
482.28	570.75
482.498	595.75
482.717	588.75
482.935	580.75
483.153	563.75
483.372	586.75
483.59	566.75
483.808	582.75
484.027	568.75
484.245	598.75
484.463	565.75
484.681	572.75
484.9	561.75
485.118	571.75
485.336	602.75
485.554	589.75
485.772	600.75
485.99	577.75
486.209	591.75
486.427	594.75
486.645	599.75
486.863	609.75
487.081	581.75
487.299	616.75
487.517	605.75
487.735	603.75
487.953	608.75
488.171	603.75
488.389	623.75
488.607	613.75
488.825	605.75
489.043	614.75
489.261	619.75
489.479	602.75
489.696	599.75
489.914	598.75
490.132	626.75
490.35	633.75
490.568	620.75
490.786	635.75
491.003	626.75
491.221	677.75
491.439	661.75
491.657	651.75
491.874	664.75
492.092	667.75
492.31	662.75
492.527	649.75
492.745	685.75
492.963	689.75
493.18	707.75
493.398	704.75
493.615	692.75
493.833	708.75
494.05	702.75
494.268	677.75
494.485	712.75
494.703	703.75
494.92	674.75
495.138	719.75
495.355	684.75
495.573	701.75
495.79	737.75
496.008	704.75
496.225	705.75
496.442	701.75
496.66	735.75
496.877	713.75
497.094	728.75
497.312	715.75
497.529	766.75
497.746	762.75
497.963	767.75
498.181	800.75
498.398	809.75
498.615	810.75
498.832	850.75
499.049	855.75
499.267	875.75
499.484	912.75
499.701	941.75
499.918	960.75
500.135	1002.75
500.352	1027.75
500.569	1067.75
500.786	1060.75
501.003	1053.75
501.22	1038.75
501.437	1004.75
501.654	939.75
501.871	927.75
502.088	916.75
502.305	857.75
502.522	843.75
502.739	802.75
502.956	775.75
503.172	786.75
503.389	758.75
503.606	760.75
503.823	765.75
504.04	761.75
504.256	731.75
504.473	715.75
504.69	723.75
504.907	745.75
505.123	728.75
505.34	715.75
505.557	716.75
505.773	689.75
505.99	685.75
506.207	687.75
506.423	684.75
506.64	665.75
506.856	686.75
507.073	674.75
507.289	675.75
507.506	647.75
507.722	674.75
507.939	677.75
508.155	648.75
508.372	650.75
508.588	649.75
508.805	650.75
509.021	631.75
509.238	620.75
509.454	667.75
509.67	643.75
509.887	617.75
510.103	647.75
510.319	639.75
510.536	691.75
510.752	1032.75
510.968	853.75
511.184	653.75
511.401	635.75
511.617	632.75
511.833	630.75
512.049	612.75
512.265	582.75
512.481	628.75
512.698	597.75
512.914	595.75
513.13	612.75
513.346	600.75
513.562	601.75
513.778	600.75
513.994	616.75
514.21	598.75
514.426	644.75
514.642	652.75
514.858	664.75
515.074	690.75
515.29	787.75
515.506	1027.75
515.721	931.75
515.937	701.75
516.153	643.75
516.369	648.75
516.585	664.75
516.801	640.75
517.016	640.75
517.232	660.75
517.448	667.75
517.664	668.75
517.879	647.75
518.095	650.75
518.311	656.75
518.527	630.75
518.742	639.75
518.958	623.75
519.173	621.75
519.389	615.75
519.605	616.75
519.82	621.75
520.036	641.75
520.251	618.75
520.467	634.75
520.682	651.75
520.898	648.75
521.113	654.75
521.329	675.75
521.544	743.75
521.76	850.75
521.975	1271.75
522.19	1247.75
522.406	800.75
522.621	656.75
522.836	611.75
523.052	614.75
523.267	595.75
523.482	569.75
523.698	569.75
523.913	558.75
524.128	565.75
524.343	550.75
524.559	544.75
524.774	540.75
524.989	548.75
525.204	540.75
525.419	557.75
525.634	527.75
525.849	521.75
526.064	537.75
526.28	522.75
526.495	534.75
526.71	504.75
526.925	503.75
527.14	515.75
527.355	510.75
527.57	519.75
527.785	529.75
527.999	504.75
528.214	521.75
528.429	513.75
528.644	531.75
528.859	507.75
529.074	535.75
529.289	533.75
529.503	576.75
529.718	560.75
529.933	538.75
530.148	538.75
530.363	519.75
530.577	491.75
530.792	492.75
531.007	522.75
531.221	513.75
531.436	525.75
531.651	529.75
531.865	515.75
532.08	520.75
532.295	490.75
532.509	489.75
532.724	489.75
532.938	496.75
533.153	511.75
533.367	494.75
533.582	525.75
533.796	523.75
534.011	488.75
534.225	493.75
534.44	489.75
534.654	485.75
534.868	500.75
535.083	510.75
535.297	497.75
535.511	517.75
535.726	497.75
535.94	490.75
536.154	497.75
536.369	503.75
536.583	504.75
536.797	484.75
537.011	485.75
537.225	487.75
537.44	485.75
537.654	496.75
537.868	504.75
538.082	486.75
538.296	474.75
538.51	471.75
538.724	479.75
538.938	480.75
539.153	478.75
539.367	471.75
539.581	473.75
539.795	486.75
540.009	477.75
540.222	473.75
540.436	466.75
540.65	461.75
540.864	446.75
541.078	475.75
541.292	451.75
541.506	467.75
541.72	453.75
541.934	476.75
542.147	488.75
542.361	468.75
542.575	474.75
542.789	469.75
543.002	484.75
543.216	473.75
543.43	500.75
543.644	478.75
543.857	485.75
544.071	476.75
544.285	480.75
544.498	466.75
544.712	482.75
544.925	469.75
545.139	468.75
545.352	469.75
545.566	454.75
545.779	481.75
545.993	463.75
546.206	472.75
546.42	475.75
546.633	464.75
546.847	456.75
547.06	462.75
547.274	474.75
547.487	468.75
547.7	474.75
547.914	468.75
548.127	449.75
548.34	468.75
548.554	467.75
548.767	458.75
548.98	471.75
549.193	444.75
549.407	458.75
549.62	470.75
549.833	446.75
550.046	461.75
550.259	446.75
550.473	449.75
550.686	456.75
550.899	464.75
551.112	460.75
551.325	453.75
551.538	449.75
551.751	453.75
551.964	427.75
552.177	465.75
552.39	472.75
552.603	450.75
552.816	449.75
553.029	460.75
553.242	469.75
553.455	471.75
553.667	495.75
553.88	471.75
554.093	427.75
554.306	471.75
554.519	442.75
554.732	460.75
554.944	454.75
555.157	446.75
555.37	435.75
555.583	441.75
555.795	435.75
556.008	424.75
556.221	433.75
556.433	424.75
556.646	419.75
556.859	420.75
557.071	419.75
557.284	409.75
557.496	429.75
557.709	409.75
557.921	418.75
558.134	407.75
558.346	407.75
558.559	406.75
558.771	440.75
558.984	424.75
559.196	423.75
559.409	403.75
559.621	408.75
559.833	412.75
560.046	401.75
560.258	398.75
560.47	407.75
560.683	410.75
560.895	410.75
561.107	431.75
561.32	402.75
561.532	410.75
561.744	437.75
561.956	414.75
562.168	403.75
562.381	396.75
562.593	411.75
562.805	421.75
563.017	418.75
563.229	413.75
563.441	419.75
563.653	434.75
563.865	428.75
564.077	395.75
564.289	408.75
564.501	423.75
564.713	419.75
564.925	429.75
565.137	455.75
565.349	442.75
565.561	468.75
565.773	473.75
565.985	481.75
566.197	494.75
566.408	472.75
566.62	497.75
566.832	487.75
567.044	511.75
567.255	499.75
567.467	503.75
567.679	508.75
567.891	538.75
568.102	548.75
568.314	532.75
568.526	520.75
568.737	505.75
568.949	513.75
569.161	472.75
569.372	462.75
569.584	451.75
569.795	449.75
570.007	434.75
570.218	460.75
570.43	455.75
570.641	408.75
570.853	412.75
571.064	417.75
571.276	419.75
571.487	397.75
571.698	404.75
571.91	394.75
572.121	385.75
572.333	385.75
572.544	395.75
572.755	375.75
572.966	380.75
573.178	387.75
573.389	376.75
573.6	376.75
573.811	369.75
574.023	368.75
574.234	341.75
574.445	369.75
574.656	375.75
574.867	375.75
575.078	375.75
575.289	368.75
575.501	380.75
575.712	359.75
575.923	357.75
576.134	343.75
576.345	372.75
576.556	364.75
576.767	363.75
576.978	355.75
577.188	357.75
577.399	352.75
577.61	364.75
577.821	346.75
578.032	342.75
578.243	372.75
578.454	497.75
578.665	404.75
578.875	348.75
579.086	363.75
579.297	348.75
579.508	342.75
579.718	331.75
579.929	332.75
580.14	347.75
580.35	334.75
580.561	339.75
580.772	332.75
580.982	330.75
581.193	327.75
581.403	311.75
581.614	319.75
581.825	323.75
582.035	321.75
582.246	337.75
582.456	327.75
582.667	336.75
582.877	321.75
583.087	341.75
583.298	315.75
583.508	340.75
583.719	326.75
583.929	320.75
584.139	311.75
584.35	310.75
584.56	307.75
584.77	339.75
584.981	312.75
585.191	323.75
585.401	293.75
585.611	309.75
585.821	333.75
586.032	308.75
586.242	320.75
586.452	316.75
586.662	330.75
586.872	320.75
587.082	321.75
587.292	324.75
587.502	311.75
587.713	311.75
587.923	311.75
588.133	289.75
588.343	320.75
588.553	321.75
588.762	302.75
588.972	322.75
589.182	311.75
589.392	310.75
589.602	316.75
589.812	314.75
590.022	321.75
590.232	311.75
590.441	307.75
590.651	325.75
590.861	325.75
591.071	296.75
591.281	328.75
591.49	321.75
591.7	311.75
591.91	333.75
592.119	318.75
592.329	342.75
592.539	333.75
592.748	337.75
592.958	336.75
593.167	328.75
593.377	332.75
593.587	338.75
593.796	333.75
594.006	305.75
594.215	340.75
594.424	351.75
594.634	344.75
594.843	330.75
595.053	330.75
595.262	314.75
595.472	323.75
595.681	332.75
595.89	314.75
596.1	297.75
596.309	309.75
596.518	305.75
596.727	293.75
596.937	305.75
597.146	307.75
597.355	300.75
597.564	291.75
597.774	282.75
597.983	292.75
598.192	286.75
598.401	286.75
598.61	283.75
598.819	287.75
599.028	283.75
599.237	283.75
599.446	292.75
599.655	272.75
599.864	289.75
600.073	282.75
600.282	278.75
600.491	276.75
600.7	272.75
600.909	272.75
601.118	269.75
601.327	284.75
601.536	280.75
601.745	265.75
601.953	271.75
602.162	266.75
602.371	264.75
602.58	270.75
602.789	259.75
602.997	266.75
603.206	272.75
603.415	264.75
603.623	276.75
603.832	276.75
604.041	273.75
604.249	277.75
604.458	277.75
604.666	260.75
604.875	267.75
605.084	268.75
605.292	254.75
605.501	259.75
605.709	261.75
605.918	255.75
606.126	264.75
606.334	268.75
606.543	244.75
606.751	265.75
606.96	272.75
607.168	264.75
607.376	268.75
607.585	265.75
607.793	271.75
608.001	276.75
608.21	260.75
608.418	255.75
608.626	268.75
608.834	247.75
609.043	245.75
609.251	255.75
609.459	255.75
609.667	250.75
609.875	265.75
610.083	259.75
610.291	267.75
610.499	263.75
610.707	254.75
610.916	261.75
611.124	260.75
611.332	257.75
611.54	282.75
611.748	251.75
611.955	259.75
612.163	247.75
612.371	273.75
612.579	246.75
612.787	239.75
612.995	240.75
613.203	261.75
613.411	239.75
613.618	252.75
613.826	257.75
614.034	241.75
614.242	252.75
614.449	259.75
614.657	248.75
614.865	233.75
615.072	236.75
615.28	235.75
615.488	255.75
615.695	249.75
615.903	244.75
616.111	254.75
616.318	266.75
616.526	275.75
616.733	240.75
616.941	252.75
617.148	229.75
617.356	259.75
617.563	263.75
617.771	241.75
617.978	219.75
618.185	247.75
618.393	235.75
618.6	243.75
618.807	250.75
619.015	242.75
619.222	236.75
619.429	244.75
619.637	245.75
619.844	228.75
620.051	234.75
620.258	221.75
620.466	238.75
620.673	223.75
620.88	227.75
621.087	232.75
621.294	234.75
621.501	240.75
621.708	227.75
621.915	234.75
622.122	233.75
622.329	250.75
622.536	237.75
622.743	217.75
622.95	232.75
623.157	238.75
623.364	229.75
623.571	214.75
623.778	232.75
623.985	222.75
624.192	225.75
624.399	223.75
624.606	230.75
624.812	229.75
625.019	221.75
625.226	220.75
625.433	216.75
625.639	228.75
625.846	219.75
626.053	233.75
626.259	228.75
626.466	219.75
626.673	218.75
626.879	202.75
627.086	223.75
627.293	219.75
627.499	200.75
627.706	219.75
627.912	213.75
628.119	220.75
628.325	219.75
628.532	212.75
628.738	210.75
628.945	211.75
629.151	198.75
629.357	211.75
629.564	217.75
629.77	207.75
629.976	196.75
630.183	216.75
630.389	203.75
630.595	191.75
630.802	207.75
631.008	195.75
631.214	209.75
631.42	186.75
631.627	201.75
631.833	203.75
632.039	191.75
632.245	201.75
632.451	212.75
632.657	195.75
632.863	195.75
633.069	201.75
633.275	205.75
633.481	197.75
633.688	189.75
633.893	205.75
634.099	183.75
634.305	196.75
634.511	183.75
634.717	191.75
634.923	184.75
635.129	200.75
635.335	194.75
635.541	193.75
635.747	202.75
635.952	187.75
636.158	190.75
636.364	186.75
636.57	194.75
636.775	193.75
636.981	192.75
637.187	194.75
637.392	187.75
637.598	188.75
637.804	191.75
638.009	182.75
638.215	173.75
638.421	177.75
638.626	176.75
638.832	181.75
639.037	181.75
639.243	171.75
639.448	191.75
639.654	186.75
639.859	188.75
640.065	171.75
640.27	200.75
640.475	195.75
640.681	179.75
640.886	163.75
641.091	168.75
641.297	186.75
641.502	180.75
641.707	166.75
641.913	192.75
642.118	177.75
642.323	182.75
642.528	189.75
642.733	171.75
642.939	172.75
643.144	182.75
643.349	155.75
643.554	168.75
643.759	169.75
643.964	163.75
644.169	167.75
644.374	175.75
644.579	176.75
644.784	176.75
644.989	171.75
645.194	157.75
645.399	156.75
645.604	167.75
645.809	178.75
646.014	163.75
646.219	179.75
646.423	180.75
646.628	168.75
646.833	198.75
647.038	177.75
647.243	163.75
647.447	175.75
647.652	183.75
647.857	172.75
648.062	179.75
648.266	175.75
648.471	169.75
648.676	182.75
648.88	185.75
649.085	188.75
649.289	183.75
649.494	192.75
649.698	195.75
649.903	175.75
650.107	177.75
650.312	162.75
650.516	145.75
650.721	175.75
650.925	170.75
651.13	144.75
651.334	149.75
651.539	148.75
651.743	169.75
651.947	154.75
652.152	141.75
652.356	159.75
652.56	155.75
652.764	144.75
652.969	155.75
653.173	141.75
653.377	131.75
653.581	153.75
653.785	142.75
653.99	133.75
654.194	161.75
654.398	144.75
654.602	151.75
654.806	143.75
655.01	162.75
655.214	129.75
655.418	146.75
655.622	135.75
655.826	148.75
656.03	141.75
656.234	143.75
656.438	133.75
656.642	131.75
656.846	131.75
657.049	123.75
657.253	119.75
657.457	120.75
657.661	124.75
657.865	117.75
658.068	121.75
658.272	114.75
658.476	113.75
658.68	90.75
658.883	111.75
659.087	110.75
659.291	117.75
659.494	108.75
659.698	99.75
659.901	97.75
660.105	97.75
660.309	98.75
660.512	85.75
660.716	86.75
660.919	85.75
661.123	89.75
661.326	84.75
661.53	67.75
661.733	84.75
661.936	90.75
662.14	82.75
662.343	80.75
662.546	95.75
662.75	91.75
662.953	85.75
663.156	81.75
663.36	76.75
663.563	75.75
663.766	70.75
663.969	78.75
664.173	89.75
664.376	80.75
664.579	77.75
664.782	78.75
664.985	89.75
665.188	77.75
665.391	86.75
665.594	73.75
665.797	67.75
666	80.75
666.203	86.75
666.406	87.75
666.609	68.75
666.812	68.75
667.015	89.75
667.218	88.75
667.421	67.75
667.624	91.75
667.827	86.75
668.03	79.75
668.232	89.75
668.435	85.75
668.638	77.75
668.841	88.75
669.043	74.75
669.246	75.75
669.449	76.75
669.651	72.75
669.854	82.75
670.057	87.75
670.259	72.75
670.462	78.75
670.665	70.75
670.867	75.75
671.07	80.75
671.272	87.75
671.475	72.75
671.677	79.75
671.88	77.75
672.082	82.75
672.284	97.75
672.487	79.75
672.689	77.75
672.892	102.75
