Data from 1978.PennyLincolnUp.Lamp.En5.5.200Scan.071719.P1_HRD10591_16-11-32-865.txt Node
Date: Thu Jul 18 16:11:32 EDT 2019
User: cochatt
Spectrometer: HR+D1059
Trigger mode: 1
Integration Time (sec): 1.000000E-1
Scans to average: 1
Electric dark correction enabled: true
Nonlinearity correction enabled: false
Boxcar width: 0
XAxis mode: Wavelengths
Number of Pixels in Spectrum: 2048
>>>>>Begin Spectral Data<<<<<
223.165	-16.25
223.4	-16.25
223.635	-16.25
223.869	-21.25
224.104	1.75
224.338	-26.25
224.573	-17.25
224.808	-7.25
225.042	-2.25
225.277	-12.25
225.511	-8.25
225.746	10.75
225.98	10.75
226.215	19.75
226.449	12.75
226.683	6.75
226.918	19.75
227.152	28.75
227.387	42.75
227.621	38.75
227.856	54.75
228.09	43.75
228.324	50.75
228.559	59.75
228.793	69.75
229.027	102.75
229.262	107.75
229.496	110.75
229.73	111.75
229.964	141.75
230.199	124.75
230.433	99.75
230.667	100.75
230.901	98.75
231.136	100.75
231.37	105.75
231.604	107.75
231.838	101.75
232.072	108.75
232.306	119.75
232.541	111.75
232.775	108.75
233.009	97.75
233.243	99.75
233.477	105.75
233.711	116.75
233.945	111.75
234.179	104.75
234.413	100.75
234.647	117.75
234.881	121.75
235.115	104.75
235.349	98.75
235.583	111.75
235.817	125.75
236.051	119.75
236.285	109.75
236.519	98.75
236.753	106.75
236.987	119.75
237.221	148.75
237.455	189.75
237.689	147.75
237.922	128.75
238.156	116.75
238.39	131.75
238.624	109.75
238.858	107.75
239.091	103.75
239.325	118.75
239.559	123.75
239.793	111.75
240.027	127.75
240.26	120.75
240.494	129.75
240.728	118.75
240.961	144.75
241.195	139.75
241.429	118.75
241.662	114.75
241.896	119.75
242.13	110.75
242.363	124.75
242.597	124.75
242.83	127.75
243.064	122.75
243.298	116.75
243.531	126.75
243.765	126.75
243.998	127.75
244.232	129.75
244.465	134.75
244.699	141.75
244.932	138.75
245.166	126.75
245.399	125.75
245.633	136.75
245.866	140.75
246.099	144.75
246.333	135.75
246.566	138.75
246.8	148.75
247.033	131.75
247.266	154.75
247.5	131.75
247.733	140.75
247.966	160.75
248.2	148.75
248.433	154.75
248.666	143.75
248.899	143.75
249.133	166.75
249.366	163.75
249.599	165.75
249.832	155.75
250.066	166.75
250.299	151.75
250.532	151.75
250.765	161.75
250.998	150.75
251.231	160.75
251.465	166.75
251.698	184.75
251.931	170.75
252.164	162.75
252.397	169.75
252.63	166.75
252.863	158.75
253.096	188.75
253.329	186.75
253.562	181.75
253.795	172.75
254.028	174.75
254.261	167.75
254.494	178.75
254.727	211.75
254.96	192.75
255.193	195.75
255.426	197.75
255.659	191.75
255.892	171.75
256.124	174.75
256.357	197.75
256.59	191.75
256.823	187.75
257.056	160.75
257.289	191.75
257.521	182.75
257.754	164.75
257.987	163.75
258.22	183.75
258.452	190.75
258.685	148.75
258.918	190.75
259.151	174.75
259.383	186.75
259.616	189.75
259.849	178.75
260.081	192.75
260.314	189.75
260.547	188.75
260.779	196.75
261.012	198.75
261.244	185.75
261.477	179.75
261.71	178.75
261.942	194.75
262.175	188.75
262.407	201.75
262.64	187.75
262.872	203.75
263.105	189.75
263.337	192.75
263.57	191.75
263.802	182.75
264.035	183.75
264.267	168.75
264.499	196.75
264.732	182.75
264.964	182.75
265.197	184.75
265.429	165.75
265.661	167.75
265.894	191.75
266.126	198.75
266.358	186.75
266.591	179.75
266.823	177.75
267.055	182.75
267.287	199.75
267.52	199.75
267.752	208.75
267.984	211.75
268.216	203.75
268.448	211.75
268.681	195.75
268.913	208.75
269.145	228.75
269.377	216.75
269.609	222.75
269.841	233.75
270.073	217.75
270.306	220.75
270.538	221.75
270.77	239.75
271.002	228.75
271.234	230.75
271.466	237.75
271.698	228.75
271.93	254.75
272.162	235.75
272.394	248.75
272.626	236.75
272.858	242.75
273.09	226.75
273.322	230.75
273.553	201.75
273.785	219.75
274.017	227.75
274.249	219.75
274.481	212.75
274.713	221.75
274.945	219.75
275.176	219.75
275.408	228.75
275.64	220.75
275.872	223.75
276.104	223.75
276.335	207.75
276.567	232.75
276.799	243.75
277.031	262.75
277.262	238.75
277.494	248.75
277.726	246.75
277.957	233.75
278.189	226.75
278.421	224.75
278.652	225.75
278.884	223.75
279.115	246.75
279.347	253.75
279.579	239.75
279.81	284.75
280.042	280.75
280.273	252.75
280.505	247.75
280.736	242.75
280.968	227.75
281.199	234.75
281.431	218.75
281.662	229.75
281.894	220.75
282.125	224.75
282.356	223.75
282.588	276.75
282.819	249.75
283.051	236.75
283.282	250.75
283.513	231.75
283.745	250.75
283.976	244.75
284.207	242.75
284.439	248.75
284.67	242.75
284.901	239.75
285.132	240.75
285.364	242.75
285.595	260.75
285.826	248.75
286.057	253.75
286.288	237.75
286.52	240.75
286.751	262.75
286.982	248.75
287.213	247.75
287.444	255.75
287.675	249.75
287.906	265.75
288.138	268.75
288.369	264.75
288.6	275.75
288.831	280.75
289.062	247.75
289.293	247.75
289.524	244.75
289.755	267.75
289.986	264.75
290.217	259.75
290.448	258.75
290.679	265.75
290.91	275.75
291.141	243.75
291.371	277.75
291.602	258.75
291.833	271.75
292.064	264.75
292.295	264.75
292.526	242.75
292.757	253.75
292.987	237.75
293.218	264.75
293.449	258.75
293.68	239.75
293.91	268.75
294.141	253.75
294.372	260.75
294.603	250.75
294.833	270.75
295.064	269.75
295.295	244.75
295.525	286.75
295.756	264.75
295.987	260.75
296.217	270.75
296.448	281.75
296.679	273.75
296.909	277.75
297.14	251.75
297.37	288.75
297.601	263.75
297.831	273.75
298.062	246.75
298.292	266.75
298.523	279.75
298.753	282.75
298.984	272.75
299.214	268.75
299.445	266.75
299.675	268.75
299.905	306.75
300.136	282.75
300.366	284.75
300.597	278.75
300.827	254.75
301.057	291.75
301.288	281.75
301.518	286.75
301.748	293.75
301.979	280.75
302.209	294.75
302.439	295.75
302.669	263.75
302.9	292.75
303.13	283.75
303.36	295.75
303.59	307.75
303.82	311.75
304.051	315.75
304.281	291.75
304.511	285.75
304.741	275.75
304.971	284.75
305.201	273.75
305.431	286.75
305.661	294.75
305.891	295.75
306.121	308.75
306.352	314.75
306.582	307.75
306.812	297.75
307.042	327.75
307.272	295.75
307.502	302.75
307.731	296.75
307.961	288.75
308.191	290.75
308.421	303.75
308.651	286.75
308.881	299.75
309.111	306.75
309.341	296.75
309.571	311.75
309.8	310.75
310.03	310.75
310.26	310.75
310.49	319.75
310.72	299.75
310.949	348.75
311.179	332.75
311.409	350.75
311.639	340.75
311.868	333.75
312.098	330.75
312.328	323.75
312.557	357.75
312.787	343.75
313.017	349.75
313.246	336.75
313.476	307.75
313.706	315.75
313.935	339.75
314.165	343.75
314.394	336.75
314.624	346.75
314.853	324.75
315.083	327.75
315.312	337.75
315.542	333.75
315.771	336.75
316.001	348.75
316.23	323.75
316.46	325.75
316.689	327.75
316.919	344.75
317.148	336.75
317.377	349.75
317.607	341.75
317.836	352.75
318.065	327.75
318.295	361.75
318.524	340.75
318.753	354.75
318.983	335.75
319.212	330.75
319.441	349.75
319.67	337.75
319.9	316.75
320.129	343.75
320.358	341.75
320.587	347.75
320.816	339.75
321.046	358.75
321.275	346.75
321.504	352.75
321.733	351.75
321.962	354.75
322.191	346.75
322.42	365.75
322.649	374.75
322.878	374.75
323.108	373.75
323.337	421.75
323.566	418.75
323.795	451.75
324.024	463.75
324.253	534.75
324.482	757.75
324.71	1151.75
324.939	1732.75
325.168	1482.75
325.397	747.75
325.626	509.75
325.855	440.75
326.084	429.75
326.313	428.75
326.542	393.75
326.77	430.75
326.999	527.75
327.228	687.75
327.457	1049.75
327.686	1290.75
327.914	853.75
328.143	565.75
328.372	511.75
328.6	452.75
328.829	436.75
329.058	450.75
329.287	444.75
329.515	424.75
329.744	414.75
329.972	426.75
330.201	423.75
330.43	435.75
330.658	466.75
330.887	492.75
331.115	479.75
331.344	424.75
331.572	412.75
331.801	399.75
332.03	423.75
332.258	392.75
332.486	409.75
332.715	386.75
332.943	388.75
333.172	400.75
333.4	415.75
333.629	414.75
333.857	418.75
334.085	417.75
334.314	442.75
334.542	448.75
334.771	444.75
334.999	459.75
335.227	429.75
335.455	408.75
335.684	398.75
335.912	384.75
336.14	401.75
336.369	402.75
336.597	413.75
336.825	406.75
337.053	394.75
337.281	390.75
337.51	390.75
337.738	393.75
337.966	391.75
338.194	406.75
338.422	406.75
338.65	414.75
338.878	380.75
339.106	378.75
339.334	406.75
339.562	387.75
339.79	393.75
340.018	398.75
340.246	389.75
340.474	390.75
340.702	391.75
340.93	381.75
341.158	378.75
341.386	381.75
341.614	405.75
341.842	390.75
342.07	374.75
342.298	370.75
342.526	376.75
342.754	370.75
342.981	375.75
343.209	356.75
343.437	371.75
343.665	386.75
343.893	396.75
344.12	415.75
344.348	410.75
344.576	417.75
344.804	412.75
345.031	416.75
345.259	415.75
345.487	398.75
345.714	372.75
345.942	386.75
346.17	360.75
346.397	388.75
346.625	380.75
346.853	387.75
347.08	381.75
347.308	376.75
347.535	360.75
347.763	380.75
347.99	372.75
348.218	390.75
348.445	390.75
348.673	381.75
348.9	374.75
349.128	354.75
349.355	380.75
349.583	378.75
349.81	371.75
350.037	364.75
350.265	360.75
350.492	371.75
350.72	359.75
350.947	354.75
351.174	343.75
351.402	364.75
351.629	382.75
351.856	398.75
352.083	399.75
352.311	394.75
352.538	395.75
352.765	380.75
352.992	349.75
353.22	372.75
353.447	372.75
353.674	375.75
353.901	350.75
354.128	361.75
354.355	359.75
354.583	379.75
354.81	372.75
355.037	362.75
355.264	357.75
355.491	348.75
355.718	362.75
355.945	349.75
356.172	370.75
356.399	362.75
356.626	340.75
356.853	356.75
357.08	364.75
357.307	366.75
357.534	377.75
357.761	359.75
357.988	355.75
358.215	360.75
358.441	349.75
358.668	363.75
358.895	355.75
359.122	362.75
359.349	384.75
359.576	378.75
359.802	381.75
360.029	395.75
360.256	407.75
360.483	418.75
360.709	387.75
360.936	371.75
361.163	368.75
361.39	388.75
361.616	396.75
361.843	377.75
362.07	383.75
362.296	390.75
362.523	389.75
362.749	367.75
362.976	371.75
363.203	370.75
363.429	377.75
363.656	385.75
363.882	367.75
364.109	386.75
364.335	349.75
364.562	365.75
364.788	370.75
365.015	383.75
365.241	365.75
365.468	365.75
365.694	367.75
365.92	395.75
366.147	357.75
366.373	374.75
366.599	358.75
366.826	361.75
367.052	344.75
367.278	377.75
367.505	364.75
367.731	378.75
367.957	372.75
368.184	376.75
368.41	393.75
368.636	391.75
368.862	381.75
369.089	366.75
369.315	378.75
369.541	379.75
369.767	381.75
369.993	392.75
370.219	374.75
370.445	373.75
370.672	382.75
370.898	374.75
371.124	378.75
371.35	387.75
371.576	366.75
371.802	384.75
372.028	374.75
372.254	378.75
372.48	384.75
372.706	401.75
372.932	384.75
373.158	404.75
373.384	398.75
373.61	388.75
373.835	376.75
374.061	394.75
374.287	400.75
374.513	418.75
374.739	379.75
374.965	401.75
375.191	384.75
375.416	400.75
375.642	398.75
375.868	382.75
376.094	379.75
376.319	389.75
376.545	388.75
376.771	376.75
376.997	375.75
377.222	365.75
377.448	380.75
377.674	372.75
377.899	380.75
378.125	403.75
378.35	370.75
378.576	385.75
378.802	374.75
379.027	360.75
379.253	363.75
379.478	373.75
379.704	364.75
379.929	390.75
380.155	380.75
380.38	390.75
380.606	390.75
380.831	366.75
381.057	391.75
381.282	383.75
381.507	410.75
381.733	388.75
381.958	402.75
382.184	405.75
382.409	407.75
382.634	393.75
382.86	404.75
383.085	403.75
383.31	404.75
383.535	413.75
383.761	420.75
383.986	410.75
384.211	423.75
384.436	416.75
384.662	423.75
384.887	414.75
385.112	414.75
385.337	426.75
385.562	400.75
385.787	432.75
386.013	440.75
386.238	437.75
386.463	443.75
386.688	449.75
386.913	422.75
387.138	411.75
387.363	431.75
387.588	414.75
387.813	412.75
388.038	413.75
388.263	437.75
388.488	441.75
388.713	441.75
388.938	430.75
389.163	444.75
389.387	432.75
389.612	422.75
389.837	426.75
390.062	428.75
390.287	434.75
390.512	446.75
390.736	433.75
390.961	429.75
391.186	420.75
391.411	408.75
391.636	447.75
391.86	455.75
392.085	446.75
392.31	462.75
392.534	442.75
392.759	457.75
392.984	484.75
393.208	510.75
393.433	604.75
393.658	657.75
393.882	487.75
394.107	454.75
394.331	437.75
394.556	450.75
394.78	447.75
395.005	434.75
395.229	450.75
395.454	444.75
395.678	453.75
395.903	460.75
396.127	473.75
396.352	502.75
396.576	501.75
396.801	542.75
397.025	596.75
397.249	556.75
397.474	485.75
397.698	484.75
397.922	480.75
398.147	490.75
398.371	494.75
398.595	480.75
398.82	499.75
399.044	499.75
399.268	526.75
399.492	543.75
399.717	563.75
399.941	581.75
400.165	592.75
400.389	601.75
400.613	557.75
400.837	515.75
401.062	495.75
401.286	506.75
401.51	482.75
401.734	503.75
401.958	495.75
402.182	516.75
402.406	494.75
402.63	524.75
402.854	529.75
403.078	494.75
403.302	522.75
403.526	489.75
403.75	512.75
403.974	514.75
404.198	514.75
404.422	537.75
404.645	515.75
404.869	539.75
405.093	524.75
405.317	558.75
405.541	600.75
405.765	559.75
405.988	526.75
406.212	542.75
406.436	558.75
406.66	550.75
406.883	550.75
407.107	559.75
407.331	605.75
407.555	657.75
407.778	661.75
408.002	605.75
408.226	570.75
408.449	587.75
408.673	583.75
408.896	574.75
409.12	628.75
409.344	575.75
409.567	504.75
409.791	549.75
410.014	511.75
410.238	539.75
410.461	542.75
410.685	528.75
410.908	532.75
411.132	542.75
411.355	577.75
411.578	550.75
411.802	540.75
412.025	530.75
412.249	532.75
412.472	522.75
412.695	550.75
412.919	540.75
413.142	523.75
413.365	511.75
413.589	508.75
413.812	494.75
414.035	481.75
414.258	503.75
414.482	487.75
414.705	487.75
414.928	486.75
415.151	499.75
415.374	488.75
415.597	491.75
415.821	493.75
416.044	504.75
416.267	495.75
416.49	491.75
416.713	461.75
416.936	507.75
417.159	477.75
417.382	484.75
417.605	471.75
417.828	501.75
418.051	500.75
418.274	500.75
418.497	464.75
418.72	488.75
418.943	489.75
419.166	514.75
419.389	511.75
419.611	500.75
419.834	522.75
420.057	506.75
420.28	484.75
420.503	485.75
420.726	477.75
420.948	494.75
421.171	505.75
421.394	565.75
421.617	515.75
421.839	515.75
422.062	495.75
422.285	480.75
422.507	573.75
422.73	616.75
422.953	618.75
423.175	544.75
423.398	529.75
423.621	502.75
423.843	532.75
424.066	528.75
424.288	527.75
424.511	540.75
424.733	572.75
424.956	629.75
425.178	622.75
425.401	594.75
425.623	618.75
425.846	565.75
426.068	538.75
426.291	506.75
426.513	524.75
426.735	524.75
426.958	558.75
427.18	611.75
427.402	718.75
427.625	824.75
427.847	703.75
428.069	592.75
428.292	558.75
428.514	517.75
428.736	510.75
428.958	525.75
429.181	474.75
429.403	480.75
429.625	484.75
429.847	523.75
430.069	575.75
430.292	571.75
430.514	516.75
430.736	490.75
430.958	487.75
431.18	480.75
431.402	471.75
431.624	478.75
431.846	459.75
432.068	474.75
432.29	491.75
432.512	478.75
432.734	487.75
432.956	489.75
433.178	493.75
433.4	495.75
433.622	473.75
433.844	471.75
434.066	469.75
434.287	458.75
434.509	469.75
434.731	489.75
434.953	489.75
435.175	492.75
435.397	534.75
435.618	528.75
435.84	555.75
436.062	628.75
436.284	686.75
436.505	574.75
436.727	518.75
436.949	507.75
437.17	513.75
437.392	511.75
437.614	468.75
437.835	508.75
438.057	600.75
438.278	653.75
438.5	678.75
438.721	723.75
438.943	698.75
439.165	578.75
439.386	527.75
439.608	523.75
439.829	511.75
440.05	539.75
440.272	592.75
440.493	550.75
440.715	526.75
440.936	499.75
441.158	482.75
441.379	490.75
441.6	498.75
441.822	516.75
442.043	563.75
442.264	614.75
442.486	622.75
442.707	552.75
442.928	538.75
443.149	527.75
443.371	536.75
443.592	592.75
443.813	664.75
444.034	713.75
444.255	623.75
444.476	576.75
444.698	544.75
444.919	528.75
445.14	671.75
445.361	582.75
445.582	577.75
445.803	624.75
446.024	663.75
446.245	675.75
446.466	639.75
446.687	552.75
446.908	512.75
447.129	484.75
447.35	482.75
447.571	492.75
447.792	480.75
448.013	465.75
448.234	505.75
448.455	523.75
448.675	616.75
448.896	719.75
449.117	608.75
449.338	581.75
449.559	687.75
449.779	761.75
450	618.75
450.221	511.75
450.442	490.75
450.662	482.75
450.883	471.75
451.104	502.75
451.324	470.75
451.545	455.75
451.766	450.75
451.986	442.75
452.207	429.75
452.428	438.75
452.648	422.75
452.869	451.75
453.089	433.75
453.31	462.75
453.53	436.75
453.751	432.75
453.971	463.75
454.192	443.75
454.412	445.75
454.633	445.75
454.853	450.75
455.073	457.75
455.294	455.75
455.514	504.75
455.734	493.75
455.955	442.75
456.175	415.75
456.395	431.75
456.616	425.75
456.836	412.75
457.056	420.75
457.276	437.75
457.497	426.75
457.717	432.75
457.937	435.75
458.157	437.75
458.377	444.75
458.598	468.75
458.818	490.75
459.038	560.75
459.258	572.75
459.478	521.75
459.698	516.75
459.918	483.75
460.138	510.75
460.358	502.75
460.578	511.75
460.798	519.75
461.018	504.75
461.238	514.75
461.458	512.75
461.678	502.75
461.898	509.75
462.118	501.75
462.338	547.75
462.558	520.75
462.777	544.75
462.997	554.75
463.217	562.75
463.437	556.75
463.657	529.75
463.876	541.75
464.096	552.75
464.316	548.75
464.536	524.75
464.755	523.75
464.975	554.75
465.195	572.75
465.414	607.75
465.634	576.75
465.854	526.75
466.073	518.75
466.293	486.75
466.512	482.75
466.732	461.75
466.951	476.75
467.171	464.75
467.391	472.75
467.61	464.75
467.829	479.75
468.049	479.75
468.268	477.75
468.488	468.75
468.707	479.75
468.927	456.75
469.146	440.75
469.365	460.75
469.585	468.75
469.804	492.75
470.023	477.75
470.243	482.75
470.462	482.75
470.681	506.75
470.901	495.75
471.12	488.75
471.339	471.75
471.558	471.75
471.777	463.75
471.997	466.75
472.216	469.75
472.435	488.75
472.654	480.75
472.873	467.75
473.092	471.75
473.311	466.75
473.53	473.75
473.749	471.75
473.968	506.75
474.187	567.75
474.406	605.75
474.625	527.75
474.844	468.75
475.063	502.75
475.282	474.75
475.501	487.75
475.72	501.75
475.939	512.75
476.158	493.75
476.377	510.75
476.596	484.75
476.814	506.75
477.033	498.75
477.252	510.75
477.471	514.75
477.69	494.75
477.908	506.75
478.127	521.75
478.346	526.75
478.564	525.75
478.783	552.75
479.002	563.75
479.22	544.75
479.439	549.75
479.658	582.75
479.876	560.75
480.095	580.75
480.313	607.75
480.532	600.75
480.751	586.75
480.969	583.75
481.188	602.75
481.406	649.75
481.624	599.75
481.843	573.75
482.061	564.75
482.28	576.75
482.498	577.75
482.717	557.75
482.935	560.75
483.153	571.75
483.372	551.75
483.59	563.75
483.808	566.75
484.027	538.75
484.245	583.75
484.463	585.75
484.681	569.75
484.9	551.75
485.118	574.75
485.336	603.75
485.554	564.75
485.772	578.75
485.99	595.75
486.209	570.75
486.427	595.75
486.645	582.75
486.863	599.75
487.081	622.75
487.299	590.75
487.517	600.75
487.735	607.75
487.953	588.75
488.171	590.75
488.389	604.75
488.607	588.75
488.825	597.75
489.043	606.75
489.261	594.75
489.479	592.75
489.696	606.75
489.914	612.75
490.132	607.75
490.35	628.75
490.568	584.75
490.786	623.75
491.003	612.75
491.221	643.75
491.439	649.75
491.657	645.75
491.874	622.75
492.092	652.75
492.31	674.75
492.527	633.75
492.745	638.75
492.963	655.75
493.18	671.75
493.398	662.75
493.615	671.75
493.833	696.75
494.05	666.75
494.268	663.75
494.485	663.75
494.703	654.75
494.92	670.75
495.138	660.75
495.355	666.75
495.573	695.75
495.79	703.75
496.008	706.75
496.225	698.75
496.442	694.75
496.66	678.75
496.877	700.75
497.094	710.75
497.312	696.75
497.529	702.75
497.746	741.75
497.963	740.75
498.181	765.75
498.398	756.75
498.615	800.75
498.832	795.75
499.049	822.75
499.267	852.75
499.484	875.75
499.701	921.75
499.918	944.75
500.135	981.75
500.352	1018.75
500.569	1048.75
500.786	1016.75
501.003	1014.75
501.22	980.75
501.437	949.75
501.654	941.75
501.871	906.75
502.088	879.75
502.305	847.75
502.522	832.75
502.739	819.75
502.956	797.75
503.172	766.75
503.389	751.75
503.606	778.75
503.823	748.75
504.04	743.75
504.256	730.75
504.473	719.75
504.69	735.75
504.907	731.75
505.123	707.75
505.34	678.75
505.557	673.75
505.773	679.75
505.99	668.75
506.207	670.75
506.423	660.75
506.64	649.75
506.856	642.75
507.073	651.75
507.289	674.75
507.506	640.75
507.722	637.75
507.939	645.75
508.155	629.75
508.372	628.75
508.588	636.75
508.805	614.75
509.021	635.75
509.238	638.75
509.454	632.75
509.67	606.75
509.887	611.75
510.103	594.75
510.319	617.75
510.536	658.75
510.752	1080.75
510.968	888.75
511.184	639.75
511.401	622.75
511.617	598.75
511.833	607.75
512.049	585.75
512.265	590.75
512.481	611.75
512.698	589.75
512.914	563.75
513.13	583.75
513.346	559.75
513.562	587.75
513.778	592.75
513.994	594.75
514.21	606.75
514.426	617.75
514.642	653.75
514.858	677.75
515.074	709.75
515.29	802.75
515.506	1092.75
515.721	958.75
515.937	687.75
516.153	664.75
516.369	638.75
516.585	640.75
516.801	634.75
517.016	616.75
517.232	615.75
517.448	649.75
517.664	643.75
517.879	642.75
518.095	640.75
518.311	636.75
518.527	612.75
518.742	639.75
518.958	608.75
519.173	623.75
519.389	609.75
519.605	621.75
519.82	611.75
520.036	614.75
520.251	623.75
520.467	641.75
520.682	622.75
520.898	638.75
521.113	634.75
521.329	670.75
521.544	722.75
521.76	893.75
521.975	1342.75
522.19	1363.75
522.406	837.75
522.621	678.75
522.836	606.75
523.052	598.75
523.267	582.75
523.482	589.75
523.698	566.75
523.913	563.75
524.128	554.75
524.343	543.75
524.559	564.75
524.774	560.75
524.989	542.75
525.204	531.75
525.419	538.75
525.634	546.75
525.849	549.75
526.064	534.75
526.28	531.75
526.495	522.75
526.71	539.75
526.925	507.75
527.14	507.75
527.355	500.75
527.57	524.75
527.785	498.75
527.999	516.75
528.214	512.75
528.429	518.75
528.644	524.75
528.859	498.75
529.074	489.75
529.289	546.75
529.503	567.75
529.718	568.75
529.933	561.75
530.148	512.75
530.363	498.75
530.577	493.75
530.792	515.75
531.007	495.75
531.221	492.75
531.436	495.75
531.651	508.75
531.865	486.75
532.08	498.75
532.295	510.75
532.509	484.75
532.724	502.75
532.938	484.75
533.153	508.75
533.367	491.75
533.582	496.75
533.796	491.75
534.011	478.75
534.225	486.75
534.44	466.75
534.654	499.75
534.868	514.75
535.083	505.75
535.297	479.75
535.511	506.75
535.726	484.75
535.94	498.75
536.154	496.75
536.369	467.75
536.583	477.75
536.797	516.75
537.011	483.75
537.225	482.75
537.44	490.75
537.654	489.75
537.868	482.75
538.082	480.75
538.296	473.75
538.51	493.75
538.724	480.75
538.938	474.75
539.153	461.75
539.367	489.75
539.581	501.75
539.795	463.75
540.009	463.75
540.222	482.75
540.436	464.75
540.65	462.75
540.864	490.75
541.078	481.75
541.292	451.75
541.506	475.75
541.72	479.75
541.934	450.75
542.147	482.75
542.361	444.75
542.575	473.75
542.789	490.75
543.002	452.75
543.216	477.75
543.43	485.75
543.644	470.75
543.857	479.75
544.071	478.75
544.285	483.75
544.498	461.75
544.712	447.75
544.925	448.75
545.139	486.75
545.352	459.75
545.566	439.75
545.779	454.75
545.993	480.75
546.206	463.75
546.42	496.75
546.633	468.75
546.847	464.75
547.06	463.75
547.274	478.75
547.487	460.75
547.7	442.75
547.914	466.75
548.127	473.75
548.34	441.75
548.554	471.75
548.767	470.75
548.98	458.75
549.193	484.75
549.407	465.75
549.62	472.75
549.833	470.75
550.046	463.75
550.259	463.75
550.473	438.75
550.686	472.75
550.899	438.75
551.112	448.75
551.325	458.75
551.538	466.75
551.751	464.75
551.964	450.75
552.177	467.75
552.39	456.75
552.603	470.75
552.816	459.75
553.029	464.75
553.242	484.75
553.455	481.75
553.667	470.75
553.88	484.75
554.093	471.75
554.306	455.75
554.519	443.75
554.732	468.75
554.944	453.75
555.157	429.75
555.37	456.75
555.583	440.75
555.795	445.75
556.008	425.75
556.221	427.75
556.433	445.75
556.646	435.75
556.859	422.75
557.071	426.75
557.284	430.75
557.496	413.75
557.709	448.75
557.921	434.75
558.134	429.75
558.346	431.75
558.559	426.75
558.771	424.75
558.984	434.75
559.196	436.75
559.409	432.75
559.621	425.75
559.833	441.75
560.046	417.75
560.258	418.75
560.47	419.75
560.683	413.75
560.895	420.75
561.107	424.75
561.32	395.75
561.532	403.75
561.744	410.75
561.956	419.75
562.168	431.75
562.381	420.75
562.593	424.75
562.805	431.75
563.017	414.75
563.229	420.75
563.441	432.75
563.653	430.75
563.865	432.75
564.077	419.75
564.289	421.75
564.501	431.75
564.713	462.75
564.925	444.75
565.137	437.75
565.349	462.75
565.561	472.75
565.773	465.75
565.985	456.75
566.197	478.75
566.408	512.75
566.62	504.75
566.832	526.75
567.044	532.75
567.255	516.75
567.467	540.75
567.679	551.75
567.891	557.75
568.102	550.75
568.314	525.75
568.526	524.75
568.737	492.75
568.949	473.75
569.161	459.75
569.372	439.75
569.584	477.75
569.795	445.75
570.007	462.75
570.218	459.75
570.43	453.75
570.641	426.75
570.853	402.75
571.064	432.75
571.276	434.75
571.487	406.75
571.698	428.75
571.91	390.75
572.121	391.75
572.333	390.75
572.544	377.75
572.755	380.75
572.966	375.75
573.178	384.75
573.389	373.75
573.6	374.75
573.811	366.75
574.023	380.75
574.234	380.75
574.445	374.75
574.656	365.75
574.867	369.75
575.078	389.75
575.289	361.75
575.501	376.75
575.712	356.75
575.923	381.75
576.134	362.75
576.345	376.75
576.556	360.75
576.767	361.75
576.978	362.75
577.188	378.75
577.399	343.75
577.61	360.75
577.821	375.75
578.032	350.75
578.243	380.75
578.454	567.75
578.665	446.75
578.875	356.75
579.086	345.75
579.297	354.75
579.508	340.75
579.718	338.75
579.929	325.75
580.14	340.75
580.35	331.75
580.561	328.75
580.772	349.75
580.982	326.75
581.193	346.75
581.403	345.75
581.614	340.75
581.825	331.75
582.035	320.75
582.246	328.75
582.456	341.75
582.667	335.75
582.877	317.75
583.087	339.75
583.298	327.75
583.508	340.75
583.719	337.75
583.929	336.75
584.139	336.75
584.35	338.75
584.56	323.75
584.77	335.75
584.981	337.75
585.191	323.75
585.401	315.75
585.611	315.75
585.821	317.75
586.032	336.75
586.242	344.75
586.452	352.75
586.662	332.75
586.872	328.75
587.082	330.75
587.292	314.75
587.502	321.75
587.713	313.75
587.923	303.75
588.133	320.75
588.343	318.75
588.553	337.75
588.762	316.75
588.972	326.75
589.182	363.75
589.392	367.75
589.602	345.75
589.812	362.75
590.022	338.75
590.232	330.75
590.441	310.75
590.651	328.75
590.861	322.75
591.071	340.75
591.281	316.75
591.49	338.75
591.7	333.75
591.91	326.75
592.119	336.75
592.329	324.75
592.539	337.75
592.748	335.75
592.958	337.75
593.167	334.75
593.377	328.75
593.587	373.75
593.796	360.75
594.006	336.75
594.215	345.75
594.424	352.75
594.634	335.75
594.843	335.75
595.053	340.75
595.262	323.75
595.472	327.75
595.681	312.75
595.89	320.75
596.1	308.75
596.309	306.75
596.518	301.75
596.727	314.75
596.937	323.75
597.146	315.75
597.355	315.75
597.564	316.75
597.774	286.75
597.983	285.75
598.192	295.75
598.401	274.75
598.61	295.75
598.819	304.75
599.028	286.75
599.237	285.75
599.446	286.75
599.655	295.75
599.864	295.75
600.073	288.75
600.282	287.75
600.491	293.75
600.7	297.75
600.909	288.75
601.118	275.75
601.327	273.75
601.536	288.75
601.745	280.75
601.953	267.75
602.162	280.75
602.371	291.75
602.58	294.75
602.789	278.75
602.997	274.75
603.206	287.75
603.415	256.75
603.623	270.75
603.832	275.75
604.041	250.75
604.249	271.75
604.458	264.75
604.666	279.75
604.875	277.75
605.084	269.75
605.292	282.75
605.501	261.75
605.709	264.75
605.918	267.75
606.126	267.75
606.334	278.75
606.543	271.75
606.751	246.75
606.96	266.75
607.168	270.75
607.376	258.75
607.585	274.75
607.793	280.75
608.001	255.75
608.21	266.75
608.418	268.75
608.626	270.75
608.834	262.75
609.043	268.75
609.251	272.75
609.459	267.75
609.667	273.75
609.875	258.75
610.083	267.75
610.291	260.75
610.499	271.75
610.707	247.75
610.916	260.75
611.124	282.75
611.332	285.75
611.54	291.75
611.748	262.75
611.955	245.75
612.163	246.75
612.371	281.75
612.579	260.75
612.787	260.75
612.995	252.75
613.203	262.75
613.411	251.75
613.618	268.75
613.826	270.75
614.034	264.75
614.242	260.75
614.449	247.75
614.657	235.75
614.865	262.75
615.072	261.75
615.28	257.75
615.488	259.75
615.695	251.75
615.903	253.75
616.111	263.75
616.318	263.75
616.526	264.75
616.733	262.75
616.941	234.75
617.148	242.75
617.356	254.75
617.563	267.75
617.771	267.75
617.978	256.75
618.185	268.75
618.393	237.75
618.6	243.75
618.807	255.75
619.015	246.75
619.222	240.75
619.429	243.75
619.637	246.75
619.844	245.75
620.051	254.75
620.258	269.75
620.466	249.75
620.673	245.75
620.88	237.75
621.087	225.75
621.294	256.75
621.501	233.75
621.708	230.75
621.915	224.75
622.122	234.75
622.329	236.75
622.536	215.75
622.743	252.75
622.95	237.75
623.157	227.75
623.364	242.75
623.571	243.75
623.778	220.75
623.985	231.75
624.192	228.75
624.399	222.75
624.606	237.75
624.812	253.75
625.019	220.75
625.226	197.75
625.433	225.75
625.639	221.75
625.846	218.75
626.053	207.75
626.259	223.75
626.466	238.75
626.673	236.75
626.879	216.75
627.086	225.75
627.293	230.75
627.499	220.75
627.706	212.75
627.912	222.75
628.119	228.75
628.325	221.75
628.532	206.75
628.738	211.75
628.945	227.75
629.151	204.75
629.357	206.75
629.564	206.75
629.77	190.75
629.976	212.75
630.183	219.75
630.389	223.75
630.595	220.75
630.802	220.75
631.008	227.75
631.214	200.75
631.42	198.75
631.627	213.75
631.833	221.75
632.039	211.75
632.245	200.75
632.451	216.75
632.657	218.75
632.863	194.75
633.069	198.75
633.275	212.75
633.481	194.75
633.688	195.75
633.893	195.75
634.099	213.75
634.305	180.75
634.511	211.75
634.717	197.75
634.923	218.75
635.129	222.75
635.335	201.75
635.541	206.75
635.747	207.75
635.952	202.75
636.158	199.75
636.364	194.75
636.57	189.75
636.775	207.75
636.981	205.75
637.187	196.75
637.392	188.75
637.598	188.75
637.804	202.75
638.009	189.75
638.215	191.75
638.421	196.75
638.626	187.75
638.832	203.75
639.037	184.75
639.243	194.75
639.448	190.75
639.654	178.75
639.859	186.75
640.065	173.75
640.27	201.75
640.475	189.75
640.681	182.75
640.886	208.75
641.091	198.75
641.297	195.75
641.502	183.75
641.707	175.75
641.913	181.75
642.118	202.75
642.323	196.75
642.528	191.75
642.733	174.75
642.939	171.75
643.144	173.75
643.349	175.75
643.554	182.75
643.759	202.75
643.964	171.75
644.169	197.75
644.374	193.75
644.579	183.75
644.784	182.75
644.989	194.75
645.194	174.75
645.399	168.75
645.604	195.75
645.809	189.75
646.014	183.75
646.219	185.75
646.423	185.75
646.628	176.75
646.833	202.75
647.038	174.75
647.243	176.75
647.447	178.75
647.652	175.75
647.857	180.75
648.062	168.75
648.266	172.75
648.471	190.75
648.676	184.75
648.88	202.75
649.085	180.75
649.289	186.75
649.494	179.75
649.698	199.75
649.903	188.75
650.107	178.75
650.312	170.75
650.516	172.75
650.721	187.75
650.925	179.75
651.13	171.75
651.334	164.75
651.539	179.75
651.743	158.75
651.947	153.75
652.152	184.75
652.356	170.75
652.56	147.75
652.764	156.75
652.969	159.75
653.173	152.75
653.377	154.75
653.581	151.75
653.785	166.75
653.99	151.75
654.194	148.75
654.398	153.75
654.602	153.75
654.806	166.75
655.01	163.75
655.214	161.75
655.418	175.75
655.622	158.75
655.826	163.75
656.03	143.75
656.234	152.75
656.438	148.75
656.642	152.75
656.846	158.75
657.049	146.75
657.253	149.75
657.457	145.75
657.661	152.75
657.865	121.75
658.068	119.75
658.272	109.75
658.476	126.75
658.68	114.75
658.883	106.75
659.087	111.75
659.291	132.75
659.494	103.75
659.698	111.75
659.901	87.75
660.105	104.75
660.309	96.75
660.512	101.75
660.716	102.75
660.919	105.75
661.123	102.75
661.326	91.75
661.53	89.75
661.733	80.75
661.936	87.75
662.14	102.75
662.343	100.75
662.546	89.75
662.75	96.75
662.953	110.75
663.156	89.75
663.36	76.75
663.563	93.75
663.766	86.75
663.969	86.75
664.173	84.75
664.376	86.75
664.579	86.75
664.782	87.75
664.985	79.75
665.188	81.75
665.391	90.75
665.594	89.75
665.797	65.75
666	93.75
666.203	82.75
666.406	91.75
666.609	86.75
666.812	104.75
667.015	85.75
667.218	99.75
667.421	76.75
667.624	79.75
667.827	79.75
668.03	85.75
668.232	82.75
668.435	93.75
668.638	77.75
668.841	74.75
669.043	89.75
669.246	86.75
669.449	96.75
669.651	74.75
669.854	79.75
670.057	83.75
670.259	85.75
670.462	83.75
670.665	85.75
670.867	91.75
671.07	80.75
671.272	94.75
671.475	86.75
671.677	79.75
671.88	86.75
672.082	95.75
672.284	81.75
672.487	81.75
672.689	83.75
672.892	80.75
