Data from 1978.PennyLincolnUp.Lamp.En5.5.200Scan.071719.P1_HRD10591_16-12-34-866.txt Node
Date: Thu Jul 18 16:12:34 EDT 2019
User: cochatt
Spectrometer: HR+D1059
Trigger mode: 1
Integration Time (sec): 1.000000E-1
Scans to average: 1
Electric dark correction enabled: true
Nonlinearity correction enabled: false
Boxcar width: 0
XAxis mode: Wavelengths
Number of Pixels in Spectrum: 2048
>>>>>Begin Spectral Data<<<<<
223.165	-28.62
223.4	-28.62
223.635	-28.62
223.869	-27.62
224.104	-17.62
224.338	-12.62
224.573	-6.62
224.808	-12.62
225.042	-2.62
225.277	-9.62
225.511	8.38
225.746	1.38
225.98	-4.62
226.215	7.38
226.449	19.38
226.683	22.38
226.918	23.38
227.152	40.38
227.387	51.38
227.621	37.38
227.856	44.38
228.09	48.38
228.324	53.38
228.559	48.38
228.793	80.38
229.027	93.38
229.262	103.38
229.496	102.38
229.73	122.38
229.964	147.38
230.199	126.38
230.433	112.38
230.667	102.38
230.901	110.38
231.136	100.38
231.37	112.38
231.604	103.38
231.838	94.38
232.072	120.38
232.306	122.38
232.541	112.38
232.775	123.38
233.009	99.38
233.243	107.38
233.477	109.38
233.711	127.38
233.945	119.38
234.179	106.38
234.413	140.38
234.647	121.38
234.881	125.38
235.115	127.38
235.349	120.38
235.583	117.38
235.817	123.38
236.051	123.38
236.285	120.38
236.519	131.38
236.753	131.38
236.987	149.38
237.221	173.38
237.455	215.38
237.689	165.38
237.922	141.38
238.156	124.38
238.39	140.38
238.624	129.38
238.858	115.38
239.091	109.38
239.325	128.38
239.559	119.38
239.793	136.38
240.027	126.38
240.26	151.38
240.494	148.38
240.728	147.38
240.961	153.38
241.195	144.38
241.429	136.38
241.662	134.38
241.896	123.38
242.13	134.38
242.363	138.38
242.597	139.38
242.83	140.38
243.064	133.38
243.298	149.38
243.531	125.38
243.765	135.38
243.998	139.38
244.232	147.38
244.465	141.38
244.699	143.38
244.932	135.38
245.166	129.38
245.399	144.38
245.633	140.38
245.866	133.38
246.099	140.38
246.333	158.38
246.566	161.38
246.8	148.38
247.033	163.38
247.266	132.38
247.5	142.38
247.733	163.38
247.966	163.38
248.2	158.38
248.433	163.38
248.666	164.38
248.899	188.38
249.133	176.38
249.366	211.38
249.599	204.38
249.832	182.38
250.066	174.38
250.299	168.38
250.532	170.38
250.765	189.38
250.998	195.38
251.231	192.38
251.465	189.38
251.698	189.38
251.931	191.38
252.164	165.38
252.397	205.38
252.63	183.38
252.863	203.38
253.096	187.38
253.329	221.38
253.562	213.38
253.795	191.38
254.028	205.38
254.261	203.38
254.494	230.38
254.727	224.38
254.96	247.38
255.193	250.38
255.426	231.38
255.659	210.38
255.892	227.38
256.124	205.38
256.357	214.38
256.59	203.38
256.823	202.38
257.056	192.38
257.289	210.38
257.521	191.38
257.754	210.38
257.987	192.38
258.22	191.38
258.452	187.38
258.685	184.38
258.918	186.38
259.151	192.38
259.383	190.38
259.616	208.38
259.849	209.38
260.081	223.38
260.314	235.38
260.547	245.38
260.779	228.38
261.012	219.38
261.244	208.38
261.477	203.38
261.71	193.38
261.942	205.38
262.175	223.38
262.407	225.38
262.64	209.38
262.872	210.38
263.105	193.38
263.337	213.38
263.57	210.38
263.802	176.38
264.035	205.38
264.267	197.38
264.499	210.38
264.732	210.38
264.964	203.38
265.197	197.38
265.429	198.38
265.661	205.38
265.894	206.38
266.126	218.38
266.358	207.38
266.591	209.38
266.823	206.38
267.055	201.38
267.287	201.38
267.52	224.38
267.752	214.38
267.984	213.38
268.216	219.38
268.448	215.38
268.681	226.38
268.913	234.38
269.145	236.38
269.377	244.38
269.609	259.38
269.841	246.38
270.073	247.38
270.306	283.38
270.538	287.38
270.77	285.38
271.002	273.38
271.234	273.38
271.466	274.38
271.698	285.38
271.93	292.38
272.162	282.38
272.394	288.38
272.626	266.38
272.858	257.38
273.09	238.38
273.322	240.38
273.553	242.38
273.785	248.38
274.017	261.38
274.249	236.38
274.481	227.38
274.713	236.38
274.945	272.38
275.176	244.38
275.408	247.38
275.64	254.38
275.872	248.38
276.104	279.38
276.335	240.38
276.567	275.38
276.799	267.38
277.031	263.38
277.262	280.38
277.494	295.38
277.726	280.38
277.957	281.38
278.189	272.38
278.421	263.38
278.652	270.38
278.884	267.38
279.115	269.38
279.347	261.38
279.579	258.38
279.81	257.38
280.042	248.38
280.273	247.38
280.505	261.38
280.736	273.38
280.968	259.38
281.199	236.38
281.431	272.38
281.662	263.38
281.894	271.38
282.125	270.38
282.356	291.38
282.588	283.38
282.819	288.38
283.051	286.38
283.282	256.38
283.513	256.38
283.745	278.38
283.976	282.38
284.207	267.38
284.439	259.38
284.67	287.38
284.901	272.38
285.132	270.38
285.364	265.38
285.595	267.38
285.826	276.38
286.057	279.38
286.288	271.38
286.52	263.38
286.751	274.38
286.982	268.38
287.213	277.38
287.444	269.38
287.675	285.38
287.906	275.38
288.138	298.38
288.369	280.38
288.6	272.38
288.831	286.38
289.062	278.38
289.293	267.38
289.524	296.38
289.755	303.38
289.986	289.38
290.217	284.38
290.448	287.38
290.679	286.38
290.91	293.38
291.141	285.38
291.371	282.38
291.602	296.38
291.833	256.38
292.064	275.38
292.295	278.38
292.526	273.38
292.757	277.38
292.987	292.38
293.218	287.38
293.449	287.38
293.68	270.38
293.91	286.38
294.141	284.38
294.372	288.38
294.603	291.38
294.833	287.38
295.064	278.38
295.295	284.38
295.525	304.38
295.756	268.38
295.987	282.38
296.217	311.38
296.448	340.38
296.679	299.38
296.909	293.38
297.14	294.38
297.37	299.38
297.601	289.38
297.831	308.38
298.062	297.38
298.292	307.38
298.523	323.38
298.753	312.38
298.984	313.38
299.214	308.38
299.445	304.38
299.675	307.38
299.905	322.38
300.136	311.38
300.366	279.38
300.597	317.38
300.827	315.38
301.057	297.38
301.288	325.38
301.518	313.38
301.748	340.38
301.979	305.38
302.209	329.38
302.439	303.38
302.669	316.38
302.9	315.38
303.13	327.38
303.36	344.38
303.59	314.38
303.82	341.38
304.051	341.38
304.281	343.38
304.511	335.38
304.741	333.38
304.971	312.38
305.201	300.38
305.431	307.38
305.661	326.38
305.891	312.38
306.121	326.38
306.352	342.38
306.582	352.38
306.812	321.38
307.042	320.38
307.272	329.38
307.502	326.38
307.731	339.38
307.961	335.38
308.191	323.38
308.421	323.38
308.651	329.38
308.881	329.38
309.111	337.38
309.341	324.38
309.571	346.38
309.8	343.38
310.03	361.38
310.26	354.38
310.49	358.38
310.72	374.38
310.949	363.38
311.179	373.38
311.409	355.38
311.639	359.38
311.868	359.38
312.098	376.38
312.328	352.38
312.557	391.38
312.787	391.38
313.017	361.38
313.246	381.38
313.476	361.38
313.706	368.38
313.935	375.38
314.165	364.38
314.394	399.38
314.624	389.38
314.853	385.38
315.083	385.38
315.312	374.38
315.542	379.38
315.771	374.38
316.001	371.38
316.23	366.38
316.46	369.38
316.689	356.38
316.919	367.38
317.148	383.38
317.377	381.38
317.607	355.38
317.836	371.38
318.065	369.38
318.295	368.38
318.524	371.38
318.753	357.38
318.983	357.38
319.212	373.38
319.441	373.38
319.67	388.38
319.9	380.38
320.129	377.38
320.358	394.38
320.587	387.38
320.816	374.38
321.046	378.38
321.275	387.38
321.504	390.38
321.733	387.38
321.962	379.38
322.191	403.38
322.42	392.38
322.649	427.38
322.878	429.38
323.108	437.38
323.337	457.38
323.566	475.38
323.795	496.38
324.024	538.38
324.253	637.38
324.482	885.38
324.71	1364.38
324.939	2055.38
325.168	1799.38
325.397	900.38
325.626	619.38
325.855	524.38
326.084	485.38
326.313	481.38
326.542	489.38
326.77	518.38
326.999	616.38
327.228	821.38
327.457	1275.38
327.686	1591.38
327.914	1027.38
328.143	699.38
328.372	580.38
328.6	568.38
328.829	540.38
329.058	535.38
329.287	547.38
329.515	539.38
329.744	502.38
329.972	498.38
330.201	484.38
330.43	519.38
330.658	547.38
330.887	569.38
331.115	558.38
331.344	509.38
331.572	501.38
331.801	471.38
332.03	458.38
332.258	458.38
332.486	444.38
332.715	448.38
332.943	431.38
333.172	449.38
333.4	440.38
333.629	453.38
333.857	472.38
334.085	460.38
334.314	494.38
334.542	506.38
334.771	526.38
334.999	475.38
335.227	487.38
335.455	459.38
335.684	441.38
335.912	442.38
336.14	439.38
336.369	446.38
336.597	462.38
336.825	458.38
337.053	434.38
337.281	436.38
337.51	440.38
337.738	444.38
337.966	434.38
338.194	447.38
338.422	455.38
338.65	431.38
338.878	429.38
339.106	420.38
339.334	439.38
339.562	437.38
339.79	421.38
340.018	423.38
340.246	436.38
340.474	422.38
340.702	427.38
340.93	427.38
341.158	425.38
341.386	413.38
341.614	425.38
341.842	438.38
342.07	415.38
342.298	414.38
342.526	429.38
342.754	411.38
342.981	402.38
343.209	401.38
343.437	423.38
343.665	382.38
343.893	440.38
344.12	459.38
344.348	446.38
344.576	449.38
344.804	449.38
345.031	443.38
345.259	460.38
345.487	450.38
345.714	422.38
345.942	420.38
346.17	416.38
346.397	412.38
346.625	407.38
346.853	427.38
347.08	407.38
347.308	417.38
347.535	421.38
347.763	428.38
347.99	425.38
348.218	415.38
348.445	439.38
348.673	426.38
348.9	409.38
349.128	417.38
349.355	403.38
349.583	414.38
349.81	401.38
350.037	401.38
350.265	422.38
350.492	407.38
350.72	411.38
350.947	418.38
351.174	416.38
351.402	411.38
351.629	416.38
351.856	439.38
352.083	432.38
352.311	419.38
352.538	416.38
352.765	401.38
352.992	409.38
353.22	431.38
353.447	415.38
353.674	390.38
353.901	419.38
354.128	416.38
354.355	405.38
354.583	378.38
354.81	395.38
355.037	405.38
355.264	397.38
355.491	394.38
355.718	400.38
355.945	391.38
356.172	391.38
356.399	390.38
356.626	391.38
356.853	397.38
357.08	392.38
357.307	379.38
357.534	404.38
357.761	392.38
357.988	397.38
358.215	409.38
358.441	403.38
358.668	381.38
358.895	411.38
359.122	396.38
359.349	432.38
359.576	424.38
359.802	428.38
360.029	439.38
360.256	453.38
360.483	454.38
360.709	421.38
360.936	419.38
361.163	425.38
361.39	428.38
361.616	432.38
361.843	409.38
362.07	437.38
362.296	421.38
362.523	442.38
362.749	429.38
362.976	424.38
363.203	407.38
363.429	409.38
363.656	404.38
363.882	407.38
364.109	383.38
364.335	405.38
364.562	394.38
364.788	401.38
365.015	419.38
365.241	405.38
365.468	402.38
365.694	409.38
365.92	415.38
366.147	418.38
366.373	401.38
366.599	389.38
366.826	399.38
367.052	405.38
367.278	397.38
367.505	403.38
367.731	411.38
367.957	397.38
368.184	412.38
368.41	392.38
368.636	415.38
368.862	405.38
369.089	421.38
369.315	402.38
369.541	405.38
369.767	403.38
369.993	402.38
370.219	420.38
370.445	412.38
370.672	421.38
370.898	387.38
371.124	419.38
371.35	435.38
371.576	423.38
371.802	399.38
372.028	410.38
372.254	409.38
372.48	416.38
372.706	419.38
372.932	411.38
373.158	420.38
373.384	434.38
373.61	430.38
373.835	422.38
374.061	400.38
374.287	408.38
374.513	431.38
374.739	425.38
374.965	443.38
375.191	425.38
375.416	429.38
375.642	414.38
375.868	420.38
376.094	425.38
376.319	423.38
376.545	418.38
376.771	413.38
376.997	429.38
377.222	432.38
377.448	413.38
377.674	410.38
377.899	427.38
378.125	407.38
378.35	430.38
378.576	410.38
378.802	396.38
379.027	420.38
379.253	407.38
379.478	413.38
379.704	425.38
379.929	399.38
380.155	393.38
380.38	430.38
380.606	397.38
380.831	430.38
381.057	422.38
381.282	391.38
381.507	410.38
381.733	409.38
381.958	416.38
382.184	419.38
382.409	431.38
382.634	420.38
382.86	409.38
383.085	413.38
383.31	425.38
383.535	440.38
383.761	443.38
383.986	452.38
384.211	450.38
384.436	451.38
384.662	429.38
384.887	453.38
385.112	440.38
385.337	475.38
385.562	451.38
385.787	440.38
386.013	439.38
386.238	479.38
386.463	487.38
386.688	486.38
386.913	457.38
387.138	445.38
387.363	455.38
387.588	459.38
387.813	461.38
388.038	449.38
388.263	474.38
388.488	481.38
388.713	473.38
388.938	455.38
389.163	476.38
389.387	463.38
389.612	447.38
389.837	470.38
390.062	458.38
390.287	456.38
390.512	463.38
390.736	463.38
390.961	454.38
391.186	469.38
391.411	478.38
391.636	448.38
391.86	494.38
392.085	492.38
392.31	463.38
392.534	493.38
392.759	463.38
392.984	500.38
393.208	475.38
393.433	489.38
393.658	472.38
393.882	465.38
394.107	488.38
394.331	482.38
394.556	466.38
394.78	480.38
395.005	494.38
395.229	471.38
395.454	489.38
395.678	503.38
395.903	504.38
396.127	529.38
396.352	524.38
396.576	523.38
396.801	478.38
397.025	491.38
397.249	497.38
397.474	483.38
397.698	485.38
397.922	503.38
398.147	539.38
398.371	529.38
398.595	511.38
398.82	517.38
399.044	526.38
399.268	549.38
399.492	572.38
399.717	611.38
399.941	663.38
400.165	635.38
400.389	688.38
400.613	619.38
400.837	590.38
401.062	583.38
401.286	572.38
401.51	559.38
401.734	545.38
401.958	550.38
402.182	541.38
402.406	552.38
402.63	567.38
402.854	543.38
403.078	553.38
403.302	547.38
403.526	553.38
403.75	558.38
403.974	550.38
404.198	550.38
404.422	569.38
404.645	551.38
404.869	565.38
405.093	606.38
405.317	621.38
405.541	676.38
405.765	632.38
405.988	581.38
406.212	578.38
406.436	607.38
406.66	623.38
406.883	628.38
407.107	640.38
407.331	669.38
407.555	722.38
407.778	716.38
408.002	687.38
408.226	639.38
408.449	629.38
408.673	629.38
408.896	639.38
409.12	681.38
409.344	658.38
409.567	604.38
409.791	583.38
410.014	575.38
410.238	554.38
410.461	561.38
410.685	585.38
410.908	581.38
411.132	595.38
411.355	654.38
411.578	611.38
411.802	586.38
412.025	563.38
412.249	582.38
412.472	594.38
412.695	631.38
412.919	576.38
413.142	569.38
413.365	540.38
413.589	541.38
413.812	535.38
414.035	552.38
414.258	548.38
414.482	542.38
414.705	550.38
414.928	525.38
415.151	533.38
415.374	524.38
415.597	528.38
415.821	521.38
416.044	522.38
416.267	555.38
416.49	537.38
416.713	526.38
416.936	541.38
417.159	537.38
417.382	547.38
417.605	535.38
417.828	545.38
418.051	549.38
418.274	540.38
418.497	500.38
418.72	539.38
418.943	535.38
419.166	541.38
419.389	586.38
419.611	583.38
419.834	569.38
420.057	556.38
420.28	569.38
420.503	584.38
420.726	540.38
420.948	554.38
421.171	620.38
421.394	648.38
421.617	568.38
421.839	545.38
422.062	537.38
422.285	553.38
422.507	633.38
422.73	698.38
422.953	667.38
423.175	592.38
423.398	567.38
423.621	584.38
423.843	589.38
424.066	577.38
424.288	594.38
424.511	603.38
424.733	655.38
424.956	748.38
425.178	703.38
425.401	678.38
425.623	709.38
425.846	618.38
426.068	595.38
426.291	588.38
426.513	603.38
426.735	599.38
426.958	632.38
427.18	697.38
427.402	851.38
427.625	973.38
427.847	819.38
428.069	716.38
428.292	634.38
428.514	595.38
428.736	562.38
428.958	561.38
429.181	553.38
429.403	545.38
429.625	568.38
429.847	585.38
430.069	641.38
430.292	650.38
430.514	596.38
430.736	569.38
430.958	572.38
431.18	541.38
431.402	524.38
431.624	527.38
431.846	533.38
432.068	533.38
432.29	528.38
432.512	512.38
432.734	502.38
432.956	530.38
433.178	545.38
433.4	554.38
433.622	534.38
433.844	528.38
434.066	514.38
434.287	528.38
434.509	529.38
434.731	556.38
434.953	531.38
435.175	578.38
435.397	584.38
435.618	608.38
435.84	629.38
436.062	731.38
436.284	792.38
436.505	667.38
436.727	611.38
436.949	551.38
437.17	545.38
437.392	536.38
437.614	560.38
437.835	602.38
438.057	687.38
438.278	805.38
438.5	795.38
438.721	873.38
438.943	821.38
439.165	665.38
439.386	591.38
439.608	606.38
439.829	593.38
440.05	623.38
440.272	651.38
440.493	617.38
440.715	577.38
440.936	555.38
441.158	564.38
441.379	543.38
441.6	583.38
441.822	575.38
442.043	627.38
442.264	687.38
442.486	750.38
442.707	650.38
442.928	599.38
443.149	599.38
443.371	635.38
443.592	659.38
443.813	778.38
444.034	811.38
444.255	700.38
444.476	615.38
444.698	604.38
444.919	600.38
445.14	694.38
445.361	654.38
445.582	654.38
445.803	684.38
446.024	819.38
446.245	827.38
446.466	739.38
446.687	639.38
446.908	584.38
447.129	563.38
447.35	536.38
447.571	547.38
447.792	547.38
448.013	537.38
448.234	557.38
448.455	613.38
448.675	720.38
448.896	860.38
449.117	723.38
449.338	669.38
449.559	814.38
449.779	913.38
450	728.38
450.221	576.38
450.442	560.38
450.662	537.38
450.883	529.38
451.104	547.38
451.324	526.38
451.545	490.38
451.766	517.38
451.986	476.38
452.207	476.38
452.428	489.38
452.648	487.38
452.869	509.38
453.089	513.38
453.31	504.38
453.53	469.38
453.751	484.38
453.971	490.38
454.192	492.38
454.412	494.38
454.633	475.38
454.853	482.38
455.073	464.38
455.294	504.38
455.514	560.38
455.734	553.38
455.955	495.38
456.175	469.38
456.395	456.38
456.616	481.38
456.836	469.38
457.056	475.38
457.276	447.38
457.497	481.38
457.717	472.38
457.937	495.38
458.157	476.38
458.377	486.38
458.598	488.38
458.818	564.38
459.038	636.38
459.258	640.38
459.478	579.38
459.698	539.38
459.918	540.38
460.138	532.38
460.358	545.38
460.578	530.38
460.798	551.38
461.018	533.38
461.238	545.38
461.458	557.38
461.678	531.38
461.898	559.38
462.118	555.38
462.338	583.38
462.558	555.38
462.777	587.38
462.997	578.38
463.217	591.38
463.437	585.38
463.657	607.38
463.876	563.38
464.096	595.38
464.316	555.38
464.536	599.38
464.755	571.38
464.975	583.38
465.195	593.38
465.414	678.38
465.634	601.38
465.854	574.38
466.073	551.38
466.293	533.38
466.512	513.38
466.732	515.38
466.951	527.38
467.171	527.38
467.391	506.38
467.61	512.38
467.829	530.38
468.049	512.38
468.268	535.38
468.488	492.38
468.707	505.38
468.927	507.38
469.146	488.38
469.365	475.38
469.585	501.38
469.804	524.38
470.023	502.38
470.243	519.38
470.462	529.38
470.681	548.38
470.901	539.38
471.12	526.38
471.339	527.38
471.558	504.38
471.777	499.38
471.997	513.38
472.216	521.38
472.435	524.38
472.654	533.38
472.873	544.38
473.092	530.38
473.311	499.38
473.53	525.38
473.749	507.38
473.968	542.38
474.187	655.38
474.406	672.38
474.625	574.38
474.844	518.38
475.063	503.38
475.282	531.38
475.501	526.38
475.72	526.38
475.939	510.38
476.158	533.38
476.377	542.38
476.596	539.38
476.814	509.38
477.033	538.38
477.252	549.38
477.471	575.38
477.69	571.38
477.908	562.38
478.127	588.38
478.346	571.38
478.564	589.38
478.783	574.38
479.002	593.38
479.22	585.38
479.439	577.38
479.658	632.38
479.876	606.38
480.095	595.38
480.313	654.38
480.532	658.38
480.751	622.38
480.969	637.38
481.188	657.38
481.406	694.38
481.624	649.38
481.843	641.38
482.061	620.38
482.28	620.38
482.498	591.38
482.717	617.38
482.935	612.38
483.153	607.38
483.372	599.38
483.59	607.38
483.808	607.38
484.027	618.38
484.245	604.38
484.463	619.38
484.681	622.38
484.9	585.38
485.118	628.38
485.336	630.38
485.554	640.38
485.772	632.38
485.99	606.38
486.209	635.38
486.427	633.38
486.645	657.38
486.863	638.38
487.081	669.38
487.299	645.38
487.517	629.38
487.735	628.38
487.953	616.38
488.171	641.38
488.389	641.38
488.607	641.38
488.825	640.38
489.043	657.38
489.261	665.38
489.479	663.38
489.696	662.38
489.914	679.38
490.132	645.38
490.35	656.38
490.568	656.38
490.786	674.38
491.003	673.38
491.221	670.38
491.439	706.38
491.657	705.38
491.874	705.38
492.092	721.38
492.31	711.38
492.527	705.38
492.745	729.38
492.963	736.38
493.18	723.38
493.398	753.38
493.615	745.38
493.833	723.38
494.05	739.38
494.268	731.38
494.485	735.38
494.703	734.38
494.92	743.38
495.138	737.38
495.355	747.38
495.573	744.38
495.79	745.38
496.008	750.38
496.225	728.38
496.442	731.38
496.66	768.38
496.877	779.38
497.094	789.38
497.312	795.38
497.529	783.38
497.746	778.38
497.963	815.38
498.181	816.38
498.398	813.38
498.615	867.38
498.832	874.38
499.049	894.38
499.267	906.38
499.484	923.38
499.701	969.38
499.918	1019.38
500.135	1037.38
500.352	1120.38
500.569	1102.38
500.786	1100.38
501.003	1108.38
501.22	1060.38
501.437	1041.38
501.654	1005.38
501.871	985.38
502.088	962.38
502.305	911.38
502.522	881.38
502.739	876.38
502.956	844.38
503.172	844.38
503.389	819.38
503.606	812.38
503.823	811.38
504.04	798.38
504.256	796.38
504.473	794.38
504.69	768.38
504.907	770.38
505.123	766.38
505.34	748.38
505.557	729.38
505.773	732.38
505.99	745.38
506.207	745.38
506.423	733.38
506.64	680.38
506.856	716.38
507.073	682.38
507.289	703.38
507.506	691.38
507.722	697.38
507.939	716.38
508.155	686.38
508.372	669.38
508.588	677.38
508.805	706.38
509.021	661.38
509.238	682.38
509.454	668.38
509.67	695.38
509.887	688.38
510.103	661.38
510.319	670.38
510.536	755.38
510.752	1134.38
510.968	985.38
511.184	711.38
511.401	671.38
511.617	659.38
511.833	646.38
512.049	653.38
512.265	645.38
512.481	654.38
512.698	634.38
512.914	636.38
513.13	654.38
513.346	622.38
513.562	647.38
513.778	646.38
513.994	681.38
514.21	675.38
514.426	638.38
514.642	720.38
514.858	711.38
515.074	753.38
515.29	883.38
515.506	1200.38
515.721	1005.38
515.937	755.38
516.153	711.38
516.369	720.38
516.585	689.38
516.801	674.38
517.016	720.38
517.232	693.38
517.448	674.38
517.664	685.38
517.879	702.38
518.095	711.38
518.311	695.38
518.527	662.38
518.742	640.38
518.958	663.38
519.173	669.38
519.389	663.38
519.605	662.38
519.82	636.38
520.036	672.38
520.251	696.38
520.467	709.38
520.682	707.38
520.898	680.38
521.113	718.38
521.329	744.38
521.544	814.38
521.76	992.38
521.975	1459.38
522.19	1449.38
522.406	895.38
522.621	693.38
522.836	650.38
523.052	633.38
523.267	643.38
523.482	604.38
523.698	608.38
523.913	617.38
524.128	605.38
524.343	589.38
524.559	569.38
524.774	597.38
524.989	571.38
525.204	577.38
525.419	581.38
525.634	575.38
525.849	562.38
526.064	560.38
526.28	565.38
526.495	533.38
526.71	569.38
526.925	559.38
527.14	545.38
527.355	540.38
527.57	565.38
527.785	545.38
527.999	552.38
528.214	551.38
528.429	536.38
528.644	557.38
528.859	539.38
529.074	535.38
529.289	585.38
529.503	618.38
529.718	600.38
529.933	582.38
530.148	545.38
530.363	554.38
530.577	536.38
530.792	547.38
531.007	556.38
531.221	534.38
531.436	524.38
531.651	539.38
531.865	541.38
532.08	515.38
532.295	526.38
532.509	524.38
532.724	508.38
532.938	513.38
533.153	533.38
533.367	517.38
533.582	527.38
533.796	539.38
534.011	525.38
534.225	526.38
534.44	515.38
534.654	524.38
534.868	525.38
535.083	519.38
535.297	525.38
535.511	529.38
535.726	543.38
535.94	525.38
536.154	530.38
536.369	498.38
536.583	529.38
536.797	519.38
537.011	494.38
537.225	499.38
537.44	527.38
537.654	507.38
537.868	487.38
538.082	517.38
538.296	501.38
538.51	531.38
538.724	510.38
538.938	517.38
539.153	507.38
539.367	524.38
539.581	516.38
539.795	500.38
540.009	501.38
540.222	501.38
540.436	518.38
540.65	497.38
540.864	521.38
541.078	505.38
541.292	501.38
541.506	512.38
541.72	490.38
541.934	486.38
542.147	509.38
542.361	501.38
542.575	474.38
542.789	494.38
543.002	493.38
543.216	513.38
543.43	502.38
543.644	491.38
543.857	490.38
544.071	510.38
544.285	520.38
544.498	469.38
544.712	498.38
544.925	496.38
545.139	484.38
545.352	487.38
545.566	506.38
545.779	489.38
545.993	491.38
546.206	488.38
546.42	526.38
546.633	498.38
546.847	494.38
547.06	485.38
547.274	481.38
547.487	479.38
547.7	470.38
547.914	465.38
548.127	479.38
548.34	495.38
548.554	473.38
548.767	500.38
548.98	492.38
549.193	477.38
549.407	468.38
549.62	474.38
549.833	487.38
550.046	480.38
550.259	481.38
550.473	489.38
550.686	478.38
550.899	471.38
551.112	495.38
551.325	473.38
551.538	464.38
551.751	459.38
551.964	474.38
552.177	483.38
552.39	499.38
552.603	498.38
552.816	489.38
553.029	501.38
553.242	503.38
553.455	484.38
553.667	515.38
553.88	503.38
554.093	485.38
554.306	499.38
554.519	489.38
554.732	474.38
554.944	473.38
555.157	456.38
555.37	472.38
555.583	457.38
555.795	466.38
556.008	466.38
556.221	468.38
556.433	463.38
556.646	450.38
556.859	439.38
557.071	440.38
557.284	453.38
557.496	434.38
557.709	451.38
557.921	433.38
558.134	443.38
558.346	435.38
558.559	460.38
558.771	451.38
558.984	448.38
559.196	425.38
559.409	419.38
559.621	433.38
559.833	449.38
560.046	438.38
560.258	415.38
560.47	423.38
560.683	421.38
560.895	447.38
561.107	425.38
561.32	427.38
561.532	450.38
561.744	425.38
561.956	437.38
562.168	438.38
562.381	443.38
562.593	421.38
562.805	437.38
563.017	423.38
563.229	435.38
563.441	422.38
563.653	434.38
563.865	443.38
564.077	422.38
564.289	419.38
564.501	463.38
564.713	467.38
564.925	465.38
565.137	477.38
565.349	479.38
565.561	485.38
565.773	471.38
565.985	478.38
566.197	508.38
566.408	511.38
566.62	507.38
566.832	505.38
567.044	535.38
567.255	538.38
567.467	547.38
567.679	528.38
567.891	578.38
568.102	573.38
568.314	549.38
568.526	524.38
568.737	512.38
568.949	503.38
569.161	478.38
569.372	473.38
569.584	473.38
569.795	468.38
570.007	449.38
570.218	477.38
570.43	464.38
570.641	431.38
570.853	435.38
571.064	427.38
571.276	411.38
571.487	411.38
571.698	417.38
571.91	422.38
572.121	411.38
572.333	421.38
572.544	415.38
572.755	403.38
572.966	388.38
573.178	387.38
573.389	402.38
573.6	387.38
573.811	371.38
574.023	390.38
574.234	395.38
574.445	397.38
574.656	386.38
574.867	390.38
575.078	366.38
575.289	379.38
575.501	385.38
575.712	383.38
575.923	377.38
576.134	384.38
576.345	375.38
576.556	375.38
576.767	352.38
576.978	346.38
577.188	336.38
577.399	375.38
577.61	373.38
577.821	359.38
578.032	365.38
578.243	388.38
578.454	571.38
578.665	445.38
578.875	373.38
579.086	371.38
579.297	372.38
579.508	347.38
579.718	367.38
579.929	342.38
580.14	363.38
580.35	340.38
580.561	356.38
580.772	337.38
580.982	336.38
581.193	346.38
581.403	328.38
581.614	331.38
581.825	343.38
582.035	345.38
582.246	349.38
582.456	351.38
582.667	337.38
582.877	346.38
583.087	332.38
583.298	330.38
583.508	329.38
583.719	338.38
583.929	369.38
584.139	334.38
584.35	332.38
584.56	346.38
584.77	364.38
584.981	352.38
585.191	348.38
585.401	360.38
585.611	333.38
585.821	317.38
586.032	332.38
586.242	325.38
586.452	342.38
586.662	327.38
586.872	326.38
587.082	337.38
587.292	345.38
587.502	320.38
587.713	331.38
587.923	342.38
588.133	313.38
588.343	309.38
588.553	323.38
588.762	314.38
588.972	324.38
589.182	333.38
589.392	329.38
589.602	326.38
589.812	325.38
590.022	345.38
590.232	342.38
590.441	343.38
590.651	326.38
590.861	313.38
591.071	322.38
591.281	342.38
591.49	321.38
591.7	311.38
591.91	327.38
592.119	326.38
592.329	331.38
592.539	344.38
592.748	338.38
592.958	329.38
593.167	358.38
593.377	371.38
593.587	337.38
593.796	349.38
594.006	348.38
594.215	337.38
594.424	329.38
594.634	344.38
594.843	345.38
595.053	334.38
595.262	347.38
595.472	337.38
595.681	332.38
595.89	324.38
596.1	323.38
596.309	302.38
596.518	323.38
596.727	313.38
596.937	320.38
597.146	311.38
597.355	329.38
597.564	293.38
597.774	299.38
597.983	313.38
598.192	285.38
598.401	311.38
598.61	288.38
598.819	281.38
599.028	296.38
599.237	281.38
599.446	289.38
599.655	281.38
599.864	289.38
600.073	269.38
600.282	301.38
600.491	284.38
600.7	289.38
600.909	269.38
601.118	289.38
601.327	293.38
601.536	303.38
601.745	268.38
601.953	291.38
602.162	284.38
602.371	276.38
602.58	285.38
602.789	286.38
602.997	274.38
603.206	285.38
603.415	288.38
603.623	285.38
603.832	261.38
604.041	277.38
604.249	285.38
604.458	288.38
604.666	282.38
604.875	268.38
605.084	268.38
605.292	271.38
605.501	277.38
605.709	266.38
605.918	274.38
606.126	288.38
606.334	269.38
606.543	280.38
606.751	278.38
606.96	245.38
607.168	262.38
607.376	247.38
607.585	278.38
607.793	271.38
608.001	274.38
608.21	273.38
608.418	259.38
608.626	263.38
608.834	272.38
609.043	267.38
609.251	267.38
609.459	265.38
609.667	256.38
609.875	271.38
610.083	266.38
610.291	248.38
610.499	273.38
610.707	271.38
610.916	257.38
611.124	288.38
611.332	274.38
611.54	274.38
611.748	261.38
611.955	264.38
612.163	250.38
612.371	268.38
612.579	270.38
612.787	263.38
612.995	269.38
613.203	269.38
613.411	255.38
613.618	279.38
613.826	272.38
614.034	252.38
614.242	268.38
614.449	263.38
614.657	264.38
614.865	256.38
615.072	249.38
615.28	260.38
615.488	254.38
615.695	253.38
615.903	250.38
616.111	243.38
616.318	291.38
616.526	250.38
616.733	246.38
616.941	243.38
617.148	255.38
617.356	249.38
617.563	256.38
617.771	250.38
617.978	247.38
618.185	254.38
618.393	275.38
618.6	264.38
618.807	252.38
619.015	255.38
619.222	244.38
619.429	251.38
619.637	269.38
619.844	255.38
620.051	248.38
620.258	246.38
620.466	235.38
620.673	237.38
620.88	245.38
621.087	233.38
621.294	236.38
621.501	248.38
621.708	239.38
621.915	250.38
622.122	259.38
622.329	234.38
622.536	263.38
622.743	235.38
622.95	237.38
623.157	239.38
623.364	243.38
623.571	241.38
623.778	243.38
623.985	247.38
624.192	233.38
624.399	249.38
624.606	245.38
624.812	235.38
625.019	214.38
625.226	237.38
625.433	243.38
625.639	231.38
625.846	209.38
626.053	222.38
626.259	223.38
626.466	221.38
626.673	220.38
626.879	210.38
627.086	229.38
627.293	227.38
627.499	216.38
627.706	229.38
627.912	228.38
628.119	223.38
628.325	224.38
628.532	221.38
628.738	215.38
628.945	236.38
629.151	216.38
629.357	214.38
629.564	201.38
629.77	219.38
629.976	206.38
630.183	203.38
630.389	210.38
630.595	206.38
630.802	220.38
631.008	190.38
631.214	211.38
631.42	222.38
631.627	224.38
631.833	211.38
632.039	211.38
632.245	206.38
632.451	218.38
632.657	198.38
632.863	192.38
633.069	202.38
633.275	215.38
633.481	194.38
633.688	204.38
633.893	199.38
634.099	208.38
634.305	191.38
634.511	205.38
634.717	192.38
634.923	194.38
635.129	200.38
635.335	197.38
635.541	185.38
635.747	187.38
635.952	187.38
636.158	184.38
636.364	213.38
636.57	200.38
636.775	203.38
636.981	173.38
637.187	197.38
637.392	191.38
637.598	205.38
637.804	198.38
638.009	217.38
638.215	180.38
638.421	181.38
638.626	186.38
638.832	211.38
639.037	198.38
639.243	175.38
639.448	183.38
639.654	175.38
639.859	175.38
640.065	202.38
640.27	189.38
640.475	175.38
640.681	181.38
640.886	177.38
641.091	185.38
641.297	190.38
641.502	174.38
641.707	190.38
641.913	198.38
642.118	188.38
642.323	195.38
642.528	204.38
642.733	186.38
642.939	181.38
643.144	179.38
643.349	183.38
643.554	175.38
643.759	188.38
643.964	165.38
644.169	170.38
644.374	184.38
644.579	185.38
644.784	189.38
644.989	175.38
645.194	168.38
645.399	171.38
645.604	179.38
645.809	187.38
646.014	174.38
646.219	158.38
646.423	177.38
646.628	176.38
646.833	177.38
647.038	181.38
647.243	188.38
647.447	169.38
647.652	177.38
647.857	176.38
648.062	186.38
648.266	174.38
648.471	190.38
648.676	192.38
648.88	187.38
649.085	179.38
649.289	182.38
649.494	171.38
649.698	212.38
649.903	195.38
650.107	196.38
650.312	189.38
650.516	167.38
650.721	167.38
650.925	168.38
651.13	155.38
651.334	157.38
651.539	151.38
651.743	162.38
651.947	162.38
652.152	163.38
652.356	158.38
652.56	142.38
652.764	165.38
652.969	149.38
653.173	150.38
653.377	133.38
653.581	141.38
653.785	149.38
653.99	156.38
654.194	147.38
654.398	142.38
654.602	133.38
654.806	139.38
655.01	175.38
655.214	141.38
655.418	142.38
655.622	141.38
655.826	136.38
656.03	141.38
656.234	151.38
656.438	135.38
656.642	137.38
656.846	128.38
657.049	132.38
657.253	128.38
657.457	134.38
657.661	120.38
657.865	116.38
658.068	103.38
658.272	115.38
658.476	118.38
658.68	120.38
658.883	112.38
659.087	109.38
659.291	103.38
659.494	105.38
659.698	87.38
659.901	107.38
660.105	99.38
660.309	93.38
660.512	95.38
660.716	105.38
660.919	91.38
661.123	95.38
661.326	99.38
661.53	88.38
661.733	87.38
661.936	100.38
662.14	84.38
662.343	99.38
662.546	93.38
662.75	86.38
662.953	80.38
663.156	80.38
663.36	85.38
663.563	94.38
663.766	77.38
663.969	88.38
664.173	85.38
664.376	83.38
664.579	91.38
664.782	77.38
664.985	85.38
665.188	85.38
665.391	86.38
665.594	98.38
665.797	90.38
666	77.38
666.203	74.38
666.406	72.38
666.609	81.38
666.812	78.38
667.015	68.38
667.218	78.38
667.421	86.38
667.624	84.38
667.827	78.38
668.03	86.38
668.232	94.38
668.435	96.38
668.638	83.38
668.841	82.38
669.043	71.38
669.246	79.38
669.449	91.38
669.651	90.38
669.854	93.38
670.057	89.38
670.259	77.38
670.462	90.38
670.665	76.38
670.867	85.38
671.07	83.38
671.272	75.38
671.475	89.38
671.677	83.38
671.88	91.38
672.082	86.38
672.284	82.38
672.487	80.38
672.689	79.38
672.892	79.38
