Data from 1978.PennyLincolnUp.Lamp.En5.5.200Scan.071719.P1_HRD10591_16-13-01-865.txt Node
Date: Thu Jul 18 16:13:01 EDT 2019
User: cochatt
Spectrometer: HR+D1059
Trigger mode: 1
Integration Time (sec): 1.000000E-1
Scans to average: 1
Electric dark correction enabled: true
Nonlinearity correction enabled: false
Boxcar width: 0
XAxis mode: Wavelengths
Number of Pixels in Spectrum: 2048
>>>>>Begin Spectral Data<<<<<
223.165	-19.06
223.4	-19.06
223.635	-19.06
223.869	-20.06
224.104	-23.06
224.338	-5.06
224.573	-28.06
224.808	-19.06
225.042	-3.06
225.277	-1.06
225.511	5.94
225.746	15.94
225.98	0.94
226.215	16.94
226.449	19.94
226.683	15.94
226.918	17.94
227.152	24.94
227.387	26.94
227.621	25.94
227.856	59.94
228.09	43.94
228.324	35.94
228.559	62.94
228.793	47.94
229.027	93.94
229.262	104.94
229.496	109.94
229.73	132.94
229.964	155.94
230.199	119.94
230.433	115.94
230.667	106.94
230.901	111.94
231.136	97.94
231.37	120.94
231.604	123.94
231.838	107.94
232.072	110.94
232.306	115.94
232.541	111.94
232.775	106.94
233.009	111.94
233.243	110.94
233.477	112.94
233.711	129.94
233.945	102.94
234.179	118.94
234.413	111.94
234.647	115.94
234.881	122.94
235.115	115.94
235.349	108.94
235.583	131.94
235.817	122.94
236.051	104.94
236.285	129.94
236.519	134.94
236.753	128.94
236.987	142.94
237.221	164.94
237.455	238.94
237.689	197.94
237.922	149.94
238.156	142.94
238.39	124.94
238.624	113.94
238.858	124.94
239.091	135.94
239.325	123.94
239.559	144.94
239.793	122.94
240.027	138.94
240.26	140.94
240.494	137.94
240.728	127.94
240.961	136.94
241.195	139.94
241.429	134.94
241.662	131.94
241.896	141.94
242.13	134.94
242.363	150.94
242.597	131.94
242.83	136.94
243.064	135.94
243.298	143.94
243.531	140.94
243.765	145.94
243.998	142.94
244.232	143.94
244.465	153.94
244.699	155.94
244.932	131.94
245.166	149.94
245.399	148.94
245.633	148.94
245.866	137.94
246.099	148.94
246.333	132.94
246.566	139.94
246.8	165.94
247.033	160.94
247.266	152.94
247.5	155.94
247.733	171.94
247.966	160.94
248.2	151.94
248.433	157.94
248.666	155.94
248.899	185.94
249.133	184.94
249.366	191.94
249.599	192.94
249.832	190.94
250.066	181.94
250.299	193.94
250.532	180.94
250.765	198.94
250.998	212.94
251.231	208.94
251.465	212.94
251.698	198.94
251.931	184.94
252.164	198.94
252.397	188.94
252.63	190.94
252.863	191.94
253.096	197.94
253.329	226.94
253.562	214.94
253.795	203.94
254.028	216.94
254.261	198.94
254.494	229.94
254.727	248.94
254.96	257.94
255.193	253.94
255.426	236.94
255.659	206.94
255.892	224.94
256.124	215.94
256.357	229.94
256.59	219.94
256.823	202.94
257.056	198.94
257.289	190.94
257.521	204.94
257.754	217.94
257.987	205.94
258.22	196.94
258.452	195.94
258.685	194.94
258.918	192.94
259.151	199.94
259.383	211.94
259.616	204.94
259.849	195.94
260.081	227.94
260.314	226.94
260.547	228.94
260.779	234.94
261.012	220.94
261.244	212.94
261.477	224.94
261.71	209.94
261.942	217.94
262.175	229.94
262.407	220.94
262.64	199.94
262.872	202.94
263.105	198.94
263.337	202.94
263.57	205.94
263.802	203.94
264.035	219.94
264.267	207.94
264.499	223.94
264.732	209.94
264.964	209.94
265.197	204.94
265.429	214.94
265.661	201.94
265.894	213.94
266.126	193.94
266.358	214.94
266.591	218.94
266.823	230.94
267.055	231.94
267.287	216.94
267.52	213.94
267.752	228.94
267.984	229.94
268.216	235.94
268.448	248.94
268.681	222.94
268.913	234.94
269.145	244.94
269.377	250.94
269.609	259.94
269.841	255.94
270.073	243.94
270.306	287.94
270.538	277.94
270.77	308.94
271.002	276.94
271.234	281.94
271.466	273.94
271.698	276.94
271.93	291.94
272.162	302.94
272.394	278.94
272.626	276.94
272.858	269.94
273.09	263.94
273.322	274.94
273.553	267.94
273.785	272.94
274.017	250.94
274.249	267.94
274.481	264.94
274.713	257.94
274.945	246.94
275.176	240.94
275.408	249.94
275.64	250.94
275.872	267.94
276.104	249.94
276.335	240.94
276.567	251.94
276.799	275.94
277.031	300.94
277.262	291.94
277.494	309.94
277.726	291.94
277.957	291.94
278.189	263.94
278.421	272.94
278.652	277.94
278.884	267.94
279.115	263.94
279.347	255.94
279.579	269.94
279.81	258.94
280.042	254.94
280.273	267.94
280.505	264.94
280.736	255.94
280.968	271.94
281.199	247.94
281.431	263.94
281.662	273.94
281.894	259.94
282.125	255.94
282.356	291.94
282.588	319.94
282.819	305.94
283.051	283.94
283.282	271.94
283.513	274.94
283.745	274.94
283.976	284.94
284.207	271.94
284.439	268.94
284.67	275.94
284.901	257.94
285.132	291.94
285.364	283.94
285.595	268.94
285.826	279.94
286.057	271.94
286.288	277.94
286.52	259.94
286.751	277.94
286.982	279.94
287.213	265.94
287.444	298.94
287.675	301.94
287.906	288.94
288.138	311.94
288.369	304.94
288.6	322.94
288.831	289.94
289.062	297.94
289.293	287.94
289.524	296.94
289.755	295.94
289.986	283.94
290.217	273.94
290.448	286.94
290.679	278.94
290.91	299.94
291.141	281.94
291.371	273.94
291.602	271.94
291.833	286.94
292.064	294.94
292.295	302.94
292.526	296.94
292.757	299.94
292.987	294.94
293.218	296.94
293.449	280.94
293.68	287.94
293.91	287.94
294.141	311.94
294.372	293.94
294.603	317.94
294.833	300.94
295.064	301.94
295.295	302.94
295.525	294.94
295.756	299.94
295.987	298.94
296.217	325.94
296.448	320.94
296.679	307.94
296.909	319.94
297.14	329.94
297.37	301.94
297.601	295.94
297.831	288.94
298.062	319.94
298.292	282.94
298.523	296.94
298.753	311.94
298.984	300.94
299.214	315.94
299.445	313.94
299.675	306.94
299.905	313.94
300.136	318.94
300.366	297.94
300.597	320.94
300.827	307.94
301.057	318.94
301.288	337.94
301.518	334.94
301.748	318.94
301.979	326.94
302.209	318.94
302.439	348.94
302.669	334.94
302.9	321.94
303.13	329.94
303.36	336.94
303.59	343.94
303.82	335.94
304.051	337.94
304.281	331.94
304.511	329.94
304.741	314.94
304.971	335.94
305.201	332.94
305.431	336.94
305.661	341.94
305.891	323.94
306.121	340.94
306.352	337.94
306.582	342.94
306.812	351.94
307.042	313.94
307.272	329.94
307.502	330.94
307.731	339.94
307.961	328.94
308.191	355.94
308.421	327.94
308.651	332.94
308.881	335.94
309.111	339.94
309.341	347.94
309.571	343.94
309.8	358.94
310.03	361.94
310.26	367.94
310.49	389.94
310.72	377.94
310.949	387.94
311.179	395.94
311.409	373.94
311.639	367.94
311.868	373.94
312.098	383.94
312.328	380.94
312.557	396.94
312.787	389.94
313.017	395.94
313.246	399.94
313.476	387.94
313.706	376.94
313.935	390.94
314.165	371.94
314.394	384.94
314.624	393.94
314.853	389.94
315.083	385.94
315.312	371.94
315.542	368.94
315.771	378.94
316.001	369.94
316.23	377.94
316.46	355.94
316.689	376.94
316.919	381.94
317.148	378.94
317.377	383.94
317.607	386.94
317.836	368.94
318.065	380.94
318.295	374.94
318.524	374.94
318.753	384.94
318.983	377.94
319.212	374.94
319.441	396.94
319.67	389.94
319.9	381.94
320.129	388.94
320.358	386.94
320.587	375.94
320.816	402.94
321.046	411.94
321.275	410.94
321.504	410.94
321.733	390.94
321.962	403.94
322.191	426.94
322.42	426.94
322.649	451.94
322.878	449.94
323.108	449.94
323.337	464.94
323.566	483.94
323.795	539.94
324.024	575.94
324.253	667.94
324.482	972.94
324.71	1496.94
324.939	2230.94
325.168	1973.94
325.397	955.94
325.626	651.94
325.855	529.94
326.084	510.94
326.313	523.94
326.542	519.94
326.77	552.94
326.999	612.94
327.228	881.94
327.457	1365.94
327.686	1685.94
327.914	1108.94
328.143	722.94
328.372	592.94
328.6	555.94
328.829	535.94
329.058	553.94
329.287	559.94
329.515	530.94
329.744	512.94
329.972	493.94
330.201	526.94
330.43	556.94
330.658	590.94
330.887	587.94
331.115	588.94
331.344	534.94
331.572	478.94
331.801	500.94
332.03	459.94
332.258	467.94
332.486	455.94
332.715	446.94
332.943	467.94
333.172	454.94
333.4	482.94
333.629	470.94
333.857	483.94
334.085	495.94
334.314	502.94
334.542	541.94
334.771	539.94
334.999	529.94
335.227	467.94
335.455	469.94
335.684	480.94
335.912	465.94
336.14	454.94
336.369	457.94
336.597	456.94
336.825	460.94
337.053	465.94
337.281	444.94
337.51	450.94
337.738	476.94
337.966	477.94
338.194	442.94
338.422	444.94
338.65	438.94
338.878	431.94
339.106	438.94
339.334	432.94
339.562	427.94
339.79	433.94
340.018	425.94
340.246	429.94
340.474	434.94
340.702	439.94
340.93	443.94
341.158	443.94
341.386	422.94
341.614	427.94
341.842	456.94
342.07	440.94
342.298	443.94
342.526	399.94
342.754	400.94
342.981	425.94
343.209	443.94
343.437	429.94
343.665	438.94
343.893	446.94
344.12	444.94
344.348	453.94
344.576	444.94
344.804	449.94
345.031	445.94
345.259	451.94
345.487	461.94
345.714	443.94
345.942	435.94
346.17	416.94
346.397	441.94
346.625	435.94
346.853	419.94
347.08	416.94
347.308	422.94
347.535	422.94
347.763	431.94
347.99	411.94
348.218	429.94
348.445	454.94
348.673	411.94
348.9	426.94
349.128	427.94
349.355	423.94
349.583	412.94
349.81	423.94
350.037	406.94
350.265	430.94
350.492	421.94
350.72	396.94
350.947	414.94
351.174	434.94
351.402	420.94
351.629	420.94
351.856	431.94
352.083	432.94
352.311	460.94
352.538	441.94
352.765	420.94
352.992	415.94
353.22	428.94
353.447	428.94
353.674	439.94
353.901	429.94
354.128	417.94
354.355	419.94
354.583	426.94
354.81	397.94
355.037	422.94
355.264	381.94
355.491	401.94
355.718	399.94
355.945	390.94
356.172	380.94
356.399	398.94
356.626	401.94
356.853	407.94
357.08	394.94
357.307	407.94
357.534	397.94
357.761	409.94
357.988	430.94
358.215	392.94
358.441	407.94
358.668	413.94
358.895	423.94
359.122	412.94
359.349	423.94
359.576	445.94
359.802	454.94
360.029	453.94
360.256	493.94
360.483	455.94
360.709	430.94
360.936	441.94
361.163	439.94
361.39	416.94
361.616	441.94
361.843	430.94
362.07	423.94
362.296	436.94
362.523	420.94
362.749	441.94
362.976	445.94
363.203	423.94
363.429	423.94
363.656	411.94
363.882	421.94
364.109	405.94
364.335	420.94
364.562	430.94
364.788	415.94
365.015	423.94
365.241	439.94
365.468	447.94
365.694	442.94
365.92	423.94
366.147	402.94
366.373	433.94
366.599	413.94
366.826	418.94
367.052	428.94
367.278	428.94
367.505	396.94
367.731	409.94
367.957	415.94
368.184	424.94
368.41	424.94
368.636	401.94
368.862	441.94
369.089	436.94
369.315	428.94
369.541	407.94
369.767	430.94
369.993	414.94
370.219	417.94
370.445	412.94
370.672	408.94
370.898	426.94
371.124	421.94
371.35	427.94
371.576	419.94
371.802	416.94
372.028	406.94
372.254	429.94
372.48	419.94
372.706	420.94
372.932	424.94
373.158	416.94
373.384	428.94
373.61	435.94
373.835	443.94
374.061	433.94
374.287	436.94
374.513	432.94
374.739	436.94
374.965	432.94
375.191	427.94
375.416	437.94
375.642	440.94
375.868	449.94
376.094	459.94
376.319	422.94
376.545	424.94
376.771	449.94
376.997	411.94
377.222	406.94
377.448	439.94
377.674	398.94
377.899	419.94
378.125	446.94
378.35	423.94
378.576	421.94
378.802	441.94
379.027	418.94
379.253	395.94
379.478	423.94
379.704	405.94
379.929	417.94
380.155	424.94
380.38	449.94
380.606	427.94
380.831	421.94
381.057	448.94
381.282	420.94
381.507	415.94
381.733	418.94
381.958	437.94
382.184	444.94
382.409	437.94
382.634	429.94
382.86	443.94
383.085	444.94
383.31	460.94
383.535	456.94
383.761	437.94
383.986	449.94
384.211	466.94
384.436	455.94
384.662	474.94
384.887	444.94
385.112	463.94
385.337	460.94
385.562	458.94
385.787	468.94
386.013	479.94
386.238	485.94
386.463	476.94
386.688	479.94
386.913	471.94
387.138	489.94
387.363	457.94
387.588	483.94
387.813	479.94
388.038	460.94
388.263	455.94
388.488	491.94
388.713	471.94
388.938	491.94
389.163	491.94
389.387	487.94
389.612	488.94
389.837	487.94
390.062	476.94
390.287	485.94
390.512	455.94
390.736	467.94
390.961	482.94
391.186	463.94
391.411	478.94
391.636	491.94
391.86	501.94
392.085	502.94
392.31	511.94
392.534	487.94
392.759	479.94
392.984	483.94
393.208	479.94
393.433	477.94
393.658	470.94
393.882	508.94
394.107	496.94
394.331	496.94
394.556	482.94
394.78	489.94
395.005	499.94
395.229	476.94
395.454	485.94
395.678	492.94
395.903	518.94
396.127	523.94
396.352	544.94
396.576	539.94
396.801	495.94
397.025	512.94
397.249	509.94
397.474	525.94
397.698	516.94
397.922	516.94
398.147	531.94
398.371	545.94
398.595	545.94
398.82	568.94
399.044	550.94
399.268	569.94
399.492	580.94
399.717	628.94
399.941	685.94
400.165	687.94
400.389	713.94
400.613	637.94
400.837	583.94
401.062	579.94
401.286	559.94
401.51	566.94
401.734	545.94
401.958	574.94
402.182	557.94
402.406	561.94
402.63	569.94
402.854	582.94
403.078	567.94
403.302	570.94
403.526	581.94
403.75	581.94
403.974	585.94
404.198	560.94
404.422	567.94
404.645	557.94
404.869	604.94
405.093	652.94
405.317	644.94
405.541	688.94
405.765	658.94
405.988	627.94
406.212	602.94
406.436	634.94
406.66	635.94
406.883	612.94
407.107	641.94
407.331	709.94
407.555	774.94
407.778	757.94
408.002	696.94
408.226	670.94
408.449	661.94
408.673	629.94
408.896	671.94
409.12	707.94
409.344	669.94
409.567	614.94
409.791	611.94
410.014	604.94
410.238	607.94
410.461	590.94
410.685	595.94
410.908	612.94
411.132	672.94
411.355	659.94
411.578	661.94
411.802	601.94
412.025	591.94
412.249	593.94
412.472	591.94
412.695	641.94
412.919	649.94
413.142	609.94
413.365	597.94
413.589	573.94
413.812	573.94
414.035	564.94
414.258	543.94
414.482	535.94
414.705	549.94
414.928	554.94
415.151	526.94
415.374	550.94
415.597	553.94
415.821	547.94
416.044	537.94
416.267	564.94
416.49	545.94
416.713	544.94
416.936	544.94
417.159	545.94
417.382	537.94
417.605	553.94
417.828	574.94
418.051	576.94
418.274	572.94
418.497	538.94
418.72	559.94
418.943	548.94
419.166	575.94
419.389	575.94
419.611	586.94
419.834	566.94
420.057	581.94
420.28	555.94
420.503	606.94
420.726	542.94
420.948	575.94
421.171	626.94
421.394	652.94
421.617	604.94
421.839	544.94
422.062	574.94
422.285	587.94
422.507	638.94
422.73	729.94
422.953	712.94
423.175	615.94
423.398	557.94
423.621	577.94
423.843	600.94
424.066	594.94
424.288	580.94
424.511	585.94
424.733	689.94
424.956	765.94
425.178	764.94
425.401	733.94
425.623	739.94
425.846	634.94
426.068	605.94
426.291	598.94
426.513	621.94
426.735	629.94
426.958	650.94
427.18	718.94
427.402	905.94
427.625	999.94
427.847	875.94
428.069	727.94
428.292	669.94
428.514	615.94
428.736	593.94
428.958	573.94
429.181	559.94
429.403	567.94
429.625	597.94
429.847	612.94
430.069	686.94
430.292	695.94
430.514	583.94
430.736	582.94
430.958	556.94
431.18	539.94
431.402	554.94
431.624	545.94
431.846	532.94
432.068	539.94
432.29	540.94
432.512	555.94
432.734	584.94
432.956	539.94
433.178	564.94
433.4	565.94
433.622	546.94
433.844	533.94
434.066	536.94
434.287	552.94
434.509	535.94
434.731	563.94
434.953	571.94
435.175	577.94
435.397	615.94
435.618	620.94
435.84	635.94
436.062	729.94
436.284	874.94
436.505	680.94
436.727	610.94
436.949	565.94
437.17	571.94
437.392	572.94
437.614	572.94
437.835	600.94
438.057	720.94
438.278	814.94
438.5	805.94
438.721	908.94
438.943	880.94
439.165	669.94
439.386	627.94
439.608	598.94
439.829	600.94
440.05	616.94
440.272	705.94
440.493	672.94
440.715	591.94
440.936	576.94
441.158	587.94
441.379	547.94
441.6	567.94
441.822	584.94
442.043	640.94
442.264	728.94
442.486	800.94
442.707	663.94
442.928	626.94
443.149	641.94
443.371	629.94
443.592	703.94
443.813	788.94
444.034	865.94
444.255	719.94
444.476	649.94
444.698	630.94
444.919	609.94
445.14	739.94
445.361	689.94
445.582	662.94
445.803	715.94
446.024	829.94
446.245	843.94
446.466	777.94
446.687	659.94
446.908	589.94
447.129	583.94
447.35	575.94
447.571	575.94
447.792	555.94
448.013	563.94
448.234	563.94
448.455	608.94
448.675	775.94
448.896	893.94
449.117	755.94
449.338	683.94
449.559	800.94
449.779	949.94
450	741.94
450.221	611.94
450.442	552.94
450.662	573.94
450.883	560.94
451.104	560.94
451.324	555.94
451.545	520.94
451.766	539.94
451.986	515.94
452.207	500.94
452.428	533.94
452.648	503.94
452.869	491.94
453.089	534.94
453.31	535.94
453.53	531.94
453.751	516.94
453.971	527.94
454.192	535.94
454.412	510.94
454.633	522.94
454.853	488.94
455.073	503.94
455.294	520.94
455.514	573.94
455.734	584.94
455.955	501.94
456.175	499.94
456.395	497.94
456.616	483.94
456.836	489.94
457.056	476.94
457.276	462.94
457.497	497.94
457.717	481.94
457.937	503.94
458.157	499.94
458.377	478.94
458.598	544.94
458.818	580.94
459.038	635.94
459.258	691.94
459.478	584.94
459.698	559.94
459.918	541.94
460.138	544.94
460.358	540.94
460.578	543.94
460.798	558.94
461.018	529.94
461.238	548.94
461.458	549.94
461.678	566.94
461.898	568.94
462.118	567.94
462.338	566.94
462.558	573.94
462.777	595.94
462.997	597.94
463.217	624.94
463.437	620.94
463.657	616.94
463.876	580.94
464.096	603.94
464.316	590.94
464.536	617.94
464.755	629.94
464.975	599.94
465.195	631.94
465.414	691.94
465.634	608.94
465.854	581.94
466.073	554.94
466.293	542.94
466.512	548.94
466.732	537.94
466.951	528.94
467.171	537.94
467.391	537.94
467.61	536.94
467.829	543.94
468.049	533.94
468.268	541.94
468.488	521.94
468.707	532.94
468.927	504.94
469.146	495.94
469.365	529.94
469.585	504.94
469.804	519.94
470.023	528.94
470.243	529.94
470.462	548.94
470.681	547.94
470.901	548.94
471.12	524.94
471.339	542.94
471.558	533.94
471.777	541.94
471.997	507.94
472.216	508.94
472.435	536.94
472.654	552.94
472.873	533.94
473.092	524.94
473.311	519.94
473.53	513.94
473.749	531.94
473.968	589.94
474.187	661.94
474.406	721.94
474.625	605.94
474.844	521.94
475.063	539.94
475.282	527.94
475.501	557.94
475.72	553.94
475.939	547.94
476.158	546.94
476.377	549.94
476.596	559.94
476.814	537.94
477.033	544.94
477.252	544.94
477.471	578.94
477.69	568.94
477.908	601.94
478.127	598.94
478.346	587.94
478.564	597.94
478.783	571.94
479.002	618.94
479.22	607.94
479.439	638.94
479.658	635.94
479.876	653.94
480.095	619.94
480.313	682.94
480.532	667.94
480.751	648.94
480.969	635.94
481.188	697.94
481.406	739.94
481.624	688.94
481.843	638.94
482.061	606.94
482.28	651.94
482.498	637.94
482.717	623.94
482.935	623.94
483.153	600.94
483.372	621.94
483.59	613.94
483.808	620.94
484.027	607.94
484.245	635.94
484.463	609.94
484.681	620.94
484.9	629.94
485.118	639.94
485.336	620.94
485.554	640.94
485.772	625.94
485.99	634.94
486.209	629.94
486.427	659.94
486.645	651.94
486.863	678.94
487.081	677.94
487.299	649.94
487.517	674.94
487.735	663.94
487.953	622.94
488.171	667.94
488.389	647.94
488.607	664.94
488.825	663.94
489.043	671.94
489.261	664.94
489.479	685.94
489.696	662.94
489.914	688.94
490.132	697.94
490.35	695.94
490.568	679.94
490.786	681.94
491.003	681.94
491.221	732.94
491.439	705.94
491.657	724.94
491.874	736.94
492.092	740.94
492.31	722.94
492.527	767.94
492.745	739.94
492.963	767.94
493.18	756.94
493.398	755.94
493.615	744.94
493.833	767.94
494.05	771.94
494.268	773.94
494.485	734.94
494.703	748.94
494.92	752.94
495.138	750.94
495.355	764.94
495.573	776.94
495.79	779.94
496.008	799.94
496.225	765.94
496.442	797.94
496.66	783.94
496.877	792.94
497.094	783.94
497.312	794.94
497.529	816.94
497.746	836.94
497.963	833.94
498.181	875.94
498.398	845.94
498.615	890.94
498.832	903.94
499.049	927.94
499.267	959.94
499.484	972.94
499.701	1009.94
499.918	1032.94
500.135	1081.94
500.352	1148.94
500.569	1117.94
500.786	1121.94
501.003	1152.94
501.22	1103.94
501.437	1073.94
501.654	1007.94
501.871	1013.94
502.088	994.94
502.305	954.94
502.522	938.94
502.739	905.94
502.956	853.94
503.172	853.94
503.389	825.94
503.606	827.94
503.823	827.94
504.04	805.94
504.256	823.94
504.473	799.94
504.69	809.94
504.907	791.94
505.123	789.94
505.34	771.94
505.557	775.94
505.773	774.94
505.99	740.94
506.207	755.94
506.423	734.94
506.64	757.94
506.856	711.94
507.073	732.94
507.289	746.94
507.506	727.94
507.722	729.94
507.939	777.94
508.155	714.94
508.372	717.94
508.588	681.94
508.805	715.94
509.021	708.94
509.238	710.94
509.454	704.94
509.67	695.94
509.887	696.94
510.103	730.94
510.319	705.94
510.536	784.94
510.752	1188.94
510.968	1001.94
511.184	704.94
511.401	670.94
511.617	673.94
511.833	694.94
512.049	668.94
512.265	663.94
512.481	674.94
512.698	659.94
512.914	666.94
513.13	638.94
513.346	668.94
513.562	691.94
513.778	669.94
513.994	668.94
514.21	686.94
514.426	697.94
514.642	711.94
514.858	756.94
515.074	775.94
515.29	898.94
515.506	1222.94
515.721	1077.94
515.937	785.94
516.153	747.94
516.369	720.94
516.585	700.94
516.801	713.94
517.016	713.94
517.232	695.94
517.448	715.94
517.664	716.94
517.879	725.94
518.095	709.94
518.311	700.94
518.527	695.94
518.742	712.94
518.958	683.94
519.173	684.94
519.389	673.94
519.605	663.94
519.82	661.94
520.036	676.94
520.251	668.94
520.467	697.94
520.682	708.94
520.898	721.94
521.113	772.94
521.329	763.94
521.544	840.94
521.76	1029.94
521.975	1531.94
522.19	1566.94
522.406	928.94
522.621	768.94
522.836	707.94
523.052	696.94
523.267	652.94
523.482	616.94
523.698	615.94
523.913	629.94
524.128	621.94
524.343	581.94
524.559	594.94
524.774	576.94
524.989	621.94
525.204	601.94
525.419	587.94
525.634	582.94
525.849	579.94
526.064	582.94
526.28	583.94
526.495	568.94
526.71	577.94
526.925	570.94
527.14	594.94
527.355	557.94
527.57	579.94
527.785	537.94
527.999	583.94
528.214	555.94
528.429	567.94
528.644	561.94
528.859	590.94
529.074	549.94
529.289	579.94
529.503	653.94
529.718	625.94
529.933	599.94
530.148	564.94
530.363	563.94
530.577	555.94
530.792	556.94
531.007	546.94
531.221	543.94
531.436	552.94
531.651	550.94
531.865	546.94
532.08	515.94
532.295	543.94
532.509	527.94
532.724	519.94
532.938	541.94
533.153	538.94
533.367	553.94
533.582	536.94
533.796	554.94
534.011	533.94
534.225	552.94
534.44	521.94
534.654	537.94
534.868	525.94
535.083	547.94
535.297	529.94
535.511	539.94
535.726	525.94
535.94	528.94
536.154	536.94
536.369	515.94
536.583	527.94
536.797	524.94
537.011	521.94
537.225	499.94
537.44	502.94
537.654	543.94
537.868	540.94
538.082	514.94
538.296	519.94
538.51	521.94
538.724	504.94
538.938	520.94
539.153	520.94
539.367	501.94
539.581	527.94
539.795	515.94
540.009	525.94
540.222	514.94
540.436	504.94
540.65	514.94
540.864	526.94
541.078	506.94
541.292	507.94
541.506	505.94
541.72	508.94
541.934	534.94
542.147	499.94
542.361	488.94
542.575	498.94
542.789	528.94
543.002	511.94
543.216	527.94
543.43	529.94
543.644	508.94
543.857	505.94
544.071	518.94
544.285	511.94
544.498	518.94
544.712	520.94
544.925	509.94
545.139	519.94
545.352	475.94
545.566	493.94
545.779	495.94
545.993	499.94
546.206	496.94
546.42	509.94
546.633	523.94
546.847	500.94
547.06	480.94
547.274	491.94
547.487	484.94
547.7	504.94
547.914	463.94
548.127	476.94
548.34	502.94
548.554	499.94
548.767	507.94
548.98	492.94
549.193	471.94
549.407	496.94
549.62	482.94
549.833	488.94
550.046	488.94
550.259	482.94
550.473	479.94
550.686	479.94
550.899	503.94
551.112	466.94
551.325	480.94
551.538	488.94
551.751	472.94
551.964	490.94
552.177	480.94
552.39	489.94
552.603	492.94
552.816	508.94
553.029	495.94
553.242	500.94
553.455	483.94
553.667	521.94
553.88	502.94
554.093	502.94
554.306	520.94
554.519	480.94
554.732	469.94
554.944	470.94
555.157	471.94
555.37	460.94
555.583	469.94
555.795	465.94
556.008	472.94
556.221	454.94
556.433	440.94
556.646	445.94
556.859	440.94
557.071	441.94
557.284	458.94
557.496	454.94
557.709	452.94
557.921	441.94
558.134	453.94
558.346	453.94
558.559	433.94
558.771	432.94
558.984	420.94
559.196	456.94
559.409	463.94
559.621	470.94
559.833	424.94
560.046	423.94
560.258	432.94
560.47	444.94
560.683	423.94
560.895	430.94
561.107	424.94
561.32	430.94
561.532	437.94
561.744	431.94
561.956	448.94
562.168	436.94
562.381	419.94
562.593	441.94
562.805	432.94
563.017	456.94
563.229	432.94
563.441	433.94
563.653	430.94
563.865	436.94
564.077	433.94
564.289	419.94
564.501	446.94
564.713	458.94
564.925	464.94
565.137	474.94
565.349	487.94
565.561	489.94
565.773	487.94
565.985	494.94
566.197	515.94
566.408	529.94
566.62	543.94
566.832	535.94
567.044	539.94
567.255	557.94
567.467	545.94
567.679	547.94
567.891	561.94
568.102	561.94
568.314	551.94
568.526	541.94
568.737	517.94
568.949	484.94
569.161	491.94
569.372	479.94
569.584	459.94
569.795	460.94
570.007	460.94
570.218	494.94
570.43	483.94
570.641	472.94
570.853	439.94
571.064	402.94
571.276	443.94
571.487	437.94
571.698	419.94
571.91	427.94
572.121	425.94
572.333	395.94
572.544	412.94
572.755	407.94
572.966	438.94
573.178	390.94
573.389	406.94
573.6	396.94
573.811	395.94
574.023	407.94
574.234	384.94
574.445	358.94
574.656	377.94
574.867	385.94
575.078	381.94
575.289	376.94
575.501	379.94
575.712	364.94
575.923	381.94
576.134	361.94
576.345	380.94
576.556	357.94
576.767	379.94
576.978	363.94
577.188	359.94
577.399	356.94
577.61	359.94
577.821	387.94
578.032	363.94
578.243	397.94
578.454	544.94
578.665	448.94
578.875	384.94
579.086	361.94
579.297	369.94
579.508	357.94
579.718	352.94
579.929	339.94
580.14	376.94
580.35	352.94
580.561	350.94
580.772	349.94
580.982	357.94
581.193	350.94
581.403	339.94
581.614	347.94
581.825	348.94
582.035	347.94
582.246	350.94
582.456	341.94
582.667	331.94
582.877	322.94
583.087	349.94
583.298	345.94
583.508	343.94
583.719	358.94
583.929	350.94
584.139	342.94
584.35	351.94
584.56	344.94
584.77	348.94
584.981	338.94
585.191	347.94
585.401	320.94
585.611	332.94
585.821	348.94
586.032	324.94
586.242	346.94
586.452	320.94
586.662	321.94
586.872	333.94
587.082	358.94
587.292	328.94
587.502	329.94
587.713	317.94
587.923	339.94
588.133	330.94
588.343	337.94
588.553	332.94
588.762	343.94
588.972	320.94
589.182	321.94
589.392	313.94
589.602	323.94
589.812	344.94
590.022	341.94
590.232	333.94
590.441	321.94
590.651	328.94
590.861	325.94
591.071	336.94
591.281	348.94
591.49	319.94
591.7	348.94
591.91	343.94
592.119	328.94
592.329	345.94
592.539	346.94
592.748	357.94
592.958	363.94
593.167	372.94
593.377	354.94
593.587	344.94
593.796	353.94
594.006	352.94
594.215	345.94
594.424	348.94
594.634	341.94
594.843	343.94
595.053	350.94
595.262	324.94
595.472	320.94
595.681	331.94
595.89	342.94
596.1	336.94
596.309	323.94
596.518	337.94
596.727	320.94
596.937	308.94
597.146	320.94
597.355	304.94
597.564	312.94
597.774	289.94
597.983	313.94
598.192	309.94
598.401	311.94
598.61	297.94
598.819	304.94
599.028	301.94
599.237	295.94
599.446	295.94
599.655	283.94
599.864	286.94
600.073	292.94
600.282	298.94
600.491	286.94
600.7	291.94
600.909	281.94
601.118	289.94
601.327	286.94
601.536	271.94
601.745	282.94
601.953	266.94
602.162	271.94
602.371	288.94
602.58	281.94
602.789	287.94
602.997	271.94
603.206	290.94
603.415	283.94
603.623	270.94
603.832	273.94
604.041	277.94
604.249	288.94
604.458	275.94
604.666	281.94
604.875	289.94
605.084	283.94
605.292	267.94
605.501	265.94
605.709	278.94
605.918	251.94
606.126	276.94
606.334	280.94
606.543	268.94
606.751	279.94
606.96	268.94
607.168	275.94
607.376	252.94
607.585	281.94
607.793	285.94
608.001	279.94
608.21	259.94
608.418	273.94
608.626	265.94
608.834	269.94
609.043	279.94
609.251	261.94
609.459	272.94
609.667	262.94
609.875	253.94
610.083	262.94
610.291	257.94
610.499	276.94
610.707	272.94
610.916	271.94
611.124	274.94
611.332	271.94
611.54	284.94
611.748	268.94
611.955	268.94
612.163	264.94
612.371	263.94
612.579	262.94
612.787	247.94
612.995	259.94
613.203	263.94
613.411	261.94
613.618	252.94
613.826	261.94
614.034	245.94
614.242	257.94
614.449	268.94
614.657	266.94
614.865	271.94
615.072	259.94
615.28	261.94
615.488	263.94
615.695	251.94
615.903	251.94
616.111	267.94
616.318	261.94
616.526	267.94
616.733	249.94
616.941	250.94
617.148	249.94
617.356	246.94
617.563	255.94
617.771	267.94
617.978	263.94
618.185	264.94
618.393	243.94
618.6	263.94
618.807	249.94
619.015	261.94
619.222	268.94
619.429	264.94
619.637	253.94
619.844	257.94
620.051	259.94
620.258	241.94
620.466	231.94
620.673	257.94
620.88	228.94
621.087	245.94
621.294	249.94
621.501	253.94
621.708	224.94
621.915	240.94
622.122	243.94
622.329	246.94
622.536	236.94
622.743	242.94
622.95	255.94
623.157	210.94
623.364	223.94
623.571	255.94
623.778	228.94
623.985	242.94
624.192	228.94
624.399	231.94
624.606	243.94
624.812	245.94
625.019	233.94
625.226	238.94
625.433	245.94
625.639	224.94
625.846	222.94
626.053	239.94
626.259	229.94
626.466	223.94
626.673	212.94
626.879	229.94
627.086	211.94
627.293	224.94
627.499	228.94
627.706	222.94
627.912	224.94
628.119	238.94
628.325	238.94
628.532	219.94
628.738	225.94
628.945	222.94
629.151	214.94
629.357	219.94
629.564	228.94
629.77	214.94
629.976	213.94
630.183	197.94
630.389	221.94
630.595	216.94
630.802	213.94
631.008	198.94
631.214	219.94
631.42	201.94
631.627	214.94
631.833	211.94
632.039	214.94
632.245	205.94
632.451	197.94
632.657	217.94
632.863	208.94
633.069	215.94
633.275	203.94
633.481	198.94
633.688	215.94
633.893	215.94
634.099	204.94
634.305	194.94
634.511	197.94
634.717	196.94
634.923	204.94
635.129	206.94
635.335	213.94
635.541	197.94
635.747	204.94
635.952	207.94
636.158	200.94
636.364	212.94
636.57	196.94
636.775	213.94
636.981	203.94
637.187	185.94
637.392	185.94
637.598	193.94
637.804	209.94
638.009	196.94
638.215	205.94
638.421	200.94
638.626	182.94
638.832	195.94
639.037	186.94
639.243	191.94
639.448	189.94
639.654	181.94
639.859	195.94
640.065	207.94
640.27	199.94
640.475	191.94
640.681	181.94
640.886	196.94
641.091	199.94
641.297	200.94
641.502	200.94
641.707	182.94
641.913	185.94
642.118	171.94
642.323	181.94
642.528	193.94
642.733	178.94
642.939	185.94
643.144	197.94
643.349	171.94
643.554	192.94
643.759	191.94
643.964	193.94
644.169	188.94
644.374	187.94
644.579	172.94
644.784	174.94
644.989	176.94
645.194	171.94
645.399	171.94
645.604	178.94
645.809	172.94
646.014	181.94
646.219	179.94
646.423	185.94
646.628	189.94
646.833	186.94
647.038	179.94
647.243	183.94
647.447	182.94
647.652	182.94
647.857	159.94
648.062	167.94
648.266	189.94
648.471	185.94
648.676	195.94
648.88	196.94
649.085	187.94
649.289	180.94
649.494	186.94
649.698	211.94
649.903	200.94
650.107	189.94
650.312	184.94
650.516	179.94
650.721	163.94
650.925	177.94
651.13	161.94
651.334	170.94
651.539	153.94
651.743	161.94
651.947	163.94
652.152	164.94
652.356	172.94
652.56	174.94
652.764	173.94
652.969	156.94
653.173	153.94
653.377	159.94
653.581	151.94
653.785	159.94
653.99	150.94
654.194	167.94
654.398	132.94
654.602	133.94
654.806	159.94
655.01	157.94
655.214	160.94
655.418	145.94
655.622	136.94
655.826	131.94
656.03	138.94
656.234	146.94
656.438	152.94
656.642	136.94
656.846	135.94
657.049	135.94
657.253	127.94
657.457	126.94
657.661	137.94
657.865	124.94
658.068	125.94
658.272	103.94
658.476	116.94
658.68	113.94
658.883	117.94
659.087	108.94
659.291	113.94
659.494	103.94
659.698	105.94
659.901	111.94
660.105	91.94
660.309	96.94
660.512	101.94
660.716	90.94
660.919	96.94
661.123	101.94
661.326	81.94
661.53	103.94
661.733	95.94
661.936	97.94
662.14	90.94
662.343	88.94
662.546	86.94
662.75	94.94
662.953	92.94
663.156	84.94
663.36	93.94
663.563	93.94
663.766	82.94
663.969	82.94
664.173	81.94
664.376	75.94
664.579	91.94
664.782	82.94
664.985	86.94
665.188	85.94
665.391	92.94
665.594	80.94
665.797	83.94
666	78.94
666.203	91.94
666.406	86.94
666.609	88.94
666.812	89.94
667.015	97.94
667.218	75.94
667.421	78.94
667.624	89.94
667.827	84.94
668.03	73.94
668.232	77.94
668.435	85.94
668.638	92.94
668.841	89.94
669.043	88.94
669.246	91.94
669.449	85.94
669.651	81.94
669.854	74.94
670.057	85.94
670.259	91.94
670.462	88.94
670.665	84.94
670.867	82.94
671.07	92.94
671.272	90.94
671.475	93.94
671.677	94.94
671.88	92.94
672.082	92.94
672.284	81.94
672.487	87.94
672.689	79.94
672.892	80.94
