Data from 1978.PennyLincolnUp.Lamp.En5.5.200Scan.071719.P1_HRD10591_16-14-09-865.txt Node
Date: Thu Jul 18 16:14:09 EDT 2019
User: cochatt
Spectrometer: HR+D1059
Trigger mode: 1
Integration Time (sec): 1.000000E-1
Scans to average: 1
Electric dark correction enabled: true
Nonlinearity correction enabled: false
Boxcar width: 0
XAxis mode: Wavelengths
Number of Pixels in Spectrum: 2048
>>>>>Begin Spectral Data<<<<<
223.165	-13.31
223.4	-13.31
223.635	-13.31
223.869	-7.31
224.104	-32.31
224.338	3.69
224.573	-16.31
224.808	-17.31
225.042	10.69
225.277	2.69
225.511	-6.31
225.746	0.69
225.98	-6.31
226.215	7.69
226.449	16.69
226.683	16.69
226.918	12.69
227.152	27.69
227.387	39.69
227.621	36.69
227.856	40.69
228.09	27.69
228.324	31.69
228.559	73.69
228.793	82.69
229.027	97.69
229.262	106.69
229.496	99.69
229.73	148.69
229.964	157.69
230.199	134.69
230.433	120.69
230.667	106.69
230.901	108.69
231.136	104.69
231.37	106.69
231.604	95.69
231.838	107.69
232.072	111.69
232.306	110.69
232.541	117.69
232.775	116.69
233.009	112.69
233.243	126.69
233.477	127.69
233.711	118.69
233.945	109.69
234.179	123.69
234.413	119.69
234.647	114.69
234.881	133.69
235.115	115.69
235.349	115.69
235.583	122.69
235.817	110.69
236.051	130.69
236.285	123.69
236.519	128.69
236.753	122.69
236.987	155.69
237.221	202.69
237.455	228.69
237.689	188.69
237.922	157.69
238.156	141.69
238.39	128.69
238.624	117.69
238.858	131.69
239.091	121.69
239.325	129.69
239.559	126.69
239.793	121.69
240.027	142.69
240.26	146.69
240.494	148.69
240.728	150.69
240.961	147.69
241.195	151.69
241.429	154.69
241.662	137.69
241.896	125.69
242.13	135.69
242.363	144.69
242.597	136.69
242.83	150.69
243.064	137.69
243.298	132.69
243.531	135.69
243.765	133.69
243.998	136.69
244.232	136.69
244.465	136.69
244.699	135.69
244.932	142.69
245.166	143.69
245.399	140.69
245.633	131.69
245.866	136.69
246.099	146.69
246.333	147.69
246.566	148.69
246.8	138.69
247.033	141.69
247.266	146.69
247.5	142.69
247.733	179.69
247.966	168.69
248.2	167.69
248.433	170.69
248.666	182.69
248.899	177.69
249.133	185.69
249.366	206.69
249.599	195.69
249.832	175.69
250.066	181.69
250.299	161.69
250.532	188.69
250.765	190.69
250.998	216.69
251.231	223.69
251.465	200.69
251.698	195.69
251.931	205.69
252.164	193.69
252.397	194.69
252.63	196.69
252.863	205.69
253.096	210.69
253.329	213.69
253.562	214.69
253.795	204.69
254.028	205.69
254.261	205.69
254.494	230.69
254.727	246.69
254.96	251.69
255.193	257.69
255.426	226.69
255.659	217.69
255.892	208.69
256.124	211.69
256.357	218.69
256.59	214.69
256.823	217.69
257.056	195.69
257.289	191.69
257.521	207.69
257.754	211.69
257.987	206.69
258.22	203.69
258.452	191.69
258.685	207.69
258.918	202.69
259.151	190.69
259.383	208.69
259.616	206.69
259.849	220.69
260.081	228.69
260.314	239.69
260.547	243.69
260.779	238.69
261.012	239.69
261.244	230.69
261.477	222.69
261.71	207.69
261.942	218.69
262.175	246.69
262.407	230.69
262.64	218.69
262.872	213.69
263.105	208.69
263.337	214.69
263.57	212.69
263.802	198.69
264.035	198.69
264.267	214.69
264.499	196.69
264.732	191.69
264.964	215.69
265.197	210.69
265.429	206.69
265.661	204.69
265.894	206.69
266.126	214.69
266.358	224.69
266.591	208.69
266.823	227.69
267.055	229.69
267.287	224.69
267.52	223.69
267.752	231.69
267.984	212.69
268.216	216.69
268.448	240.69
268.681	240.69
268.913	243.69
269.145	258.69
269.377	264.69
269.609	260.69
269.841	252.69
270.073	281.69
270.306	293.69
270.538	301.69
270.77	289.69
271.002	286.69
271.234	280.69
271.466	286.69
271.698	300.69
271.93	318.69
272.162	313.69
272.394	291.69
272.626	271.69
272.858	282.69
273.09	276.69
273.322	263.69
273.553	255.69
273.785	248.69
274.017	250.69
274.249	268.69
274.481	251.69
274.713	245.69
274.945	231.69
275.176	245.69
275.408	264.69
275.64	263.69
275.872	266.69
276.104	263.69
276.335	252.69
276.567	266.69
276.799	262.69
277.031	303.69
277.262	310.69
277.494	320.69
277.726	304.69
277.957	283.69
278.189	288.69
278.421	287.69
278.652	251.69
278.884	265.69
279.115	265.69
279.347	259.69
279.579	266.69
279.81	278.69
280.042	275.69
280.273	233.69
280.505	260.69
280.736	249.69
280.968	273.69
281.199	272.69
281.431	281.69
281.662	262.69
281.894	287.69
282.125	286.69
282.356	282.69
282.588	290.69
282.819	300.69
283.051	261.69
283.282	265.69
283.513	265.69
283.745	286.69
283.976	267.69
284.207	277.69
284.439	258.69
284.67	282.69
284.901	266.69
285.132	262.69
285.364	278.69
285.595	255.69
285.826	286.69
286.057	293.69
286.288	269.69
286.52	260.69
286.751	283.69
286.982	254.69
287.213	262.69
287.444	292.69
287.675	267.69
287.906	293.69
288.138	277.69
288.369	299.69
288.6	301.69
288.831	288.69
289.062	309.69
289.293	285.69
289.524	289.69
289.755	274.69
289.986	281.69
290.217	303.69
290.448	285.69
290.679	290.69
290.91	290.69
291.141	294.69
291.371	284.69
291.602	294.69
291.833	291.69
292.064	284.69
292.295	296.69
292.526	291.69
292.757	301.69
292.987	285.69
293.218	290.69
293.449	295.69
293.68	281.69
293.91	290.69
294.141	288.69
294.372	290.69
294.603	284.69
294.833	282.69
295.064	292.69
295.295	285.69
295.525	295.69
295.756	287.69
295.987	314.69
296.217	312.69
296.448	335.69
296.679	319.69
296.909	297.69
297.14	316.69
297.37	296.69
297.601	284.69
297.831	283.69
298.062	287.69
298.292	294.69
298.523	304.69
298.753	298.69
298.984	302.69
299.214	311.69
299.445	306.69
299.675	300.69
299.905	313.69
300.136	308.69
300.366	315.69
300.597	300.69
300.827	310.69
301.057	304.69
301.288	324.69
301.518	324.69
301.748	338.69
301.979	312.69
302.209	323.69
302.439	334.69
302.669	309.69
302.9	317.69
303.13	334.69
303.36	310.69
303.59	320.69
303.82	322.69
304.051	327.69
304.281	332.69
304.511	319.69
304.741	341.69
304.971	320.69
305.201	322.69
305.431	304.69
305.661	328.69
305.891	334.69
306.121	333.69
306.352	352.69
306.582	330.69
306.812	330.69
307.042	335.69
307.272	326.69
307.502	313.69
307.731	321.69
307.961	346.69
308.191	333.69
308.421	334.69
308.651	336.69
308.881	354.69
309.111	346.69
309.341	332.69
309.571	347.69
309.8	349.69
310.03	362.69
310.26	364.69
310.49	374.69
310.72	378.69
310.949	377.69
311.179	390.69
311.409	385.69
311.639	366.69
311.868	373.69
312.098	370.69
312.328	377.69
312.557	402.69
312.787	428.69
313.017	414.69
313.246	375.69
313.476	359.69
313.706	382.69
313.935	379.69
314.165	387.69
314.394	399.69
314.624	394.69
314.853	400.69
315.083	394.69
315.312	367.69
315.542	386.69
315.771	372.69
316.001	368.69
316.23	376.69
316.46	370.69
316.689	375.69
316.919	380.69
317.148	396.69
317.377	409.69
317.607	392.69
317.836	402.69
318.065	364.69
318.295	378.69
318.524	386.69
318.753	380.69
318.983	376.69
319.212	377.69
319.441	404.69
319.67	381.69
319.9	400.69
320.129	377.69
320.358	362.69
320.587	392.69
320.816	385.69
321.046	373.69
321.275	414.69
321.504	378.69
321.733	402.69
321.962	416.69
322.191	430.69
322.42	432.69
322.649	427.69
322.878	438.69
323.108	487.69
323.337	480.69
323.566	514.69
323.795	540.69
324.024	603.69
324.253	694.69
324.482	996.69
324.71	1648.69
324.939	2536.69
325.168	2155.69
325.397	1024.69
325.626	662.69
325.855	570.69
326.084	526.69
326.313	512.69
326.542	498.69
326.77	552.69
326.999	673.69
327.228	976.69
327.457	1482.69
327.686	1850.69
327.914	1188.69
328.143	722.69
328.372	656.69
328.6	582.69
328.829	582.69
329.058	564.69
329.287	581.69
329.515	531.69
329.744	523.69
329.972	513.69
330.201	528.69
330.43	570.69
330.658	589.69
330.887	630.69
331.115	603.69
331.344	543.69
331.572	493.69
331.801	510.69
332.03	492.69
332.258	472.69
332.486	465.69
332.715	468.69
332.943	469.69
333.172	438.69
333.4	462.69
333.629	461.69
333.857	484.69
334.085	516.69
334.314	523.69
334.542	525.69
334.771	552.69
334.999	507.69
335.227	487.69
335.455	491.69
335.684	430.69
335.912	465.69
336.14	441.69
336.369	448.69
336.597	459.69
336.825	461.69
337.053	432.69
337.281	448.69
337.51	436.69
337.738	445.69
337.966	446.69
338.194	452.69
338.422	436.69
338.65	455.69
338.878	456.69
339.106	452.69
339.334	437.69
339.562	408.69
339.79	443.69
340.018	424.69
340.246	464.69
340.474	464.69
340.702	433.69
340.93	434.69
341.158	437.69
341.386	437.69
341.614	450.69
341.842	437.69
342.07	448.69
342.298	418.69
342.526	431.69
342.754	411.69
342.981	432.69
343.209	417.69
343.437	435.69
343.665	414.69
343.893	465.69
344.12	440.69
344.348	444.69
344.576	435.69
344.804	439.69
345.031	463.69
345.259	468.69
345.487	450.69
345.714	445.69
345.942	450.69
346.17	414.69
346.397	418.69
346.625	436.69
346.853	421.69
347.08	441.69
347.308	424.69
347.535	450.69
347.763	442.69
347.99	430.69
348.218	431.69
348.445	435.69
348.673	455.69
348.9	426.69
349.128	418.69
349.355	422.69
349.583	423.69
349.81	405.69
350.037	410.69
350.265	412.69
350.492	414.69
350.72	415.69
350.947	421.69
351.174	444.69
351.402	447.69
351.629	463.69
351.856	425.69
352.083	437.69
352.311	438.69
352.538	454.69
352.765	434.69
352.992	434.69
353.22	418.69
353.447	426.69
353.674	420.69
353.901	404.69
354.128	396.69
354.355	404.69
354.583	399.69
354.81	409.69
355.037	403.69
355.264	390.69
355.491	390.69
355.718	398.69
355.945	409.69
356.172	410.69
356.399	403.69
356.626	398.69
356.853	412.69
357.08	403.69
357.307	400.69
357.534	381.69
357.761	391.69
357.988	416.69
358.215	400.69
358.441	391.69
358.668	386.69
358.895	427.69
359.122	416.69
359.349	429.69
359.576	415.69
359.802	446.69
360.029	477.69
360.256	474.69
360.483	466.69
360.709	451.69
360.936	438.69
361.163	438.69
361.39	434.69
361.616	417.69
361.843	427.69
362.07	434.69
362.296	430.69
362.523	414.69
362.749	454.69
362.976	426.69
363.203	421.69
363.429	414.69
363.656	423.69
363.882	424.69
364.109	411.69
364.335	410.69
364.562	395.69
364.788	434.69
365.015	405.69
365.241	416.69
365.468	432.69
365.694	413.69
365.92	420.69
366.147	422.69
366.373	408.69
366.599	413.69
366.826	396.69
367.052	409.69
367.278	404.69
367.505	403.69
367.731	418.69
367.957	428.69
368.184	415.69
368.41	420.69
368.636	423.69
368.862	421.69
369.089	431.69
369.315	422.69
369.541	417.69
369.767	416.69
369.993	420.69
370.219	422.69
370.445	411.69
370.672	418.69
370.898	418.69
371.124	441.69
371.35	439.69
371.576	420.69
371.802	411.69
372.028	413.69
372.254	432.69
372.48	421.69
372.706	438.69
372.932	428.69
373.158	435.69
373.384	437.69
373.61	430.69
373.835	436.69
374.061	417.69
374.287	413.69
374.513	422.69
374.739	424.69
374.965	408.69
375.191	436.69
375.416	403.69
375.642	421.69
375.868	434.69
376.094	430.69
376.319	452.69
376.545	453.69
376.771	413.69
376.997	427.69
377.222	428.69
377.448	428.69
377.674	429.69
377.899	419.69
378.125	426.69
378.35	425.69
378.576	407.69
378.802	416.69
379.027	398.69
379.253	404.69
379.478	399.69
379.704	423.69
379.929	420.69
380.155	424.69
380.38	421.69
380.606	416.69
380.831	424.69
381.057	429.69
381.282	432.69
381.507	422.69
381.733	408.69
381.958	415.69
382.184	441.69
382.409	428.69
382.634	455.69
382.86	432.69
383.085	446.69
383.31	439.69
383.535	454.69
383.761	439.69
383.986	438.69
384.211	443.69
384.436	439.69
384.662	452.69
384.887	473.69
385.112	458.69
385.337	453.69
385.562	458.69
385.787	469.69
386.013	467.69
386.238	475.69
386.463	476.69
386.688	460.69
386.913	444.69
387.138	456.69
387.363	467.69
387.588	457.69
387.813	446.69
388.038	456.69
388.263	447.69
388.488	469.69
388.713	463.69
388.938	468.69
389.163	467.69
389.387	478.69
389.612	490.69
389.837	446.69
390.062	451.69
390.287	474.69
390.512	454.69
390.736	497.69
390.961	469.69
391.186	471.69
391.411	486.69
391.636	478.69
391.86	502.69
392.085	498.69
392.31	486.69
392.534	479.69
392.759	495.69
392.984	475.69
393.208	493.69
393.433	478.69
393.658	475.69
393.882	485.69
394.107	466.69
394.331	486.69
394.556	475.69
394.78	485.69
395.005	504.69
395.229	485.69
395.454	482.69
395.678	508.69
395.903	510.69
396.127	526.69
396.352	548.69
396.576	523.69
396.801	504.69
397.025	487.69
397.249	499.69
397.474	509.69
397.698	518.69
397.922	526.69
398.147	532.69
398.371	552.69
398.595	540.69
398.82	533.69
399.044	561.69
399.268	559.69
399.492	589.69
399.717	619.69
399.941	642.69
400.165	654.69
400.389	680.69
400.613	612.69
400.837	602.69
401.062	562.69
401.286	555.69
401.51	559.69
401.734	540.69
401.958	530.69
402.182	552.69
402.406	575.69
402.63	592.69
402.854	580.69
403.078	591.69
403.302	564.69
403.526	580.69
403.75	582.69
403.974	600.69
404.198	577.69
404.422	570.69
404.645	567.69
404.869	590.69
405.093	616.69
405.317	660.69
405.541	676.69
405.765	651.69
405.988	617.69
406.212	628.69
406.436	617.69
406.66	631.69
406.883	615.69
407.107	664.69
407.331	684.69
407.555	778.69
407.778	781.69
408.002	712.69
408.226	646.69
408.449	623.69
408.673	629.69
408.896	691.69
409.12	711.69
409.344	684.69
409.567	637.69
409.791	606.69
410.014	582.69
410.238	576.69
410.461	600.69
410.685	604.69
410.908	596.69
411.132	638.69
411.355	666.69
411.578	642.69
411.802	590.69
412.025	589.69
412.249	557.69
412.472	606.69
412.695	642.69
412.919	630.69
413.142	573.69
413.365	554.69
413.589	564.69
413.812	550.69
414.035	533.69
414.258	548.69
414.482	542.69
414.705	544.69
414.928	536.69
415.151	558.69
415.374	555.69
415.597	518.69
415.821	556.69
416.044	540.69
416.267	573.69
416.49	576.69
416.713	532.69
416.936	541.69
417.159	544.69
417.382	548.69
417.605	552.69
417.828	533.69
418.051	552.69
418.274	562.69
418.497	540.69
418.72	538.69
418.943	540.69
419.166	556.69
419.389	609.69
419.611	574.69
419.834	582.69
420.057	590.69
420.28	560.69
420.503	568.69
420.726	553.69
420.948	579.69
421.171	636.69
421.394	651.69
421.617	580.69
421.839	572.69
422.062	576.69
422.285	575.69
422.507	658.69
422.73	739.69
422.953	708.69
423.175	588.69
423.398	622.69
423.621	598.69
423.843	605.69
424.066	610.69
424.288	619.69
424.511	619.69
424.733	686.69
424.956	806.69
425.178	713.69
425.401	732.69
425.623	760.69
425.846	659.69
426.068	620.69
426.291	586.69
426.513	600.69
426.735	607.69
426.958	685.69
427.18	740.69
427.402	904.69
427.625	1011.69
427.847	873.69
428.069	726.69
428.292	671.69
428.514	623.69
428.736	572.69
428.958	577.69
429.181	568.69
429.403	570.69
429.625	563.69
429.847	581.69
430.069	680.69
430.292	680.69
430.514	601.69
430.736	562.69
430.958	553.69
431.18	541.69
431.402	525.69
431.624	510.69
431.846	538.69
432.068	537.69
432.29	547.69
432.512	543.69
432.734	547.69
432.956	524.69
433.178	562.69
433.4	558.69
433.622	542.69
433.844	544.69
434.066	563.69
434.287	542.69
434.509	548.69
434.731	537.69
434.953	565.69
435.175	588.69
435.397	567.69
435.618	596.69
435.84	651.69
436.062	742.69
436.284	852.69
436.505	694.69
436.727	647.69
436.949	573.69
437.17	567.69
437.392	551.69
437.614	568.69
437.835	632.69
438.057	706.69
438.278	842.69
438.5	831.69
438.721	919.69
438.943	889.69
439.165	682.69
439.386	639.69
439.608	596.69
439.829	634.69
440.05	648.69
440.272	702.69
440.493	643.69
440.715	630.69
440.936	597.69
441.158	581.69
441.379	571.69
441.6	591.69
441.822	616.69
442.043	642.69
442.264	732.69
442.486	786.69
442.707	672.69
442.928	636.69
443.149	635.69
443.371	671.69
443.592	702.69
443.813	824.69
444.034	864.69
444.255	739.69
444.476	655.69
444.698	636.69
444.919	626.69
445.14	711.69
445.361	657.69
445.582	658.69
445.803	727.69
446.024	860.69
446.245	870.69
446.466	797.69
446.687	654.69
446.908	613.69
447.129	594.69
447.35	564.69
447.571	559.69
447.792	555.69
448.013	561.69
448.234	572.69
448.455	625.69
448.675	759.69
448.896	884.69
449.117	772.69
449.338	693.69
449.559	824.69
449.779	966.69
450	746.69
450.221	620.69
450.442	572.69
450.662	533.69
450.883	526.69
451.104	568.69
451.324	542.69
451.545	542.69
451.766	525.69
451.986	501.69
452.207	503.69
452.428	510.69
452.648	491.69
452.869	503.69
453.089	504.69
453.31	524.69
453.53	525.69
453.751	507.69
453.971	506.69
454.192	535.69
454.412	536.69
454.633	503.69
454.853	518.69
455.073	520.69
455.294	551.69
455.514	601.69
455.734	594.69
455.955	514.69
456.175	502.69
456.395	472.69
456.616	473.69
456.836	469.69
457.056	463.69
457.276	455.69
457.497	488.69
457.717	469.69
457.937	474.69
458.157	467.69
458.377	518.69
458.598	537.69
458.818	592.69
459.038	642.69
459.258	672.69
459.478	596.69
459.698	554.69
459.918	543.69
460.138	534.69
460.358	578.69
460.578	551.69
460.798	544.69
461.018	564.69
461.238	551.69
461.458	538.69
461.678	550.69
461.898	568.69
462.118	562.69
462.338	562.69
462.558	607.69
462.777	583.69
462.997	582.69
463.217	605.69
463.437	621.69
463.657	600.69
463.876	588.69
464.096	580.69
464.316	585.69
464.536	594.69
464.755	550.69
464.975	597.69
465.195	634.69
465.414	690.69
465.634	633.69
465.854	587.69
466.073	553.69
466.293	540.69
466.512	548.69
466.732	521.69
466.951	537.69
467.171	503.69
467.391	538.69
467.61	523.69
467.829	546.69
468.049	519.69
468.268	532.69
468.488	521.69
468.707	508.69
468.927	494.69
469.146	494.69
469.365	520.69
469.585	502.69
469.804	531.69
470.023	528.69
470.243	516.69
470.462	530.69
470.681	559.69
470.901	526.69
471.12	534.69
471.339	531.69
471.558	510.69
471.777	541.69
471.997	538.69
472.216	526.69
472.435	554.69
472.654	540.69
472.873	514.69
473.092	516.69
473.311	513.69
473.53	514.69
473.749	539.69
473.968	563.69
474.187	691.69
474.406	730.69
474.625	605.69
474.844	532.69
475.063	521.69
475.282	522.69
475.501	562.69
475.72	547.69
475.939	546.69
476.158	576.69
476.377	566.69
476.596	530.69
476.814	535.69
477.033	570.69
477.252	555.69
477.471	572.69
477.69	552.69
477.908	573.69
478.127	581.69
478.346	602.69
478.564	587.69
478.783	596.69
479.002	587.69
479.22	620.69
479.439	621.69
479.658	644.69
479.876	652.69
480.095	641.69
480.313	670.69
480.532	673.69
480.751	643.69
480.969	627.69
481.188	691.69
481.406	738.69
481.624	679.69
481.843	646.69
482.061	635.69
482.28	642.69
482.498	615.69
482.717	621.69
482.935	630.69
483.153	596.69
483.372	614.69
483.59	645.69
483.808	634.69
484.027	603.69
484.245	632.69
484.463	618.69
484.681	614.69
484.9	624.69
485.118	600.69
485.336	642.69
485.554	634.69
485.772	651.69
485.99	635.69
486.209	644.69
486.427	652.69
486.645	648.69
486.863	672.69
487.081	672.69
487.299	670.69
487.517	640.69
487.735	658.69
487.953	652.69
488.171	655.69
488.389	638.69
488.607	665.69
488.825	665.69
489.043	633.69
489.261	671.69
489.479	672.69
489.696	646.69
489.914	691.69
490.132	691.69
490.35	693.69
490.568	688.69
490.786	688.69
491.003	730.69
491.221	742.69
491.439	703.69
491.657	729.69
491.874	728.69
492.092	723.69
492.31	741.69
492.527	745.69
492.745	748.69
492.963	748.69
493.18	757.69
493.398	784.69
493.615	788.69
493.833	731.69
494.05	790.69
494.268	727.69
494.485	745.69
494.703	749.69
494.92	756.69
495.138	770.69
495.355	777.69
495.573	795.69
495.79	782.69
496.008	802.69
496.225	786.69
496.442	792.69
496.66	767.69
496.877	770.69
497.094	798.69
497.312	820.69
497.529	810.69
497.746	806.69
497.963	841.69
498.181	874.69
498.398	863.69
498.615	861.69
498.832	883.69
499.049	902.69
499.267	925.69
499.484	958.69
499.701	982.69
499.918	1020.69
500.135	1062.69
500.352	1099.69
500.569	1113.69
500.786	1132.69
501.003	1096.69
501.22	1070.69
501.437	1040.69
501.654	1032.69
501.871	999.69
502.088	943.69
502.305	921.69
502.522	893.69
502.739	865.69
502.956	845.69
503.172	852.69
503.389	840.69
503.606	845.69
503.823	804.69
504.04	814.69
504.256	786.69
504.473	811.69
504.69	823.69
504.907	781.69
505.123	787.69
505.34	772.69
505.557	783.69
505.773	767.69
505.99	758.69
506.207	751.69
506.423	759.69
506.64	721.69
506.856	739.69
507.073	718.69
507.289	726.69
507.506	710.69
507.722	721.69
507.939	730.69
508.155	726.69
508.372	696.69
508.588	671.69
508.805	699.69
509.021	715.69
509.238	713.69
509.454	712.69
509.67	704.69
509.887	692.69
510.103	708.69
510.319	703.69
510.536	789.69
510.752	1206.69
510.968	1034.69
511.184	718.69
511.401	680.69
511.617	682.69
511.833	662.69
512.049	663.69
512.265	652.69
512.481	673.69
512.698	646.69
512.914	654.69
513.13	640.69
513.346	680.69
513.562	665.69
513.778	674.69
513.994	672.69
514.21	692.69
514.426	699.69
514.642	752.69
514.858	765.69
515.074	784.69
515.29	911.69
515.506	1283.69
515.721	1075.69
515.937	784.69
516.153	714.69
516.369	712.69
516.585	700.69
516.801	688.69
517.016	709.69
517.232	717.69
517.448	694.69
517.664	714.69
517.879	719.69
518.095	712.69
518.311	724.69
518.527	706.69
518.742	672.69
518.958	684.69
519.173	685.69
519.389	672.69
519.605	678.69
519.82	672.69
520.036	683.69
520.251	681.69
520.467	734.69
520.682	734.69
520.898	730.69
521.113	739.69
521.329	787.69
521.544	877.69
521.76	1058.69
521.975	1606.69
522.19	1566.69
522.406	931.69
522.621	775.69
522.836	678.69
523.052	672.69
523.267	672.69
523.482	635.69
523.698	612.69
523.913	622.69
524.128	612.69
524.343	578.69
524.559	600.69
524.774	573.69
524.989	587.69
525.204	598.69
525.419	607.69
525.634	595.69
525.849	581.69
526.064	578.69
526.28	584.69
526.495	559.69
526.71	550.69
526.925	559.69
527.14	568.69
527.355	562.69
527.57	554.69
527.785	557.69
527.999	559.69
528.214	585.69
528.429	558.69
528.644	534.69
528.859	538.69
529.074	523.69
529.289	575.69
529.503	650.69
529.718	646.69
529.933	584.69
530.148	580.69
530.363	562.69
530.577	547.69
530.792	570.69
531.007	552.69
531.221	534.69
531.436	565.69
531.651	554.69
531.865	522.69
532.08	542.69
532.295	542.69
532.509	554.69
532.724	538.69
532.938	531.69
533.153	530.69
533.367	559.69
533.582	542.69
533.796	544.69
534.011	524.69
534.225	519.69
534.44	518.69
534.654	508.69
534.868	520.69
535.083	519.69
535.297	540.69
535.511	536.69
535.726	544.69
535.94	529.69
536.154	541.69
536.369	523.69
536.583	522.69
536.797	500.69
537.011	518.69
537.225	521.69
537.44	510.69
537.654	502.69
537.868	525.69
538.082	529.69
538.296	536.69
538.51	543.69
538.724	517.69
538.938	493.69
539.153	501.69
539.367	514.69
539.581	496.69
539.795	523.69
540.009	534.69
540.222	509.69
540.436	517.69
540.65	510.69
540.864	514.69
541.078	514.69
541.292	518.69
541.506	506.69
541.72	498.69
541.934	507.69
542.147	520.69
542.361	492.69
542.575	501.69
542.789	502.69
543.002	500.69
543.216	520.69
543.43	524.69
543.644	483.69
543.857	495.69
544.071	493.69
544.285	517.69
544.498	495.69
544.712	498.69
544.925	503.69
545.139	482.69
545.352	495.69
545.566	494.69
545.779	503.69
545.993	479.69
546.206	491.69
546.42	501.69
546.633	496.69
546.847	495.69
547.06	463.69
547.274	480.69
547.487	480.69
547.7	475.69
547.914	482.69
548.127	475.69
548.34	492.69
548.554	484.69
548.767	485.69
548.98	491.69
549.193	484.69
549.407	491.69
549.62	499.69
549.833	496.69
550.046	485.69
550.259	485.69
550.473	477.69
550.686	477.69
550.899	467.69
551.112	484.69
551.325	480.69
551.538	480.69
551.751	486.69
551.964	467.69
552.177	479.69
552.39	479.69
552.603	492.69
552.816	498.69
553.029	499.69
553.242	488.69
553.455	488.69
553.667	486.69
553.88	508.69
554.093	500.69
554.306	477.69
554.519	485.69
554.732	488.69
554.944	475.69
555.157	471.69
555.37	466.69
555.583	485.69
555.795	464.69
556.008	448.69
556.221	463.69
556.433	467.69
556.646	471.69
556.859	450.69
557.071	461.69
557.284	436.69
557.496	428.69
557.709	453.69
557.921	460.69
558.134	420.69
558.346	438.69
558.559	450.69
558.771	450.69
558.984	431.69
559.196	428.69
559.409	426.69
559.621	420.69
559.833	440.69
560.046	434.69
560.258	425.69
560.47	441.69
560.683	427.69
560.895	430.69
561.107	431.69
561.32	400.69
561.532	442.69
561.744	417.69
561.956	408.69
562.168	436.69
562.381	429.69
562.593	432.69
562.805	453.69
563.017	442.69
563.229	438.69
563.441	452.69
563.653	448.69
563.865	461.69
564.077	446.69
564.289	426.69
564.501	418.69
564.713	455.69
564.925	467.69
565.137	480.69
565.349	469.69
565.561	500.69
565.773	485.69
565.985	502.69
566.197	493.69
566.408	500.69
566.62	514.69
566.832	532.69
567.044	542.69
567.255	534.69
567.467	542.69
567.679	546.69
567.891	550.69
568.102	555.69
568.314	554.69
568.526	523.69
568.737	519.69
568.949	505.69
569.161	488.69
569.372	461.69
569.584	451.69
569.795	440.69
570.007	476.69
570.218	478.69
570.43	460.69
570.641	431.69
570.853	442.69
571.064	428.69
571.276	415.69
571.487	423.69
571.698	431.69
571.91	428.69
572.121	433.69
572.333	400.69
572.544	402.69
572.755	386.69
572.966	415.69
573.178	388.69
573.389	379.69
573.6	395.69
573.811	385.69
574.023	384.69
574.234	386.69
574.445	386.69
574.656	379.69
574.867	377.69
575.078	388.69
575.289	375.69
575.501	380.69
575.712	375.69
575.923	377.69
576.134	375.69
576.345	366.69
576.556	358.69
576.767	390.69
576.978	372.69
577.188	367.69
577.399	370.69
577.61	351.69
577.821	344.69
578.032	365.69
578.243	382.69
578.454	586.69
578.665	462.69
578.875	370.69
579.086	354.69
579.297	348.69
579.508	358.69
579.718	338.69
579.929	342.69
580.14	365.69
580.35	370.69
580.561	354.69
580.772	345.69
580.982	342.69
581.193	331.69
581.403	340.69
581.614	326.69
581.825	327.69
582.035	324.69
582.246	348.69
582.456	335.69
582.667	336.69
582.877	360.69
583.087	337.69
583.298	319.69
583.508	349.69
583.719	333.69
583.929	335.69
584.139	335.69
584.35	325.69
584.56	342.69
584.77	321.69
584.981	326.69
585.191	320.69
585.401	325.69
585.611	339.69
585.821	321.69
586.032	338.69
586.242	330.69
586.452	363.69
586.662	352.69
586.872	340.69
587.082	331.69
587.292	326.69
587.502	318.69
587.713	333.69
587.923	334.69
588.133	319.69
588.343	334.69
588.553	328.69
588.762	328.69
588.972	335.69
589.182	349.69
589.392	318.69
589.602	344.69
589.812	332.69
590.022	341.69
590.232	329.69
590.441	324.69
590.651	342.69
590.861	324.69
591.071	310.69
591.281	332.69
591.49	341.69
591.7	319.69
591.91	336.69
592.119	341.69
592.329	346.69
592.539	340.69
592.748	346.69
592.958	347.69
593.167	342.69
593.377	332.69
593.587	337.69
593.796	335.69
594.006	318.69
594.215	327.69
594.424	347.69
594.634	360.69
594.843	367.69
595.053	350.69
595.262	358.69
595.472	335.69
595.681	328.69
595.89	310.69
596.1	326.69
596.309	321.69
596.518	313.69
596.727	314.69
596.937	320.69
597.146	325.69
597.355	322.69
597.564	320.69
597.774	302.69
597.983	295.69
598.192	296.69
598.401	319.69
598.61	285.69
598.819	316.69
599.028	296.69
599.237	292.69
599.446	291.69
599.655	293.69
599.864	278.69
600.073	280.69
600.282	270.69
600.491	275.69
600.7	273.69
600.909	278.69
601.118	288.69
601.327	303.69
601.536	287.69
601.745	290.69
601.953	279.69
602.162	276.69
602.371	274.69
602.58	264.69
602.789	269.69
602.997	259.69
603.206	282.69
603.415	291.69
603.623	282.69
603.832	284.69
604.041	272.69
604.249	271.69
604.458	272.69
604.666	283.69
604.875	277.69
605.084	255.69
605.292	254.69
605.501	283.69
605.709	272.69
605.918	264.69
606.126	273.69
606.334	270.69
606.543	281.69
606.751	279.69
606.96	259.69
607.168	254.69
607.376	258.69
607.585	279.69
607.793	251.69
608.001	264.69
608.21	257.69
608.418	273.69
608.626	272.69
608.834	254.69
609.043	278.69
609.251	270.69
609.459	269.69
609.667	268.69
609.875	269.69
610.083	268.69
610.291	258.69
610.499	262.69
610.707	269.69
610.916	261.69
611.124	248.69
611.332	282.69
611.54	266.69
611.748	278.69
611.955	266.69
612.163	263.69
612.371	270.69
612.579	264.69
612.787	261.69
612.995	250.69
613.203	254.69
613.411	261.69
613.618	262.69
613.826	258.69
614.034	268.69
614.242	247.69
614.449	242.69
614.657	254.69
614.865	231.69
615.072	261.69
615.28	258.69
615.488	258.69
615.695	256.69
615.903	260.69
616.111	252.69
616.318	271.69
616.526	264.69
616.733	272.69
616.941	268.69
617.148	269.69
617.356	265.69
617.563	235.69
617.771	267.69
617.978	258.69
618.185	244.69
618.393	248.69
618.6	235.69
618.807	246.69
619.015	260.69
619.222	243.69
619.429	260.69
619.637	240.69
619.844	239.69
620.051	244.69
620.258	244.69
620.466	230.69
620.673	227.69
620.88	239.69
621.087	243.69
621.294	234.69
621.501	236.69
621.708	245.69
621.915	246.69
622.122	260.69
622.329	244.69
622.536	244.69
622.743	232.69
622.95	247.69
623.157	244.69
623.364	242.69
623.571	242.69
623.778	227.69
623.985	246.69
624.192	230.69
624.399	232.69
624.606	231.69
624.812	229.69
625.019	238.69
625.226	226.69
625.433	223.69
625.639	228.69
625.846	232.69
626.053	230.69
626.259	221.69
626.466	223.69
626.673	230.69
626.879	206.69
627.086	228.69
627.293	224.69
627.499	239.69
627.706	217.69
627.912	204.69
628.119	214.69
628.325	208.69
628.532	219.69
628.738	219.69
628.945	216.69
629.151	199.69
629.357	196.69
629.564	209.69
629.77	212.69
629.976	212.69
630.183	205.69
630.389	200.69
630.595	216.69
630.802	210.69
631.008	197.69
631.214	206.69
631.42	214.69
631.627	221.69
631.833	210.69
632.039	208.69
632.245	215.69
632.451	213.69
632.657	199.69
632.863	210.69
633.069	210.69
633.275	194.69
633.481	209.69
633.688	195.69
633.893	200.69
634.099	201.69
634.305	190.69
634.511	193.69
634.717	187.69
634.923	190.69
635.129	175.69
635.335	186.69
635.541	182.69
635.747	192.69
635.952	203.69
636.158	202.69
636.364	198.69
636.57	181.69
636.775	196.69
636.981	200.69
637.187	204.69
637.392	192.69
637.598	207.69
637.804	197.69
638.009	201.69
638.215	192.69
638.421	195.69
638.626	184.69
638.832	193.69
639.037	189.69
639.243	197.69
639.448	200.69
639.654	201.69
639.859	186.69
640.065	203.69
640.27	202.69
640.475	182.69
640.681	191.69
640.886	190.69
641.091	187.69
641.297	195.69
641.502	184.69
641.707	189.69
641.913	173.69
642.118	164.69
642.323	198.69
642.528	184.69
642.733	182.69
642.939	182.69
643.144	183.69
643.349	186.69
643.554	177.69
643.759	180.69
643.964	179.69
644.169	175.69
644.374	169.69
644.579	176.69
644.784	175.69
644.989	181.69
645.194	189.69
645.399	190.69
645.604	164.69
645.809	170.69
646.014	157.69
646.219	180.69
646.423	184.69
646.628	187.69
646.833	181.69
647.038	172.69
647.243	173.69
647.447	169.69
647.652	183.69
647.857	179.69
648.062	168.69
648.266	170.69
648.471	186.69
648.676	174.69
648.88	192.69
649.085	194.69
649.289	171.69
649.494	189.69
649.698	206.69
649.903	192.69
650.107	190.69
650.312	177.69
650.516	178.69
650.721	175.69
650.925	165.69
651.13	166.69
651.334	161.69
651.539	152.69
651.743	148.69
651.947	149.69
652.152	142.69
652.356	144.69
652.56	147.69
652.764	162.69
652.969	153.69
653.173	171.69
653.377	138.69
653.581	148.69
653.785	135.69
653.99	158.69
654.194	139.69
654.398	144.69
654.602	142.69
654.806	133.69
655.01	139.69
655.214	166.69
655.418	152.69
655.622	146.69
655.826	139.69
656.03	121.69
656.234	139.69
656.438	139.69
656.642	123.69
656.846	137.69
657.049	142.69
657.253	132.69
657.457	123.69
657.661	139.69
657.865	122.69
658.068	127.69
658.272	111.69
658.476	109.69
658.68	94.69
658.883	102.69
659.087	101.69
659.291	105.69
659.494	102.69
659.698	117.69
659.901	95.69
660.105	92.69
660.309	99.69
660.512	98.69
660.716	105.69
660.919	101.69
661.123	90.69
661.326	81.69
661.53	89.69
661.733	112.69
661.936	78.69
662.14	98.69
662.343	97.69
662.546	81.69
662.75	82.69
662.953	73.69
663.156	83.69
663.36	75.69
663.563	92.69
663.766	80.69
663.969	79.69
664.173	81.69
664.376	85.69
664.579	81.69
664.782	81.69
664.985	88.69
665.188	86.69
665.391	89.69
665.594	74.69
665.797	78.69
666	83.69
666.203	77.69
666.406	79.69
666.609	79.69
666.812	81.69
667.015	86.69
667.218	83.69
667.421	83.69
667.624	73.69
667.827	76.69
668.03	71.69
668.232	91.69
668.435	95.69
668.638	81.69
668.841	87.69
669.043	79.69
669.246	82.69
669.449	71.69
669.651	68.69
669.854	94.69
670.057	88.69
670.259	95.69
670.462	89.69
670.665	75.69
670.867	75.69
671.07	76.69
671.272	79.69
671.475	80.69
671.677	82.69
671.88	80.69
672.082	85.69
672.284	77.69
672.487	86.69
672.689	75.69
672.892	89.69
