Data from 1978.PennyLincolnUp.Lamp.En5.5.200Scan.071719.P1_HRD10591_16-12-29-864.txt Node
Date: Thu Jul 18 16:12:29 EDT 2019
User: cochatt
Spectrometer: HR+D1059
Trigger mode: 1
Integration Time (sec): 1.000000E-1
Scans to average: 1
Electric dark correction enabled: true
Nonlinearity correction enabled: false
Boxcar width: 0
XAxis mode: Wavelengths
Number of Pixels in Spectrum: 2048
>>>>>Begin Spectral Data<<<<<
223.165	-23.62
223.4	-23.62
223.635	-23.62
223.869	-18.62
224.104	-7.62
224.338	-26.62
224.573	-16.62
224.808	-7.62
225.042	0.38
225.277	2.38
225.511	6.38
225.746	-1.62
225.98	15.38
226.215	21.38
226.449	12.38
226.683	-0.62
226.918	18.38
227.152	26.38
227.387	37.38
227.621	28.38
227.856	48.38
228.09	40.38
228.324	64.38
228.559	60.38
228.793	59.38
229.027	104.38
229.262	91.38
229.496	105.38
229.73	131.38
229.964	155.38
230.199	126.38
230.433	113.38
230.667	123.38
230.901	114.38
231.136	106.38
231.37	111.38
231.604	101.38
231.838	103.38
232.072	112.38
232.306	109.38
232.541	96.38
232.775	119.38
233.009	123.38
233.243	123.38
233.477	111.38
233.711	114.38
233.945	123.38
234.179	107.38
234.413	114.38
234.647	117.38
234.881	114.38
235.115	127.38
235.349	114.38
235.583	107.38
235.817	126.38
236.051	121.38
236.285	136.38
236.519	124.38
236.753	126.38
236.987	127.38
237.221	183.38
237.455	220.38
237.689	188.38
237.922	142.38
238.156	126.38
238.39	125.38
238.624	125.38
238.858	117.38
239.091	126.38
239.325	110.38
239.559	136.38
239.793	118.38
240.027	137.38
240.26	133.38
240.494	137.38
240.728	123.38
240.961	135.38
241.195	134.38
241.429	128.38
241.662	128.38
241.896	123.38
242.13	123.38
242.363	128.38
242.597	125.38
242.83	135.38
243.064	140.38
243.298	144.38
243.531	142.38
243.765	143.38
243.998	132.38
244.232	116.38
244.465	139.38
244.699	152.38
244.932	152.38
245.166	145.38
245.399	142.38
245.633	130.38
245.866	130.38
246.099	135.38
246.333	146.38
246.566	134.38
246.8	144.38
247.033	164.38
247.266	145.38
247.5	157.38
247.733	156.38
247.966	165.38
248.2	157.38
248.433	168.38
248.666	167.38
248.899	160.38
249.133	188.38
249.366	197.38
249.599	167.38
249.832	153.38
250.066	170.38
250.299	155.38
250.532	181.38
250.765	213.38
250.998	197.38
251.231	186.38
251.465	193.38
251.698	181.38
251.931	178.38
252.164	181.38
252.397	187.38
252.63	201.38
252.863	190.38
253.096	204.38
253.329	214.38
253.562	201.38
253.795	204.38
254.028	184.38
254.261	198.38
254.494	201.38
254.727	223.38
254.96	227.38
255.193	228.38
255.426	204.38
255.659	187.38
255.892	215.38
256.124	205.38
256.357	204.38
256.59	198.38
256.823	223.38
257.056	193.38
257.289	203.38
257.521	182.38
257.754	193.38
257.987	207.38
258.22	192.38
258.452	191.38
258.685	198.38
258.918	192.38
259.151	178.38
259.383	198.38
259.616	208.38
259.849	206.38
260.081	199.38
260.314	233.38
260.547	239.38
260.779	228.38
261.012	209.38
261.244	211.38
261.477	213.38
261.71	180.38
261.942	207.38
262.175	206.38
262.407	203.38
262.64	196.38
262.872	196.38
263.105	207.38
263.337	203.38
263.57	196.38
263.802	199.38
264.035	202.38
264.267	189.38
264.499	202.38
264.732	204.38
264.964	216.38
265.197	217.38
265.429	197.38
265.661	197.38
265.894	204.38
266.126	201.38
266.358	203.38
266.591	207.38
266.823	204.38
267.055	214.38
267.287	219.38
267.52	207.38
267.752	206.38
267.984	220.38
268.216	223.38
268.448	212.38
268.681	223.38
268.913	220.38
269.145	236.38
269.377	252.38
269.609	260.38
269.841	238.38
270.073	246.38
270.306	260.38
270.538	273.38
270.77	277.38
271.002	242.38
271.234	244.38
271.466	253.38
271.698	262.38
271.93	268.38
272.162	286.38
272.394	280.38
272.626	275.38
272.858	259.38
273.09	262.38
273.322	263.38
273.553	246.38
273.785	257.38
274.017	250.38
274.249	256.38
274.481	248.38
274.713	245.38
274.945	247.38
275.176	262.38
275.408	262.38
275.64	244.38
275.872	231.38
276.104	245.38
276.335	250.38
276.567	240.38
276.799	266.38
277.031	277.38
277.262	285.38
277.494	280.38
277.726	276.38
277.957	274.38
278.189	249.38
278.421	246.38
278.652	260.38
278.884	263.38
279.115	239.38
279.347	251.38
279.579	246.38
279.81	246.38
280.042	267.38
280.273	238.38
280.505	236.38
280.736	244.38
280.968	269.38
281.199	242.38
281.431	241.38
281.662	268.38
281.894	258.38
282.125	252.38
282.356	258.38
282.588	278.38
282.819	279.38
283.051	268.38
283.282	247.38
283.513	260.38
283.745	272.38
283.976	270.38
284.207	266.38
284.439	276.38
284.67	275.38
284.901	258.38
285.132	271.38
285.364	278.38
285.595	284.38
285.826	278.38
286.057	289.38
286.288	267.38
286.52	267.38
286.751	278.38
286.982	266.38
287.213	279.38
287.444	271.38
287.675	279.38
287.906	278.38
288.138	277.38
288.369	285.38
288.6	287.38
288.831	292.38
289.062	286.38
289.293	296.38
289.524	262.38
289.755	281.38
289.986	264.38
290.217	284.38
290.448	272.38
290.679	282.38
290.91	277.38
291.141	282.38
291.371	276.38
291.602	286.38
291.833	291.38
292.064	289.38
292.295	272.38
292.526	263.38
292.757	286.38
292.987	280.38
293.218	276.38
293.449	263.38
293.68	273.38
293.91	282.38
294.141	267.38
294.372	283.38
294.603	295.38
294.833	290.38
295.064	279.38
295.295	286.38
295.525	292.38
295.756	297.38
295.987	297.38
296.217	310.38
296.448	312.38
296.679	299.38
296.909	287.38
297.14	292.38
297.37	299.38
297.601	306.38
297.831	293.38
298.062	303.38
298.292	303.38
298.523	288.38
298.753	279.38
298.984	295.38
299.214	290.38
299.445	289.38
299.675	316.38
299.905	315.38
300.136	277.38
300.366	313.38
300.597	295.38
300.827	296.38
301.057	326.38
301.288	322.38
301.518	326.38
301.748	301.38
301.979	315.38
302.209	324.38
302.439	302.38
302.669	314.38
302.9	308.38
303.13	307.38
303.36	308.38
303.59	326.38
303.82	332.38
304.051	337.38
304.281	330.38
304.511	300.38
304.741	316.38
304.971	312.38
305.201	302.38
305.431	314.38
305.661	316.38
305.891	307.38
306.121	314.38
306.352	311.38
306.582	330.38
306.812	324.38
307.042	328.38
307.272	318.38
307.502	312.38
307.731	317.38
307.961	318.38
308.191	314.38
308.421	316.38
308.651	334.38
308.881	332.38
309.111	326.38
309.341	332.38
309.571	324.38
309.8	342.38
310.03	336.38
310.26	360.38
310.49	339.38
310.72	340.38
310.949	365.38
311.179	365.38
311.409	367.38
311.639	373.38
311.868	331.38
312.098	370.38
312.328	374.38
312.557	375.38
312.787	372.38
313.017	389.38
313.246	366.38
313.476	354.38
313.706	357.38
313.935	364.38
314.165	362.38
314.394	357.38
314.624	392.38
314.853	370.38
315.083	378.38
315.312	363.38
315.542	366.38
315.771	347.38
316.001	356.38
316.23	361.38
316.46	375.38
316.689	347.38
316.919	364.38
317.148	357.38
317.377	370.38
317.607	363.38
317.836	361.38
318.065	376.38
318.295	354.38
318.524	352.38
318.753	346.38
318.983	361.38
319.212	367.38
319.441	384.38
319.67	374.38
319.9	379.38
320.129	379.38
320.358	367.38
320.587	378.38
320.816	376.38
321.046	376.38
321.275	373.38
321.504	374.38
321.733	357.38
321.962	377.38
322.191	380.38
322.42	394.38
322.649	397.38
322.878	422.38
323.108	427.38
323.337	441.38
323.566	461.38
323.795	471.38
324.024	528.38
324.253	604.38
324.482	886.38
324.71	1380.38
324.939	2021.38
325.168	1782.38
325.397	904.38
325.626	584.38
325.855	516.38
326.084	480.38
326.313	459.38
326.542	448.38
326.77	520.38
326.999	599.38
327.228	800.38
327.457	1214.38
327.686	1510.38
327.914	1014.38
328.143	629.38
328.372	587.38
328.6	544.38
328.829	503.38
329.058	502.38
329.287	523.38
329.515	516.38
329.744	479.38
329.972	477.38
330.201	472.38
330.43	508.38
330.658	530.38
330.887	552.38
331.115	558.38
331.344	503.38
331.572	448.38
331.801	457.38
332.03	450.38
332.258	431.38
332.486	430.38
332.715	421.38
332.943	425.38
333.172	420.38
333.4	441.38
333.629	454.38
333.857	468.38
334.085	452.38
334.314	444.38
334.542	493.38
334.771	498.38
334.999	452.38
335.227	459.38
335.455	453.38
335.684	461.38
335.912	436.38
336.14	430.38
336.369	427.38
336.597	452.38
336.825	430.38
337.053	423.38
337.281	452.38
337.51	413.38
337.738	440.38
337.966	431.38
338.194	422.38
338.422	429.38
338.65	439.38
338.878	428.38
339.106	414.38
339.334	412.38
339.562	417.38
339.79	426.38
340.018	419.38
340.246	415.38
340.474	416.38
340.702	433.38
340.93	427.38
341.158	422.38
341.386	406.38
341.614	416.38
341.842	426.38
342.07	412.38
342.298	412.38
342.526	414.38
342.754	404.38
342.981	402.38
343.209	416.38
343.437	401.38
343.665	398.38
343.893	411.38
344.12	418.38
344.348	447.38
344.576	438.38
344.804	434.38
345.031	454.38
345.259	446.38
345.487	428.38
345.714	426.38
345.942	410.38
346.17	416.38
346.397	404.38
346.625	426.38
346.853	398.38
347.08	408.38
347.308	427.38
347.535	394.38
347.763	411.38
347.99	420.38
348.218	414.38
348.445	418.38
348.673	396.38
348.9	410.38
349.128	391.38
349.355	391.38
349.583	406.38
349.81	386.38
350.037	392.38
350.265	372.38
350.492	397.38
350.72	388.38
350.947	380.38
351.174	400.38
351.402	412.38
351.629	437.38
351.856	431.38
352.083	418.38
352.311	411.38
352.538	410.38
352.765	414.38
352.992	407.38
353.22	400.38
353.447	403.38
353.674	396.38
353.901	404.38
354.128	393.38
354.355	386.38
354.583	397.38
354.81	397.38
355.037	392.38
355.264	388.38
355.491	382.38
355.718	375.38
355.945	383.38
356.172	382.38
356.399	397.38
356.626	373.38
356.853	367.38
357.08	381.38
357.307	396.38
357.534	388.38
357.761	378.38
357.988	383.38
358.215	409.38
358.441	399.38
358.668	388.38
358.895	391.38
359.122	406.38
359.349	416.38
359.576	403.38
359.802	435.38
360.029	443.38
360.256	461.38
360.483	462.38
360.709	411.38
360.936	417.38
361.163	413.38
361.39	411.38
361.616	421.38
361.843	399.38
362.07	405.38
362.296	414.38
362.523	419.38
362.749	412.38
362.976	402.38
363.203	397.38
363.429	403.38
363.656	415.38
363.882	414.38
364.109	396.38
364.335	396.38
364.562	404.38
364.788	393.38
365.015	388.38
365.241	397.38
365.468	390.38
365.694	411.38
365.92	402.38
366.147	399.38
366.373	389.38
366.599	401.38
366.826	404.38
367.052	404.38
367.278	412.38
367.505	400.38
367.731	402.38
367.957	419.38
368.184	419.38
368.41	412.38
368.636	436.38
368.862	421.38
369.089	419.38
369.315	407.38
369.541	396.38
369.767	401.38
369.993	404.38
370.219	404.38
370.445	423.38
370.672	405.38
370.898	385.38
371.124	388.38
371.35	401.38
371.576	406.38
371.802	408.38
372.028	404.38
372.254	413.38
372.48	436.38
372.706	410.38
372.932	417.38
373.158	426.38
373.384	412.38
373.61	404.38
373.835	422.38
374.061	422.38
374.287	413.38
374.513	414.38
374.739	406.38
374.965	415.38
375.191	429.38
375.416	410.38
375.642	417.38
375.868	411.38
376.094	394.38
376.319	398.38
376.545	400.38
376.771	418.38
376.997	406.38
377.222	405.38
377.448	417.38
377.674	416.38
377.899	412.38
378.125	410.38
378.35	413.38
378.576	400.38
378.802	413.38
379.027	405.38
379.253	412.38
379.478	436.38
379.704	404.38
379.929	414.38
380.155	422.38
380.38	433.38
380.606	402.38
380.831	403.38
381.057	405.38
381.282	421.38
381.507	439.38
381.733	412.38
381.958	428.38
382.184	432.38
382.409	416.38
382.634	427.38
382.86	432.38
383.085	431.38
383.31	432.38
383.535	400.38
383.761	438.38
383.986	420.38
384.211	459.38
384.436	444.38
384.662	457.38
384.887	428.38
385.112	436.38
385.337	454.38
385.562	438.38
385.787	448.38
386.013	443.38
386.238	467.38
386.463	463.38
386.688	458.38
386.913	455.38
387.138	446.38
387.363	462.38
387.588	452.38
387.813	456.38
388.038	474.38
388.263	454.38
388.488	445.38
388.713	464.38
388.938	449.38
389.163	469.38
389.387	470.38
389.612	466.38
389.837	478.38
390.062	463.38
390.287	472.38
390.512	465.38
390.736	463.38
390.961	467.38
391.186	466.38
391.411	463.38
391.636	455.38
391.86	487.38
392.085	475.38
392.31	477.38
392.534	479.38
392.759	483.38
392.984	472.38
393.208	467.38
393.433	474.38
393.658	471.38
393.882	484.38
394.107	450.38
394.331	475.38
394.556	476.38
394.78	479.38
395.005	481.38
395.229	492.38
395.454	487.38
395.678	475.38
395.903	471.38
396.127	534.38
396.352	514.38
396.576	478.38
396.801	464.38
397.025	495.38
397.249	487.38
397.474	498.38
397.698	489.38
397.922	518.38
398.147	520.38
398.371	536.38
398.595	531.38
398.82	521.38
399.044	550.38
399.268	549.38
399.492	594.38
399.717	616.38
399.941	639.38
400.165	665.38
400.389	671.38
400.613	626.38
400.837	562.38
401.062	573.38
401.286	528.38
401.51	526.38
401.734	519.38
401.958	566.38
402.182	556.38
402.406	564.38
402.63	557.38
402.854	556.38
403.078	557.38
403.302	551.38
403.526	576.38
403.75	549.38
403.974	537.38
404.198	557.38
404.422	562.38
404.645	567.38
404.869	558.38
405.093	589.38
405.317	650.38
405.541	671.38
405.765	618.38
405.988	591.38
406.212	604.38
406.436	610.38
406.66	606.38
406.883	573.38
407.107	634.38
407.331	663.38
407.555	716.38
407.778	749.38
408.002	680.38
408.226	635.38
408.449	619.38
408.673	626.38
408.896	628.38
409.12	690.38
409.344	667.38
409.567	581.38
409.791	576.38
410.014	575.38
410.238	582.38
410.461	555.38
410.685	575.38
410.908	578.38
411.132	595.38
411.355	631.38
411.578	620.38
411.802	574.38
412.025	560.38
412.249	566.38
412.472	610.38
412.695	623.38
412.919	597.38
413.142	559.38
413.365	552.38
413.589	555.38
413.812	563.38
414.035	553.38
414.258	554.38
414.482	537.38
414.705	534.38
414.928	536.38
415.151	530.38
415.374	523.38
415.597	511.38
415.821	524.38
416.044	539.38
416.267	508.38
416.49	552.38
416.713	532.38
416.936	537.38
417.159	513.38
417.382	518.38
417.605	512.38
417.828	520.38
418.051	548.38
418.274	538.38
418.497	526.38
418.72	529.38
418.943	540.38
419.166	558.38
419.389	575.38
419.611	568.38
419.834	561.38
420.057	560.38
420.28	541.38
420.503	544.38
420.726	548.38
420.948	547.38
421.171	607.38
421.394	636.38
421.617	579.38
421.839	568.38
422.062	548.38
422.285	549.38
422.507	614.38
422.73	690.38
422.953	678.38
423.175	589.38
423.398	586.38
423.621	574.38
423.843	564.38
424.066	561.38
424.288	591.38
424.511	591.38
424.733	659.38
424.956	743.38
425.178	697.38
425.401	679.38
425.623	735.38
425.846	638.38
426.068	594.38
426.291	596.38
426.513	606.38
426.735	584.38
426.958	603.38
427.18	717.38
427.402	866.38
427.625	948.38
427.847	784.38
428.069	678.38
428.292	622.38
428.514	562.38
428.736	550.38
428.958	544.38
429.181	522.38
429.403	557.38
429.625	558.38
429.847	567.38
430.069	642.38
430.292	621.38
430.514	580.38
430.736	532.38
430.958	526.38
431.18	510.38
431.402	528.38
431.624	511.38
431.846	510.38
432.068	524.38
432.29	519.38
432.512	521.38
432.734	541.38
432.956	509.38
433.178	509.38
433.4	537.38
433.622	536.38
433.844	523.38
434.066	529.38
434.287	540.38
434.509	514.38
434.731	540.38
434.953	530.38
435.175	539.38
435.397	565.38
435.618	574.38
435.84	623.38
436.062	697.38
436.284	794.38
436.505	656.38
436.727	600.38
436.949	541.38
437.17	540.38
437.392	553.38
437.614	541.38
437.835	570.38
438.057	668.38
438.278	797.38
438.5	784.38
438.721	859.38
438.943	851.38
439.165	662.38
439.386	600.38
439.608	577.38
439.829	593.38
440.05	587.38
440.272	669.38
440.493	618.38
440.715	581.38
440.936	568.38
441.158	541.38
441.379	539.38
441.6	577.38
441.822	558.38
442.043	599.38
442.264	694.38
442.486	749.38
442.707	625.38
442.928	580.38
443.149	592.38
443.371	599.38
443.592	671.38
443.813	772.38
444.034	842.38
444.255	673.38
444.476	633.38
444.698	580.38
444.919	594.38
445.14	696.38
445.361	637.38
445.582	614.38
445.803	687.38
446.024	787.38
446.245	823.38
446.466	719.38
446.687	609.38
446.908	592.38
447.129	559.38
447.35	565.38
447.571	557.38
447.792	533.38
448.013	529.38
448.234	548.38
448.455	609.38
448.675	704.38
448.896	846.38
449.117	724.38
449.338	671.38
449.559	760.38
449.779	902.38
450	683.38
450.221	570.38
450.442	536.38
450.662	518.38
450.883	552.38
451.104	550.38
451.324	522.38
451.545	526.38
451.766	512.38
451.986	464.38
452.207	492.38
452.428	484.38
452.648	478.38
452.869	483.38
453.089	502.38
453.31	482.38
453.53	480.38
453.751	483.38
453.971	486.38
454.192	485.38
454.412	483.38
454.633	467.38
454.853	463.38
455.073	482.38
455.294	501.38
455.514	570.38
455.734	578.38
455.955	470.38
456.175	458.38
456.395	459.38
456.616	467.38
456.836	450.38
457.056	461.38
457.276	446.38
457.497	463.38
457.717	469.38
457.937	459.38
458.157	482.38
458.377	481.38
458.598	478.38
458.818	554.38
459.038	620.38
459.258	653.38
459.478	559.38
459.698	512.38
459.918	515.38
460.138	521.38
460.358	539.38
460.578	543.38
460.798	526.38
461.018	559.38
461.238	537.38
461.458	549.38
461.678	556.38
461.898	546.38
462.118	562.38
462.338	586.38
462.558	553.38
462.777	559.38
462.997	577.38
463.217	603.38
463.437	586.38
463.657	602.38
463.876	591.38
464.096	576.38
464.316	574.38
464.536	564.38
464.755	582.38
464.975	592.38
465.195	630.38
465.414	660.38
465.634	595.38
465.854	546.38
466.073	529.38
466.293	534.38
466.512	527.38
466.732	533.38
466.951	498.38
467.171	493.38
467.391	496.38
467.61	519.38
467.829	540.38
468.049	513.38
468.268	508.38
468.488	484.38
468.707	474.38
468.927	511.38
469.146	485.38
469.365	505.38
469.585	490.38
469.804	512.38
470.023	512.38
470.243	523.38
470.462	499.38
470.681	539.38
470.901	525.38
471.12	514.38
471.339	511.38
471.558	512.38
471.777	498.38
471.997	510.38
472.216	514.38
472.435	553.38
472.654	536.38
472.873	491.38
473.092	504.38
473.311	510.38
473.53	503.38
473.749	527.38
473.968	558.38
474.187	619.38
474.406	680.38
474.625	532.38
474.844	538.38
475.063	498.38
475.282	498.38
475.501	501.38
475.72	529.38
475.939	550.38
476.158	535.38
476.377	529.38
476.596	532.38
476.814	535.38
477.033	538.38
477.252	526.38
477.471	553.38
477.69	528.38
477.908	533.38
478.127	572.38
478.346	557.38
478.564	585.38
478.783	565.38
479.002	599.38
479.22	616.38
479.439	595.38
479.658	607.38
479.876	611.38
480.095	615.38
480.313	640.38
480.532	642.38
480.751	635.38
480.969	640.38
481.188	662.38
481.406	696.38
481.624	656.38
481.843	627.38
482.061	609.38
482.28	603.38
482.498	600.38
482.717	580.38
482.935	602.38
483.153	580.38
483.372	578.38
483.59	586.38
483.808	599.38
484.027	611.38
484.245	591.38
484.463	615.38
484.681	623.38
484.9	629.38
485.118	638.38
485.336	616.38
485.554	608.38
485.772	611.38
485.99	614.38
486.209	606.38
486.427	633.38
486.645	620.38
486.863	633.38
487.081	643.38
487.299	633.38
487.517	607.38
487.735	605.38
487.953	618.38
488.171	619.38
488.389	635.38
488.607	620.38
488.825	625.38
489.043	641.38
489.261	631.38
489.479	621.38
489.696	656.38
489.914	655.38
490.132	647.38
490.35	642.38
490.568	661.38
490.786	670.38
491.003	664.38
491.221	677.38
491.439	672.38
491.657	702.38
491.874	709.38
492.092	694.38
492.31	702.38
492.527	714.38
492.745	691.38
492.963	702.38
493.18	712.38
493.398	717.38
493.615	704.38
493.833	745.38
494.05	703.38
494.268	744.38
494.485	719.38
494.703	716.38
494.92	742.38
495.138	714.38
495.355	723.38
495.573	744.38
495.79	750.38
496.008	730.38
496.225	745.38
496.442	718.38
496.66	736.38
496.877	746.38
497.094	750.38
497.312	779.38
497.529	802.38
497.746	790.38
497.963	822.38
498.181	810.38
498.398	834.38
498.615	843.38
498.832	850.38
499.049	882.38
499.267	903.38
499.484	925.38
499.701	961.38
499.918	1000.38
500.135	1008.38
500.352	1069.38
500.569	1109.38
500.786	1121.38
501.003	1102.38
501.22	1086.38
501.437	1060.38
501.654	1009.38
501.871	990.38
502.088	942.38
502.305	908.38
502.522	858.38
502.739	888.38
502.956	828.38
503.172	825.38
503.389	800.38
503.606	816.38
503.823	786.38
504.04	807.38
504.256	787.38
504.473	756.38
504.69	765.38
504.907	736.38
505.123	733.38
505.34	724.38
505.557	720.38
505.773	722.38
505.99	738.38
506.207	700.38
506.423	698.38
506.64	694.38
506.856	682.38
507.073	706.38
507.289	701.38
507.506	702.38
507.722	697.38
507.939	683.38
508.155	697.38
508.372	692.38
508.588	694.38
508.805	652.38
509.021	654.38
509.238	666.38
509.454	699.38
509.67	670.38
509.887	652.38
510.103	646.38
510.319	655.38
510.536	757.38
510.752	1115.38
510.968	950.38
511.184	721.38
511.401	638.38
511.617	637.38
511.833	622.38
512.049	636.38
512.265	612.38
512.481	632.38
512.698	634.38
512.914	619.38
513.13	663.38
513.346	630.38
513.562	623.38
513.778	638.38
513.994	620.38
514.21	652.38
514.426	635.38
514.642	705.38
514.858	706.38
515.074	736.38
515.29	850.38
515.506	1101.38
515.721	962.38
515.937	722.38
516.153	707.38
516.369	670.38
516.585	652.38
516.801	685.38
517.016	660.38
517.232	671.38
517.448	670.38
517.664	667.38
517.879	646.38
518.095	671.38
518.311	674.38
518.527	662.38
518.742	661.38
518.958	647.38
519.173	655.38
519.389	660.38
519.605	643.38
519.82	663.38
520.036	651.38
520.251	650.38
520.467	678.38
520.682	668.38
520.898	688.38
521.113	672.38
521.329	714.38
521.544	766.38
521.76	940.38
521.975	1372.38
522.19	1381.38
522.406	869.38
522.621	696.38
522.836	654.38
523.052	632.38
523.267	600.38
523.482	580.38
523.698	595.38
523.913	599.38
524.128	588.38
524.343	587.38
524.559	567.38
524.774	572.38
524.989	545.38
525.204	572.38
525.419	562.38
525.634	551.38
525.849	534.38
526.064	568.38
526.28	549.38
526.495	549.38
526.71	523.38
526.925	526.38
527.14	532.38
527.355	534.38
527.57	540.38
527.785	532.38
527.999	544.38
528.214	534.38
528.429	530.38
528.644	542.38
528.859	515.38
529.074	519.38
529.289	570.38
529.503	603.38
529.718	601.38
529.933	545.38
530.148	544.38
530.363	556.38
530.577	546.38
530.792	547.38
531.007	525.38
531.221	542.38
531.436	532.38
531.651	528.38
531.865	540.38
532.08	539.38
532.295	524.38
532.509	516.38
532.724	511.38
532.938	541.38
533.153	524.38
533.367	542.38
533.582	520.38
533.796	514.38
534.011	528.38
534.225	529.38
534.44	507.38
534.654	530.38
534.868	503.38
535.083	510.38
535.297	487.38
535.511	495.38
535.726	512.38
535.94	527.38
536.154	521.38
536.369	485.38
536.583	521.38
536.797	506.38
537.011	517.38
537.225	495.38
537.44	501.38
537.654	509.38
537.868	488.38
538.082	503.38
538.296	493.38
538.51	504.38
538.724	490.38
538.938	494.38
539.153	503.38
539.367	500.38
539.581	517.38
539.795	484.38
540.009	487.38
540.222	480.38
540.436	502.38
540.65	502.38
540.864	478.38
541.078	530.38
541.292	530.38
541.506	466.38
541.72	492.38
541.934	463.38
542.147	503.38
542.361	485.38
542.575	490.38
542.789	496.38
543.002	472.38
543.216	476.38
543.43	495.38
543.644	493.38
543.857	498.38
544.071	489.38
544.285	494.38
544.498	498.38
544.712	480.38
544.925	486.38
545.139	489.38
545.352	475.38
545.566	474.38
545.779	474.38
545.993	467.38
546.206	486.38
546.42	473.38
546.633	471.38
546.847	465.38
547.06	485.38
547.274	482.38
547.487	487.38
547.7	466.38
547.914	466.38
548.127	475.38
548.34	483.38
548.554	456.38
548.767	482.38
548.98	492.38
549.193	490.38
549.407	464.38
549.62	488.38
549.833	482.38
550.046	492.38
550.259	466.38
550.473	465.38
550.686	475.38
550.899	459.38
551.112	462.38
551.325	447.38
551.538	467.38
551.751	477.38
551.964	484.38
552.177	476.38
552.39	478.38
552.603	500.38
552.816	492.38
553.029	509.38
553.242	492.38
553.455	477.38
553.667	486.38
553.88	503.38
554.093	494.38
554.306	478.38
554.519	462.38
554.732	475.38
554.944	470.38
555.157	448.38
555.37	461.38
555.583	436.38
555.795	458.38
556.008	447.38
556.221	451.38
556.433	427.38
556.646	450.38
556.859	426.38
557.071	438.38
557.284	436.38
557.496	451.38
557.709	421.38
557.921	428.38
558.134	410.38
558.346	412.38
558.559	426.38
558.771	452.38
558.984	429.38
559.196	420.38
559.409	418.38
559.621	416.38
559.833	424.38
560.046	414.38
560.258	418.38
560.47	420.38
560.683	418.38
560.895	413.38
561.107	437.38
561.32	432.38
561.532	421.38
561.744	414.38
561.956	426.38
562.168	423.38
562.381	440.38
562.593	402.38
562.805	434.38
563.017	418.38
563.229	436.38
563.441	433.38
563.653	431.38
563.865	436.38
564.077	449.38
564.289	428.38
564.501	461.38
564.713	465.38
564.925	450.38
565.137	460.38
565.349	461.38
565.561	435.38
565.773	477.38
565.985	485.38
566.197	498.38
566.408	488.38
566.62	489.38
566.832	519.38
567.044	534.38
567.255	523.38
567.467	548.38
567.679	546.38
567.891	564.38
568.102	572.38
568.314	558.38
568.526	529.38
568.737	498.38
568.949	494.38
569.161	500.38
569.372	442.38
569.584	477.38
569.795	455.38
570.007	458.38
570.218	459.38
570.43	457.38
570.641	422.38
570.853	442.38
571.064	424.38
571.276	418.38
571.487	415.38
571.698	412.38
571.91	412.38
572.121	393.38
572.333	396.38
572.544	400.38
572.755	386.38
572.966	388.38
573.178	396.38
573.389	395.38
573.6	397.38
573.811	390.38
574.023	390.38
574.234	376.38
574.445	382.38
574.656	386.38
574.867	380.38
575.078	385.38
575.289	360.38
575.501	384.38
575.712	382.38
575.923	363.38
576.134	356.38
576.345	349.38
576.556	376.38
576.767	363.38
576.978	376.38
577.188	374.38
577.399	365.38
577.61	345.38
577.821	374.38
578.032	382.38
578.243	382.38
578.454	539.38
578.665	444.38
578.875	375.38
579.086	357.38
579.297	348.38
579.508	338.38
579.718	344.38
579.929	346.38
580.14	341.38
580.35	354.38
580.561	367.38
580.772	337.38
580.982	346.38
581.193	328.38
581.403	347.38
581.614	341.38
581.825	329.38
582.035	347.38
582.246	341.38
582.456	310.38
582.667	331.38
582.877	344.38
583.087	326.38
583.298	330.38
583.508	351.38
583.719	327.38
583.929	339.38
584.139	319.38
584.35	324.38
584.56	335.38
584.77	342.38
584.981	340.38
585.191	335.38
585.401	340.38
585.611	332.38
585.821	335.38
586.032	335.38
586.242	334.38
586.452	323.38
586.662	331.38
586.872	314.38
587.082	330.38
587.292	348.38
587.502	310.38
587.713	327.38
587.923	309.38
588.133	325.38
588.343	325.38
588.553	322.38
588.762	331.38
588.972	325.38
589.182	315.38
589.392	318.38
589.602	311.38
589.812	319.38
590.022	317.38
590.232	319.38
590.441	315.38
590.651	316.38
590.861	322.38
591.071	318.38
591.281	335.38
591.49	325.38
591.7	329.38
591.91	335.38
592.119	316.38
592.329	337.38
592.539	352.38
592.748	342.38
592.958	322.38
593.167	335.38
593.377	330.38
593.587	356.38
593.796	358.38
594.006	318.38
594.215	336.38
594.424	343.38
594.634	335.38
594.843	365.38
595.053	336.38
595.262	318.38
595.472	329.38
595.681	334.38
595.89	309.38
596.1	324.38
596.309	310.38
596.518	308.38
596.727	320.38
596.937	300.38
597.146	302.38
597.355	319.38
597.564	296.38
597.774	284.38
597.983	273.38
598.192	295.38
598.401	297.38
598.61	290.38
598.819	298.38
599.028	286.38
599.237	290.38
599.446	295.38
599.655	281.38
599.864	280.38
600.073	274.38
600.282	297.38
600.491	297.38
600.7	279.38
600.909	270.38
601.118	282.38
601.327	282.38
601.536	286.38
601.745	279.38
601.953	301.38
602.162	296.38
602.371	279.38
602.58	268.38
602.789	284.38
602.997	248.38
603.206	265.38
603.415	277.38
603.623	279.38
603.832	286.38
604.041	272.38
604.249	267.38
604.458	270.38
604.666	246.38
604.875	261.38
605.084	281.38
605.292	265.38
605.501	272.38
605.709	279.38
605.918	259.38
606.126	279.38
606.334	270.38
606.543	278.38
606.751	257.38
606.96	247.38
607.168	284.38
607.376	261.38
607.585	263.38
607.793	270.38
608.001	257.38
608.21	271.38
608.418	270.38
608.626	267.38
608.834	275.38
609.043	261.38
609.251	248.38
609.459	269.38
609.667	267.38
609.875	277.38
610.083	259.38
610.291	267.38
610.499	259.38
610.707	253.38
610.916	277.38
611.124	276.38
611.332	307.38
611.54	280.38
611.748	254.38
611.955	276.38
612.163	262.38
612.371	256.38
612.579	247.38
612.787	266.38
612.995	269.38
613.203	292.38
613.411	251.38
613.618	244.38
613.826	261.38
614.034	248.38
614.242	253.38
614.449	242.38
614.657	262.38
614.865	251.38
615.072	250.38
615.28	250.38
615.488	240.38
615.695	236.38
615.903	267.38
616.111	238.38
616.318	266.38
616.526	264.38
616.733	264.38
616.941	261.38
617.148	262.38
617.356	252.38
617.563	260.38
617.771	245.38
617.978	260.38
618.185	250.38
618.393	243.38
618.6	247.38
618.807	264.38
619.015	249.38
619.222	251.38
619.429	239.38
619.637	236.38
619.844	245.38
620.051	246.38
620.258	234.38
620.466	216.38
620.673	223.38
620.88	244.38
621.087	235.38
621.294	226.38
621.501	235.38
621.708	239.38
621.915	234.38
622.122	253.38
622.329	238.38
622.536	232.38
622.743	232.38
622.95	250.38
623.157	234.38
623.364	247.38
623.571	239.38
623.778	225.38
623.985	236.38
624.192	259.38
624.399	237.38
624.606	245.38
624.812	235.38
625.019	227.38
625.226	226.38
625.433	237.38
625.639	207.38
625.846	223.38
626.053	226.38
626.259	226.38
626.466	214.38
626.673	230.38
626.879	209.38
627.086	226.38
627.293	205.38
627.499	229.38
627.706	216.38
627.912	223.38
628.119	205.38
628.325	208.38
628.532	222.38
628.738	214.38
628.945	212.38
629.151	210.38
629.357	212.38
629.564	212.38
629.77	208.38
629.976	198.38
630.183	194.38
630.389	188.38
630.595	202.38
630.802	203.38
631.008	191.38
631.214	200.38
631.42	230.38
631.627	219.38
631.833	214.38
632.039	212.38
632.245	212.38
632.451	203.38
632.657	196.38
632.863	209.38
633.069	195.38
633.275	208.38
633.481	205.38
633.688	201.38
633.893	206.38
634.099	227.38
634.305	204.38
634.511	216.38
634.717	190.38
634.923	208.38
635.129	196.38
635.335	206.38
635.541	177.38
635.747	191.38
635.952	188.38
636.158	196.38
636.364	208.38
636.57	192.38
636.775	208.38
636.981	197.38
637.187	210.38
637.392	180.38
637.598	194.38
637.804	202.38
638.009	187.38
638.215	204.38
638.421	166.38
638.626	198.38
638.832	196.38
639.037	192.38
639.243	172.38
639.448	190.38
639.654	186.38
639.859	199.38
640.065	169.38
640.27	201.38
640.475	174.38
640.681	184.38
640.886	179.38
641.091	188.38
641.297	190.38
641.502	162.38
641.707	184.38
641.913	194.38
642.118	176.38
642.323	179.38
642.528	192.38
642.733	176.38
642.939	183.38
643.144	174.38
643.349	185.38
643.554	184.38
643.759	174.38
643.964	174.38
644.169	185.38
644.374	175.38
644.579	174.38
644.784	173.38
644.989	174.38
645.194	186.38
645.399	167.38
645.604	163.38
645.809	186.38
646.014	170.38
646.219	187.38
646.423	178.38
646.628	182.38
646.833	171.38
647.038	174.38
647.243	161.38
647.447	174.38
647.652	174.38
647.857	183.38
648.062	182.38
648.266	173.38
648.471	178.38
648.676	184.38
648.88	190.38
649.085	179.38
649.289	180.38
649.494	173.38
649.698	184.38
649.903	196.38
650.107	194.38
650.312	174.38
650.516	154.38
650.721	159.38
650.925	172.38
651.13	178.38
651.334	155.38
651.539	155.38
651.743	166.38
651.947	155.38
652.152	171.38
652.356	152.38
652.56	156.38
652.764	159.38
652.969	164.38
653.173	152.38
653.377	147.38
653.581	151.38
653.785	150.38
653.99	147.38
654.194	146.38
654.398	139.38
654.602	145.38
654.806	147.38
655.01	162.38
655.214	146.38
655.418	130.38
655.622	139.38
655.826	135.38
656.03	149.38
656.234	144.38
656.438	139.38
656.642	154.38
656.846	135.38
657.049	146.38
657.253	128.38
657.457	123.38
657.661	128.38
657.865	126.38
658.068	101.38
658.272	113.38
658.476	122.38
658.68	101.38
658.883	102.38
659.087	122.38
659.291	111.38
659.494	107.38
659.698	100.38
659.901	99.38
660.105	107.38
660.309	122.38
660.512	89.38
660.716	98.38
660.919	91.38
661.123	95.38
661.326	89.38
661.53	76.38
661.733	98.38
661.936	79.38
662.14	93.38
662.343	84.38
662.546	95.38
662.75	85.38
662.953	94.38
663.156	90.38
663.36	83.38
663.563	87.38
663.766	85.38
663.969	98.38
664.173	90.38
664.376	91.38
664.579	82.38
664.782	85.38
664.985	84.38
665.188	80.38
665.391	88.38
665.594	95.38
665.797	79.38
666	71.38
666.203	84.38
666.406	82.38
666.609	91.38
666.812	93.38
667.015	86.38
667.218	75.38
667.421	82.38
667.624	74.38
667.827	75.38
668.03	76.38
668.232	85.38
668.435	82.38
668.638	83.38
668.841	88.38
669.043	77.38
669.246	105.38
669.449	91.38
669.651	99.38
669.854	83.38
670.057	73.38
670.259	71.38
670.462	81.38
670.665	84.38
670.867	77.38
671.07	93.38
671.272	77.38
671.475	91.38
671.677	86.38
671.88	87.38
672.082	108.38
672.284	81.38
672.487	72.38
672.689	95.38
672.892	79.38
