Data from 1978.PennyLincolnUp.Lamp.En5.5.200Scan.071719.P1_HRD10591_16-14-43-863.txt Node
Date: Thu Jul 18 16:14:43 EDT 2019
User: cochatt
Spectrometer: HR+D1059
Trigger mode: 1
Integration Time (sec): 1.000000E-1
Scans to average: 1
Electric dark correction enabled: true
Nonlinearity correction enabled: false
Boxcar width: 0
XAxis mode: Wavelengths
Number of Pixels in Spectrum: 2048
>>>>>Begin Spectral Data<<<<<
223.165	-2.12
223.4	-2.12
223.635	-2.12
223.869	-12.12
224.104	-19.12
224.338	-13.12
224.573	-10.12
224.808	-17.12
225.042	-19.12
225.277	-14.12
225.511	-10.12
225.746	4.88
225.98	11.88
226.215	20.88
226.449	24.88
226.683	11.88
226.918	14.88
227.152	27.88
227.387	36.88
227.621	42.88
227.856	39.88
228.09	49.88
228.324	43.88
228.559	65.88
228.793	55.88
229.027	84.88
229.262	106.88
229.496	114.88
229.73	130.88
229.964	162.88
230.199	118.88
230.433	113.88
230.667	117.88
230.901	102.88
231.136	105.88
231.37	99.88
231.604	105.88
231.838	109.88
232.072	103.88
232.306	122.88
232.541	108.88
232.775	118.88
233.009	123.88
233.243	115.88
233.477	107.88
233.711	96.88
233.945	116.88
234.179	113.88
234.413	114.88
234.647	108.88
234.881	119.88
235.115	115.88
235.349	122.88
235.583	133.88
235.817	103.88
236.051	107.88
236.285	116.88
236.519	115.88
236.753	118.88
236.987	150.88
237.221	184.88
237.455	247.88
237.689	191.88
237.922	133.88
238.156	133.88
238.39	130.88
238.624	120.88
238.858	129.88
239.091	120.88
239.325	116.88
239.559	114.88
239.793	123.88
240.027	134.88
240.26	139.88
240.494	152.88
240.728	148.88
240.961	132.88
241.195	139.88
241.429	143.88
241.662	128.88
241.896	154.88
242.13	131.88
242.363	119.88
242.597	125.88
242.83	142.88
243.064	130.88
243.298	124.88
243.531	135.88
243.765	140.88
243.998	140.88
244.232	138.88
244.465	122.88
244.699	151.88
244.932	137.88
245.166	147.88
245.399	152.88
245.633	140.88
245.866	141.88
246.099	145.88
246.333	126.88
246.566	152.88
246.8	150.88
247.033	156.88
247.266	153.88
247.5	151.88
247.733	168.88
247.966	155.88
248.2	165.88
248.433	179.88
248.666	176.88
248.899	180.88
249.133	176.88
249.366	192.88
249.599	197.88
249.832	180.88
250.066	160.88
250.299	180.88
250.532	183.88
250.765	196.88
250.998	225.88
251.231	205.88
251.465	204.88
251.698	190.88
251.931	172.88
252.164	188.88
252.397	192.88
252.63	186.88
252.863	197.88
253.096	191.88
253.329	215.88
253.562	212.88
253.795	205.88
254.028	203.88
254.261	196.88
254.494	210.88
254.727	252.88
254.96	256.88
255.193	255.88
255.426	219.88
255.659	228.88
255.892	217.88
256.124	230.88
256.357	220.88
256.59	204.88
256.823	207.88
257.056	198.88
257.289	202.88
257.521	206.88
257.754	201.88
257.987	212.88
258.22	189.88
258.452	213.88
258.685	201.88
258.918	184.88
259.151	200.88
259.383	202.88
259.616	211.88
259.849	216.88
260.081	216.88
260.314	235.88
260.547	249.88
260.779	240.88
261.012	219.88
261.244	200.88
261.477	222.88
261.71	218.88
261.942	221.88
262.175	229.88
262.407	228.88
262.64	216.88
262.872	221.88
263.105	213.88
263.337	214.88
263.57	202.88
263.802	219.88
264.035	217.88
264.267	213.88
264.499	209.88
264.732	217.88
264.964	214.88
265.197	202.88
265.429	221.88
265.661	213.88
265.894	192.88
266.126	218.88
266.358	210.88
266.591	219.88
266.823	206.88
267.055	241.88
267.287	221.88
267.52	207.88
267.752	221.88
267.984	224.88
268.216	210.88
268.448	220.88
268.681	224.88
268.913	240.88
269.145	230.88
269.377	264.88
269.609	249.88
269.841	268.88
270.073	276.88
270.306	285.88
270.538	310.88
270.77	325.88
271.002	298.88
271.234	270.88
271.466	288.88
271.698	316.88
271.93	293.88
272.162	315.88
272.394	311.88
272.626	297.88
272.858	278.88
273.09	275.88
273.322	255.88
273.553	267.88
273.785	260.88
274.017	270.88
274.249	247.88
274.481	254.88
274.713	246.88
274.945	259.88
275.176	267.88
275.408	244.88
275.64	275.88
275.872	257.88
276.104	260.88
276.335	262.88
276.567	267.88
276.799	280.88
277.031	296.88
277.262	323.88
277.494	319.88
277.726	294.88
277.957	281.88
278.189	283.88
278.421	267.88
278.652	276.88
278.884	262.88
279.115	271.88
279.347	268.88
279.579	257.88
279.81	262.88
280.042	270.88
280.273	245.88
280.505	263.88
280.736	257.88
280.968	286.88
281.199	264.88
281.431	257.88
281.662	254.88
281.894	264.88
282.125	290.88
282.356	276.88
282.588	307.88
282.819	310.88
283.051	281.88
283.282	264.88
283.513	264.88
283.745	267.88
283.976	272.88
284.207	275.88
284.439	277.88
284.67	264.88
284.901	272.88
285.132	273.88
285.364	261.88
285.595	290.88
285.826	277.88
286.057	292.88
286.288	263.88
286.52	288.88
286.751	256.88
286.982	274.88
287.213	290.88
287.444	284.88
287.675	300.88
287.906	281.88
288.138	310.88
288.369	298.88
288.6	287.88
288.831	298.88
289.062	301.88
289.293	300.88
289.524	299.88
289.755	298.88
289.986	298.88
290.217	294.88
290.448	288.88
290.679	291.88
290.91	279.88
291.141	285.88
291.371	307.88
291.602	287.88
291.833	276.88
292.064	273.88
292.295	277.88
292.526	310.88
292.757	302.88
292.987	299.88
293.218	289.88
293.449	274.88
293.68	292.88
293.91	283.88
294.141	296.88
294.372	286.88
294.603	300.88
294.833	295.88
295.064	292.88
295.295	307.88
295.525	297.88
295.756	297.88
295.987	309.88
296.217	329.88
296.448	340.88
296.679	307.88
296.909	309.88
297.14	320.88
297.37	297.88
297.601	298.88
297.831	315.88
298.062	310.88
298.292	300.88
298.523	321.88
298.753	324.88
298.984	296.88
299.214	305.88
299.445	304.88
299.675	307.88
299.905	311.88
300.136	328.88
300.366	295.88
300.597	326.88
300.827	330.88
301.057	324.88
301.288	330.88
301.518	336.88
301.748	327.88
301.979	335.88
302.209	338.88
302.439	331.88
302.669	327.88
302.9	317.88
303.13	346.88
303.36	327.88
303.59	321.88
303.82	346.88
304.051	335.88
304.281	323.88
304.511	334.88
304.741	334.88
304.971	312.88
305.201	336.88
305.431	313.88
305.661	339.88
305.891	346.88
306.121	331.88
306.352	336.88
306.582	343.88
306.812	348.88
307.042	341.88
307.272	337.88
307.502	334.88
307.731	346.88
307.961	340.88
308.191	329.88
308.421	337.88
308.651	330.88
308.881	355.88
309.111	341.88
309.341	339.88
309.571	348.88
309.8	343.88
310.03	372.88
310.26	380.88
310.49	376.88
310.72	380.88
310.949	380.88
311.179	393.88
311.409	401.88
311.639	371.88
311.868	379.88
312.098	376.88
312.328	376.88
312.557	417.88
312.787	413.88
313.017	417.88
313.246	380.88
313.476	380.88
313.706	388.88
313.935	383.88
314.165	396.88
314.394	403.88
314.624	397.88
314.853	403.88
315.083	379.88
315.312	388.88
315.542	387.88
315.771	371.88
316.001	383.88
316.23	383.88
316.46	383.88
316.689	372.88
316.919	383.88
317.148	399.88
317.377	400.88
317.607	386.88
317.836	385.88
318.065	382.88
318.295	380.88
318.524	355.88
318.753	369.88
318.983	387.88
319.212	391.88
319.441	379.88
319.67	391.88
319.9	382.88
320.129	380.88
320.358	387.88
320.587	398.88
320.816	393.88
321.046	388.88
321.275	388.88
321.504	384.88
321.733	397.88
321.962	407.88
322.191	448.88
322.42	445.88
322.649	451.88
322.878	457.88
323.108	457.88
323.337	475.88
323.566	496.88
323.795	530.88
324.024	596.88
324.253	709.88
324.482	1033.88
324.71	1702.88
324.939	2565.88
325.168	2189.88
325.397	1041.88
325.626	668.88
325.855	551.88
326.084	521.88
326.313	503.88
326.542	514.88
326.77	580.88
326.999	691.88
327.228	947.88
327.457	1487.88
327.686	1924.88
327.914	1202.88
328.143	752.88
328.372	664.88
328.6	608.88
328.829	599.88
329.058	593.88
329.287	584.88
329.515	564.88
329.744	526.88
329.972	520.88
330.201	537.88
330.43	551.88
330.658	575.88
330.887	635.88
331.115	599.88
331.344	543.88
331.572	502.88
331.801	498.88
332.03	510.88
332.258	473.88
332.486	448.88
332.715	480.88
332.943	457.88
333.172	464.88
333.4	483.88
333.629	481.88
333.857	496.88
334.085	500.88
334.314	520.88
334.542	536.88
334.771	551.88
334.999	508.88
335.227	475.88
335.455	486.88
335.684	465.88
335.912	474.88
336.14	465.88
336.369	473.88
336.597	473.88
336.825	472.88
337.053	460.88
337.281	451.88
337.51	465.88
337.738	451.88
337.966	458.88
338.194	452.88
338.422	457.88
338.65	437.88
338.878	437.88
339.106	416.88
339.334	452.88
339.562	439.88
339.79	423.88
340.018	439.88
340.246	436.88
340.474	452.88
340.702	458.88
340.93	448.88
341.158	431.88
341.386	412.88
341.614	443.88
341.842	431.88
342.07	429.88
342.298	451.88
342.526	451.88
342.754	424.88
342.981	431.88
343.209	441.88
343.437	437.88
343.665	428.88
343.893	439.88
344.12	467.88
344.348	455.88
344.576	453.88
344.804	467.88
345.031	457.88
345.259	451.88
345.487	461.88
345.714	446.88
345.942	439.88
346.17	432.88
346.397	440.88
346.625	465.88
346.853	434.88
347.08	441.88
347.308	436.88
347.535	432.88
347.763	450.88
347.99	453.88
348.218	448.88
348.445	436.88
348.673	439.88
348.9	435.88
349.128	420.88
349.355	436.88
349.583	412.88
349.81	416.88
350.037	394.88
350.265	400.88
350.492	397.88
350.72	404.88
350.947	417.88
351.174	449.88
351.402	448.88
351.629	442.88
351.856	427.88
352.083	433.88
352.311	436.88
352.538	444.88
352.765	445.88
352.992	429.88
353.22	419.88
353.447	434.88
353.674	407.88
353.901	405.88
354.128	406.88
354.355	413.88
354.583	400.88
354.81	403.88
355.037	406.88
355.264	398.88
355.491	405.88
355.718	405.88
355.945	405.88
356.172	402.88
356.399	394.88
356.626	398.88
356.853	396.88
357.08	395.88
357.307	397.88
357.534	402.88
357.761	412.88
357.988	403.88
358.215	406.88
358.441	405.88
358.668	402.88
358.895	439.88
359.122	408.88
359.349	411.88
359.576	438.88
359.802	459.88
360.029	481.88
360.256	493.88
360.483	480.88
360.709	466.88
360.936	423.88
361.163	434.88
361.39	443.88
361.616	439.88
361.843	436.88
362.07	450.88
362.296	424.88
362.523	420.88
362.749	452.88
362.976	418.88
363.203	426.88
363.429	408.88
363.656	451.88
363.882	409.88
364.109	435.88
364.335	418.88
364.562	424.88
364.788	388.88
365.015	419.88
365.241	419.88
365.468	432.88
365.694	431.88
365.92	432.88
366.147	440.88
366.373	423.88
366.599	417.88
366.826	424.88
367.052	398.88
367.278	424.88
367.505	402.88
367.731	413.88
367.957	392.88
368.184	418.88
368.41	421.88
368.636	410.88
368.862	432.88
369.089	435.88
369.315	426.88
369.541	412.88
369.767	407.88
369.993	429.88
370.219	426.88
370.445	427.88
370.672	423.88
370.898	388.88
371.124	416.88
371.35	418.88
371.576	396.88
371.802	419.88
372.028	424.88
372.254	429.88
372.48	440.88
372.706	422.88
372.932	433.88
373.158	440.88
373.384	446.88
373.61	447.88
373.835	415.88
374.061	440.88
374.287	443.88
374.513	432.88
374.739	434.88
374.965	425.88
375.191	439.88
375.416	427.88
375.642	428.88
375.868	436.88
376.094	432.88
376.319	440.88
376.545	436.88
376.771	425.88
376.997	420.88
377.222	414.88
377.448	411.88
377.674	434.88
377.899	411.88
378.125	423.88
378.35	416.88
378.576	422.88
378.802	420.88
379.027	412.88
379.253	418.88
379.478	411.88
379.704	406.88
379.929	432.88
380.155	435.88
380.38	430.88
380.606	420.88
380.831	419.88
381.057	436.88
381.282	410.88
381.507	439.88
381.733	444.88
381.958	429.88
382.184	434.88
382.409	421.88
382.634	425.88
382.86	431.88
383.085	447.88
383.31	453.88
383.535	458.88
383.761	451.88
383.986	432.88
384.211	436.88
384.436	449.88
384.662	455.88
384.887	469.88
385.112	455.88
385.337	463.88
385.562	463.88
385.787	437.88
386.013	478.88
386.238	480.88
386.463	468.88
386.688	469.88
386.913	440.88
387.138	467.88
387.363	471.88
387.588	477.88
387.813	492.88
388.038	469.88
388.263	471.88
388.488	455.88
388.713	478.88
388.938	451.88
389.163	461.88
389.387	486.88
389.612	472.88
389.837	491.88
390.062	475.88
390.287	478.88
390.512	448.88
390.736	500.88
390.961	474.88
391.186	495.88
391.411	496.88
391.636	471.88
391.86	490.88
392.085	511.88
392.31	495.88
392.534	497.88
392.759	484.88
392.984	480.88
393.208	484.88
393.433	496.88
393.658	462.88
393.882	484.88
394.107	489.88
394.331	458.88
394.556	480.88
394.78	476.88
395.005	467.88
395.229	488.88
395.454	460.88
395.678	498.88
395.903	498.88
396.127	514.88
396.352	552.88
396.576	499.88
396.801	517.88
397.025	515.88
397.249	514.88
397.474	533.88
397.698	514.88
397.922	535.88
398.147	543.88
398.371	549.88
398.595	554.88
398.82	546.88
399.044	568.88
399.268	588.88
399.492	611.88
399.717	629.88
399.941	667.88
400.165	664.88
400.389	658.88
400.613	593.88
400.837	591.88
401.062	569.88
401.286	575.88
401.51	588.88
401.734	555.88
401.958	568.88
402.182	546.88
402.406	564.88
402.63	573.88
402.854	585.88
403.078	595.88
403.302	577.88
403.526	568.88
403.75	548.88
403.974	565.88
404.198	559.88
404.422	573.88
404.645	582.88
404.869	596.88
405.093	619.88
405.317	651.88
405.541	708.88
405.765	641.88
405.988	611.88
406.212	633.88
406.436	652.88
406.66	660.88
406.883	655.88
407.107	640.88
407.331	691.88
407.555	809.88
407.778	773.88
408.002	703.88
408.226	669.88
408.449	633.88
408.673	637.88
408.896	689.88
409.12	747.88
409.344	687.88
409.567	612.88
409.791	603.88
410.014	584.88
410.238	549.88
410.461	592.88
410.685	581.88
410.908	627.88
411.132	642.88
411.355	661.88
411.578	661.88
411.802	611.88
412.025	579.88
412.249	596.88
412.472	615.88
412.695	654.88
412.919	656.88
413.142	599.88
413.365	594.88
413.589	570.88
413.812	580.88
414.035	540.88
414.258	551.88
414.482	526.88
414.705	539.88
414.928	545.88
415.151	561.88
415.374	541.88
415.597	543.88
415.821	529.88
416.044	548.88
416.267	543.88
416.49	533.88
416.713	544.88
416.936	550.88
417.159	533.88
417.382	568.88
417.605	549.88
417.828	566.88
418.051	577.88
418.274	567.88
418.497	534.88
418.72	560.88
418.943	564.88
419.166	578.88
419.389	609.88
419.611	584.88
419.834	589.88
420.057	576.88
420.28	564.88
420.503	563.88
420.726	583.88
420.948	596.88
421.171	633.88
421.394	649.88
421.617	605.88
421.839	581.88
422.062	581.88
422.285	580.88
422.507	663.88
422.73	735.88
422.953	719.88
423.175	632.88
423.398	595.88
423.621	605.88
423.843	604.88
424.066	627.88
424.288	593.88
424.511	635.88
424.733	695.88
424.956	789.88
425.178	759.88
425.401	755.88
425.623	772.88
425.846	665.88
426.068	606.88
426.291	604.88
426.513	607.88
426.735	632.88
426.958	676.88
427.18	740.88
427.402	920.88
427.625	1036.88
427.847	859.88
428.069	747.88
428.292	655.88
428.514	624.88
428.736	593.88
428.958	591.88
429.181	553.88
429.403	543.88
429.625	575.88
429.847	642.88
430.069	677.88
430.292	699.88
430.514	591.88
430.736	594.88
430.958	565.88
431.18	553.88
431.402	558.88
431.624	546.88
431.846	524.88
432.068	539.88
432.29	562.88
432.512	533.88
432.734	551.88
432.956	556.88
433.178	571.88
433.4	559.88
433.622	553.88
433.844	555.88
434.066	559.88
434.287	546.88
434.509	529.88
434.731	571.88
434.953	566.88
435.175	560.88
435.397	602.88
435.618	607.88
435.84	662.88
436.062	779.88
436.284	854.88
436.505	708.88
436.727	622.88
436.949	584.88
437.17	568.88
437.392	553.88
437.614	591.88
437.835	600.88
438.057	715.88
438.278	840.88
438.5	838.88
438.721	929.88
438.943	897.88
439.165	690.88
439.386	637.88
439.608	611.88
439.829	625.88
440.05	654.88
440.272	719.88
440.493	658.88
440.715	620.88
440.936	593.88
441.158	548.88
441.379	567.88
441.6	607.88
441.822	627.88
442.043	654.88
442.264	747.88
442.486	835.88
442.707	675.88
442.928	648.88
443.149	651.88
443.371	650.88
443.592	718.88
443.813	831.88
444.034	877.88
444.255	725.88
444.476	668.88
444.698	635.88
444.919	632.88
445.14	699.88
445.361	679.88
445.582	687.88
445.803	752.88
446.024	879.88
446.245	884.88
446.466	810.88
446.687	663.88
446.908	639.88
447.129	581.88
447.35	567.88
447.571	567.88
447.792	552.88
448.013	557.88
448.234	570.88
448.455	638.88
448.675	769.88
448.896	944.88
449.117	773.88
449.338	709.88
449.559	823.88
449.779	977.88
450	741.88
450.221	625.88
450.442	575.88
450.662	551.88
450.883	559.88
451.104	561.88
451.324	546.88
451.545	521.88
451.766	527.88
451.986	514.88
452.207	500.88
452.428	514.88
452.648	519.88
452.869	514.88
453.089	515.88
453.31	546.88
453.53	535.88
453.751	527.88
453.971	516.88
454.192	535.88
454.412	534.88
454.633	507.88
454.853	497.88
455.073	511.88
455.294	528.88
455.514	600.88
455.734	607.88
455.955	509.88
456.175	479.88
456.395	468.88
456.616	483.88
456.836	478.88
457.056	481.88
457.276	480.88
457.497	484.88
457.717	488.88
457.937	496.88
458.157	488.88
458.377	489.88
458.598	514.88
458.818	563.88
459.038	675.88
459.258	698.88
459.478	591.88
459.698	551.88
459.918	529.88
460.138	544.88
460.358	547.88
460.578	551.88
460.798	550.88
461.018	570.88
461.238	563.88
461.458	547.88
461.678	542.88
461.898	554.88
462.118	553.88
462.338	577.88
462.558	569.88
462.777	604.88
462.997	579.88
463.217	613.88
463.437	629.88
463.657	608.88
463.876	591.88
464.096	634.88
464.316	605.88
464.536	617.88
464.755	602.88
464.975	600.88
465.195	627.88
465.414	687.88
465.634	624.88
465.854	597.88
466.073	561.88
466.293	531.88
466.512	569.88
466.732	539.88
466.951	530.88
467.171	521.88
467.391	529.88
467.61	544.88
467.829	533.88
468.049	542.88
468.268	515.88
468.488	523.88
468.707	506.88
468.927	517.88
469.146	513.88
469.365	515.88
469.585	522.88
469.804	527.88
470.023	539.88
470.243	538.88
470.462	536.88
470.681	559.88
470.901	540.88
471.12	541.88
471.339	530.88
471.558	544.88
471.777	555.88
471.997	529.88
472.216	545.88
472.435	555.88
472.654	540.88
472.873	543.88
473.092	499.88
473.311	519.88
473.53	525.88
473.749	556.88
473.968	598.88
474.187	697.88
474.406	729.88
474.625	572.88
474.844	535.88
475.063	544.88
475.282	544.88
475.501	519.88
475.72	565.88
475.939	565.88
476.158	554.88
476.377	537.88
476.596	538.88
476.814	552.88
477.033	576.88
477.252	571.88
477.471	569.88
477.69	561.88
477.908	562.88
478.127	587.88
478.346	597.88
478.564	574.88
478.783	595.88
479.002	616.88
479.22	612.88
479.439	619.88
479.658	637.88
479.876	647.88
480.095	638.88
480.313	662.88
480.532	651.88
480.751	645.88
480.969	663.88
481.188	712.88
481.406	763.88
481.624	685.88
481.843	647.88
482.061	630.88
482.28	635.88
482.498	619.88
482.717	619.88
482.935	637.88
483.153	647.88
483.372	633.88
483.59	626.88
483.808	623.88
484.027	636.88
484.245	613.88
484.463	603.88
484.681	648.88
484.9	616.88
485.118	634.88
485.336	639.88
485.554	660.88
485.772	629.88
485.99	635.88
486.209	649.88
486.427	655.88
486.645	651.88
486.863	664.88
487.081	679.88
487.299	682.88
487.517	676.88
487.735	666.88
487.953	647.88
488.171	660.88
488.389	663.88
488.607	703.88
488.825	672.88
489.043	671.88
489.261	663.88
489.479	674.88
489.696	672.88
489.914	707.88
490.132	681.88
490.35	706.88
490.568	711.88
490.786	708.88
491.003	704.88
491.221	741.88
491.439	719.88
491.657	739.88
491.874	722.88
492.092	748.88
492.31	751.88
492.527	729.88
492.745	765.88
492.963	754.88
493.18	758.88
493.398	749.88
493.615	773.88
493.833	752.88
494.05	769.88
494.268	770.88
494.485	760.88
494.703	759.88
494.92	764.88
495.138	760.88
495.355	796.88
495.573	776.88
495.79	777.88
496.008	803.88
496.225	773.88
496.442	791.88
496.66	789.88
496.877	774.88
497.094	805.88
497.312	804.88
497.529	833.88
497.746	813.88
497.963	857.88
498.181	865.88
498.398	883.88
498.615	913.88
498.832	931.88
499.049	921.88
499.267	943.88
499.484	965.88
499.701	1031.88
499.918	1037.88
500.135	1059.88
500.352	1105.88
500.569	1106.88
500.786	1138.88
501.003	1138.88
501.22	1112.88
501.437	1036.88
501.654	1020.88
501.871	1018.88
502.088	1002.88
502.305	934.88
502.522	926.88
502.739	895.88
502.956	881.88
503.172	860.88
503.389	853.88
503.606	848.88
503.823	849.88
504.04	833.88
504.256	799.88
504.473	809.88
504.69	813.88
504.907	785.88
505.123	803.88
505.34	807.88
505.557	736.88
505.773	744.88
505.99	770.88
506.207	748.88
506.423	780.88
506.64	773.88
506.856	740.88
507.073	730.88
507.289	729.88
507.506	730.88
507.722	744.88
507.939	746.88
508.155	730.88
508.372	709.88
508.588	720.88
508.805	708.88
509.021	721.88
509.238	708.88
509.454	724.88
509.67	714.88
509.887	729.88
510.103	712.88
510.319	712.88
510.536	789.88
510.752	1211.88
510.968	1046.88
511.184	729.88
511.401	695.88
511.617	704.88
511.833	706.88
512.049	664.88
512.265	684.88
512.481	658.88
512.698	650.88
512.914	662.88
513.13	670.88
513.346	678.88
513.562	655.88
513.778	682.88
513.994	685.88
514.21	681.88
514.426	699.88
514.642	763.88
514.858	817.88
515.074	812.88
515.29	909.88
515.506	1290.88
515.721	1103.88
515.937	799.88
516.153	746.88
516.369	743.88
516.585	719.88
516.801	697.88
517.016	708.88
517.232	695.88
517.448	704.88
517.664	696.88
517.879	688.88
518.095	715.88
518.311	716.88
518.527	696.88
518.742	694.88
518.958	665.88
519.173	662.88
519.389	670.88
519.605	659.88
519.82	683.88
520.036	715.88
520.251	709.88
520.467	741.88
520.682	736.88
520.898	732.88
521.113	759.88
521.329	812.88
521.544	859.88
521.76	1067.88
521.975	1636.88
522.19	1625.88
522.406	953.88
522.621	771.88
522.836	727.88
523.052	649.88
523.267	647.88
523.482	628.88
523.698	633.88
523.913	638.88
524.128	601.88
524.343	598.88
524.559	599.88
524.774	575.88
524.989	610.88
525.204	584.88
525.419	604.88
525.634	581.88
525.849	556.88
526.064	581.88
526.28	555.88
526.495	581.88
526.71	558.88
526.925	576.88
527.14	560.88
527.355	583.88
527.57	575.88
527.785	553.88
527.999	562.88
528.214	554.88
528.429	557.88
528.644	548.88
528.859	546.88
529.074	560.88
529.289	588.88
529.503	660.88
529.718	629.88
529.933	594.88
530.148	587.88
530.363	562.88
530.577	571.88
530.792	555.88
531.007	576.88
531.221	567.88
531.436	553.88
531.651	531.88
531.865	539.88
532.08	538.88
532.295	563.88
532.509	529.88
532.724	535.88
532.938	523.88
533.153	529.88
533.367	563.88
533.582	542.88
533.796	530.88
534.011	544.88
534.225	528.88
534.44	524.88
534.654	530.88
534.868	543.88
535.083	513.88
535.297	537.88
535.511	537.88
535.726	547.88
535.94	548.88
536.154	541.88
536.369	512.88
536.583	528.88
536.797	508.88
537.011	520.88
537.225	521.88
537.44	523.88
537.654	513.88
537.868	515.88
538.082	524.88
538.296	523.88
538.51	515.88
538.724	498.88
538.938	513.88
539.153	496.88
539.367	543.88
539.581	539.88
539.795	524.88
540.009	497.88
540.222	515.88
540.436	512.88
540.65	536.88
540.864	519.88
541.078	518.88
541.292	533.88
541.506	519.88
541.72	525.88
541.934	523.88
542.147	500.88
542.361	505.88
542.575	520.88
542.789	501.88
543.002	500.88
543.216	512.88
543.43	527.88
543.644	520.88
543.857	531.88
544.071	541.88
544.285	534.88
544.498	492.88
544.712	532.88
544.925	533.88
545.139	506.88
545.352	513.88
545.566	479.88
545.779	492.88
545.993	489.88
546.206	492.88
546.42	502.88
546.633	501.88
546.847	501.88
547.06	500.88
547.274	479.88
547.487	478.88
547.7	512.88
547.914	475.88
548.127	478.88
548.34	473.88
548.554	488.88
548.767	494.88
548.98	506.88
549.193	483.88
549.407	476.88
549.62	491.88
549.833	473.88
550.046	481.88
550.259	490.88
550.473	503.88
550.686	491.88
550.899	471.88
551.112	478.88
551.325	485.88
551.538	495.88
551.751	487.88
551.964	465.88
552.177	488.88
552.39	480.88
552.603	504.88
552.816	485.88
553.029	502.88
553.242	503.88
553.455	486.88
553.667	489.88
553.88	511.88
554.093	496.88
554.306	492.88
554.519	485.88
554.732	479.88
554.944	473.88
555.157	476.88
555.37	466.88
555.583	474.88
555.795	471.88
556.008	463.88
556.221	473.88
556.433	456.88
556.646	440.88
556.859	465.88
557.071	451.88
557.284	451.88
557.496	443.88
557.709	426.88
557.921	438.88
558.134	443.88
558.346	447.88
558.559	437.88
558.771	445.88
558.984	451.88
559.196	435.88
559.409	418.88
559.621	440.88
559.833	425.88
560.046	435.88
560.258	421.88
560.47	419.88
560.683	417.88
560.895	417.88
561.107	420.88
561.32	425.88
561.532	436.88
561.744	430.88
561.956	458.88
562.168	438.88
562.381	434.88
562.593	420.88
562.805	435.88
563.017	440.88
563.229	441.88
563.441	433.88
563.653	425.88
563.865	444.88
564.077	442.88
564.289	444.88
564.501	456.88
564.713	448.88
564.925	460.88
565.137	466.88
565.349	477.88
565.561	487.88
565.773	503.88
565.985	497.88
566.197	484.88
566.408	490.88
566.62	511.88
566.832	513.88
567.044	547.88
567.255	525.88
567.467	557.88
567.679	559.88
567.891	569.88
568.102	560.88
568.314	552.88
568.526	538.88
568.737	514.88
568.949	519.88
569.161	497.88
569.372	474.88
569.584	483.88
569.795	458.88
570.007	452.88
570.218	477.88
570.43	479.88
570.641	437.88
570.853	437.88
571.064	444.88
571.276	442.88
571.487	412.88
571.698	420.88
571.91	384.88
572.121	411.88
572.333	403.88
572.544	408.88
572.755	397.88
572.966	374.88
573.178	376.88
573.389	397.88
573.6	411.88
573.811	396.88
574.023	407.88
574.234	380.88
574.445	375.88
574.656	387.88
574.867	377.88
575.078	373.88
575.289	392.88
575.501	373.88
575.712	354.88
575.923	379.88
576.134	383.88
576.345	356.88
576.556	379.88
576.767	348.88
576.978	365.88
577.188	371.88
577.399	379.88
577.61	373.88
577.821	370.88
578.032	362.88
578.243	391.88
578.454	582.88
578.665	469.88
578.875	385.88
579.086	357.88
579.297	358.88
579.508	347.88
579.718	357.88
579.929	341.88
580.14	347.88
580.35	367.88
580.561	344.88
580.772	347.88
580.982	336.88
581.193	348.88
581.403	333.88
581.614	346.88
581.825	367.88
582.035	343.88
582.246	343.88
582.456	309.88
582.667	338.88
582.877	347.88
583.087	328.88
583.298	336.88
583.508	324.88
583.719	321.88
583.929	339.88
584.139	344.88
584.35	310.88
584.56	323.88
584.77	343.88
584.981	331.88
585.191	336.88
585.401	326.88
585.611	338.88
585.821	348.88
586.032	327.88
586.242	328.88
586.452	348.88
586.662	312.88
586.872	331.88
587.082	323.88
587.292	327.88
587.502	331.88
587.713	331.88
587.923	319.88
588.133	324.88
588.343	322.88
588.553	339.88
588.762	324.88
588.972	315.88
589.182	319.88
589.392	326.88
589.602	334.88
589.812	320.88
590.022	340.88
590.232	329.88
590.441	341.88
590.651	321.88
590.861	327.88
591.071	322.88
591.281	317.88
591.49	336.88
591.7	335.88
591.91	351.88
592.119	342.88
592.329	343.88
592.539	348.88
592.748	338.88
592.958	352.88
593.167	339.88
593.377	339.88
593.587	356.88
593.796	351.88
594.006	360.88
594.215	349.88
594.424	362.88
594.634	339.88
594.843	352.88
595.053	336.88
595.262	329.88
595.472	333.88
595.681	312.88
595.89	326.88
596.1	320.88
596.309	316.88
596.518	343.88
596.727	320.88
596.937	332.88
597.146	312.88
597.355	308.88
597.564	301.88
597.774	324.88
597.983	299.88
598.192	310.88
598.401	302.88
598.61	297.88
598.819	303.88
599.028	298.88
599.237	313.88
599.446	294.88
599.655	281.88
599.864	281.88
600.073	294.88
600.282	290.88
600.491	275.88
600.7	279.88
600.909	297.88
601.118	293.88
601.327	278.88
601.536	300.88
601.745	289.88
601.953	268.88
602.162	279.88
602.371	284.88
602.58	274.88
602.789	286.88
602.997	266.88
603.206	277.88
603.415	288.88
603.623	277.88
603.832	280.88
604.041	275.88
604.249	281.88
604.458	259.88
604.666	272.88
604.875	278.88
605.084	253.88
605.292	275.88
605.501	281.88
605.709	260.88
605.918	275.88
606.126	257.88
606.334	267.88
606.543	278.88
606.751	280.88
606.96	267.88
607.168	279.88
607.376	267.88
607.585	283.88
607.793	279.88
608.001	255.88
608.21	262.88
608.418	257.88
608.626	267.88
608.834	261.88
609.043	267.88
609.251	257.88
609.459	278.88
609.667	265.88
609.875	270.88
610.083	283.88
610.291	261.88
610.499	266.88
610.707	280.88
610.916	281.88
611.124	267.88
611.332	272.88
611.54	265.88
611.748	267.88
611.955	259.88
612.163	253.88
612.371	272.88
612.579	259.88
612.787	261.88
612.995	264.88
613.203	245.88
613.411	250.88
613.618	264.88
613.826	258.88
614.034	216.88
614.242	255.88
614.449	241.88
614.657	267.88
614.865	256.88
615.072	239.88
615.28	236.88
615.488	261.88
615.695	260.88
615.903	263.88
616.111	262.88
616.318	267.88
616.526	266.88
616.733	261.88
616.941	255.88
617.148	255.88
617.356	256.88
617.563	260.88
617.771	259.88
617.978	229.88
618.185	248.88
618.393	252.88
618.6	260.88
618.807	265.88
619.015	248.88
619.222	247.88
619.429	245.88
619.637	262.88
619.844	263.88
620.051	226.88
620.258	243.88
620.466	235.88
620.673	240.88
620.88	235.88
621.087	230.88
621.294	239.88
621.501	249.88
621.708	245.88
621.915	234.88
622.122	232.88
622.329	225.88
622.536	235.88
622.743	246.88
622.95	256.88
623.157	234.88
623.364	240.88
623.571	255.88
623.778	235.88
623.985	237.88
624.192	229.88
624.399	243.88
624.606	248.88
624.812	241.88
625.019	232.88
625.226	228.88
625.433	234.88
625.639	225.88
625.846	215.88
626.053	213.88
626.259	223.88
626.466	234.88
626.673	235.88
626.879	229.88
627.086	232.88
627.293	227.88
627.499	227.88
627.706	213.88
627.912	222.88
628.119	219.88
628.325	224.88
628.532	231.88
628.738	221.88
628.945	201.88
629.151	219.88
629.357	208.88
629.564	231.88
629.77	211.88
629.976	217.88
630.183	200.88
630.389	215.88
630.595	218.88
630.802	208.88
631.008	205.88
631.214	210.88
631.42	219.88
631.627	214.88
631.833	211.88
632.039	203.88
632.245	203.88
632.451	195.88
632.657	205.88
632.863	200.88
633.069	205.88
633.275	207.88
633.481	184.88
633.688	200.88
633.893	201.88
634.099	185.88
634.305	196.88
634.511	194.88
634.717	191.88
634.923	188.88
635.129	204.88
635.335	208.88
635.541	200.88
635.747	191.88
635.952	189.88
636.158	185.88
636.364	203.88
636.57	202.88
636.775	198.88
636.981	188.88
637.187	189.88
637.392	196.88
637.598	187.88
637.804	185.88
638.009	189.88
638.215	186.88
638.421	178.88
638.626	184.88
638.832	189.88
639.037	182.88
639.243	194.88
639.448	191.88
639.654	188.88
639.859	187.88
640.065	188.88
640.27	198.88
640.475	171.88
640.681	191.88
640.886	187.88
641.091	185.88
641.297	186.88
641.502	205.88
641.707	173.88
641.913	192.88
642.118	191.88
642.323	188.88
642.528	181.88
642.733	203.88
642.939	176.88
643.144	189.88
643.349	194.88
643.554	186.88
643.759	176.88
643.964	170.88
644.169	170.88
644.374	179.88
644.579	171.88
644.784	185.88
644.989	183.88
645.194	192.88
645.399	171.88
645.604	182.88
645.809	181.88
646.014	181.88
646.219	182.88
646.423	191.88
646.628	165.88
646.833	171.88
647.038	176.88
647.243	175.88
647.447	170.88
647.652	180.88
647.857	174.88
648.062	171.88
648.266	163.88
648.471	184.88
648.676	179.88
648.88	168.88
649.085	184.88
649.289	159.88
649.494	181.88
649.698	202.88
649.903	202.88
650.107	167.88
650.312	187.88
650.516	145.88
650.721	140.88
650.925	156.88
651.13	164.88
651.334	159.88
651.539	154.88
651.743	162.88
651.947	163.88
652.152	156.88
652.356	161.88
652.56	152.88
652.764	154.88
652.969	146.88
653.173	150.88
653.377	145.88
653.581	151.88
653.785	140.88
653.99	137.88
654.194	132.88
654.398	161.88
654.602	165.88
654.806	128.88
655.01	148.88
655.214	141.88
655.418	143.88
655.622	130.88
655.826	151.88
656.03	132.88
656.234	134.88
656.438	141.88
656.642	136.88
656.846	139.88
657.049	135.88
657.253	127.88
657.457	120.88
657.661	130.88
657.865	111.88
658.068	122.88
658.272	112.88
658.476	105.88
658.68	113.88
658.883	97.88
659.087	106.88
659.291	87.88
659.494	101.88
659.698	110.88
659.901	100.88
660.105	104.88
660.309	99.88
660.512	97.88
660.716	101.88
660.919	95.88
661.123	93.88
661.326	96.88
661.53	80.88
661.733	81.88
661.936	85.88
662.14	93.88
662.343	91.88
662.546	96.88
662.75	88.88
662.953	72.88
663.156	77.88
663.36	83.88
663.563	81.88
663.766	80.88
663.969	91.88
664.173	76.88
664.376	73.88
664.579	76.88
664.782	64.88
664.985	83.88
665.188	83.88
665.391	93.88
665.594	85.88
665.797	65.88
666	84.88
666.203	97.88
666.406	78.88
666.609	65.88
666.812	80.88
667.015	77.88
667.218	78.88
667.421	80.88
667.624	92.88
667.827	89.88
668.03	94.88
668.232	81.88
668.435	70.88
668.638	70.88
668.841	88.88
669.043	85.88
669.246	92.88
669.449	79.88
669.651	91.88
669.854	70.88
670.057	86.88
670.259	77.88
670.462	82.88
670.665	75.88
670.867	78.88
671.07	80.88
671.272	87.88
671.475	83.88
671.677	89.88
671.88	89.88
672.082	82.88
672.284	78.88
672.487	84.88
672.689	76.88
672.892	74.88
