Data from 1978.PennyLincolnUp.Lamp.En5.5.200Scan.071719.P1_HRD10591_16-12-04-864.txt Node
Date: Thu Jul 18 16:12:04 EDT 2019
User: cochatt
Spectrometer: HR+D1059
Trigger mode: 1
Integration Time (sec): 1.000000E-1
Scans to average: 1
Electric dark correction enabled: true
Nonlinearity correction enabled: false
Boxcar width: 0
XAxis mode: Wavelengths
Number of Pixels in Spectrum: 2048
>>>>>Begin Spectral Data<<<<<
223.165	-12.62
223.4	-12.62
223.635	-12.62
223.869	-29.62
224.104	-9.62
224.338	-16.62
224.573	-17.62
224.808	-19.62
225.042	-3.62
225.277	-7.62
225.511	-0.62
225.746	15.38
225.98	6.38
226.215	14.38
226.449	9.38
226.683	14.38
226.918	32.38
227.152	25.38
227.387	42.38
227.621	47.38
227.856	56.38
228.09	55.38
228.324	66.38
228.559	60.38
228.793	76.38
229.027	84.38
229.262	93.38
229.496	114.38
229.73	113.38
229.964	134.38
230.199	122.38
230.433	101.38
230.667	103.38
230.901	117.38
231.136	114.38
231.37	111.38
231.604	114.38
231.838	107.38
232.072	97.38
232.306	107.38
232.541	120.38
232.775	108.38
233.009	111.38
233.243	124.38
233.477	114.38
233.711	113.38
233.945	107.38
234.179	113.38
234.413	115.38
234.647	123.38
234.881	103.38
235.115	121.38
235.349	122.38
235.583	126.38
235.817	126.38
236.051	119.38
236.285	127.38
236.519	114.38
236.753	125.38
236.987	131.38
237.221	163.38
237.455	199.38
237.689	177.38
237.922	132.38
238.156	130.38
238.39	123.38
238.624	117.38
238.858	113.38
239.091	127.38
239.325	128.38
239.559	120.38
239.793	141.38
240.027	115.38
240.26	132.38
240.494	152.38
240.728	136.38
240.961	146.38
241.195	133.38
241.429	125.38
241.662	140.38
241.896	151.38
242.13	127.38
242.363	127.38
242.597	147.38
242.83	121.38
243.064	134.38
243.298	124.38
243.531	151.38
243.765	138.38
243.998	138.38
244.232	138.38
244.465	129.38
244.699	139.38
244.932	153.38
245.166	134.38
245.399	155.38
245.633	154.38
245.866	137.38
246.099	137.38
246.333	148.38
246.566	162.38
246.8	148.38
247.033	147.38
247.266	152.38
247.5	153.38
247.733	149.38
247.966	153.38
248.2	154.38
248.433	155.38
248.666	173.38
248.899	165.38
249.133	165.38
249.366	175.38
249.599	189.38
249.832	159.38
250.066	158.38
250.299	164.38
250.532	168.38
250.765	185.38
250.998	172.38
251.231	207.38
251.465	183.38
251.698	194.38
251.931	168.38
252.164	180.38
252.397	168.38
252.63	177.38
252.863	176.38
253.096	174.38
253.329	180.38
253.562	184.38
253.795	183.38
254.028	191.38
254.261	204.38
254.494	194.38
254.727	212.38
254.96	231.38
255.193	220.38
255.426	206.38
255.659	198.38
255.892	201.38
256.124	207.38
256.357	198.38
256.59	193.38
256.823	195.38
257.056	199.38
257.289	183.38
257.521	192.38
257.754	196.38
257.987	188.38
258.22	195.38
258.452	194.38
258.685	200.38
258.918	191.38
259.151	199.38
259.383	187.38
259.616	211.38
259.849	186.38
260.081	202.38
260.314	191.38
260.547	211.38
260.779	215.38
261.012	217.38
261.244	209.38
261.477	196.38
261.71	198.38
261.942	202.38
262.175	209.38
262.407	197.38
262.64	198.38
262.872	199.38
263.105	207.38
263.337	183.38
263.57	212.38
263.802	200.38
264.035	194.38
264.267	200.38
264.499	190.38
264.732	215.38
264.964	200.38
265.197	190.38
265.429	195.38
265.661	186.38
265.894	188.38
266.126	189.38
266.358	210.38
266.591	192.38
266.823	213.38
267.055	227.38
267.287	216.38
267.52	201.38
267.752	206.38
267.984	203.38
268.216	200.38
268.448	217.38
268.681	203.38
268.913	214.38
269.145	228.38
269.377	243.38
269.609	225.38
269.841	224.38
270.073	234.38
270.306	270.38
270.538	270.38
270.77	258.38
271.002	271.38
271.234	248.38
271.466	260.38
271.698	257.38
271.93	264.38
272.162	265.38
272.394	267.38
272.626	250.38
272.858	271.38
273.09	238.38
273.322	236.38
273.553	216.38
273.785	221.38
274.017	236.38
274.249	247.38
274.481	243.38
274.713	252.38
274.945	234.38
275.176	241.38
275.408	247.38
275.64	236.38
275.872	234.38
276.104	226.38
276.335	226.38
276.567	242.38
276.799	248.38
277.031	249.38
277.262	279.38
277.494	282.38
277.726	246.38
277.957	227.38
278.189	240.38
278.421	260.38
278.652	246.38
278.884	263.38
279.115	235.38
279.347	250.38
279.579	256.38
279.81	253.38
280.042	257.38
280.273	270.38
280.505	250.38
280.736	249.38
280.968	263.38
281.199	253.38
281.431	252.38
281.662	233.38
281.894	260.38
282.125	258.38
282.356	260.38
282.588	274.38
282.819	277.38
283.051	285.38
283.282	260.38
283.513	256.38
283.745	242.38
283.976	272.38
284.207	268.38
284.439	267.38
284.67	278.38
284.901	254.38
285.132	276.38
285.364	262.38
285.595	258.38
285.826	260.38
286.057	260.38
286.288	259.38
286.52	254.38
286.751	260.38
286.982	256.38
287.213	264.38
287.444	267.38
287.675	270.38
287.906	248.38
288.138	281.38
288.369	268.38
288.6	262.38
288.831	264.38
289.062	276.38
289.293	288.38
289.524	260.38
289.755	295.38
289.986	288.38
290.217	266.38
290.448	263.38
290.679	269.38
290.91	260.38
291.141	271.38
291.371	277.38
291.602	268.38
291.833	280.38
292.064	287.38
292.295	282.38
292.526	262.38
292.757	273.38
292.987	270.38
293.218	260.38
293.449	296.38
293.68	257.38
293.91	285.38
294.141	282.38
294.372	272.38
294.603	284.38
294.833	278.38
295.064	290.38
295.295	273.38
295.525	267.38
295.756	273.38
295.987	275.38
296.217	298.38
296.448	286.38
296.679	286.38
296.909	284.38
297.14	294.38
297.37	290.38
297.601	298.38
297.831	285.38
298.062	276.38
298.292	287.38
298.523	292.38
298.753	288.38
298.984	277.38
299.214	282.38
299.445	303.38
299.675	297.38
299.905	297.38
300.136	291.38
300.366	294.38
300.597	322.38
300.827	305.38
301.057	317.38
301.288	314.38
301.518	302.38
301.748	299.38
301.979	310.38
302.209	315.38
302.439	302.38
302.669	312.38
302.9	303.38
303.13	311.38
303.36	329.38
303.59	320.38
303.82	300.38
304.051	330.38
304.281	322.38
304.511	319.38
304.741	306.38
304.971	324.38
305.201	302.38
305.431	308.38
305.661	313.38
305.891	322.38
306.121	313.38
306.352	325.38
306.582	321.38
306.812	321.38
307.042	297.38
307.272	310.38
307.502	305.38
307.731	310.38
307.961	326.38
308.191	322.38
308.421	318.38
308.651	317.38
308.881	325.38
309.111	307.38
309.341	333.38
309.571	309.38
309.8	337.38
310.03	331.38
310.26	316.38
310.49	339.38
310.72	340.38
310.949	350.38
311.179	360.38
311.409	350.38
311.639	359.38
311.868	369.38
312.098	337.38
312.328	343.38
312.557	373.38
312.787	349.38
313.017	370.38
313.246	364.38
313.476	356.38
313.706	342.38
313.935	355.38
314.165	367.38
314.394	383.38
314.624	358.38
314.853	346.38
315.083	369.38
315.312	364.38
315.542	352.38
315.771	347.38
316.001	361.38
316.23	339.38
316.46	345.38
316.689	343.38
316.919	334.38
317.148	354.38
317.377	386.38
317.607	354.38
317.836	360.38
318.065	371.38
318.295	335.38
318.524	347.38
318.753	354.38
318.983	366.38
319.212	360.38
319.441	347.38
319.67	377.38
319.9	352.38
320.129	346.38
320.358	375.38
320.587	362.38
320.816	371.38
321.046	336.38
321.275	370.38
321.504	360.38
321.733	363.38
321.962	353.38
322.191	389.38
322.42	390.38
322.649	386.38
322.878	410.38
323.108	418.38
323.337	426.38
323.566	435.38
323.795	460.38
324.024	490.38
324.253	588.38
324.482	801.38
324.71	1186.38
324.939	1826.38
325.168	1566.38
325.397	813.38
325.626	552.38
325.855	471.38
326.084	459.38
326.313	442.38
326.542	450.38
326.77	462.38
326.999	535.38
327.228	728.38
327.457	1095.38
327.686	1382.38
327.914	895.38
328.143	578.38
328.372	531.38
328.6	515.38
328.829	483.38
329.058	488.38
329.287	516.38
329.515	483.38
329.744	446.38
329.972	443.38
330.201	461.38
330.43	478.38
330.658	487.38
330.887	512.38
331.115	516.38
331.344	464.38
331.572	428.38
331.801	451.38
332.03	449.38
332.258	444.38
332.486	429.38
332.715	408.38
332.943	414.38
333.172	419.38
333.4	401.38
333.629	427.38
333.857	453.38
334.085	448.38
334.314	454.38
334.542	477.38
334.771	479.38
334.999	455.38
335.227	455.38
335.455	456.38
335.684	439.38
335.912	411.38
336.14	425.38
336.369	422.38
336.597	426.38
336.825	450.38
337.053	426.38
337.281	409.38
337.51	394.38
337.738	412.38
337.966	412.38
338.194	428.38
338.422	422.38
338.65	410.38
338.878	424.38
339.106	424.38
339.334	398.38
339.562	399.38
339.79	401.38
340.018	418.38
340.246	427.38
340.474	410.38
340.702	396.38
340.93	420.38
341.158	392.38
341.386	395.38
341.614	414.38
341.842	400.38
342.07	403.38
342.298	404.38
342.526	413.38
342.754	416.38
342.981	413.38
343.209	404.38
343.437	394.38
343.665	426.38
343.893	423.38
344.12	426.38
344.348	413.38
344.576	425.38
344.804	434.38
345.031	430.38
345.259	421.38
345.487	420.38
345.714	418.38
345.942	397.38
346.17	402.38
346.397	398.38
346.625	390.38
346.853	407.38
347.08	392.38
347.308	410.38
347.535	402.38
347.763	411.38
347.99	417.38
348.218	407.38
348.445	398.38
348.673	384.38
348.9	396.38
349.128	400.38
349.355	393.38
349.583	406.38
349.81	398.38
350.037	386.38
350.265	387.38
350.492	397.38
350.72	395.38
350.947	408.38
351.174	389.38
351.402	394.38
351.629	391.38
351.856	383.38
352.083	394.38
352.311	397.38
352.538	391.38
352.765	410.38
352.992	393.38
353.22	423.38
353.447	390.38
353.674	392.38
353.901	386.38
354.128	372.38
354.355	386.38
354.583	366.38
354.81	380.38
355.037	367.38
355.264	390.38
355.491	380.38
355.718	364.38
355.945	359.38
356.172	383.38
356.399	368.38
356.626	365.38
356.853	376.38
357.08	380.38
357.307	374.38
357.534	374.38
357.761	370.38
357.988	374.38
358.215	386.38
358.441	376.38
358.668	393.38
358.895	373.38
359.122	398.38
359.349	378.38
359.576	399.38
359.802	398.38
360.029	418.38
360.256	440.38
360.483	431.38
360.709	412.38
360.936	404.38
361.163	403.38
361.39	399.38
361.616	401.38
361.843	392.38
362.07	396.38
362.296	407.38
362.523	403.38
362.749	388.38
362.976	383.38
363.203	399.38
363.429	404.38
363.656	388.38
363.882	397.38
364.109	380.38
364.335	382.38
364.562	396.38
364.788	400.38
365.015	403.38
365.241	394.38
365.468	386.38
365.694	395.38
365.92	420.38
366.147	403.38
366.373	376.38
366.599	392.38
366.826	402.38
367.052	408.38
367.278	412.38
367.505	398.38
367.731	402.38
367.957	389.38
368.184	394.38
368.41	415.38
368.636	399.38
368.862	426.38
369.089	403.38
369.315	399.38
369.541	401.38
369.767	399.38
369.993	379.38
370.219	382.38
370.445	384.38
370.672	370.38
370.898	392.38
371.124	402.38
371.35	424.38
371.576	412.38
371.802	394.38
372.028	388.38
372.254	401.38
372.48	382.38
372.706	408.38
372.932	386.38
373.158	394.38
373.384	404.38
373.61	409.38
373.835	414.38
374.061	399.38
374.287	426.38
374.513	408.38
374.739	416.38
374.965	414.38
375.191	426.38
375.416	422.38
375.642	413.38
375.868	411.38
376.094	403.38
376.319	410.38
376.545	396.38
376.771	419.38
376.997	389.38
377.222	389.38
377.448	402.38
377.674	398.38
377.899	413.38
378.125	416.38
378.35	410.38
378.576	408.38
378.802	396.38
379.027	428.38
379.253	390.38
379.478	416.38
379.704	381.38
379.929	408.38
380.155	393.38
380.38	414.38
380.606	414.38
380.831	400.38
381.057	405.38
381.282	414.38
381.507	405.38
381.733	416.38
381.958	415.38
382.184	419.38
382.409	408.38
382.634	394.38
382.86	426.38
383.085	423.38
383.31	434.38
383.535	424.38
383.761	431.38
383.986	408.38
384.211	417.38
384.436	447.38
384.662	439.38
384.887	445.38
385.112	447.38
385.337	424.38
385.562	435.38
385.787	468.38
386.013	463.38
386.238	449.38
386.463	444.38
386.688	452.38
386.913	439.38
387.138	442.38
387.363	452.38
387.588	439.38
387.813	463.38
388.038	432.38
388.263	455.38
388.488	454.38
388.713	471.38
388.938	440.38
389.163	460.38
389.387	468.38
389.612	445.38
389.837	438.38
390.062	477.38
390.287	446.38
390.512	443.38
390.736	458.38
390.961	464.38
391.186	443.38
391.411	449.38
391.636	458.38
391.86	471.38
392.085	467.38
392.31	496.38
392.534	462.38
392.759	449.38
392.984	471.38
393.208	455.38
393.433	496.38
393.658	459.38
393.882	473.38
394.107	462.38
394.331	466.38
394.556	465.38
394.78	475.38
395.005	474.38
395.229	467.38
395.454	491.38
395.678	490.38
395.903	474.38
396.127	497.38
396.352	509.38
396.576	488.38
396.801	491.38
397.025	490.38
397.249	483.38
397.474	499.38
397.698	505.38
397.922	504.38
398.147	498.38
398.371	530.38
398.595	531.38
398.82	529.38
399.044	535.38
399.268	568.38
399.492	578.38
399.717	599.38
399.941	607.38
400.165	634.38
400.389	640.38
400.613	593.38
400.837	561.38
401.062	546.38
401.286	546.38
401.51	530.38
401.734	529.38
401.958	532.38
402.182	536.38
402.406	533.38
402.63	541.38
402.854	535.38
403.078	550.38
403.302	530.38
403.526	516.38
403.75	529.38
403.974	539.38
404.198	549.38
404.422	558.38
404.645	561.38
404.869	574.38
405.093	574.38
405.317	611.38
405.541	642.38
405.765	616.38
405.988	572.38
406.212	585.38
406.436	602.38
406.66	584.38
406.883	612.38
407.107	621.38
407.331	620.38
407.555	715.38
407.778	743.38
408.002	665.38
408.226	610.38
408.449	612.38
408.673	582.38
408.896	620.38
409.12	655.38
409.344	613.38
409.567	564.38
409.791	554.38
410.014	569.38
410.238	553.38
410.461	540.38
410.685	562.38
410.908	559.38
411.132	586.38
411.355	631.38
411.578	568.38
411.802	559.38
412.025	570.38
412.249	555.38
412.472	578.38
412.695	602.38
412.919	592.38
413.142	551.38
413.365	553.38
413.589	560.38
413.812	530.38
414.035	536.38
414.258	533.38
414.482	528.38
414.705	538.38
414.928	503.38
415.151	519.38
415.374	525.38
415.597	508.38
415.821	498.38
416.044	519.38
416.267	506.38
416.49	506.38
416.713	523.38
416.936	521.38
417.159	500.38
417.382	495.38
417.605	516.38
417.828	528.38
418.051	543.38
418.274	536.38
418.497	512.38
418.72	541.38
418.943	504.38
419.166	530.38
419.389	567.38
419.611	560.38
419.834	562.38
420.057	557.38
420.28	547.38
420.503	518.38
420.726	542.38
420.948	554.38
421.171	568.38
421.394	591.38
421.617	548.38
421.839	521.38
422.062	545.38
422.285	531.38
422.507	623.38
422.73	669.38
422.953	662.38
423.175	570.38
423.398	566.38
423.621	569.38
423.843	585.38
424.066	545.38
424.288	543.38
424.511	584.38
424.733	619.38
424.956	708.38
425.178	686.38
425.401	660.38
425.623	684.38
425.846	602.38
426.068	576.38
426.291	545.38
426.513	552.38
426.735	572.38
426.958	602.38
427.18	660.38
427.402	788.38
427.625	888.38
427.847	736.38
428.069	660.38
428.292	604.38
428.514	569.38
428.736	552.38
428.958	526.38
429.181	534.38
429.403	532.38
429.625	540.38
429.847	560.38
430.069	635.38
430.292	618.38
430.514	551.38
430.736	510.38
430.958	532.38
431.18	491.38
431.402	528.38
431.624	487.38
431.846	505.38
432.068	504.38
432.29	505.38
432.512	502.38
432.734	499.38
432.956	502.38
433.178	518.38
433.4	511.38
433.622	514.38
433.844	516.38
434.066	511.38
434.287	513.38
434.509	511.38
434.731	489.38
434.953	528.38
435.175	543.38
435.397	561.38
435.618	563.38
435.84	602.38
436.062	668.38
436.284	787.38
436.505	636.38
436.727	566.38
436.949	546.38
437.17	522.38
437.392	520.38
437.614	556.38
437.835	561.38
438.057	636.38
438.278	752.38
438.5	751.38
438.721	839.38
438.943	810.38
439.165	608.38
439.386	563.38
439.608	584.38
439.829	554.38
440.05	583.38
440.272	646.38
440.493	576.38
440.715	554.38
440.936	528.38
441.158	534.38
441.379	526.38
441.6	533.38
441.822	531.38
442.043	602.38
442.264	662.38
442.486	706.38
442.707	603.38
442.928	574.38
443.149	570.38
443.371	595.38
443.592	657.38
443.813	731.38
444.034	801.38
444.255	650.38
444.476	611.38
444.698	574.38
444.919	584.38
445.14	672.38
445.361	616.38
445.582	609.38
445.803	651.38
446.024	768.38
446.245	751.38
446.466	715.38
446.687	586.38
446.908	557.38
447.129	542.38
447.35	528.38
447.571	532.38
447.792	504.38
448.013	546.38
448.234	540.38
448.455	561.38
448.675	666.38
448.896	808.38
449.117	657.38
449.338	625.38
449.559	722.38
449.779	858.38
450	677.38
450.221	579.38
450.442	551.38
450.662	508.38
450.883	516.38
451.104	512.38
451.324	489.38
451.545	491.38
451.766	465.38
451.986	458.38
452.207	476.38
452.428	465.38
452.648	473.38
452.869	454.38
453.089	494.38
453.31	481.38
453.53	465.38
453.751	473.38
453.971	488.38
454.192	472.38
454.412	461.38
454.633	478.38
454.853	480.38
455.073	482.38
455.294	495.38
455.514	556.38
455.734	512.38
455.955	488.38
456.175	419.38
456.395	453.38
456.616	459.38
456.836	455.38
457.056	447.38
457.276	435.38
457.497	465.38
457.717	464.38
457.937	466.38
458.157	459.38
458.377	486.38
458.598	485.38
458.818	541.38
459.038	595.38
459.258	591.38
459.478	547.38
459.698	529.38
459.918	508.38
460.138	512.38
460.358	511.38
460.578	531.38
460.798	542.38
461.018	543.38
461.238	537.38
461.458	506.38
461.678	531.38
461.898	536.38
462.118	546.38
462.338	534.38
462.558	558.38
462.777	544.38
462.997	539.38
463.217	562.38
463.437	584.38
463.657	569.38
463.876	570.38
464.096	579.38
464.316	578.38
464.536	562.38
464.755	579.38
464.975	581.38
465.195	584.38
465.414	622.38
465.634	573.38
465.854	542.38
466.073	527.38
466.293	503.38
466.512	516.38
466.732	500.38
466.951	486.38
467.171	494.38
467.391	503.38
467.61	487.38
467.829	499.38
468.049	503.38
468.268	479.38
468.488	487.38
468.707	498.38
468.927	481.38
469.146	461.38
469.365	484.38
469.585	479.38
469.804	492.38
470.023	511.38
470.243	494.38
470.462	506.38
470.681	514.38
470.901	497.38
471.12	509.38
471.339	502.38
471.558	503.38
471.777	510.38
471.997	481.38
472.216	496.38
472.435	513.38
472.654	522.38
472.873	512.38
473.092	492.38
473.311	499.38
473.53	512.38
473.749	498.38
473.968	523.38
474.187	607.38
474.406	620.38
474.625	547.38
474.844	521.38
475.063	486.38
475.282	500.38
475.501	494.38
475.72	522.38
475.939	506.38
476.158	509.38
476.377	538.38
476.596	532.38
476.814	530.38
477.033	552.38
477.252	530.38
477.471	544.38
477.69	533.38
477.908	552.38
478.127	569.38
478.346	532.38
478.564	562.38
478.783	555.38
479.002	569.38
479.22	563.38
479.439	588.38
479.658	593.38
479.876	596.38
480.095	612.38
480.313	611.38
480.532	635.38
480.751	627.38
480.969	637.38
481.188	639.38
481.406	657.38
481.624	611.38
481.843	596.38
482.061	579.38
482.28	602.38
482.498	609.38
482.717	577.38
482.935	588.38
483.153	574.38
483.372	569.38
483.59	588.38
483.808	570.38
484.027	592.38
484.245	595.38
484.463	598.38
484.681	595.38
484.9	609.38
485.118	611.38
485.336	606.38
485.554	602.38
485.772	618.38
485.99	601.38
486.209	593.38
486.427	625.38
486.645	624.38
486.863	658.38
487.081	630.38
487.299	643.38
487.517	623.38
487.735	617.38
487.953	622.38
488.171	631.38
488.389	584.38
488.607	640.38
488.825	634.38
489.043	623.38
489.261	607.38
489.479	623.38
489.696	649.38
489.914	625.38
490.132	626.38
490.35	643.38
490.568	646.38
490.786	628.38
491.003	646.38
491.221	664.38
491.439	680.38
491.657	667.38
491.874	688.38
492.092	699.38
492.31	679.38
492.527	698.38
492.745	674.38
492.963	681.38
493.18	701.38
493.398	701.38
493.615	693.38
493.833	699.38
494.05	690.38
494.268	702.38
494.485	694.38
494.703	708.38
494.92	691.38
495.138	707.38
495.355	705.38
495.573	713.38
495.79	731.38
496.008	721.38
496.225	720.38
496.442	731.38
496.66	730.38
496.877	736.38
497.094	730.38
497.312	736.38
497.529	729.38
497.746	770.38
497.963	755.38
498.181	810.38
498.398	816.38
498.615	818.38
498.832	854.38
499.049	873.38
499.267	867.38
499.484	899.38
499.701	957.38
499.918	967.38
500.135	1032.38
500.352	1068.38
500.569	1096.38
500.786	1103.38
501.003	1090.38
501.22	1056.38
501.437	1029.38
501.654	991.38
501.871	960.38
502.088	915.38
502.305	892.38
502.522	873.38
502.739	854.38
502.956	804.38
503.172	800.38
503.389	803.38
503.606	784.38
503.823	773.38
504.04	762.38
504.256	753.38
504.473	752.38
504.69	763.38
504.907	744.38
505.123	745.38
505.34	711.38
505.557	710.38
505.773	721.38
505.99	700.38
506.207	682.38
506.423	688.38
506.64	681.38
506.856	666.38
507.073	657.38
507.289	654.38
507.506	663.38
507.722	682.38
507.939	666.38
508.155	641.38
508.372	653.38
508.588	652.38
508.805	669.38
509.021	638.38
509.238	642.38
509.454	668.38
509.67	658.38
509.887	610.38
510.103	634.38
510.319	636.38
510.536	698.38
510.752	1007.38
510.968	873.38
511.184	670.38
511.401	638.38
511.617	619.38
511.833	628.38
512.049	634.38
512.265	618.38
512.481	635.38
512.698	628.38
512.914	632.38
513.13	595.38
513.346	615.38
513.562	603.38
513.778	627.38
513.994	604.38
514.21	638.38
514.426	657.38
514.642	677.38
514.858	697.38
515.074	719.38
515.29	794.38
515.506	1018.38
515.721	909.38
515.937	694.38
516.153	667.38
516.369	659.38
516.585	657.38
516.801	656.38
517.016	650.38
517.232	661.38
517.448	644.38
517.664	654.38
517.879	675.38
518.095	678.38
518.311	650.38
518.527	676.38
518.742	641.38
518.958	647.38
519.173	640.38
519.389	613.38
519.605	625.38
519.82	633.38
520.036	635.38
520.251	611.38
520.467	632.38
520.682	646.38
520.898	644.38
521.113	651.38
521.329	669.38
521.544	742.38
521.76	882.38
521.975	1274.38
522.19	1243.38
522.406	823.38
522.621	672.38
522.836	623.38
523.052	595.38
523.267	581.38
523.482	605.38
523.698	582.38
523.913	595.38
524.128	562.38
524.343	584.38
524.559	562.38
524.774	561.38
524.989	557.38
525.204	542.38
525.419	561.38
525.634	551.38
525.849	547.38
526.064	537.38
526.28	545.38
526.495	520.38
526.71	511.38
526.925	553.38
527.14	540.38
527.355	542.38
527.57	562.38
527.785	539.38
527.999	523.38
528.214	527.38
528.429	520.38
528.644	539.38
528.859	542.38
529.074	547.38
529.289	542.38
529.503	600.38
529.718	578.38
529.933	554.38
530.148	540.38
530.363	528.38
530.577	524.38
530.792	523.38
531.007	511.38
531.221	517.38
531.436	521.38
531.651	535.38
531.865	497.38
532.08	518.38
532.295	514.38
532.509	517.38
532.724	520.38
532.938	508.38
533.153	522.38
533.367	498.38
533.582	520.38
533.796	512.38
534.011	519.38
534.225	497.38
534.44	505.38
534.654	493.38
534.868	493.38
535.083	518.38
535.297	494.38
535.511	502.38
535.726	524.38
535.94	493.38
536.154	535.38
536.369	491.38
536.583	489.38
536.797	507.38
537.011	488.38
537.225	497.38
537.44	507.38
537.654	484.38
537.868	483.38
538.082	490.38
538.296	481.38
538.51	497.38
538.724	502.38
538.938	480.38
539.153	481.38
539.367	495.38
539.581	498.38
539.795	461.38
540.009	490.38
540.222	477.38
540.436	469.38
540.65	471.38
540.864	511.38
541.078	492.38
541.292	504.38
541.506	480.38
541.72	505.38
541.934	482.38
542.147	491.38
542.361	487.38
542.575	469.38
542.789	474.38
543.002	474.38
543.216	477.38
543.43	503.38
543.644	498.38
543.857	491.38
544.071	481.38
544.285	486.38
544.498	457.38
544.712	511.38
544.925	500.38
545.139	484.38
545.352	471.38
545.566	471.38
545.779	453.38
545.993	476.38
546.206	487.38
546.42	496.38
546.633	477.38
546.847	463.38
547.06	483.38
547.274	473.38
547.487	478.38
547.7	474.38
547.914	488.38
548.127	480.38
548.34	470.38
548.554	452.38
548.767	456.38
548.98	459.38
549.193	470.38
549.407	458.38
549.62	453.38
549.833	483.38
550.046	464.38
550.259	455.38
550.473	460.38
550.686	472.38
550.899	485.38
551.112	479.38
551.325	457.38
551.538	457.38
551.751	479.38
551.964	456.38
552.177	488.38
552.39	461.38
552.603	485.38
552.816	475.38
553.029	479.38
553.242	474.38
553.455	486.38
553.667	486.38
553.88	482.38
554.093	481.38
554.306	481.38
554.519	457.38
554.732	464.38
554.944	456.38
555.157	456.38
555.37	448.38
555.583	473.38
555.795	461.38
556.008	442.38
556.221	451.38
556.433	446.38
556.646	440.38
556.859	430.38
557.071	433.38
557.284	421.38
557.496	417.38
557.709	426.38
557.921	418.38
558.134	448.38
558.346	433.38
558.559	426.38
558.771	429.38
558.984	426.38
559.196	426.38
559.409	434.38
559.621	434.38
559.833	439.38
560.046	424.38
560.258	408.38
560.47	422.38
560.683	440.38
560.895	429.38
561.107	430.38
561.32	422.38
561.532	423.38
561.744	419.38
561.956	416.38
562.168	423.38
562.381	444.38
562.593	424.38
562.805	412.38
563.017	427.38
563.229	434.38
563.441	441.38
563.653	412.38
563.865	406.38
564.077	446.38
564.289	444.38
564.501	442.38
564.713	428.38
564.925	444.38
565.137	462.38
565.349	464.38
565.561	460.38
565.773	476.38
565.985	476.38
566.197	476.38
566.408	514.38
566.62	537.38
566.832	524.38
567.044	524.38
567.255	538.38
567.467	529.38
567.679	555.38
567.891	550.38
568.102	556.38
568.314	556.38
568.526	525.38
568.737	508.38
568.949	500.38
569.161	484.38
569.372	457.38
569.584	460.38
569.795	447.38
570.007	452.38
570.218	469.38
570.43	448.38
570.641	420.38
570.853	423.38
571.064	428.38
571.276	424.38
571.487	392.38
571.698	402.38
571.91	400.38
572.121	383.38
572.333	398.38
572.544	390.38
572.755	379.38
572.966	386.38
573.178	375.38
573.389	399.38
573.6	396.38
573.811	383.38
574.023	379.38
574.234	379.38
574.445	370.38
574.656	374.38
574.867	384.38
575.078	369.38
575.289	392.38
575.501	380.38
575.712	362.38
575.923	378.38
576.134	377.38
576.345	379.38
576.556	360.38
576.767	368.38
576.978	342.38
577.188	350.38
577.399	360.38
577.61	370.38
577.821	349.38
578.032	357.38
578.243	383.38
578.454	505.38
578.665	424.38
578.875	353.38
579.086	356.38
579.297	351.38
579.508	366.38
579.718	351.38
579.929	352.38
580.14	355.38
580.35	351.38
580.561	315.38
580.772	329.38
580.982	348.38
581.193	338.38
581.403	355.38
581.614	335.38
581.825	341.38
582.035	342.38
582.246	337.38
582.456	338.38
582.667	351.38
582.877	347.38
583.087	324.38
583.298	333.38
583.508	320.38
583.719	341.38
583.929	348.38
584.139	332.38
584.35	347.38
584.56	331.38
584.77	318.38
584.981	338.38
585.191	339.38
585.401	319.38
585.611	342.38
585.821	339.38
586.032	328.38
586.242	326.38
586.452	331.38
586.662	305.38
586.872	339.38
587.082	343.38
587.292	314.38
587.502	347.38
587.713	312.38
587.923	310.38
588.133	331.38
588.343	313.38
588.553	329.38
588.762	330.38
588.972	326.38
589.182	323.38
589.392	315.38
589.602	312.38
589.812	334.38
590.022	341.38
590.232	327.38
590.441	317.38
590.651	323.38
590.861	332.38
591.071	321.38
591.281	314.38
591.49	319.38
591.7	329.38
591.91	327.38
592.119	355.38
592.329	358.38
592.539	327.38
592.748	347.38
592.958	353.38
593.167	334.38
593.377	348.38
593.587	333.38
593.796	356.38
594.006	351.38
594.215	336.38
594.424	343.38
594.634	319.38
594.843	312.38
595.053	335.38
595.262	337.38
595.472	335.38
595.681	319.38
595.89	313.38
596.1	318.38
596.309	320.38
596.518	307.38
596.727	314.38
596.937	308.38
597.146	294.38
597.355	312.38
597.564	294.38
597.774	295.38
597.983	315.38
598.192	302.38
598.401	316.38
598.61	287.38
598.819	290.38
599.028	287.38
599.237	296.38
599.446	296.38
599.655	289.38
599.864	283.38
600.073	271.38
600.282	296.38
600.491	295.38
600.7	278.38
600.909	290.38
601.118	306.38
601.327	282.38
601.536	292.38
601.745	283.38
601.953	280.38
602.162	275.38
602.371	278.38
602.58	274.38
602.789	286.38
602.997	279.38
603.206	295.38
603.415	278.38
603.623	274.38
603.832	271.38
604.041	270.38
604.249	286.38
604.458	274.38
604.666	256.38
604.875	267.38
605.084	272.38
605.292	291.38
605.501	272.38
605.709	273.38
605.918	254.38
606.126	271.38
606.334	276.38
606.543	255.38
606.751	280.38
606.96	271.38
607.168	294.38
607.376	286.38
607.585	277.38
607.793	274.38
608.001	266.38
608.21	254.38
608.418	258.38
608.626	256.38
608.834	291.38
609.043	275.38
609.251	263.38
609.459	267.38
609.667	256.38
609.875	262.38
610.083	260.38
610.291	251.38
610.499	284.38
610.707	257.38
610.916	261.38
611.124	268.38
611.332	272.38
611.54	286.38
611.748	305.38
611.955	267.38
612.163	280.38
612.371	262.38
612.579	260.38
612.787	271.38
612.995	264.38
613.203	269.38
613.411	253.38
613.618	260.38
613.826	252.38
614.034	256.38
614.242	252.38
614.449	246.38
614.657	246.38
614.865	254.38
615.072	266.38
615.28	272.38
615.488	244.38
615.695	272.38
615.903	246.38
616.111	266.38
616.318	253.38
616.526	251.38
616.733	252.38
616.941	254.38
617.148	262.38
617.356	251.38
617.563	242.38
617.771	248.38
617.978	242.38
618.185	244.38
618.393	252.38
618.6	250.38
618.807	238.38
619.015	252.38
619.222	266.38
619.429	269.38
619.637	257.38
619.844	249.38
620.051	251.38
620.258	241.38
620.466	243.38
620.673	246.38
620.88	240.38
621.087	234.38
621.294	223.38
621.501	247.38
621.708	219.38
621.915	253.38
622.122	232.38
622.329	250.38
622.536	250.38
622.743	232.38
622.95	245.38
623.157	251.38
623.364	239.38
623.571	239.38
623.778	227.38
623.985	240.38
624.192	230.38
624.399	239.38
624.606	230.38
624.812	217.38
625.019	227.38
625.226	227.38
625.433	229.38
625.639	224.38
625.846	219.38
626.053	223.38
626.259	234.38
626.466	234.38
626.673	222.38
626.879	231.38
627.086	225.38
627.293	233.38
627.499	204.38
627.706	237.38
627.912	219.38
628.119	222.38
628.325	220.38
628.532	223.38
628.738	232.38
628.945	216.38
629.151	232.38
629.357	209.38
629.564	218.38
629.77	220.38
629.976	233.38
630.183	210.38
630.389	214.38
630.595	218.38
630.802	217.38
631.008	205.38
631.214	206.38
631.42	220.38
631.627	205.38
631.833	205.38
632.039	206.38
632.245	210.38
632.451	207.38
632.657	198.38
632.863	201.38
633.069	201.38
633.275	219.38
633.481	188.38
633.688	200.38
633.893	215.38
634.099	212.38
634.305	204.38
634.511	180.38
634.717	191.38
634.923	194.38
635.129	210.38
635.335	196.38
635.541	190.38
635.747	201.38
635.952	213.38
636.158	203.38
636.364	203.38
636.57	194.38
636.775	202.38
636.981	188.38
637.187	204.38
637.392	198.38
637.598	180.38
637.804	191.38
638.009	211.38
638.215	197.38
638.421	196.38
638.626	192.38
638.832	202.38
639.037	193.38
639.243	178.38
639.448	187.38
639.654	186.38
639.859	182.38
640.065	176.38
640.27	171.38
640.475	196.38
640.681	195.38
640.886	196.38
641.091	190.38
641.297	196.38
641.502	189.38
641.707	194.38
641.913	183.38
642.118	179.38
642.323	184.38
642.528	194.38
642.733	183.38
642.939	187.38
643.144	174.38
643.349	188.38
643.554	173.38
643.759	163.38
643.964	180.38
644.169	183.38
644.374	192.38
644.579	182.38
644.784	176.38
644.989	175.38
645.194	179.38
645.399	182.38
645.604	184.38
645.809	197.38
646.014	159.38
646.219	175.38
646.423	199.38
646.628	185.38
646.833	176.38
647.038	190.38
647.243	179.38
647.447	183.38
647.652	184.38
647.857	195.38
648.062	179.38
648.266	180.38
648.471	187.38
648.676	193.38
648.88	175.38
649.085	180.38
649.289	195.38
649.494	187.38
649.698	185.38
649.903	201.38
650.107	206.38
650.312	175.38
650.516	188.38
650.721	166.38
650.925	182.38
651.13	162.38
651.334	171.38
651.539	166.38
651.743	170.38
651.947	171.38
652.152	150.38
652.356	164.38
652.56	159.38
652.764	170.38
652.969	156.38
653.173	145.38
653.377	147.38
653.581	147.38
653.785	156.38
653.99	153.38
654.194	142.38
654.398	142.38
654.602	154.38
654.806	152.38
655.01	158.38
655.214	165.38
655.418	139.38
655.622	145.38
655.826	134.38
656.03	141.38
656.234	143.38
656.438	139.38
656.642	144.38
656.846	137.38
657.049	127.38
657.253	130.38
657.457	123.38
657.661	120.38
657.865	122.38
658.068	114.38
658.272	124.38
658.476	116.38
658.68	106.38
658.883	110.38
659.087	115.38
659.291	109.38
659.494	109.38
659.698	115.38
659.901	110.38
660.105	104.38
660.309	94.38
660.512	106.38
660.716	96.38
660.919	96.38
661.123	104.38
661.326	88.38
661.53	83.38
661.733	101.38
661.936	106.38
662.14	90.38
662.343	97.38
662.546	93.38
662.75	91.38
662.953	84.38
663.156	75.38
663.36	81.38
663.563	92.38
663.766	87.38
663.969	92.38
664.173	93.38
664.376	96.38
664.579	93.38
664.782	90.38
664.985	72.38
665.188	72.38
665.391	88.38
665.594	98.38
665.797	81.38
666	81.38
666.203	91.38
666.406	72.38
666.609	90.38
666.812	87.38
667.015	108.38
667.218	66.38
667.421	70.38
667.624	75.38
667.827	92.38
668.03	82.38
668.232	82.38
668.435	85.38
668.638	88.38
668.841	99.38
669.043	84.38
669.246	83.38
669.449	95.38
669.651	98.38
669.854	81.38
670.057	89.38
670.259	93.38
670.462	88.38
670.665	86.38
670.867	83.38
671.07	86.38
671.272	91.38
671.475	83.38
671.677	85.38
671.88	98.38
672.082	80.38
672.284	88.38
672.487	86.38
672.689	82.38
672.892	70.38
