Data from 1978.PennyLincolnUp.Lamp.En5.5.200Scan.071719.P1_HRD10591_16-14-42-863.txt Node
Date: Thu Jul 18 16:14:42 EDT 2019
User: cochatt
Spectrometer: HR+D1059
Trigger mode: 1
Integration Time (sec): 1.000000E-1
Scans to average: 1
Electric dark correction enabled: true
Nonlinearity correction enabled: false
Boxcar width: 0
XAxis mode: Wavelengths
Number of Pixels in Spectrum: 2048
>>>>>Begin Spectral Data<<<<<
223.165	-9.25
223.4	-9.25
223.635	-9.25
223.869	-13.25
224.104	-10.25
224.338	-22.25
224.573	-18.25
224.808	-22.25
225.042	-8.25
225.277	-9.25
225.511	11.75
225.746	-8.25
225.98	6.75
226.215	2.75
226.449	12.75
226.683	25.75
226.918	23.75
227.152	37.75
227.387	26.75
227.621	38.75
227.856	55.75
228.09	46.75
228.324	58.75
228.559	66.75
228.793	54.75
229.027	90.75
229.262	111.75
229.496	123.75
229.73	126.75
229.964	169.75
230.199	132.75
230.433	115.75
230.667	122.75
230.901	111.75
231.136	109.75
231.37	115.75
231.604	100.75
231.838	112.75
232.072	109.75
232.306	106.75
232.541	115.75
232.775	116.75
233.009	128.75
233.243	117.75
233.477	120.75
233.711	114.75
233.945	126.75
234.179	117.75
234.413	108.75
234.647	108.75
234.881	125.75
235.115	126.75
235.349	118.75
235.583	123.75
235.817	119.75
236.051	126.75
236.285	134.75
236.519	128.75
236.753	136.75
236.987	143.75
237.221	181.75
237.455	232.75
237.689	192.75
237.922	140.75
238.156	152.75
238.39	135.75
238.624	123.75
238.858	117.75
239.091	138.75
239.325	120.75
239.559	122.75
239.793	131.75
240.027	127.75
240.26	144.75
240.494	150.75
240.728	148.75
240.961	139.75
241.195	145.75
241.429	126.75
241.662	130.75
241.896	145.75
242.13	130.75
242.363	143.75
242.597	128.75
242.83	143.75
243.064	126.75
243.298	127.75
243.531	145.75
243.765	146.75
243.998	139.75
244.232	133.75
244.465	143.75
244.699	148.75
244.932	143.75
245.166	141.75
245.399	149.75
245.633	138.75
245.866	140.75
246.099	150.75
246.333	140.75
246.566	132.75
246.8	145.75
247.033	152.75
247.266	145.75
247.5	142.75
247.733	161.75
247.966	172.75
248.2	176.75
248.433	173.75
248.666	180.75
248.899	180.75
249.133	187.75
249.366	206.75
249.599	182.75
249.832	174.75
250.066	172.75
250.299	155.75
250.532	174.75
250.765	197.75
250.998	221.75
251.231	224.75
251.465	212.75
251.698	199.75
251.931	192.75
252.164	175.75
252.397	182.75
252.63	192.75
252.863	199.75
253.096	189.75
253.329	219.75
253.562	214.75
253.795	208.75
254.028	221.75
254.261	216.75
254.494	208.75
254.727	246.75
254.96	262.75
255.193	247.75
255.426	237.75
255.659	207.75
255.892	235.75
256.124	211.75
256.357	228.75
256.59	205.75
256.823	205.75
257.056	208.75
257.289	203.75
257.521	198.75
257.754	199.75
257.987	195.75
258.22	202.75
258.452	214.75
258.685	182.75
258.918	196.75
259.151	214.75
259.383	204.75
259.616	217.75
259.849	206.75
260.081	239.75
260.314	244.75
260.547	250.75
260.779	219.75
261.012	226.75
261.244	234.75
261.477	222.75
261.71	228.75
261.942	231.75
262.175	221.75
262.407	234.75
262.64	213.75
262.872	202.75
263.105	213.75
263.337	214.75
263.57	209.75
263.802	200.75
264.035	203.75
264.267	211.75
264.499	211.75
264.732	197.75
264.964	201.75
265.197	204.75
265.429	212.75
265.661	210.75
265.894	212.75
266.126	228.75
266.358	210.75
266.591	219.75
266.823	220.75
267.055	234.75
267.287	221.75
267.52	194.75
267.752	210.75
267.984	215.75
268.216	230.75
268.448	224.75
268.681	228.75
268.913	253.75
269.145	264.75
269.377	267.75
269.609	273.75
269.841	274.75
270.073	269.75
270.306	271.75
270.538	297.75
270.77	290.75
271.002	297.75
271.234	278.75
271.466	288.75
271.698	272.75
271.93	294.75
272.162	291.75
272.394	300.75
272.626	294.75
272.858	266.75
273.09	263.75
273.322	278.75
273.553	265.75
273.785	274.75
274.017	278.75
274.249	253.75
274.481	262.75
274.713	267.75
274.945	271.75
275.176	270.75
275.408	247.75
275.64	245.75
275.872	271.75
276.104	262.75
276.335	242.75
276.567	267.75
276.799	283.75
277.031	293.75
277.262	284.75
277.494	316.75
277.726	284.75
277.957	278.75
278.189	272.75
278.421	260.75
278.652	265.75
278.884	264.75
279.115	280.75
279.347	249.75
279.579	263.75
279.81	255.75
280.042	270.75
280.273	255.75
280.505	251.75
280.736	268.75
280.968	273.75
281.199	273.75
281.431	266.75
281.662	259.75
281.894	264.75
282.125	263.75
282.356	278.75
282.588	303.75
282.819	284.75
283.051	257.75
283.282	265.75
283.513	261.75
283.745	282.75
283.976	278.75
284.207	271.75
284.439	284.75
284.67	285.75
284.901	261.75
285.132	277.75
285.364	271.75
285.595	291.75
285.826	270.75
286.057	277.75
286.288	261.75
286.52	276.75
286.751	262.75
286.982	278.75
287.213	306.75
287.444	287.75
287.675	299.75
287.906	300.75
288.138	290.75
288.369	287.75
288.6	306.75
288.831	289.75
289.062	293.75
289.293	289.75
289.524	285.75
289.755	301.75
289.986	288.75
290.217	278.75
290.448	272.75
290.679	276.75
290.91	289.75
291.141	279.75
291.371	302.75
291.602	288.75
291.833	293.75
292.064	287.75
292.295	278.75
292.526	299.75
292.757	274.75
292.987	270.75
293.218	295.75
293.449	307.75
293.68	294.75
293.91	288.75
294.141	274.75
294.372	289.75
294.603	284.75
294.833	291.75
295.064	282.75
295.295	286.75
295.525	296.75
295.756	304.75
295.987	290.75
296.217	324.75
296.448	341.75
296.679	308.75
296.909	295.75
297.14	297.75
297.37	299.75
297.601	295.75
297.831	289.75
298.062	303.75
298.292	299.75
298.523	315.75
298.753	300.75
298.984	304.75
299.214	302.75
299.445	303.75
299.675	312.75
299.905	318.75
300.136	320.75
300.366	311.75
300.597	321.75
300.827	338.75
301.057	330.75
301.288	319.75
301.518	325.75
301.748	328.75
301.979	314.75
302.209	323.75
302.439	314.75
302.669	342.75
302.9	325.75
303.13	318.75
303.36	333.75
303.59	328.75
303.82	330.75
304.051	321.75
304.281	325.75
304.511	322.75
304.741	317.75
304.971	351.75
305.201	338.75
305.431	320.75
305.661	332.75
305.891	324.75
306.121	324.75
306.352	323.75
306.582	319.75
306.812	334.75
307.042	335.75
307.272	328.75
307.502	351.75
307.731	334.75
307.961	318.75
308.191	343.75
308.421	338.75
308.651	326.75
308.881	347.75
309.111	340.75
309.341	329.75
309.571	354.75
309.8	359.75
310.03	358.75
310.26	361.75
310.49	372.75
310.72	374.75
310.949	395.75
311.179	392.75
311.409	379.75
311.639	360.75
311.868	384.75
312.098	374.75
312.328	375.75
312.557	388.75
312.787	387.75
313.017	390.75
313.246	396.75
313.476	384.75
313.706	359.75
313.935	376.75
314.165	392.75
314.394	396.75
314.624	390.75
314.853	379.75
315.083	397.75
315.312	350.75
315.542	377.75
315.771	372.75
316.001	364.75
316.23	350.75
316.46	358.75
316.689	366.75
316.919	398.75
317.148	392.75
317.377	397.75
317.607	397.75
317.836	379.75
318.065	379.75
318.295	395.75
318.524	389.75
318.753	386.75
318.983	381.75
319.212	392.75
319.441	401.75
319.67	372.75
319.9	377.75
320.129	359.75
320.358	364.75
320.587	392.75
320.816	407.75
321.046	398.75
321.275	405.75
321.504	404.75
321.733	396.75
321.962	410.75
322.191	416.75
322.42	418.75
322.649	451.75
322.878	474.75
323.108	447.75
323.337	476.75
323.566	493.75
323.795	527.75
324.024	563.75
324.253	698.75
324.482	1021.75
324.71	1578.75
324.939	2490.75
325.168	2128.75
325.397	996.75
325.626	663.75
325.855	557.75
326.084	516.75
326.313	515.75
326.542	505.75
326.77	537.75
326.999	662.75
327.228	922.75
327.457	1493.75
327.686	1834.75
327.914	1167.75
328.143	738.75
328.372	618.75
328.6	584.75
328.829	548.75
329.058	574.75
329.287	600.75
329.515	557.75
329.744	500.75
329.972	519.75
330.201	532.75
330.43	565.75
330.658	599.75
330.887	596.75
331.115	593.75
331.344	510.75
331.572	491.75
331.801	506.75
332.03	494.75
332.258	491.75
332.486	470.75
332.715	448.75
332.943	461.75
333.172	459.75
333.4	459.75
333.629	493.75
333.857	485.75
334.085	494.75
334.314	524.75
334.542	534.75
334.771	533.75
334.999	522.75
335.227	491.75
335.455	464.75
335.684	478.75
335.912	465.75
336.14	468.75
336.369	447.75
336.597	465.75
336.825	471.75
337.053	479.75
337.281	438.75
337.51	447.75
337.738	446.75
337.966	467.75
338.194	436.75
338.422	453.75
338.65	434.75
338.878	433.75
339.106	446.75
339.334	431.75
339.562	408.75
339.79	434.75
340.018	416.75
340.246	442.75
340.474	445.75
340.702	438.75
340.93	428.75
341.158	439.75
341.386	431.75
341.614	455.75
341.842	451.75
342.07	448.75
342.298	429.75
342.526	420.75
342.754	431.75
342.981	425.75
343.209	429.75
343.437	435.75
343.665	420.75
343.893	450.75
344.12	461.75
344.348	431.75
344.576	447.75
344.804	455.75
345.031	457.75
345.259	477.75
345.487	446.75
345.714	454.75
345.942	442.75
346.17	420.75
346.397	433.75
346.625	424.75
346.853	422.75
347.08	419.75
347.308	437.75
347.535	445.75
347.763	416.75
347.99	443.75
348.218	444.75
348.445	453.75
348.673	463.75
348.9	431.75
349.128	451.75
349.355	430.75
349.583	399.75
349.81	428.75
350.037	397.75
350.265	420.75
350.492	429.75
350.72	419.75
350.947	424.75
351.174	460.75
351.402	437.75
351.629	436.75
351.856	434.75
352.083	448.75
352.311	431.75
352.538	428.75
352.765	459.75
352.992	438.75
353.22	418.75
353.447	428.75
353.674	430.75
353.901	424.75
354.128	417.75
354.355	412.75
354.583	426.75
354.81	406.75
355.037	423.75
355.264	420.75
355.491	391.75
355.718	391.75
355.945	402.75
356.172	392.75
356.399	395.75
356.626	403.75
356.853	401.75
357.08	389.75
357.307	386.75
357.534	384.75
357.761	424.75
357.988	412.75
358.215	421.75
358.441	404.75
358.668	414.75
358.895	401.75
359.122	413.75
359.349	401.75
359.576	438.75
359.802	443.75
360.029	457.75
360.256	460.75
360.483	463.75
360.709	446.75
360.936	428.75
361.163	431.75
361.39	453.75
361.616	430.75
361.843	422.75
362.07	451.75
362.296	434.75
362.523	447.75
362.749	430.75
362.976	421.75
363.203	415.75
363.429	402.75
363.656	412.75
363.882	410.75
364.109	414.75
364.335	432.75
364.562	428.75
364.788	417.75
365.015	412.75
365.241	401.75
365.468	408.75
365.694	438.75
365.92	423.75
366.147	422.75
366.373	427.75
366.599	409.75
366.826	412.75
367.052	422.75
367.278	414.75
367.505	431.75
367.731	431.75
367.957	436.75
368.184	416.75
368.41	404.75
368.636	421.75
368.862	449.75
369.089	429.75
369.315	424.75
369.541	417.75
369.767	425.75
369.993	420.75
370.219	421.75
370.445	408.75
370.672	442.75
370.898	425.75
371.124	415.75
371.35	410.75
371.576	424.75
371.802	440.75
372.028	430.75
372.254	414.75
372.48	436.75
372.706	423.75
372.932	432.75
373.158	436.75
373.384	408.75
373.61	411.75
373.835	429.75
374.061	391.75
374.287	428.75
374.513	426.75
374.739	431.75
374.965	457.75
375.191	430.75
375.416	398.75
375.642	424.75
375.868	424.75
376.094	430.75
376.319	432.75
376.545	415.75
376.771	424.75
376.997	413.75
377.222	430.75
377.448	437.75
377.674	404.75
377.899	420.75
378.125	415.75
378.35	418.75
378.576	414.75
378.802	413.75
379.027	415.75
379.253	423.75
379.478	426.75
379.704	424.75
379.929	416.75
380.155	428.75
380.38	395.75
380.606	419.75
380.831	422.75
381.057	446.75
381.282	438.75
381.507	431.75
381.733	429.75
381.958	426.75
382.184	417.75
382.409	427.75
382.634	433.75
382.86	437.75
383.085	445.75
383.31	426.75
383.535	447.75
383.761	464.75
383.986	428.75
384.211	462.75
384.436	434.75
384.662	467.75
384.887	468.75
385.112	450.75
385.337	458.75
385.562	472.75
385.787	474.75
386.013	498.75
386.238	468.75
386.463	471.75
386.688	480.75
386.913	483.75
387.138	460.75
387.363	470.75
387.588	475.75
387.813	472.75
388.038	481.75
388.263	471.75
388.488	473.75
388.713	470.75
388.938	471.75
389.163	485.75
389.387	472.75
389.612	455.75
389.837	471.75
390.062	454.75
390.287	466.75
390.512	447.75
390.736	470.75
390.961	484.75
391.186	474.75
391.411	479.75
391.636	479.75
391.86	484.75
392.085	483.75
392.31	470.75
392.534	501.75
392.759	502.75
392.984	475.75
393.208	494.75
393.433	462.75
393.658	482.75
393.882	513.75
394.107	488.75
394.331	474.75
394.556	511.75
394.78	486.75
395.005	488.75
395.229	481.75
395.454	495.75
395.678	499.75
395.903	524.75
396.127	516.75
396.352	519.75
396.576	499.75
396.801	483.75
397.025	503.75
397.249	502.75
397.474	506.75
397.698	495.75
397.922	526.75
398.147	559.75
398.371	541.75
398.595	536.75
398.82	538.75
399.044	551.75
399.268	564.75
399.492	595.75
399.717	647.75
399.941	665.75
400.165	669.75
400.389	693.75
400.613	628.75
400.837	580.75
401.062	558.75
401.286	566.75
401.51	571.75
401.734	553.75
401.958	534.75
402.182	541.75
402.406	568.75
402.63	588.75
402.854	575.75
403.078	576.75
403.302	573.75
403.526	582.75
403.75	571.75
403.974	578.75
404.198	589.75
404.422	571.75
404.645	571.75
404.869	599.75
405.093	629.75
405.317	662.75
405.541	706.75
405.765	628.75
405.988	608.75
406.212	610.75
406.436	614.75
406.66	643.75
406.883	613.75
407.107	638.75
407.331	666.75
407.555	755.75
407.778	768.75
408.002	711.75
408.226	624.75
408.449	631.75
408.673	639.75
408.896	678.75
409.12	722.75
409.344	673.75
409.567	623.75
409.791	594.75
410.014	572.75
410.238	570.75
410.461	583.75
410.685	574.75
410.908	600.75
411.132	637.75
411.355	648.75
411.578	678.75
411.802	589.75
412.025	586.75
412.249	578.75
412.472	616.75
412.695	671.75
412.919	652.75
413.142	591.75
413.365	560.75
413.589	562.75
413.812	565.75
414.035	551.75
414.258	554.75
414.482	525.75
414.705	549.75
414.928	559.75
415.151	548.75
415.374	548.75
415.597	535.75
415.821	531.75
416.044	546.75
416.267	541.75
416.49	519.75
416.713	505.75
416.936	535.75
417.159	549.75
417.382	535.75
417.605	558.75
417.828	546.75
418.051	553.75
418.274	565.75
418.497	540.75
418.72	537.75
418.943	528.75
419.166	549.75
419.389	596.75
419.611	563.75
419.834	580.75
420.057	568.75
420.28	569.75
420.503	572.75
420.726	544.75
420.948	572.75
421.171	647.75
421.394	683.75
421.617	575.75
421.839	553.75
422.062	575.75
422.285	586.75
422.507	644.75
422.73	726.75
422.953	692.75
423.175	615.75
423.398	580.75
423.621	576.75
423.843	630.75
424.066	629.75
424.288	586.75
424.511	614.75
424.733	669.75
424.956	766.75
425.178	738.75
425.401	735.75
425.623	778.75
425.846	666.75
426.068	604.75
426.291	606.75
426.513	606.75
426.735	592.75
426.958	654.75
427.18	735.75
427.402	879.75
427.625	997.75
427.847	872.75
428.069	738.75
428.292	646.75
428.514	618.75
428.736	587.75
428.958	599.75
429.181	566.75
429.403	546.75
429.625	577.75
429.847	608.75
430.069	694.75
430.292	673.75
430.514	582.75
430.736	584.75
430.958	558.75
431.18	554.75
431.402	521.75
431.624	523.75
431.846	517.75
432.068	542.75
432.29	549.75
432.512	542.75
432.734	544.75
432.956	539.75
433.178	557.75
433.4	565.75
433.622	531.75
433.844	554.75
434.066	541.75
434.287	541.75
434.509	543.75
434.731	565.75
434.953	553.75
435.175	570.75
435.397	609.75
435.618	624.75
435.84	645.75
436.062	755.75
436.284	867.75
436.505	695.75
436.727	628.75
436.949	588.75
437.17	574.75
437.392	550.75
437.614	569.75
437.835	617.75
438.057	722.75
438.278	864.75
438.5	814.75
438.721	926.75
438.943	864.75
439.165	682.75
439.386	613.75
439.608	626.75
439.829	631.75
440.05	642.75
440.272	692.75
440.493	659.75
440.715	604.75
440.936	590.75
441.158	558.75
441.379	583.75
441.6	601.75
441.822	610.75
442.043	637.75
442.264	752.75
442.486	793.75
442.707	666.75
442.928	622.75
443.149	634.75
443.371	656.75
443.592	691.75
443.813	840.75
444.034	896.75
444.255	721.75
444.476	646.75
444.698	632.75
444.919	626.75
445.14	690.75
445.361	675.75
445.582	650.75
445.803	713.75
446.024	862.75
446.245	859.75
446.466	774.75
446.687	678.75
446.908	614.75
447.129	569.75
447.35	558.75
447.571	561.75
447.792	554.75
448.013	568.75
448.234	599.75
448.455	635.75
448.675	764.75
448.896	906.75
449.117	739.75
449.338	714.75
449.559	829.75
449.779	975.75
450	754.75
450.221	638.75
450.442	556.75
450.662	539.75
450.883	566.75
451.104	558.75
451.324	550.75
451.545	539.75
451.766	540.75
451.986	493.75
452.207	506.75
452.428	520.75
452.648	520.75
452.869	510.75
453.089	520.75
453.31	525.75
453.53	514.75
453.751	497.75
453.971	509.75
454.192	526.75
454.412	528.75
454.633	491.75
454.853	490.75
455.073	495.75
455.294	535.75
455.514	604.75
455.734	576.75
455.955	475.75
456.175	475.75
456.395	473.75
456.616	458.75
456.836	494.75
457.056	471.75
457.276	460.75
457.497	463.75
457.717	499.75
457.937	496.75
458.157	510.75
458.377	503.75
458.598	531.75
458.818	589.75
459.038	650.75
459.258	674.75
459.478	584.75
459.698	545.75
459.918	548.75
460.138	549.75
460.358	552.75
460.578	555.75
460.798	578.75
461.018	548.75
461.238	569.75
461.458	554.75
461.678	537.75
461.898	567.75
462.118	570.75
462.338	579.75
462.558	588.75
462.777	590.75
462.997	615.75
463.217	612.75
463.437	628.75
463.657	576.75
463.876	591.75
464.096	571.75
464.316	582.75
464.536	598.75
464.755	585.75
464.975	614.75
465.195	631.75
465.414	685.75
465.634	615.75
465.854	598.75
466.073	575.75
466.293	538.75
466.512	511.75
466.732	514.75
466.951	528.75
467.171	552.75
467.391	506.75
467.61	530.75
467.829	533.75
468.049	544.75
468.268	548.75
468.488	514.75
468.707	513.75
468.927	511.75
469.146	510.75
469.365	539.75
469.585	502.75
469.804	523.75
470.023	526.75
470.243	511.75
470.462	523.75
470.681	520.75
470.901	535.75
471.12	517.75
471.339	538.75
471.558	535.75
471.777	537.75
471.997	522.75
472.216	526.75
472.435	576.75
472.654	569.75
472.873	526.75
473.092	539.75
473.311	533.75
473.53	516.75
473.749	540.75
473.968	570.75
474.187	671.75
474.406	730.75
474.625	599.75
474.844	532.75
475.063	521.75
475.282	547.75
475.501	540.75
475.72	520.75
475.939	524.75
476.158	550.75
476.377	528.75
476.596	544.75
476.814	548.75
477.033	554.75
477.252	566.75
477.471	549.75
477.69	549.75
477.908	557.75
478.127	566.75
478.346	557.75
478.564	598.75
478.783	564.75
479.002	600.75
479.22	618.75
479.439	633.75
479.658	633.75
479.876	645.75
480.095	648.75
480.313	654.75
480.532	636.75
480.751	642.75
480.969	642.75
481.188	719.75
481.406	737.75
481.624	670.75
481.843	683.75
482.061	639.75
482.28	629.75
482.498	635.75
482.717	629.75
482.935	614.75
483.153	613.75
483.372	614.75
483.59	634.75
483.808	611.75
484.027	624.75
484.245	613.75
484.463	623.75
484.681	631.75
484.9	626.75
485.118	652.75
485.336	617.75
485.554	629.75
485.772	634.75
485.99	647.75
486.209	658.75
486.427	632.75
486.645	652.75
486.863	647.75
487.081	651.75
487.299	655.75
487.517	658.75
487.735	646.75
487.953	657.75
488.171	657.75
488.389	648.75
488.607	628.75
488.825	650.75
489.043	648.75
489.261	664.75
489.479	677.75
489.696	696.75
489.914	668.75
490.132	684.75
490.35	671.75
490.568	671.75
490.786	700.75
491.003	694.75
491.221	734.75
491.439	721.75
491.657	735.75
491.874	713.75
492.092	729.75
492.31	738.75
492.527	750.75
492.745	745.75
492.963	762.75
493.18	744.75
493.398	748.75
493.615	773.75
493.833	756.75
494.05	744.75
494.268	756.75
494.485	745.75
494.703	768.75
494.92	754.75
495.138	759.75
495.355	772.75
495.573	784.75
495.79	805.75
496.008	794.75
496.225	782.75
496.442	760.75
496.66	767.75
496.877	799.75
497.094	805.75
497.312	808.75
497.529	811.75
497.746	807.75
497.963	844.75
498.181	847.75
498.398	849.75
498.615	886.75
498.832	895.75
499.049	910.75
499.267	882.75
499.484	971.75
499.701	1000.75
499.918	1005.75
500.135	1047.75
500.352	1090.75
500.569	1122.75
500.786	1153.75
501.003	1150.75
501.22	1074.75
501.437	1064.75
501.654	1044.75
501.871	985.75
502.088	947.75
502.305	886.75
502.522	927.75
502.739	908.75
502.956	873.75
503.172	820.75
503.389	812.75
503.606	806.75
503.823	814.75
504.04	807.75
504.256	808.75
504.473	799.75
504.69	778.75
504.907	806.75
505.123	778.75
505.34	780.75
505.557	758.75
505.773	755.75
505.99	732.75
506.207	771.75
506.423	750.75
506.64	747.75
506.856	714.75
507.073	726.75
507.289	702.75
507.506	742.75
507.722	737.75
507.939	766.75
508.155	739.75
508.372	705.75
508.588	716.75
508.805	718.75
509.021	699.75
509.238	734.75
509.454	751.75
509.67	710.75
509.887	703.75
510.103	696.75
510.319	682.75
510.536	798.75
510.752	1203.75
510.968	1008.75
511.184	731.75
511.401	684.75
511.617	694.75
511.833	671.75
512.049	660.75
512.265	671.75
512.481	656.75
512.698	646.75
512.914	660.75
513.13	661.75
513.346	647.75
513.562	665.75
513.778	663.75
513.994	668.75
514.21	684.75
514.426	702.75
514.642	757.75
514.858	762.75
515.074	811.75
515.29	894.75
515.506	1242.75
515.721	1069.75
515.937	806.75
516.153	748.75
516.369	719.75
516.585	719.75
516.801	712.75
517.016	701.75
517.232	702.75
517.448	731.75
517.664	710.75
517.879	693.75
518.095	725.75
518.311	711.75
518.527	695.75
518.742	685.75
518.958	700.75
519.173	679.75
519.389	660.75
519.605	671.75
519.82	677.75
520.036	702.75
520.251	709.75
520.467	720.75
520.682	717.75
520.898	698.75
521.113	730.75
521.329	781.75
521.544	846.75
521.76	1037.75
521.975	1587.75
522.19	1541.75
522.406	928.75
522.621	763.75
522.836	677.75
523.052	654.75
523.267	634.75
523.482	618.75
523.698	619.75
523.913	612.75
524.128	640.75
524.343	601.75
524.559	602.75
524.774	587.75
524.989	585.75
525.204	600.75
525.419	606.75
525.634	584.75
525.849	572.75
526.064	579.75
526.28	570.75
526.495	566.75
526.71	573.75
526.925	588.75
527.14	549.75
527.355	559.75
527.57	579.75
527.785	558.75
527.999	547.75
528.214	540.75
528.429	579.75
528.644	549.75
528.859	552.75
529.074	551.75
529.289	579.75
529.503	623.75
529.718	640.75
529.933	620.75
530.148	570.75
530.363	564.75
530.577	559.75
530.792	565.75
531.007	557.75
531.221	558.75
531.436	543.75
531.651	557.75
531.865	555.75
532.08	525.75
532.295	552.75
532.509	532.75
532.724	537.75
532.938	519.75
533.153	540.75
533.367	530.75
533.582	542.75
533.796	557.75
534.011	526.75
534.225	542.75
534.44	500.75
534.654	512.75
534.868	526.75
535.083	528.75
535.297	522.75
535.511	531.75
535.726	532.75
535.94	545.75
536.154	517.75
536.369	534.75
536.583	551.75
536.797	525.75
537.011	495.75
537.225	499.75
537.44	505.75
537.654	528.75
537.868	491.75
538.082	520.75
538.296	524.75
538.51	512.75
538.724	530.75
538.938	498.75
539.153	521.75
539.367	510.75
539.581	529.75
539.795	520.75
540.009	509.75
540.222	510.75
540.436	511.75
540.65	493.75
540.864	511.75
541.078	510.75
541.292	510.75
541.506	503.75
541.72	513.75
541.934	507.75
542.147	504.75
542.361	521.75
542.575	469.75
542.789	495.75
543.002	491.75
543.216	512.75
543.43	521.75
543.644	516.75
543.857	490.75
544.071	513.75
544.285	495.75
544.498	481.75
544.712	488.75
544.925	511.75
545.139	519.75
545.352	491.75
545.566	488.75
545.779	499.75
545.993	485.75
546.206	504.75
546.42	512.75
546.633	478.75
546.847	512.75
547.06	486.75
547.274	468.75
547.487	501.75
547.7	471.75
547.914	480.75
548.127	507.75
548.34	478.75
548.554	460.75
548.767	473.75
548.98	469.75
549.193	458.75
549.407	498.75
549.62	488.75
549.833	496.75
550.046	475.75
550.259	486.75
550.473	473.75
550.686	474.75
550.899	484.75
551.112	491.75
551.325	477.75
551.538	485.75
551.751	465.75
551.964	486.75
552.177	467.75
552.39	456.75
552.603	500.75
552.816	465.75
553.029	496.75
553.242	478.75
553.455	503.75
553.667	518.75
553.88	530.75
554.093	483.75
554.306	496.75
554.519	490.75
554.732	479.75
554.944	461.75
555.157	457.75
555.37	469.75
555.583	480.75
555.795	443.75
556.008	458.75
556.221	474.75
556.433	461.75
556.646	458.75
556.859	461.75
557.071	444.75
557.284	440.75
557.496	457.75
557.709	473.75
557.921	434.75
558.134	431.75
558.346	428.75
558.559	436.75
558.771	420.75
558.984	428.75
559.196	437.75
559.409	417.75
559.621	448.75
559.833	438.75
560.046	435.75
560.258	423.75
560.47	423.75
560.683	448.75
560.895	419.75
561.107	416.75
561.32	427.75
561.532	424.75
561.744	428.75
561.956	414.75
562.168	433.75
562.381	442.75
562.593	424.75
562.805	444.75
563.017	437.75
563.229	448.75
563.441	424.75
563.653	440.75
563.865	438.75
564.077	448.75
564.289	442.75
564.501	440.75
564.713	438.75
564.925	457.75
565.137	468.75
565.349	472.75
565.561	474.75
565.773	467.75
565.985	494.75
566.197	504.75
566.408	494.75
566.62	514.75
566.832	543.75
567.044	526.75
567.255	541.75
567.467	517.75
567.679	542.75
567.891	550.75
568.102	540.75
568.314	550.75
568.526	529.75
568.737	503.75
568.949	500.75
569.161	476.75
569.372	476.75
569.584	473.75
569.795	442.75
570.007	454.75
570.218	487.75
570.43	454.75
570.641	442.75
570.853	435.75
571.064	447.75
571.276	435.75
571.487	409.75
571.698	411.75
571.91	412.75
572.121	407.75
572.333	410.75
572.544	400.75
572.755	411.75
572.966	404.75
573.178	385.75
573.389	394.75
573.6	371.75
573.811	376.75
574.023	389.75
574.234	396.75
574.445	382.75
574.656	379.75
574.867	359.75
575.078	388.75
575.289	388.75
575.501	384.75
575.712	373.75
575.923	382.75
576.134	382.75
576.345	372.75
576.556	370.75
576.767	367.75
576.978	372.75
577.188	356.75
577.399	376.75
577.61	356.75
577.821	350.75
578.032	378.75
578.243	390.75
578.454	583.75
578.665	473.75
578.875	392.75
579.086	376.75
579.297	356.75
579.508	378.75
579.718	336.75
579.929	343.75
580.14	336.75
580.35	351.75
580.561	348.75
580.772	341.75
580.982	350.75
581.193	363.75
581.403	341.75
581.614	349.75
581.825	350.75
582.035	337.75
582.246	343.75
582.456	339.75
582.667	341.75
582.877	334.75
583.087	350.75
583.298	334.75
583.508	325.75
583.719	326.75
583.929	342.75
584.139	332.75
584.35	336.75
584.56	336.75
584.77	336.75
584.981	334.75
585.191	334.75
585.401	340.75
585.611	336.75
585.821	331.75
586.032	330.75
586.242	327.75
586.452	331.75
586.662	338.75
586.872	322.75
587.082	330.75
587.292	323.75
587.502	330.75
587.713	308.75
587.923	319.75
588.133	343.75
588.343	335.75
588.553	312.75
588.762	324.75
588.972	313.75
589.182	318.75
589.392	322.75
589.602	330.75
589.812	299.75
590.022	326.75
590.232	315.75
590.441	311.75
590.651	308.75
590.861	324.75
591.071	338.75
591.281	316.75
591.49	334.75
591.7	329.75
591.91	325.75
592.119	319.75
592.329	333.75
592.539	331.75
592.748	318.75
592.958	347.75
593.167	342.75
593.377	352.75
593.587	373.75
593.796	355.75
594.006	326.75
594.215	350.75
594.424	331.75
594.634	340.75
594.843	345.75
595.053	351.75
595.262	335.75
595.472	329.75
595.681	333.75
595.89	322.75
596.1	323.75
596.309	330.75
596.518	321.75
596.727	330.75
596.937	307.75
597.146	315.75
597.355	323.75
597.564	298.75
597.774	294.75
597.983	296.75
598.192	301.75
598.401	298.75
598.61	307.75
598.819	292.75
599.028	290.75
599.237	296.75
599.446	299.75
599.655	290.75
599.864	293.75
600.073	289.75
600.282	286.75
600.491	280.75
600.7	279.75
600.909	296.75
601.118	282.75
601.327	302.75
601.536	274.75
601.745	266.75
601.953	290.75
602.162	286.75
602.371	301.75
602.58	292.75
602.789	286.75
602.997	277.75
603.206	286.75
603.415	289.75
603.623	289.75
603.832	267.75
604.041	267.75
604.249	294.75
604.458	265.75
604.666	266.75
604.875	253.75
605.084	259.75
605.292	274.75
605.501	284.75
605.709	274.75
605.918	279.75
606.126	265.75
606.334	258.75
606.543	280.75
606.751	269.75
606.96	276.75
607.168	253.75
607.376	266.75
607.585	276.75
607.793	261.75
608.001	270.75
608.21	271.75
608.418	261.75
608.626	263.75
608.834	264.75
609.043	253.75
609.251	251.75
609.459	262.75
609.667	266.75
609.875	260.75
610.083	270.75
610.291	258.75
610.499	269.75
610.707	260.75
610.916	249.75
611.124	269.75
611.332	281.75
611.54	254.75
611.748	272.75
611.955	253.75
612.163	253.75
612.371	266.75
612.579	263.75
612.787	263.75
612.995	260.75
613.203	253.75
613.411	249.75
613.618	270.75
613.826	258.75
614.034	255.75
614.242	262.75
614.449	253.75
614.657	255.75
614.865	271.75
615.072	246.75
615.28	255.75
615.488	264.75
615.695	258.75
615.903	249.75
616.111	273.75
616.318	274.75
616.526	269.75
616.733	254.75
616.941	242.75
617.148	251.75
617.356	248.75
617.563	248.75
617.771	263.75
617.978	247.75
618.185	258.75
618.393	245.75
618.6	242.75
618.807	254.75
619.015	242.75
619.222	249.75
619.429	227.75
619.637	247.75
619.844	245.75
620.051	251.75
620.258	250.75
620.466	259.75
620.673	242.75
620.88	236.75
621.087	239.75
621.294	226.75
621.501	243.75
621.708	241.75
621.915	250.75
622.122	258.75
622.329	233.75
622.536	240.75
622.743	218.75
622.95	248.75
623.157	228.75
623.364	245.75
623.571	231.75
623.778	222.75
623.985	238.75
624.192	236.75
624.399	239.75
624.606	237.75
624.812	240.75
625.019	236.75
625.226	227.75
625.433	228.75
625.639	221.75
625.846	228.75
626.053	229.75
626.259	236.75
626.466	231.75
626.673	229.75
626.879	231.75
627.086	215.75
627.293	227.75
627.499	230.75
627.706	220.75
627.912	230.75
628.119	220.75
628.325	215.75
628.532	207.75
628.738	229.75
628.945	225.75
629.151	233.75
629.357	201.75
629.564	222.75
629.77	223.75
629.976	220.75
630.183	219.75
630.389	210.75
630.595	213.75
630.802	208.75
631.008	214.75
631.214	202.75
631.42	219.75
631.627	220.75
631.833	216.75
632.039	211.75
632.245	213.75
632.451	212.75
632.657	204.75
632.863	198.75
633.069	198.75
633.275	209.75
633.481	189.75
633.688	211.75
633.893	194.75
634.099	200.75
634.305	203.75
634.511	196.75
634.717	208.75
634.923	192.75
635.129	201.75
635.335	188.75
635.541	206.75
635.747	205.75
635.952	194.75
636.158	193.75
636.364	193.75
636.57	186.75
636.775	203.75
636.981	197.75
637.187	190.75
637.392	183.75
637.598	188.75
637.804	202.75
638.009	201.75
638.215	187.75
638.421	187.75
638.626	196.75
638.832	188.75
639.037	181.75
639.243	192.75
639.448	205.75
639.654	172.75
639.859	194.75
640.065	176.75
640.27	197.75
640.475	178.75
640.681	174.75
640.886	192.75
641.091	169.75
641.297	186.75
641.502	187.75
641.707	167.75
641.913	190.75
642.118	189.75
642.323	182.75
642.528	176.75
642.733	196.75
642.939	165.75
643.144	185.75
643.349	184.75
643.554	188.75
643.759	187.75
643.964	177.75
644.169	191.75
644.374	177.75
644.579	175.75
644.784	172.75
644.989	182.75
645.194	170.75
645.399	184.75
645.604	182.75
645.809	177.75
646.014	178.75
646.219	186.75
646.423	175.75
646.628	185.75
646.833	172.75
647.038	179.75
647.243	197.75
647.447	180.75
647.652	164.75
647.857	171.75
648.062	190.75
648.266	168.75
648.471	171.75
648.676	167.75
648.88	172.75
649.085	174.75
649.289	190.75
649.494	168.75
649.698	214.75
649.903	191.75
650.107	190.75
650.312	186.75
650.516	186.75
650.721	170.75
650.925	140.75
651.13	160.75
651.334	167.75
651.539	148.75
651.743	162.75
651.947	163.75
652.152	164.75
652.356	155.75
652.56	159.75
652.764	165.75
652.969	145.75
653.173	153.75
653.377	140.75
653.581	151.75
653.785	144.75
653.99	140.75
654.194	154.75
654.398	154.75
654.602	142.75
654.806	146.75
655.01	151.75
655.214	158.75
655.418	141.75
655.622	141.75
655.826	136.75
656.03	135.75
656.234	144.75
656.438	146.75
656.642	143.75
656.846	133.75
657.049	131.75
657.253	123.75
657.457	127.75
657.661	127.75
657.865	121.75
658.068	101.75
658.272	113.75
658.476	114.75
658.68	107.75
658.883	117.75
659.087	103.75
659.291	102.75
659.494	115.75
659.698	103.75
659.901	103.75
660.105	96.75
660.309	101.75
660.512	103.75
660.716	100.75
660.919	91.75
661.123	98.75
661.326	74.75
661.53	92.75
661.733	88.75
661.936	89.75
662.14	77.75
662.343	92.75
662.546	96.75
662.75	87.75
662.953	95.75
663.156	86.75
663.36	81.75
663.563	73.75
663.766	86.75
663.969	88.75
664.173	83.75
664.376	86.75
664.579	88.75
664.782	81.75
664.985	94.75
665.188	81.75
665.391	83.75
665.594	72.75
665.797	78.75
666	88.75
666.203	77.75
666.406	94.75
666.609	79.75
666.812	82.75
667.015	94.75
667.218	94.75
667.421	93.75
667.624	83.75
667.827	79.75
668.03	70.75
668.232	80.75
668.435	86.75
668.638	84.75
668.841	75.75
669.043	87.75
669.246	92.75
669.449	75.75
669.651	84.75
669.854	76.75
670.057	85.75
670.259	88.75
670.462	90.75
670.665	86.75
670.867	83.75
671.07	70.75
671.272	70.75
671.475	74.75
671.677	88.75
671.88	80.75
672.082	66.75
672.284	89.75
672.487	72.75
672.689	94.75
672.892	84.75
