Data from 1978.PennyLincolnUp.Lamp.En5.5.200Scan.071719.P1_HRD10591_16-12-19-867.txt Node
Date: Thu Jul 18 16:12:19 EDT 2019
User: cochatt
Spectrometer: HR+D1059
Trigger mode: 1
Integration Time (sec): 1.000000E-1
Scans to average: 1
Electric dark correction enabled: true
Nonlinearity correction enabled: false
Boxcar width: 0
XAxis mode: Wavelengths
Number of Pixels in Spectrum: 2048
>>>>>Begin Spectral Data<<<<<
223.165	-17.12
223.4	-17.12
223.635	-17.12
223.869	-13.12
224.104	-8.12
224.338	-11.12
224.573	-14.12
224.808	-19.12
225.042	-14.12
225.277	-6.12
225.511	-5.12
225.746	5.88
225.98	7.88
226.215	20.88
226.449	14.88
226.683	5.88
226.918	17.88
227.152	34.88
227.387	42.88
227.621	34.88
227.856	43.88
228.09	42.88
228.324	62.88
228.559	57.88
228.793	72.88
229.027	84.88
229.262	102.88
229.496	99.88
229.73	124.88
229.964	129.88
230.199	111.88
230.433	103.88
230.667	110.88
230.901	121.88
231.136	97.88
231.37	108.88
231.604	107.88
231.838	104.88
232.072	104.88
232.306	100.88
232.541	122.88
232.775	114.88
233.009	89.88
233.243	101.88
233.477	110.88
233.711	125.88
233.945	110.88
234.179	114.88
234.413	121.88
234.647	102.88
234.881	109.88
235.115	112.88
235.349	131.88
235.583	125.88
235.817	122.88
236.051	127.88
236.285	118.88
236.519	117.88
236.753	122.88
236.987	123.88
237.221	164.88
237.455	194.88
237.689	174.88
237.922	169.88
238.156	129.88
238.39	109.88
238.624	123.88
238.858	127.88
239.091	131.88
239.325	118.88
239.559	123.88
239.793	125.88
240.027	128.88
240.26	138.88
240.494	148.88
240.728	137.88
240.961	131.88
241.195	123.88
241.429	127.88
241.662	129.88
241.896	124.88
242.13	126.88
242.363	122.88
242.597	139.88
242.83	124.88
243.064	127.88
243.298	144.88
243.531	121.88
243.765	125.88
243.998	147.88
244.232	129.88
244.465	139.88
244.699	136.88
244.932	136.88
245.166	147.88
245.399	130.88
245.633	144.88
245.866	142.88
246.099	135.88
246.333	123.88
246.566	153.88
246.8	123.88
247.033	142.88
247.266	139.88
247.5	153.88
247.733	150.88
247.966	151.88
248.2	153.88
248.433	164.88
248.666	155.88
248.899	167.88
249.133	169.88
249.366	170.88
249.599	185.88
249.832	183.88
250.066	162.88
250.299	145.88
250.532	158.88
250.765	184.88
250.998	179.88
251.231	207.88
251.465	202.88
251.698	187.88
251.931	186.88
252.164	181.88
252.397	169.88
252.63	179.88
252.863	187.88
253.096	184.88
253.329	201.88
253.562	182.88
253.795	198.88
254.028	192.88
254.261	189.88
254.494	189.88
254.727	210.88
254.96	220.88
255.193	224.88
255.426	224.88
255.659	215.88
255.892	191.88
256.124	204.88
256.357	202.88
256.59	205.88
256.823	201.88
257.056	204.88
257.289	186.88
257.521	205.88
257.754	185.88
257.987	197.88
258.22	185.88
258.452	183.88
258.685	198.88
258.918	197.88
259.151	189.88
259.383	194.88
259.616	205.88
259.849	198.88
260.081	206.88
260.314	230.88
260.547	221.88
260.779	225.88
261.012	205.88
261.244	219.88
261.477	222.88
261.71	207.88
261.942	203.88
262.175	217.88
262.407	216.88
262.64	198.88
262.872	205.88
263.105	199.88
263.337	201.88
263.57	200.88
263.802	186.88
264.035	202.88
264.267	191.88
264.499	197.88
264.732	190.88
264.964	189.88
265.197	187.88
265.429	206.88
265.661	191.88
265.894	202.88
266.126	211.88
266.358	199.88
266.591	198.88
266.823	200.88
267.055	207.88
267.287	215.88
267.52	200.88
267.752	202.88
267.984	212.88
268.216	212.88
268.448	210.88
268.681	219.88
268.913	222.88
269.145	237.88
269.377	254.88
269.609	237.88
269.841	247.88
270.073	235.88
270.306	259.88
270.538	261.88
270.77	277.88
271.002	271.88
271.234	244.88
271.466	271.88
271.698	262.88
271.93	277.88
272.162	288.88
272.394	271.88
272.626	268.88
272.858	258.88
273.09	234.88
273.322	246.88
273.553	257.88
273.785	231.88
274.017	235.88
274.249	253.88
274.481	234.88
274.713	246.88
274.945	257.88
275.176	241.88
275.408	258.88
275.64	234.88
275.872	232.88
276.104	246.88
276.335	234.88
276.567	247.88
276.799	276.88
277.031	285.88
277.262	275.88
277.494	279.88
277.726	275.88
277.957	275.88
278.189	255.88
278.421	242.88
278.652	255.88
278.884	264.88
279.115	245.88
279.347	252.88
279.579	244.88
279.81	242.88
280.042	254.88
280.273	272.88
280.505	251.88
280.736	245.88
280.968	250.88
281.199	243.88
281.431	251.88
281.662	247.88
281.894	252.88
282.125	265.88
282.356	269.88
282.588	288.88
282.819	298.88
283.051	262.88
283.282	259.88
283.513	257.88
283.745	263.88
283.976	254.88
284.207	249.88
284.439	263.88
284.67	256.88
284.901	259.88
285.132	255.88
285.364	266.88
285.595	268.88
285.826	265.88
286.057	263.88
286.288	261.88
286.52	272.88
286.751	268.88
286.982	259.88
287.213	272.88
287.444	291.88
287.675	262.88
287.906	271.88
288.138	281.88
288.369	261.88
288.6	284.88
288.831	275.88
289.062	264.88
289.293	300.88
289.524	279.88
289.755	290.88
289.986	285.88
290.217	275.88
290.448	277.88
290.679	279.88
290.91	267.88
291.141	269.88
291.371	283.88
291.602	270.88
291.833	266.88
292.064	292.88
292.295	281.88
292.526	286.88
292.757	274.88
292.987	278.88
293.218	280.88
293.449	262.88
293.68	268.88
293.91	278.88
294.141	271.88
294.372	277.88
294.603	285.88
294.833	281.88
295.064	278.88
295.295	292.88
295.525	295.88
295.756	272.88
295.987	286.88
296.217	313.88
296.448	293.88
296.679	280.88
296.909	282.88
297.14	285.88
297.37	276.88
297.601	263.88
297.831	291.88
298.062	299.88
298.292	285.88
298.523	299.88
298.753	290.88
298.984	279.88
299.214	296.88
299.445	278.88
299.675	270.88
299.905	309.88
300.136	310.88
300.366	303.88
300.597	305.88
300.827	301.88
301.057	303.88
301.288	305.88
301.518	302.88
301.748	292.88
301.979	307.88
302.209	309.88
302.439	305.88
302.669	320.88
302.9	297.88
303.13	323.88
303.36	323.88
303.59	294.88
303.82	324.88
304.051	315.88
304.281	325.88
304.511	313.88
304.741	307.88
304.971	318.88
305.201	326.88
305.431	323.88
305.661	321.88
305.891	309.88
306.121	322.88
306.352	318.88
306.582	309.88
306.812	309.88
307.042	322.88
307.272	318.88
307.502	311.88
307.731	311.88
307.961	312.88
308.191	301.88
308.421	321.88
308.651	325.88
308.881	323.88
309.111	334.88
309.341	327.88
309.571	325.88
309.8	340.88
310.03	324.88
310.26	337.88
310.49	334.88
310.72	350.88
310.949	364.88
311.179	356.88
311.409	350.88
311.639	328.88
311.868	381.88
312.098	351.88
312.328	361.88
312.557	385.88
312.787	377.88
313.017	388.88
313.246	353.88
313.476	372.88
313.706	377.88
313.935	349.88
314.165	344.88
314.394	373.88
314.624	371.88
314.853	381.88
315.083	358.88
315.312	359.88
315.542	365.88
315.771	353.88
316.001	351.88
316.23	357.88
316.46	354.88
316.689	357.88
316.919	360.88
317.148	356.88
317.377	360.88
317.607	361.88
317.836	370.88
318.065	366.88
318.295	351.88
318.524	357.88
318.753	344.88
318.983	362.88
319.212	352.88
319.441	361.88
319.67	352.88
319.9	364.88
320.129	382.88
320.358	365.88
320.587	365.88
320.816	382.88
321.046	379.88
321.275	377.88
321.504	373.88
321.733	383.88
321.962	386.88
322.191	389.88
322.42	399.88
322.649	427.88
322.878	415.88
323.108	424.88
323.337	427.88
323.566	474.88
323.795	502.88
324.024	522.88
324.253	594.88
324.482	837.88
324.71	1319.88
324.939	1964.88
325.168	1693.88
325.397	841.88
325.626	565.88
325.855	493.88
326.084	468.88
326.313	471.88
326.542	449.88
326.77	514.88
326.999	578.88
327.228	788.88
327.457	1188.88
327.686	1495.88
327.914	981.88
328.143	625.88
328.372	575.88
328.6	539.88
328.829	470.88
329.058	491.88
329.287	521.88
329.515	479.88
329.744	473.88
329.972	453.88
330.201	480.88
330.43	489.88
330.658	511.88
330.887	532.88
331.115	528.88
331.344	459.88
331.572	438.88
331.801	470.88
332.03	461.88
332.258	434.88
332.486	417.88
332.715	423.88
332.943	413.88
333.172	427.88
333.4	430.88
333.629	450.88
333.857	451.88
334.085	470.88
334.314	463.88
334.542	481.88
334.771	495.88
334.999	480.88
335.227	468.88
335.455	447.88
335.684	458.88
335.912	439.88
336.14	456.88
336.369	445.88
336.597	436.88
336.825	437.88
337.053	421.88
337.281	440.88
337.51	433.88
337.738	456.88
337.966	435.88
338.194	425.88
338.422	439.88
338.65	424.88
338.878	423.88
339.106	412.88
339.334	437.88
339.562	420.88
339.79	415.88
340.018	422.88
340.246	414.88
340.474	410.88
340.702	421.88
340.93	405.88
341.158	421.88
341.386	397.88
341.614	417.88
341.842	410.88
342.07	420.88
342.298	409.88
342.526	410.88
342.754	394.88
342.981	411.88
343.209	393.88
343.437	399.88
343.665	415.88
343.893	445.88
344.12	442.88
344.348	429.88
344.576	414.88
344.804	438.88
345.031	429.88
345.259	406.88
345.487	422.88
345.714	437.88
345.942	432.88
346.17	421.88
346.397	403.88
346.625	409.88
346.853	376.88
347.08	395.88
347.308	426.88
347.535	411.88
347.763	406.88
347.99	405.88
348.218	411.88
348.445	429.88
348.673	422.88
348.9	392.88
349.128	413.88
349.355	375.88
349.583	409.88
349.81	393.88
350.037	378.88
350.265	400.88
350.492	387.88
350.72	396.88
350.947	409.88
351.174	417.88
351.402	420.88
351.629	396.88
351.856	388.88
352.083	401.88
352.311	412.88
352.538	421.88
352.765	417.88
352.992	415.88
353.22	401.88
353.447	413.88
353.674	400.88
353.901	387.88
354.128	402.88
354.355	385.88
354.583	380.88
354.81	391.88
355.037	384.88
355.264	386.88
355.491	375.88
355.718	380.88
355.945	380.88
356.172	395.88
356.399	385.88
356.626	382.88
356.853	381.88
357.08	370.88
357.307	376.88
357.534	366.88
357.761	370.88
357.988	403.88
358.215	402.88
358.441	380.88
358.668	393.88
358.895	389.88
359.122	385.88
359.349	391.88
359.576	407.88
359.802	425.88
360.029	428.88
360.256	438.88
360.483	426.88
360.709	430.88
360.936	408.88
361.163	405.88
361.39	405.88
361.616	415.88
361.843	402.88
362.07	409.88
362.296	426.88
362.523	393.88
362.749	407.88
362.976	396.88
363.203	407.88
363.429	405.88
363.656	396.88
363.882	405.88
364.109	391.88
364.335	392.88
364.562	395.88
364.788	398.88
365.015	415.88
365.241	370.88
365.468	411.88
365.694	415.88
365.92	407.88
366.147	411.88
366.373	401.88
366.599	382.88
366.826	397.88
367.052	410.88
367.278	408.88
367.505	379.88
367.731	386.88
367.957	405.88
368.184	398.88
368.41	400.88
368.636	412.88
368.862	426.88
369.089	399.88
369.315	391.88
369.541	393.88
369.767	401.88
369.993	422.88
370.219	411.88
370.445	405.88
370.672	398.88
370.898	399.88
371.124	414.88
371.35	419.88
371.576	391.88
371.802	391.88
372.028	394.88
372.254	395.88
372.48	398.88
372.706	405.88
372.932	412.88
373.158	418.88
373.384	395.88
373.61	399.88
373.835	410.88
374.061	421.88
374.287	403.88
374.513	418.88
374.739	421.88
374.965	420.88
375.191	423.88
375.416	425.88
375.642	408.88
375.868	408.88
376.094	404.88
376.319	405.88
376.545	421.88
376.771	423.88
376.997	382.88
377.222	402.88
377.448	396.88
377.674	411.88
377.899	409.88
378.125	414.88
378.35	406.88
378.576	392.88
378.802	392.88
379.027	414.88
379.253	393.88
379.478	388.88
379.704	396.88
379.929	394.88
380.155	407.88
380.38	405.88
380.606	413.88
380.831	394.88
381.057	413.88
381.282	407.88
381.507	415.88
381.733	414.88
381.958	410.88
382.184	417.88
382.409	430.88
382.634	423.88
382.86	417.88
383.085	425.88
383.31	422.88
383.535	427.88
383.761	425.88
383.986	426.88
384.211	432.88
384.436	435.88
384.662	433.88
384.887	437.88
385.112	422.88
385.337	475.88
385.562	456.88
385.787	457.88
386.013	437.88
386.238	453.88
386.463	438.88
386.688	465.88
386.913	451.88
387.138	449.88
387.363	471.88
387.588	457.88
387.813	460.88
388.038	450.88
388.263	454.88
388.488	446.88
388.713	463.88
388.938	447.88
389.163	458.88
389.387	452.88
389.612	454.88
389.837	441.88
390.062	453.88
390.287	470.88
390.512	459.88
390.736	451.88
390.961	465.88
391.186	452.88
391.411	471.88
391.636	450.88
391.86	451.88
392.085	486.88
392.31	465.88
392.534	477.88
392.759	470.88
392.984	445.88
393.208	443.88
393.433	480.88
393.658	466.88
393.882	475.88
394.107	477.88
394.331	461.88
394.556	461.88
394.78	462.88
395.005	462.88
395.229	475.88
395.454	486.88
395.678	492.88
395.903	500.88
396.127	492.88
396.352	475.88
396.576	509.88
396.801	480.88
397.025	494.88
397.249	479.88
397.474	485.88
397.698	504.88
397.922	492.88
398.147	532.88
398.371	522.88
398.595	531.88
398.82	541.88
399.044	550.88
399.268	561.88
399.492	563.88
399.717	589.88
399.941	631.88
400.165	619.88
400.389	650.88
400.613	622.88
400.837	579.88
401.062	571.88
401.286	541.88
401.51	555.88
401.734	538.88
401.958	514.88
402.182	562.88
402.406	528.88
402.63	528.88
402.854	539.88
403.078	545.88
403.302	538.88
403.526	561.88
403.75	557.88
403.974	554.88
404.198	539.88
404.422	565.88
404.645	545.88
404.869	569.88
405.093	568.88
405.317	604.88
405.541	665.88
405.765	594.88
405.988	587.88
406.212	576.88
406.436	583.88
406.66	632.88
406.883	574.88
407.107	621.88
407.331	656.88
407.555	716.88
407.778	723.88
408.002	635.88
408.226	634.88
408.449	618.88
408.673	612.88
408.896	637.88
409.12	665.88
409.344	639.88
409.567	590.88
409.791	564.88
410.014	583.88
410.238	551.88
410.461	546.88
410.685	559.88
410.908	583.88
411.132	611.88
411.355	612.88
411.578	600.88
411.802	539.88
412.025	535.88
412.249	545.88
412.472	558.88
412.695	601.88
412.919	588.88
413.142	558.88
413.365	565.88
413.589	554.88
413.812	529.88
414.035	523.88
414.258	525.88
414.482	532.88
414.705	529.88
414.928	531.88
415.151	532.88
415.374	513.88
415.597	515.88
415.821	521.88
416.044	532.88
416.267	505.88
416.49	497.88
416.713	517.88
416.936	532.88
417.159	523.88
417.382	518.88
417.605	522.88
417.828	523.88
418.051	540.88
418.274	523.88
418.497	525.88
418.72	501.88
418.943	518.88
419.166	543.88
419.389	577.88
419.611	569.88
419.834	573.88
420.057	564.88
420.28	537.88
420.503	529.88
420.726	529.88
420.948	549.88
421.171	583.88
421.394	615.88
421.617	546.88
421.839	538.88
422.062	552.88
422.285	558.88
422.507	597.88
422.73	657.88
422.953	661.88
423.175	591.88
423.398	558.88
423.621	557.88
423.843	583.88
424.066	580.88
424.288	577.88
424.511	605.88
424.733	623.88
424.956	726.88
425.178	694.88
425.401	671.88
425.623	711.88
425.846	617.88
426.068	555.88
426.291	588.88
426.513	577.88
426.735	586.88
426.958	636.88
427.18	693.88
427.402	833.88
427.625	905.88
427.847	810.88
428.069	663.88
428.292	597.88
428.514	593.88
428.736	539.88
428.958	555.88
429.181	538.88
429.403	531.88
429.625	545.88
429.847	556.88
430.069	623.88
430.292	629.88
430.514	555.88
430.736	526.88
430.958	539.88
431.18	512.88
431.402	483.88
431.624	507.88
431.846	500.88
432.068	494.88
432.29	526.88
432.512	511.88
432.734	521.88
432.956	511.88
433.178	531.88
433.4	523.88
433.622	550.88
433.844	522.88
434.066	517.88
434.287	535.88
434.509	531.88
434.731	528.88
434.953	528.88
435.175	547.88
435.397	577.88
435.618	566.88
435.84	602.88
436.062	687.88
436.284	765.88
436.505	641.88
436.727	581.88
436.949	557.88
437.17	543.88
437.392	542.88
437.614	535.88
437.835	563.88
438.057	673.88
438.278	753.88
438.5	743.88
438.721	851.88
438.943	832.88
439.165	638.88
439.386	566.88
439.608	604.88
439.829	581.88
440.05	590.88
440.272	625.88
440.493	602.88
440.715	561.88
440.936	548.88
441.158	534.88
441.379	548.88
441.6	548.88
441.822	567.88
442.043	591.88
442.264	653.88
442.486	749.88
442.707	614.88
442.928	587.88
443.149	596.88
443.371	591.88
443.592	634.88
443.813	736.88
444.034	819.88
444.255	673.88
444.476	604.88
444.698	586.88
444.919	585.88
445.14	667.88
445.361	637.88
445.582	599.88
445.803	661.88
446.024	773.88
446.245	789.88
446.466	703.88
446.687	622.88
446.908	581.88
447.129	551.88
447.35	534.88
447.571	532.88
447.792	542.88
448.013	548.88
448.234	554.88
448.455	576.88
448.675	713.88
448.896	847.88
449.117	703.88
449.338	649.88
449.559	725.88
449.779	853.88
450	698.88
450.221	595.88
450.442	537.88
450.662	542.88
450.883	528.88
451.104	540.88
451.324	519.88
451.545	513.88
451.766	507.88
451.986	471.88
452.207	452.88
452.428	480.88
452.648	474.88
452.869	471.88
453.089	472.88
453.31	479.88
453.53	465.88
453.751	472.88
453.971	474.88
454.192	493.88
454.412	473.88
454.633	471.88
454.853	444.88
455.073	472.88
455.294	492.88
455.514	555.88
455.734	527.88
455.955	488.88
456.175	467.88
456.395	450.88
456.616	472.88
456.836	465.88
457.056	465.88
457.276	441.88
457.497	469.88
457.717	469.88
457.937	431.88
458.157	482.88
458.377	468.88
458.598	499.88
458.818	554.88
459.038	593.88
459.258	593.88
459.478	554.88
459.698	527.88
459.918	509.88
460.138	517.88
460.358	520.88
460.578	537.88
460.798	539.88
461.018	530.88
461.238	524.88
461.458	517.88
461.678	530.88
461.898	539.88
462.118	565.88
462.338	521.88
462.558	571.88
462.777	564.88
462.997	595.88
463.217	607.88
463.437	607.88
463.657	582.88
463.876	573.88
464.096	590.88
464.316	550.88
464.536	577.88
464.755	579.88
464.975	569.88
465.195	595.88
465.414	638.88
465.634	581.88
465.854	569.88
466.073	541.88
466.293	513.88
466.512	519.88
466.732	491.88
466.951	505.88
467.171	483.88
467.391	492.88
467.61	517.88
467.829	498.88
468.049	506.88
468.268	495.88
468.488	494.88
468.707	485.88
468.927	460.88
469.146	493.88
469.365	519.88
469.585	492.88
469.804	494.88
470.023	500.88
470.243	497.88
470.462	516.88
470.681	493.88
470.901	500.88
471.12	505.88
471.339	486.88
471.558	513.88
471.777	492.88
471.997	483.88
472.216	495.88
472.435	523.88
472.654	519.88
472.873	502.88
473.092	503.88
473.311	493.88
473.53	491.88
473.749	511.88
473.968	539.88
474.187	643.88
474.406	659.88
474.625	557.88
474.844	505.88
475.063	508.88
475.282	497.88
475.501	488.88
475.72	501.88
475.939	523.88
476.158	513.88
476.377	534.88
476.596	532.88
476.814	551.88
477.033	552.88
477.252	537.88
477.471	526.88
477.69	547.88
477.908	549.88
478.127	563.88
478.346	551.88
478.564	551.88
478.783	580.88
479.002	563.88
479.22	571.88
479.439	602.88
479.658	604.88
479.876	608.88
480.095	595.88
480.313	612.88
480.532	611.88
480.751	612.88
480.969	634.88
481.188	635.88
481.406	670.88
481.624	630.88
481.843	605.88
482.061	610.88
482.28	592.88
482.498	589.88
482.717	589.88
482.935	590.88
483.153	587.88
483.372	596.88
483.59	606.88
483.808	585.88
484.027	597.88
484.245	591.88
484.463	573.88
484.681	592.88
484.9	590.88
485.118	596.88
485.336	607.88
485.554	590.88
485.772	620.88
485.99	613.88
486.209	597.88
486.427	590.88
486.645	604.88
486.863	648.88
487.081	647.88
487.299	637.88
487.517	620.88
487.735	612.88
487.953	612.88
488.171	620.88
488.389	627.88
488.607	643.88
488.825	642.88
489.043	640.88
489.261	635.88
489.479	632.88
489.696	632.88
489.914	613.88
490.132	673.88
490.35	665.88
490.568	636.88
490.786	669.88
491.003	670.88
491.221	664.88
491.439	692.88
491.657	673.88
491.874	685.88
492.092	667.88
492.31	678.88
492.527	678.88
492.745	703.88
492.963	727.88
493.18	694.88
493.398	703.88
493.615	725.88
493.833	686.88
494.05	704.88
494.268	703.88
494.485	721.88
494.703	718.88
494.92	717.88
495.138	725.88
495.355	731.88
495.573	750.88
495.79	737.88
496.008	741.88
496.225	750.88
496.442	730.88
496.66	741.88
496.877	743.88
497.094	735.88
497.312	761.88
497.529	755.88
497.746	757.88
497.963	781.88
498.181	823.88
498.398	837.88
498.615	847.88
498.832	868.88
499.049	879.88
499.267	902.88
499.484	943.88
499.701	924.88
499.918	1004.88
500.135	1023.88
500.352	1054.88
500.569	1069.88
500.786	1130.88
501.003	1057.88
501.22	1041.88
501.437	1005.88
501.654	995.88
501.871	955.88
502.088	923.88
502.305	909.88
502.522	877.88
502.739	856.88
502.956	813.88
503.172	825.88
503.389	833.88
503.606	786.88
503.823	797.88
504.04	784.88
504.256	774.88
504.473	779.88
504.69	755.88
504.907	775.88
505.123	751.88
505.34	715.88
505.557	733.88
505.773	714.88
505.99	717.88
506.207	686.88
506.423	712.88
506.64	683.88
506.856	686.88
507.073	700.88
507.289	683.88
507.506	679.88
507.722	680.88
507.939	694.88
508.155	668.88
508.372	660.88
508.588	653.88
508.805	641.88
509.021	660.88
509.238	691.88
509.454	666.88
509.67	670.88
509.887	638.88
510.103	669.88
510.319	649.88
510.536	730.88
510.752	1102.88
510.968	929.88
511.184	674.88
511.401	643.88
511.617	640.88
511.833	619.88
512.049	653.88
512.265	645.88
512.481	636.88
512.698	595.88
512.914	629.88
513.13	615.88
513.346	631.88
513.562	610.88
513.778	651.88
513.994	649.88
514.21	646.88
514.426	669.88
514.642	709.88
514.858	722.88
515.074	725.88
515.29	822.88
515.506	1123.88
515.721	970.88
515.937	735.88
516.153	689.88
516.369	700.88
516.585	673.88
516.801	673.88
517.016	677.88
517.232	655.88
517.448	668.88
517.664	669.88
517.879	656.88
518.095	686.88
518.311	673.88
518.527	654.88
518.742	639.88
518.958	620.88
519.173	661.88
519.389	653.88
519.605	632.88
519.82	634.88
520.036	645.88
520.251	646.88
520.467	681.88
520.682	654.88
520.898	668.88
521.113	695.88
521.329	741.88
521.544	765.88
521.76	908.88
521.975	1379.88
522.19	1381.88
522.406	845.88
522.621	683.88
522.836	634.88
523.052	619.88
523.267	584.88
523.482	582.88
523.698	585.88
523.913	583.88
524.128	582.88
524.343	584.88
524.559	556.88
524.774	537.88
524.989	563.88
525.204	577.88
525.419	562.88
525.634	551.88
525.849	534.88
526.064	557.88
526.28	556.88
526.495	535.88
526.71	537.88
526.925	536.88
527.14	506.88
527.355	540.88
527.57	553.88
527.785	538.88
527.999	550.88
528.214	529.88
528.429	527.88
528.644	523.88
528.859	531.88
529.074	546.88
529.289	544.88
529.503	614.88
529.718	596.88
529.933	577.88
530.148	532.88
530.363	545.88
530.577	516.88
530.792	514.88
531.007	525.88
531.221	519.88
531.436	517.88
531.651	526.88
531.865	514.88
532.08	500.88
532.295	508.88
532.509	527.88
532.724	502.88
532.938	521.88
533.153	501.88
533.367	500.88
533.582	536.88
533.796	525.88
534.011	515.88
534.225	522.88
534.44	499.88
534.654	534.88
534.868	500.88
535.083	505.88
535.297	497.88
535.511	518.88
535.726	520.88
535.94	529.88
536.154	503.88
536.369	513.88
536.583	505.88
536.797	498.88
537.011	484.88
537.225	504.88
537.44	491.88
537.654	505.88
537.868	498.88
538.082	468.88
538.296	490.88
538.51	514.88
538.724	514.88
538.938	489.88
539.153	511.88
539.367	489.88
539.581	494.88
539.795	482.88
540.009	464.88
540.222	460.88
540.436	481.88
540.65	503.88
540.864	484.88
541.078	493.88
541.292	481.88
541.506	471.88
541.72	473.88
541.934	471.88
542.147	463.88
542.361	465.88
542.575	473.88
542.789	486.88
543.002	484.88
543.216	492.88
543.43	491.88
543.644	494.88
543.857	498.88
544.071	489.88
544.285	497.88
544.498	490.88
544.712	471.88
544.925	505.88
545.139	482.88
545.352	497.88
545.566	470.88
545.779	489.88
545.993	500.88
546.206	478.88
546.42	483.88
546.633	477.88
546.847	483.88
547.06	462.88
547.274	473.88
547.487	473.88
547.7	486.88
547.914	468.88
548.127	458.88
548.34	463.88
548.554	461.88
548.767	475.88
548.98	484.88
549.193	487.88
549.407	459.88
549.62	471.88
549.833	478.88
550.046	486.88
550.259	467.88
550.473	459.88
550.686	472.88
550.899	461.88
551.112	459.88
551.325	454.88
551.538	465.88
551.751	455.88
551.964	472.88
552.177	475.88
552.39	463.88
552.603	462.88
552.816	501.88
553.029	490.88
553.242	486.88
553.455	478.88
553.667	494.88
553.88	502.88
554.093	477.88
554.306	478.88
554.519	474.88
554.732	440.88
554.944	463.88
555.157	450.88
555.37	445.88
555.583	463.88
555.795	474.88
556.008	463.88
556.221	435.88
556.433	438.88
556.646	436.88
556.859	434.88
557.071	440.88
557.284	437.88
557.496	425.88
557.709	443.88
557.921	430.88
558.134	409.88
558.346	437.88
558.559	418.88
558.771	434.88
558.984	433.88
559.196	443.88
559.409	410.88
559.621	443.88
559.833	442.88
560.046	438.88
560.258	412.88
560.47	413.88
560.683	428.88
560.895	408.88
561.107	428.88
561.32	428.88
561.532	421.88
561.744	419.88
561.956	419.88
562.168	418.88
562.381	426.88
562.593	428.88
562.805	418.88
563.017	425.88
563.229	441.88
563.441	422.88
563.653	439.88
563.865	429.88
564.077	433.88
564.289	425.88
564.501	426.88
564.713	463.88
564.925	445.88
565.137	455.88
565.349	459.88
565.561	458.88
565.773	464.88
565.985	476.88
566.197	472.88
566.408	506.88
566.62	507.88
566.832	511.88
567.044	535.88
567.255	533.88
567.467	518.88
567.679	533.88
567.891	556.88
568.102	569.88
568.314	542.88
568.526	495.88
568.737	512.88
568.949	493.88
569.161	487.88
569.372	462.88
569.584	464.88
569.795	438.88
570.007	449.88
570.218	469.88
570.43	467.88
570.641	439.88
570.853	446.88
571.064	395.88
571.276	427.88
571.487	411.88
571.698	439.88
571.91	398.88
572.121	393.88
572.333	421.88
572.544	387.88
572.755	403.88
572.966	396.88
573.178	385.88
573.389	398.88
573.6	383.88
573.811	376.88
574.023	346.88
574.234	374.88
574.445	371.88
574.656	384.88
574.867	357.88
575.078	375.88
575.289	376.88
575.501	379.88
575.712	370.88
575.923	374.88
576.134	360.88
576.345	355.88
576.556	382.88
576.767	357.88
576.978	366.88
577.188	337.88
577.399	345.88
577.61	350.88
577.821	359.88
578.032	361.88
578.243	389.88
578.454	538.88
578.665	455.88
578.875	349.88
579.086	345.88
579.297	353.88
579.508	352.88
579.718	353.88
579.929	346.88
580.14	357.88
580.35	339.88
580.561	343.88
580.772	323.88
580.982	350.88
581.193	342.88
581.403	342.88
581.614	329.88
581.825	312.88
582.035	327.88
582.246	332.88
582.456	325.88
582.667	322.88
582.877	320.88
583.087	339.88
583.298	345.88
583.508	334.88
583.719	309.88
583.929	336.88
584.139	334.88
584.35	340.88
584.56	334.88
584.77	340.88
584.981	337.88
585.191	334.88
585.401	313.88
585.611	316.88
585.821	328.88
586.032	342.88
586.242	333.88
586.452	325.88
586.662	327.88
586.872	321.88
587.082	333.88
587.292	324.88
587.502	332.88
587.713	318.88
587.923	318.88
588.133	341.88
588.343	308.88
588.553	329.88
588.762	321.88
588.972	331.88
589.182	316.88
589.392	322.88
589.602	316.88
589.812	321.88
590.022	321.88
590.232	323.88
590.441	314.88
590.651	316.88
590.861	326.88
591.071	313.88
591.281	337.88
591.49	334.88
591.7	338.88
591.91	328.88
592.119	324.88
592.329	337.88
592.539	326.88
592.748	323.88
592.958	340.88
593.167	342.88
593.377	340.88
593.587	362.88
593.796	347.88
594.006	350.88
594.215	354.88
594.424	351.88
594.634	339.88
594.843	353.88
595.053	347.88
595.262	337.88
595.472	320.88
595.681	321.88
595.89	327.88
596.1	337.88
596.309	324.88
596.518	315.88
596.727	294.88
596.937	315.88
597.146	295.88
597.355	307.88
597.564	309.88
597.774	301.88
597.983	293.88
598.192	313.88
598.401	291.88
598.61	285.88
598.819	286.88
599.028	291.88
599.237	295.88
599.446	305.88
599.655	292.88
599.864	302.88
600.073	288.88
600.282	277.88
600.491	285.88
600.7	267.88
600.909	270.88
601.118	281.88
601.327	290.88
601.536	287.88
601.745	298.88
601.953	289.88
602.162	265.88
602.371	253.88
602.58	283.88
602.789	281.88
602.997	274.88
603.206	284.88
603.415	271.88
603.623	270.88
603.832	280.88
604.041	266.88
604.249	275.88
604.458	279.88
604.666	271.88
604.875	253.88
605.084	271.88
605.292	263.88
605.501	258.88
605.709	268.88
605.918	259.88
606.126	266.88
606.334	258.88
606.543	265.88
606.751	258.88
606.96	250.88
607.168	268.88
607.376	236.88
607.585	267.88
607.793	277.88
608.001	264.88
608.21	259.88
608.418	266.88
608.626	268.88
608.834	273.88
609.043	265.88
609.251	275.88
609.459	255.88
609.667	264.88
609.875	260.88
610.083	259.88
610.291	266.88
610.499	259.88
610.707	267.88
610.916	268.88
611.124	246.88
611.332	265.88
611.54	267.88
611.748	274.88
611.955	275.88
612.163	266.88
612.371	269.88
612.579	271.88
612.787	260.88
612.995	258.88
613.203	244.88
613.411	241.88
613.618	252.88
613.826	253.88
614.034	243.88
614.242	257.88
614.449	268.88
614.657	244.88
614.865	250.88
615.072	247.88
615.28	273.88
615.488	243.88
615.695	237.88
615.903	269.88
616.111	251.88
616.318	267.88
616.526	241.88
616.733	259.88
616.941	255.88
617.148	270.88
617.356	263.88
617.563	258.88
617.771	245.88
617.978	250.88
618.185	243.88
618.393	235.88
618.6	241.88
618.807	257.88
619.015	236.88
619.222	235.88
619.429	256.88
619.637	236.88
619.844	245.88
620.051	245.88
620.258	228.88
620.466	227.88
620.673	245.88
620.88	234.88
621.087	233.88
621.294	234.88
621.501	226.88
621.708	229.88
621.915	225.88
622.122	234.88
622.329	251.88
622.536	229.88
622.743	236.88
622.95	222.88
623.157	230.88
623.364	238.88
623.571	244.88
623.778	230.88
623.985	245.88
624.192	241.88
624.399	235.88
624.606	226.88
624.812	229.88
625.019	222.88
625.226	222.88
625.433	231.88
625.639	203.88
625.846	214.88
626.053	214.88
626.259	218.88
626.466	235.88
626.673	225.88
626.879	207.88
627.086	241.88
627.293	215.88
627.499	225.88
627.706	212.88
627.912	219.88
628.119	226.88
628.325	209.88
628.532	221.88
628.738	214.88
628.945	217.88
629.151	225.88
629.357	220.88
629.564	206.88
629.77	212.88
629.976	215.88
630.183	217.88
630.389	208.88
630.595	213.88
630.802	214.88
631.008	206.88
631.214	204.88
631.42	203.88
631.627	217.88
631.833	205.88
632.039	203.88
632.245	202.88
632.451	215.88
632.657	197.88
632.863	215.88
633.069	196.88
633.275	189.88
633.481	198.88
633.688	210.88
633.893	205.88
634.099	197.88
634.305	194.88
634.511	183.88
634.717	189.88
634.923	181.88
635.129	202.88
635.335	167.88
635.541	185.88
635.747	179.88
635.952	191.88
636.158	190.88
636.364	197.88
636.57	204.88
636.775	205.88
636.981	191.88
637.187	194.88
637.392	190.88
637.598	189.88
637.804	198.88
638.009	190.88
638.215	193.88
638.421	194.88
638.626	201.88
638.832	202.88
639.037	189.88
639.243	189.88
639.448	202.88
639.654	191.88
639.859	187.88
640.065	159.88
640.27	180.88
640.475	177.88
640.681	185.88
640.886	198.88
641.091	202.88
641.297	185.88
641.502	192.88
641.707	182.88
641.913	197.88
642.118	181.88
642.323	169.88
642.528	183.88
642.733	185.88
642.939	191.88
643.144	180.88
643.349	175.88
643.554	181.88
643.759	175.88
643.964	165.88
644.169	165.88
644.374	154.88
644.579	183.88
644.784	161.88
644.989	189.88
645.194	181.88
645.399	166.88
645.604	167.88
645.809	180.88
646.014	163.88
646.219	184.88
646.423	170.88
646.628	172.88
646.833	184.88
647.038	181.88
647.243	187.88
647.447	178.88
647.652	166.88
647.857	167.88
648.062	188.88
648.266	177.88
648.471	174.88
648.676	179.88
648.88	188.88
649.085	189.88
649.289	178.88
649.494	172.88
649.698	196.88
649.903	189.88
650.107	191.88
650.312	165.88
650.516	173.88
650.721	170.88
650.925	176.88
651.13	144.88
651.334	163.88
651.539	154.88
651.743	163.88
651.947	142.88
652.152	151.88
652.356	149.88
652.56	146.88
652.764	141.88
652.969	151.88
653.173	139.88
653.377	153.88
653.581	137.88
653.785	148.88
653.99	137.88
654.194	162.88
654.398	144.88
654.602	149.88
654.806	128.88
655.01	162.88
655.214	142.88
655.418	155.88
655.622	149.88
655.826	152.88
656.03	129.88
656.234	137.88
656.438	150.88
656.642	151.88
656.846	128.88
657.049	139.88
657.253	136.88
657.457	130.88
657.661	123.88
657.865	135.88
658.068	108.88
658.272	106.88
658.476	114.88
658.68	100.88
658.883	109.88
659.087	117.88
659.291	103.88
659.494	95.88
659.698	102.88
659.901	113.88
660.105	91.88
660.309	110.88
660.512	97.88
660.716	92.88
660.919	97.88
661.123	95.88
661.326	89.88
661.53	84.88
661.733	90.88
661.936	83.88
662.14	77.88
662.343	95.88
662.546	94.88
662.75	77.88
662.953	97.88
663.156	86.88
663.36	97.88
663.563	82.88
663.766	91.88
663.969	83.88
664.173	76.88
664.376	80.88
664.579	85.88
664.782	91.88
664.985	80.88
665.188	76.88
665.391	92.88
665.594	95.88
665.797	83.88
666	80.88
666.203	79.88
666.406	96.88
666.609	86.88
666.812	81.88
667.015	84.88
667.218	88.88
667.421	97.88
667.624	84.88
667.827	97.88
668.03	76.88
668.232	81.88
668.435	87.88
668.638	87.88
668.841	70.88
669.043	78.88
669.246	82.88
669.449	77.88
669.651	89.88
669.854	69.88
670.057	85.88
670.259	66.88
670.462	77.88
670.665	76.88
670.867	75.88
671.07	85.88
671.272	83.88
671.475	94.88
671.677	85.88
671.88	84.88
672.082	74.88
672.284	79.88
672.487	80.88
672.689	81.88
672.892	76.88
