Data from 1978.PennyLincolnUp.Lamp.En5.5.200Scan.071719.P1_HRD10591_16-12-22-865.txt Node
Date: Thu Jul 18 16:12:22 EDT 2019
User: cochatt
Spectrometer: HR+D1059
Trigger mode: 1
Integration Time (sec): 1.000000E-1
Scans to average: 1
Electric dark correction enabled: true
Nonlinearity correction enabled: false
Boxcar width: 0
XAxis mode: Wavelengths
Number of Pixels in Spectrum: 2048
>>>>>Begin Spectral Data<<<<<
223.165	-12.94
223.4	-12.94
223.635	-12.94
223.869	-20.94
224.104	-4.94
224.338	-18.94
224.573	-7.94
224.808	-16.94
225.042	-9.94
225.277	-7.94
225.511	-4.94
225.746	11.06
225.98	10.06
226.215	10.06
226.449	-6.94
226.683	30.06
226.918	15.06
227.152	36.06
227.387	38.06
227.621	40.06
227.856	39.06
228.09	36.06
228.324	44.06
228.559	63.06
228.793	60.06
229.027	89.06
229.262	92.06
229.496	108.06
229.73	119.06
229.964	143.06
230.199	105.06
230.433	107.06
230.667	115.06
230.901	107.06
231.136	109.06
231.37	112.06
231.604	119.06
231.838	102.06
232.072	101.06
232.306	103.06
232.541	118.06
232.775	109.06
233.009	85.06
233.243	110.06
233.477	119.06
233.711	125.06
233.945	118.06
234.179	127.06
234.413	112.06
234.647	118.06
234.881	111.06
235.115	121.06
235.349	117.06
235.583	112.06
235.817	110.06
236.051	120.06
236.285	126.06
236.519	127.06
236.753	109.06
236.987	141.06
237.221	176.06
237.455	213.06
237.689	177.06
237.922	143.06
238.156	116.06
238.39	115.06
238.624	124.06
238.858	127.06
239.091	121.06
239.325	110.06
239.559	108.06
239.793	128.06
240.027	139.06
240.26	135.06
240.494	148.06
240.728	135.06
240.961	126.06
241.195	136.06
241.429	138.06
241.662	128.06
241.896	122.06
242.13	121.06
242.363	136.06
242.597	140.06
242.83	130.06
243.064	119.06
243.298	142.06
243.531	135.06
243.765	139.06
243.998	128.06
244.232	130.06
244.465	143.06
244.699	161.06
244.932	143.06
245.166	144.06
245.399	141.06
245.633	138.06
245.866	144.06
246.099	150.06
246.333	129.06
246.566	149.06
246.8	150.06
247.033	158.06
247.266	147.06
247.5	167.06
247.733	161.06
247.966	166.06
248.2	137.06
248.433	162.06
248.666	161.06
248.899	168.06
249.133	183.06
249.366	189.06
249.599	178.06
249.832	188.06
250.066	179.06
250.299	162.06
250.532	176.06
250.765	176.06
250.998	184.06
251.231	197.06
251.465	195.06
251.698	205.06
251.931	190.06
252.164	199.06
252.397	200.06
252.63	170.06
252.863	187.06
253.096	189.06
253.329	204.06
253.562	206.06
253.795	192.06
254.028	196.06
254.261	188.06
254.494	202.06
254.727	212.06
254.96	232.06
255.193	243.06
255.426	220.06
255.659	187.06
255.892	205.06
256.124	193.06
256.357	200.06
256.59	206.06
256.823	193.06
257.056	204.06
257.289	197.06
257.521	185.06
257.754	180.06
257.987	190.06
258.22	198.06
258.452	191.06
258.685	174.06
258.918	187.06
259.151	185.06
259.383	211.06
259.616	168.06
259.849	201.06
260.081	217.06
260.314	223.06
260.547	228.06
260.779	227.06
261.012	216.06
261.244	209.06
261.477	187.06
261.71	207.06
261.942	214.06
262.175	237.06
262.407	202.06
262.64	200.06
262.872	179.06
263.105	198.06
263.337	200.06
263.57	203.06
263.802	195.06
264.035	208.06
264.267	191.06
264.499	212.06
264.732	189.06
264.964	187.06
265.197	197.06
265.429	193.06
265.661	208.06
265.894	210.06
266.126	213.06
266.358	203.06
266.591	224.06
266.823	223.06
267.055	216.06
267.287	223.06
267.52	196.06
267.752	210.06
267.984	219.06
268.216	209.06
268.448	201.06
268.681	229.06
268.913	240.06
269.145	237.06
269.377	260.06
269.609	250.06
269.841	247.06
270.073	247.06
270.306	270.06
270.538	269.06
270.77	275.06
271.002	261.06
271.234	267.06
271.466	285.06
271.698	279.06
271.93	287.06
272.162	268.06
272.394	266.06
272.626	258.06
272.858	247.06
273.09	231.06
273.322	256.06
273.553	245.06
273.785	250.06
274.017	264.06
274.249	249.06
274.481	260.06
274.713	234.06
274.945	256.06
275.176	251.06
275.408	243.06
275.64	255.06
275.872	262.06
276.104	262.06
276.335	260.06
276.567	264.06
276.799	274.06
277.031	279.06
277.262	279.06
277.494	292.06
277.726	288.06
277.957	280.06
278.189	273.06
278.421	261.06
278.652	251.06
278.884	249.06
279.115	242.06
279.347	254.06
279.579	259.06
279.81	246.06
280.042	248.06
280.273	249.06
280.505	241.06
280.736	289.06
280.968	236.06
281.199	263.06
281.431	240.06
281.662	277.06
281.894	256.06
282.125	259.06
282.356	272.06
282.588	293.06
282.819	291.06
283.051	273.06
283.282	257.06
283.513	282.06
283.745	259.06
283.976	281.06
284.207	267.06
284.439	275.06
284.67	267.06
284.901	260.06
285.132	263.06
285.364	278.06
285.595	267.06
285.826	265.06
286.057	273.06
286.288	273.06
286.52	276.06
286.751	259.06
286.982	266.06
287.213	285.06
287.444	267.06
287.675	281.06
287.906	285.06
288.138	280.06
288.369	288.06
288.6	294.06
288.831	286.06
289.062	290.06
289.293	277.06
289.524	268.06
289.755	294.06
289.986	265.06
290.217	272.06
290.448	265.06
290.679	265.06
290.91	268.06
291.141	283.06
291.371	275.06
291.602	270.06
291.833	280.06
292.064	281.06
292.295	290.06
292.526	271.06
292.757	288.06
292.987	283.06
293.218	295.06
293.449	278.06
293.68	289.06
293.91	271.06
294.141	295.06
294.372	285.06
294.603	286.06
294.833	290.06
295.064	279.06
295.295	300.06
295.525	278.06
295.756	283.06
295.987	303.06
296.217	327.06
296.448	314.06
296.679	287.06
296.909	273.06
297.14	281.06
297.37	288.06
297.601	291.06
297.831	281.06
298.062	288.06
298.292	296.06
298.523	286.06
298.753	293.06
298.984	296.06
299.214	307.06
299.445	301.06
299.675	301.06
299.905	303.06
300.136	299.06
300.366	317.06
300.597	317.06
300.827	307.06
301.057	321.06
301.288	311.06
301.518	299.06
301.748	304.06
301.979	312.06
302.209	311.06
302.439	325.06
302.669	333.06
302.9	331.06
303.13	320.06
303.36	311.06
303.59	325.06
303.82	335.06
304.051	322.06
304.281	309.06
304.511	328.06
304.741	318.06
304.971	332.06
305.201	324.06
305.431	320.06
305.661	299.06
305.891	311.06
306.121	301.06
306.352	322.06
306.582	322.06
306.812	298.06
307.042	322.06
307.272	337.06
307.502	316.06
307.731	318.06
307.961	323.06
308.191	333.06
308.421	319.06
308.651	316.06
308.881	330.06
309.111	333.06
309.341	342.06
309.571	320.06
309.8	351.06
310.03	338.06
310.26	359.06
310.49	352.06
310.72	362.06
310.949	379.06
311.179	373.06
311.409	345.06
311.639	352.06
311.868	360.06
312.098	351.06
312.328	357.06
312.557	364.06
312.787	369.06
313.017	368.06
313.246	365.06
313.476	382.06
313.706	362.06
313.935	358.06
314.165	375.06
314.394	383.06
314.624	373.06
314.853	366.06
315.083	373.06
315.312	361.06
315.542	365.06
315.771	360.06
316.001	360.06
316.23	360.06
316.46	353.06
316.689	356.06
316.919	356.06
317.148	374.06
317.377	373.06
317.607	373.06
317.836	363.06
318.065	380.06
318.295	355.06
318.524	380.06
318.753	360.06
318.983	360.06
319.212	367.06
319.441	363.06
319.67	369.06
319.9	351.06
320.129	364.06
320.358	375.06
320.587	371.06
320.816	373.06
321.046	373.06
321.275	392.06
321.504	369.06
321.733	375.06
321.962	392.06
322.191	400.06
322.42	395.06
322.649	421.06
322.878	434.06
323.108	430.06
323.337	441.06
323.566	462.06
323.795	477.06
324.024	519.06
324.253	585.06
324.482	873.06
324.71	1329.06
324.939	2000.06
325.168	1781.06
325.397	878.06
325.626	592.06
325.855	490.06
326.084	457.06
326.313	453.06
326.542	476.06
326.77	498.06
326.999	602.06
327.228	790.06
327.457	1183.06
327.686	1569.06
327.914	1003.06
328.143	643.06
328.372	558.06
328.6	521.06
328.829	512.06
329.058	505.06
329.287	545.06
329.515	500.06
329.744	468.06
329.972	481.06
330.201	480.06
330.43	508.06
330.658	515.06
330.887	549.06
331.115	536.06
331.344	480.06
331.572	471.06
331.801	470.06
332.03	447.06
332.258	453.06
332.486	435.06
332.715	410.06
332.943	435.06
333.172	447.06
333.4	461.06
333.629	457.06
333.857	442.06
334.085	471.06
334.314	475.06
334.542	505.06
334.771	508.06
334.999	454.06
335.227	463.06
335.455	453.06
335.684	443.06
335.912	439.06
336.14	432.06
336.369	432.06
336.597	444.06
336.825	445.06
337.053	441.06
337.281	451.06
337.51	419.06
337.738	417.06
337.966	441.06
338.194	435.06
338.422	449.06
338.65	450.06
338.878	419.06
339.106	413.06
339.334	417.06
339.562	420.06
339.79	400.06
340.018	434.06
340.246	392.06
340.474	397.06
340.702	413.06
340.93	406.06
341.158	409.06
341.386	423.06
341.614	420.06
341.842	438.06
342.07	433.06
342.298	425.06
342.526	408.06
342.754	401.06
342.981	407.06
343.209	406.06
343.437	406.06
343.665	417.06
343.893	447.06
344.12	458.06
344.348	439.06
344.576	437.06
344.804	439.06
345.031	440.06
345.259	447.06
345.487	421.06
345.714	431.06
345.942	401.06
346.17	423.06
346.397	398.06
346.625	392.06
346.853	414.06
347.08	386.06
347.308	411.06
347.535	419.06
347.763	437.06
347.99	408.06
348.218	416.06
348.445	415.06
348.673	411.06
348.9	443.06
349.128	393.06
349.355	390.06
349.583	400.06
349.81	390.06
350.037	397.06
350.265	404.06
350.492	399.06
350.72	392.06
350.947	398.06
351.174	397.06
351.402	418.06
351.629	402.06
351.856	420.06
352.083	420.06
352.311	431.06
352.538	413.06
352.765	408.06
352.992	436.06
353.22	401.06
353.447	395.06
353.674	389.06
353.901	390.06
354.128	397.06
354.355	385.06
354.583	395.06
354.81	384.06
355.037	377.06
355.264	404.06
355.491	409.06
355.718	403.06
355.945	368.06
356.172	387.06
356.399	390.06
356.626	376.06
356.853	373.06
357.08	385.06
357.307	384.06
357.534	379.06
357.761	388.06
357.988	391.06
358.215	379.06
358.441	399.06
358.668	391.06
358.895	391.06
359.122	379.06
359.349	408.06
359.576	431.06
359.802	411.06
360.029	433.06
360.256	444.06
360.483	417.06
360.709	414.06
360.936	401.06
361.163	404.06
361.39	420.06
361.616	430.06
361.843	411.06
362.07	403.06
362.296	423.06
362.523	425.06
362.749	413.06
362.976	412.06
363.203	411.06
363.429	391.06
363.656	398.06
363.882	391.06
364.109	386.06
364.335	403.06
364.562	393.06
364.788	394.06
365.015	401.06
365.241	402.06
365.468	401.06
365.694	407.06
365.92	411.06
366.147	395.06
366.373	377.06
366.599	391.06
366.826	402.06
367.052	395.06
367.278	397.06
367.505	395.06
367.731	405.06
367.957	407.06
368.184	413.06
368.41	408.06
368.636	413.06
368.862	423.06
369.089	418.06
369.315	406.06
369.541	402.06
369.767	399.06
369.993	395.06
370.219	406.06
370.445	395.06
370.672	401.06
370.898	416.06
371.124	423.06
371.35	419.06
371.576	398.06
371.802	405.06
372.028	417.06
372.254	411.06
372.48	390.06
372.706	410.06
372.932	411.06
373.158	398.06
373.384	407.06
373.61	406.06
373.835	436.06
374.061	393.06
374.287	432.06
374.513	417.06
374.739	435.06
374.965	439.06
375.191	426.06
375.416	417.06
375.642	427.06
375.868	397.06
376.094	404.06
376.319	413.06
376.545	393.06
376.771	418.06
376.997	423.06
377.222	407.06
377.448	396.06
377.674	425.06
377.899	419.06
378.125	427.06
378.35	419.06
378.576	387.06
378.802	409.06
379.027	397.06
379.253	412.06
379.478	401.06
379.704	411.06
379.929	414.06
380.155	413.06
380.38	426.06
380.606	433.06
380.831	436.06
381.057	409.06
381.282	435.06
381.507	400.06
381.733	409.06
381.958	395.06
382.184	423.06
382.409	444.06
382.634	413.06
382.86	395.06
383.085	428.06
383.31	420.06
383.535	414.06
383.761	439.06
383.986	432.06
384.211	429.06
384.436	438.06
384.662	436.06
384.887	442.06
385.112	447.06
385.337	474.06
385.562	434.06
385.787	441.06
386.013	465.06
386.238	462.06
386.463	468.06
386.688	460.06
386.913	446.06
387.138	462.06
387.363	474.06
387.588	465.06
387.813	458.06
388.038	447.06
388.263	462.06
388.488	455.06
388.713	454.06
388.938	470.06
389.163	464.06
389.387	433.06
389.612	455.06
389.837	445.06
390.062	427.06
390.287	471.06
390.512	448.06
390.736	442.06
390.961	464.06
391.186	469.06
391.411	472.06
391.636	475.06
391.86	472.06
392.085	467.06
392.31	483.06
392.534	473.06
392.759	463.06
392.984	467.06
393.208	473.06
393.433	486.06
393.658	477.06
393.882	445.06
394.107	483.06
394.331	468.06
394.556	462.06
394.78	465.06
395.005	476.06
395.229	478.06
395.454	464.06
395.678	485.06
395.903	504.06
396.127	506.06
396.352	520.06
396.576	476.06
396.801	486.06
397.025	466.06
397.249	521.06
397.474	495.06
397.698	482.06
397.922	521.06
398.147	541.06
398.371	533.06
398.595	519.06
398.82	552.06
399.044	537.06
399.268	558.06
399.492	589.06
399.717	639.06
399.941	640.06
400.165	683.06
400.389	672.06
400.613	601.06
400.837	582.06
401.062	559.06
401.286	543.06
401.51	535.06
401.734	528.06
401.958	543.06
402.182	535.06
402.406	540.06
402.63	557.06
402.854	520.06
403.078	545.06
403.302	556.06
403.526	560.06
403.75	557.06
403.974	560.06
404.198	548.06
404.422	555.06
404.645	597.06
404.869	561.06
405.093	589.06
405.317	625.06
405.541	666.06
405.765	620.06
405.988	597.06
406.212	593.06
406.436	597.06
406.66	588.06
406.883	613.06
407.107	632.06
407.331	678.06
407.555	732.06
407.778	710.06
408.002	648.06
408.226	611.06
408.449	630.06
408.673	623.06
408.896	659.06
409.12	699.06
409.344	631.06
409.567	590.06
409.791	577.06
410.014	548.06
410.238	555.06
410.461	577.06
410.685	571.06
410.908	582.06
411.132	621.06
411.355	610.06
411.578	626.06
411.802	549.06
412.025	566.06
412.249	543.06
412.472	586.06
412.695	607.06
412.919	630.06
413.142	584.06
413.365	567.06
413.589	563.06
413.812	523.06
414.035	517.06
414.258	537.06
414.482	539.06
414.705	543.06
414.928	550.06
415.151	533.06
415.374	522.06
415.597	542.06
415.821	529.06
416.044	550.06
416.267	553.06
416.49	525.06
416.713	525.06
416.936	529.06
417.159	544.06
417.382	516.06
417.605	543.06
417.828	524.06
418.051	539.06
418.274	524.06
418.497	519.06
418.72	528.06
418.943	519.06
419.166	539.06
419.389	572.06
419.611	571.06
419.834	556.06
420.057	557.06
420.28	560.06
420.503	553.06
420.726	543.06
420.948	544.06
421.171	592.06
421.394	623.06
421.617	579.06
421.839	576.06
422.062	540.06
422.285	572.06
422.507	622.06
422.73	693.06
422.953	647.06
423.175	565.06
423.398	565.06
423.621	551.06
423.843	582.06
424.066	601.06
424.288	560.06
424.511	576.06
424.733	639.06
424.956	719.06
425.178	719.06
425.401	679.06
425.623	718.06
425.846	631.06
426.068	590.06
426.291	603.06
426.513	572.06
426.735	596.06
426.958	637.06
427.18	697.06
427.402	846.06
427.625	940.06
427.847	801.06
428.069	685.06
428.292	613.06
428.514	574.06
428.736	538.06
428.958	537.06
429.181	537.06
429.403	541.06
429.625	540.06
429.847	567.06
430.069	643.06
430.292	646.06
430.514	568.06
430.736	555.06
430.958	533.06
431.18	524.06
431.402	512.06
431.624	506.06
431.846	520.06
432.068	517.06
432.29	522.06
432.512	520.06
432.734	501.06
432.956	523.06
433.178	524.06
433.4	540.06
433.622	520.06
433.844	519.06
434.066	509.06
434.287	520.06
434.509	520.06
434.731	540.06
434.953	539.06
435.175	563.06
435.397	604.06
435.618	581.06
435.84	619.06
436.062	717.06
436.284	790.06
436.505	656.06
436.727	600.06
436.949	549.06
437.17	529.06
437.392	533.06
437.614	541.06
437.835	581.06
438.057	658.06
438.278	751.06
438.5	792.06
438.721	871.06
438.943	812.06
439.165	657.06
439.386	608.06
439.608	575.06
439.829	599.06
440.05	608.06
440.272	664.06
440.493	605.06
440.715	571.06
440.936	526.06
441.158	521.06
441.379	548.06
441.6	528.06
441.822	573.06
442.043	622.06
442.264	699.06
442.486	740.06
442.707	649.06
442.928	610.06
443.149	615.06
443.371	618.06
443.592	671.06
443.813	750.06
444.034	828.06
444.255	670.06
444.476	618.06
444.698	589.06
444.919	599.06
445.14	688.06
445.361	643.06
445.582	637.06
445.803	681.06
446.024	780.06
446.245	817.06
446.466	727.06
446.687	633.06
446.908	577.06
447.129	536.06
447.35	534.06
447.571	527.06
447.792	531.06
448.013	544.06
448.234	536.06
448.455	593.06
448.675	702.06
448.896	860.06
449.117	706.06
449.338	652.06
449.559	757.06
449.779	863.06
450	703.06
450.221	609.06
450.442	552.06
450.662	526.06
450.883	514.06
451.104	528.06
451.324	525.06
451.545	525.06
451.766	503.06
451.986	472.06
452.207	487.06
452.428	480.06
452.648	486.06
452.869	491.06
453.089	475.06
453.31	461.06
453.53	492.06
453.751	485.06
453.971	503.06
454.192	494.06
454.412	481.06
454.633	468.06
454.853	472.06
455.073	459.06
455.294	503.06
455.514	563.06
455.734	557.06
455.955	466.06
456.175	469.06
456.395	472.06
456.616	464.06
456.836	468.06
457.056	466.06
457.276	462.06
457.497	451.06
457.717	474.06
457.937	475.06
458.157	472.06
458.377	488.06
458.598	511.06
458.818	550.06
459.038	631.06
459.258	646.06
459.478	568.06
459.698	550.06
459.918	516.06
460.138	508.06
460.358	534.06
460.578	535.06
460.798	550.06
461.018	563.06
461.238	563.06
461.458	527.06
461.678	542.06
461.898	561.06
462.118	544.06
462.338	529.06
462.558	559.06
462.777	575.06
462.997	590.06
463.217	596.06
463.437	585.06
463.657	593.06
463.876	578.06
464.096	586.06
464.316	555.06
464.536	594.06
464.755	576.06
464.975	585.06
465.195	614.06
465.414	638.06
465.634	635.06
465.854	566.06
466.073	541.06
466.293	543.06
466.512	520.06
466.732	507.06
466.951	523.06
467.171	509.06
467.391	497.06
467.61	533.06
467.829	528.06
468.049	496.06
468.268	529.06
468.488	499.06
468.707	492.06
468.927	499.06
469.146	484.06
469.365	508.06
469.585	483.06
469.804	509.06
470.023	520.06
470.243	518.06
470.462	517.06
470.681	524.06
470.901	519.06
471.12	509.06
471.339	499.06
471.558	521.06
471.777	490.06
471.997	502.06
472.216	501.06
472.435	534.06
472.654	524.06
472.873	515.06
473.092	517.06
473.311	493.06
473.53	512.06
473.749	504.06
473.968	552.06
474.187	621.06
474.406	681.06
474.625	563.06
474.844	537.06
475.063	531.06
475.282	501.06
475.501	519.06
475.72	532.06
475.939	532.06
476.158	530.06
476.377	528.06
476.596	513.06
476.814	534.06
477.033	520.06
477.252	525.06
477.471	548.06
477.69	559.06
477.908	557.06
478.127	579.06
478.346	561.06
478.564	566.06
478.783	577.06
479.002	568.06
479.22	596.06
479.439	614.06
479.658	599.06
479.876	616.06
480.095	617.06
480.313	650.06
480.532	651.06
480.751	622.06
480.969	634.06
481.188	659.06
481.406	708.06
481.624	629.06
481.843	599.06
482.061	592.06
482.28	596.06
482.498	613.06
482.717	620.06
482.935	596.06
483.153	602.06
483.372	579.06
483.59	594.06
483.808	588.06
484.027	581.06
484.245	598.06
484.463	604.06
484.681	612.06
484.9	604.06
485.118	585.06
485.336	601.06
485.554	610.06
485.772	645.06
485.99	632.06
486.209	612.06
486.427	604.06
486.645	633.06
486.863	639.06
487.081	625.06
487.299	629.06
487.517	637.06
487.735	629.06
487.953	638.06
488.171	618.06
488.389	645.06
488.607	637.06
488.825	641.06
489.043	636.06
489.261	653.06
489.479	618.06
489.696	651.06
489.914	641.06
490.132	653.06
490.35	665.06
490.568	667.06
490.786	649.06
491.003	673.06
491.221	682.06
491.439	687.06
491.657	678.06
491.874	719.06
492.092	715.06
492.31	696.06
492.527	697.06
492.745	740.06
492.963	725.06
493.18	731.06
493.398	710.06
493.615	721.06
493.833	720.06
494.05	713.06
494.268	732.06
494.485	733.06
494.703	708.06
494.92	721.06
495.138	728.06
495.355	717.06
495.573	747.06
495.79	776.06
496.008	744.06
496.225	735.06
496.442	757.06
496.66	730.06
496.877	743.06
497.094	748.06
497.312	761.06
497.529	761.06
497.746	811.06
497.963	781.06
498.181	826.06
498.398	835.06
498.615	824.06
498.832	858.06
499.049	874.06
499.267	892.06
499.484	928.06
499.701	961.06
499.918	1017.06
500.135	1035.06
500.352	1099.06
500.569	1088.06
500.786	1097.06
501.003	1112.06
501.22	1070.06
501.437	1017.06
501.654	999.06
501.871	963.06
502.088	971.06
502.305	925.06
502.522	874.06
502.739	840.06
502.956	836.06
503.172	806.06
503.389	785.06
503.606	819.06
503.823	785.06
504.04	789.06
504.256	791.06
504.473	753.06
504.69	785.06
504.907	786.06
505.123	749.06
505.34	736.06
505.557	720.06
505.773	697.06
505.99	706.06
506.207	717.06
506.423	717.06
506.64	702.06
506.856	693.06
507.073	690.06
507.289	685.06
507.506	677.06
507.722	686.06
507.939	703.06
508.155	693.06
508.372	676.06
508.588	673.06
508.805	694.06
509.021	672.06
509.238	693.06
509.454	695.06
509.67	660.06
509.887	681.06
510.103	688.06
510.319	662.06
510.536	736.06
510.752	1095.06
510.968	959.06
511.184	691.06
511.401	663.06
511.617	637.06
511.833	666.06
512.049	608.06
512.265	626.06
512.481	641.06
512.698	608.06
512.914	641.06
513.13	619.06
513.346	596.06
513.562	622.06
513.778	634.06
513.994	622.06
514.21	637.06
514.426	661.06
514.642	696.06
514.858	704.06
515.074	744.06
515.29	857.06
515.506	1132.06
515.721	960.06
515.937	739.06
516.153	670.06
516.369	679.06
516.585	654.06
516.801	677.06
517.016	665.06
517.232	665.06
517.448	687.06
517.664	707.06
517.879	670.06
518.095	664.06
518.311	693.06
518.527	670.06
518.742	670.06
518.958	646.06
519.173	663.06
519.389	624.06
519.605	627.06
519.82	633.06
520.036	642.06
520.251	665.06
520.467	689.06
520.682	667.06
520.898	671.06
521.113	685.06
521.329	700.06
521.544	784.06
521.76	936.06
521.975	1389.06
522.19	1358.06
522.406	864.06
522.621	697.06
522.836	636.06
523.052	613.06
523.267	597.06
523.482	584.06
523.698	590.06
523.913	610.06
524.128	583.06
524.343	597.06
524.559	570.06
524.774	569.06
524.989	535.06
525.204	553.06
525.419	576.06
525.634	550.06
525.849	547.06
526.064	559.06
526.28	544.06
526.495	565.06
526.71	560.06
526.925	539.06
527.14	540.06
527.355	535.06
527.57	524.06
527.785	559.06
527.999	558.06
528.214	544.06
528.429	553.06
528.644	551.06
528.859	529.06
529.074	551.06
529.289	558.06
529.503	615.06
529.718	584.06
529.933	556.06
530.148	551.06
530.363	541.06
530.577	543.06
530.792	515.06
531.007	521.06
531.221	518.06
531.436	514.06
531.651	537.06
531.865	524.06
532.08	497.06
532.295	533.06
532.509	521.06
532.724	522.06
532.938	528.06
533.153	503.06
533.367	494.06
533.582	528.06
533.796	509.06
534.011	501.06
534.225	513.06
534.44	521.06
534.654	513.06
534.868	513.06
535.083	515.06
535.297	503.06
535.511	515.06
535.726	527.06
535.94	514.06
536.154	509.06
536.369	504.06
536.583	499.06
536.797	507.06
537.011	485.06
537.225	511.06
537.44	492.06
537.654	497.06
537.868	485.06
538.082	479.06
538.296	506.06
538.51	517.06
538.724	515.06
538.938	498.06
539.153	483.06
539.367	505.06
539.581	507.06
539.795	485.06
540.009	492.06
540.222	487.06
540.436	492.06
540.65	476.06
540.864	500.06
541.078	489.06
541.292	504.06
541.506	519.06
541.72	478.06
541.934	467.06
542.147	488.06
542.361	507.06
542.575	485.06
542.789	495.06
543.002	476.06
543.216	491.06
543.43	504.06
543.644	498.06
543.857	488.06
544.071	484.06
544.285	474.06
544.498	500.06
544.712	480.06
544.925	485.06
545.139	493.06
545.352	481.06
545.566	490.06
545.779	493.06
545.993	483.06
546.206	497.06
546.42	487.06
546.633	485.06
546.847	471.06
547.06	500.06
547.274	473.06
547.487	485.06
547.7	483.06
547.914	480.06
548.127	437.06
548.34	466.06
548.554	461.06
548.767	485.06
548.98	494.06
549.193	475.06
549.407	477.06
549.62	483.06
549.833	462.06
550.046	488.06
550.259	465.06
550.473	465.06
550.686	471.06
550.899	473.06
551.112	476.06
551.325	486.06
551.538	456.06
551.751	499.06
551.964	450.06
552.177	475.06
552.39	488.06
552.603	485.06
552.816	452.06
553.029	484.06
553.242	493.06
553.455	484.06
553.667	501.06
553.88	512.06
554.093	480.06
554.306	465.06
554.519	485.06
554.732	470.06
554.944	465.06
555.157	490.06
555.37	464.06
555.583	441.06
555.795	453.06
556.008	437.06
556.221	447.06
556.433	471.06
556.646	447.06
556.859	438.06
557.071	440.06
557.284	440.06
557.496	451.06
557.709	427.06
557.921	420.06
558.134	420.06
558.346	438.06
558.559	430.06
558.771	444.06
558.984	441.06
559.196	434.06
559.409	435.06
559.621	412.06
559.833	443.06
560.046	415.06
560.258	414.06
560.47	425.06
560.683	423.06
560.895	432.06
561.107	424.06
561.32	429.06
561.532	412.06
561.744	426.06
561.956	424.06
562.168	395.06
562.381	435.06
562.593	411.06
562.805	451.06
563.017	437.06
563.229	433.06
563.441	419.06
563.653	431.06
563.865	428.06
564.077	442.06
564.289	438.06
564.501	448.06
564.713	446.06
564.925	460.06
565.137	465.06
565.349	439.06
565.561	470.06
565.773	486.06
565.985	457.06
566.197	494.06
566.408	526.06
566.62	512.06
566.832	496.06
567.044	532.06
567.255	513.06
567.467	520.06
567.679	557.06
567.891	579.06
568.102	572.06
568.314	543.06
568.526	510.06
568.737	542.06
568.949	499.06
569.161	475.06
569.372	469.06
569.584	449.06
569.795	481.06
570.007	449.06
570.218	469.06
570.43	464.06
570.641	442.06
570.853	459.06
571.064	451.06
571.276	423.06
571.487	413.06
571.698	417.06
571.91	413.06
572.121	437.06
572.333	412.06
572.544	415.06
572.755	392.06
572.966	391.06
573.178	389.06
573.389	401.06
573.6	364.06
573.811	381.06
574.023	380.06
574.234	363.06
574.445	358.06
574.656	378.06
574.867	395.06
575.078	377.06
575.289	378.06
575.501	394.06
575.712	385.06
575.923	345.06
576.134	367.06
576.345	349.06
576.556	360.06
576.767	355.06
576.978	371.06
577.188	363.06
577.399	375.06
577.61	357.06
577.821	369.06
578.032	361.06
578.243	384.06
578.454	543.06
578.665	456.06
578.875	351.06
579.086	363.06
579.297	358.06
579.508	340.06
579.718	360.06
579.929	340.06
580.14	335.06
580.35	327.06
580.561	351.06
580.772	351.06
580.982	362.06
581.193	335.06
581.403	341.06
581.614	316.06
581.825	335.06
582.035	344.06
582.246	331.06
582.456	329.06
582.667	330.06
582.877	333.06
583.087	338.06
583.298	332.06
583.508	331.06
583.719	361.06
583.929	346.06
584.139	337.06
584.35	314.06
584.56	316.06
584.77	336.06
584.981	327.06
585.191	345.06
585.401	327.06
585.611	342.06
585.821	325.06
586.032	338.06
586.242	336.06
586.452	327.06
586.662	315.06
586.872	329.06
587.082	341.06
587.292	324.06
587.502	329.06
587.713	317.06
587.923	324.06
588.133	327.06
588.343	327.06
588.553	323.06
588.762	325.06
588.972	330.06
589.182	309.06
589.392	339.06
589.602	312.06
589.812	317.06
590.022	335.06
590.232	320.06
590.441	319.06
590.651	318.06
590.861	326.06
591.071	327.06
591.281	332.06
591.49	320.06
591.7	323.06
591.91	332.06
592.119	331.06
592.329	330.06
592.539	357.06
592.748	345.06
592.958	345.06
593.167	336.06
593.377	345.06
593.587	369.06
593.796	340.06
594.006	357.06
594.215	357.06
594.424	334.06
594.634	329.06
594.843	336.06
595.053	349.06
595.262	329.06
595.472	321.06
595.681	329.06
595.89	317.06
596.1	323.06
596.309	317.06
596.518	313.06
596.727	312.06
596.937	312.06
597.146	314.06
597.355	312.06
597.564	313.06
597.774	285.06
597.983	293.06
598.192	274.06
598.401	291.06
598.61	289.06
598.819	285.06
599.028	287.06
599.237	289.06
599.446	304.06
599.655	287.06
599.864	283.06
600.073	276.06
600.282	282.06
600.491	267.06
600.7	278.06
600.909	298.06
601.118	300.06
601.327	292.06
601.536	295.06
601.745	283.06
601.953	285.06
602.162	279.06
602.371	278.06
602.58	284.06
602.789	275.06
602.997	265.06
603.206	286.06
603.415	284.06
603.623	267.06
603.832	281.06
604.041	272.06
604.249	286.06
604.458	275.06
604.666	270.06
604.875	285.06
605.084	263.06
605.292	271.06
605.501	283.06
605.709	253.06
605.918	279.06
606.126	265.06
606.334	264.06
606.543	255.06
606.751	273.06
606.96	263.06
607.168	267.06
607.376	267.06
607.585	254.06
607.793	261.06
608.001	251.06
608.21	277.06
608.418	244.06
608.626	259.06
608.834	277.06
609.043	257.06
609.251	261.06
609.459	273.06
609.667	265.06
609.875	252.06
610.083	265.06
610.291	257.06
610.499	272.06
610.707	265.06
610.916	250.06
611.124	264.06
611.332	267.06
611.54	287.06
611.748	268.06
611.955	271.06
612.163	263.06
612.371	271.06
612.579	246.06
612.787	259.06
612.995	261.06
613.203	260.06
613.411	249.06
613.618	246.06
613.826	261.06
614.034	265.06
614.242	235.06
614.449	259.06
614.657	252.06
614.865	252.06
615.072	274.06
615.28	251.06
615.488	244.06
615.695	231.06
615.903	247.06
616.111	259.06
616.318	250.06
616.526	266.06
616.733	259.06
616.941	258.06
617.148	257.06
617.356	236.06
617.563	247.06
617.771	257.06
617.978	270.06
618.185	243.06
618.393	227.06
618.6	248.06
618.807	247.06
619.015	238.06
619.222	241.06
619.429	254.06
619.637	239.06
619.844	259.06
620.051	269.06
620.258	250.06
620.466	238.06
620.673	252.06
620.88	237.06
621.087	237.06
621.294	239.06
621.501	234.06
621.708	244.06
621.915	238.06
622.122	249.06
622.329	259.06
622.536	248.06
622.743	223.06
622.95	230.06
623.157	221.06
623.364	231.06
623.571	229.06
623.778	221.06
623.985	222.06
624.192	234.06
624.399	223.06
624.606	244.06
624.812	237.06
625.019	229.06
625.226	233.06
625.433	222.06
625.639	213.06
625.846	237.06
626.053	249.06
626.259	239.06
626.466	223.06
626.673	231.06
626.879	227.06
627.086	219.06
627.293	215.06
627.499	220.06
627.706	232.06
627.912	235.06
628.119	232.06
628.325	214.06
628.532	204.06
628.738	219.06
628.945	216.06
629.151	211.06
629.357	201.06
629.564	217.06
629.77	191.06
629.976	211.06
630.183	200.06
630.389	216.06
630.595	213.06
630.802	220.06
631.008	204.06
631.214	216.06
631.42	204.06
631.627	201.06
631.833	211.06
632.039	203.06
632.245	196.06
632.451	204.06
632.657	210.06
632.863	207.06
633.069	210.06
633.275	217.06
633.481	204.06
633.688	213.06
633.893	175.06
634.099	197.06
634.305	207.06
634.511	205.06
634.717	192.06
634.923	215.06
635.129	201.06
635.335	195.06
635.541	202.06
635.747	196.06
635.952	205.06
636.158	199.06
636.364	192.06
636.57	204.06
636.775	185.06
636.981	186.06
637.187	210.06
637.392	201.06
637.598	199.06
637.804	193.06
638.009	186.06
638.215	195.06
638.421	193.06
638.626	203.06
638.832	191.06
639.037	184.06
639.243	183.06
639.448	184.06
639.654	184.06
639.859	173.06
640.065	197.06
640.27	200.06
640.475	197.06
640.681	197.06
640.886	176.06
641.091	204.06
641.297	182.06
641.502	175.06
641.707	174.06
641.913	200.06
642.118	169.06
642.323	183.06
642.528	173.06
642.733	176.06
642.939	170.06
643.144	171.06
643.349	172.06
643.554	197.06
643.759	190.06
643.964	186.06
644.169	177.06
644.374	170.06
644.579	192.06
644.784	189.06
644.989	182.06
645.194	167.06
645.399	186.06
645.604	175.06
645.809	183.06
646.014	179.06
646.219	162.06
646.423	159.06
646.628	166.06
646.833	172.06
647.038	183.06
647.243	191.06
647.447	172.06
647.652	182.06
647.857	187.06
648.062	168.06
648.266	193.06
648.471	177.06
648.676	175.06
648.88	197.06
649.085	196.06
649.289	200.06
649.494	184.06
649.698	180.06
649.903	200.06
650.107	189.06
650.312	179.06
650.516	181.06
650.721	159.06
650.925	183.06
651.13	162.06
651.334	167.06
651.539	163.06
651.743	173.06
651.947	160.06
652.152	161.06
652.356	163.06
652.56	157.06
652.764	134.06
652.969	160.06
653.173	155.06
653.377	148.06
653.581	141.06
653.785	136.06
653.99	138.06
654.194	136.06
654.398	156.06
654.602	137.06
654.806	137.06
655.01	150.06
655.214	158.06
655.418	149.06
655.622	133.06
655.826	149.06
656.03	133.06
656.234	138.06
656.438	145.06
656.642	146.06
656.846	144.06
657.049	125.06
657.253	121.06
657.457	131.06
657.661	137.06
657.865	138.06
658.068	116.06
658.272	110.06
658.476	123.06
658.68	107.06
658.883	117.06
659.087	133.06
659.291	107.06
659.494	111.06
659.698	119.06
659.901	105.06
660.105	105.06
660.309	80.06
660.512	79.06
660.716	87.06
660.919	89.06
661.123	88.06
661.326	97.06
661.53	101.06
661.733	98.06
661.936	89.06
662.14	89.06
662.343	80.06
662.546	83.06
662.75	93.06
662.953	79.06
663.156	90.06
663.36	96.06
663.563	89.06
663.766	88.06
663.969	88.06
664.173	75.06
664.376	83.06
664.579	100.06
664.782	79.06
664.985	90.06
665.188	79.06
665.391	88.06
665.594	83.06
665.797	76.06
666	86.06
666.203	80.06
666.406	90.06
666.609	80.06
666.812	95.06
667.015	109.06
667.218	89.06
667.421	89.06
667.624	96.06
667.827	93.06
668.03	85.06
668.232	91.06
668.435	93.06
668.638	78.06
668.841	88.06
669.043	89.06
669.246	85.06
669.449	82.06
669.651	78.06
669.854	82.06
670.057	95.06
670.259	81.06
670.462	77.06
670.665	85.06
670.867	90.06
671.07	83.06
671.272	80.06
671.475	89.06
671.677	94.06
671.88	90.06
672.082	80.06
672.284	80.06
672.487	84.06
672.689	79.06
672.892	85.06
