Data from 1979.PennyLincolnUp.Lamp.En5.5.200Scan.071719.P1_HRD10591_16-18-20-864.txt Node
Date: Thu Jul 18 16:18:20 EDT 2019
User: cochatt
Spectrometer: HR+D1059
Trigger mode: 1
Integration Time (sec): 1.000000E-1
Scans to average: 1
Electric dark correction enabled: true
Nonlinearity correction enabled: false
Boxcar width: 0
XAxis mode: Wavelengths
Number of Pixels in Spectrum: 2048
>>>>>Begin Spectral Data<<<<<
223.165	-19.62
223.4	-19.62
223.635	-19.62
223.869	-11.62
224.104	-22.62
224.338	-15.62
224.573	-3.62
224.808	-33.62
225.042	2.38
225.277	-6.62
225.511	1.38
225.746	16.38
225.98	7.38
226.215	4.38
226.449	22.38
226.683	10.38
226.918	21.38
227.152	27.38
227.387	27.38
227.621	35.38
227.856	41.38
228.09	38.38
228.324	49.38
228.559	41.38
228.793	73.38
229.027	86.38
229.262	103.38
229.496	104.38
229.73	117.38
229.964	130.38
230.199	129.38
230.433	102.38
230.667	117.38
230.901	86.38
231.136	110.38
231.37	98.38
231.604	111.38
231.838	103.38
232.072	92.38
232.306	112.38
232.541	106.38
232.775	121.38
233.009	116.38
233.243	114.38
233.477	98.38
233.711	117.38
233.945	120.38
234.179	106.38
234.413	98.38
234.647	117.38
234.881	115.38
235.115	99.38
235.349	101.38
235.583	111.38
235.817	108.38
236.051	105.38
236.285	103.38
236.519	121.38
236.753	119.38
236.987	143.38
237.221	145.38
237.455	198.38
237.689	167.38
237.922	132.38
238.156	120.38
238.39	108.38
238.624	119.38
238.858	115.38
239.091	116.38
239.325	108.38
239.559	110.38
239.793	123.38
240.027	133.38
240.26	116.38
240.494	142.38
240.728	135.38
240.961	128.38
241.195	135.38
241.429	116.38
241.662	122.38
241.896	122.38
242.13	125.38
242.363	128.38
242.597	126.38
242.83	140.38
243.064	120.38
243.298	131.38
243.531	131.38
243.765	134.38
243.998	128.38
244.232	148.38
244.465	139.38
244.699	135.38
244.932	142.38
245.166	138.38
245.399	143.38
245.633	132.38
245.866	143.38
246.099	142.38
246.333	147.38
246.566	144.38
246.8	141.38
247.033	134.38
247.266	156.38
247.5	130.38
247.733	146.38
247.966	158.38
248.2	140.38
248.433	156.38
248.666	151.38
248.899	152.38
249.133	170.38
249.366	179.38
249.599	172.38
249.832	177.38
250.066	183.38
250.299	172.38
250.532	182.38
250.765	182.38
250.998	195.38
251.231	186.38
251.465	186.38
251.698	189.38
251.931	170.38
252.164	166.38
252.397	172.38
252.63	185.38
252.863	189.38
253.096	186.38
253.329	198.38
253.562	200.38
253.795	179.38
254.028	207.38
254.261	194.38
254.494	208.38
254.727	222.38
254.96	223.38
255.193	222.38
255.426	195.38
255.659	186.38
255.892	199.38
256.124	190.38
256.357	182.38
256.59	200.38
256.823	195.38
257.056	182.38
257.289	182.38
257.521	183.38
257.754	198.38
257.987	193.38
258.22	186.38
258.452	187.38
258.685	198.38
258.918	192.38
259.151	181.38
259.383	199.38
259.616	198.38
259.849	204.38
260.081	219.38
260.314	223.38
260.547	238.38
260.779	233.38
261.012	210.38
261.244	203.38
261.477	198.38
261.71	220.38
261.942	202.38
262.175	200.38
262.407	192.38
262.64	187.38
262.872	212.38
263.105	202.38
263.337	199.38
263.57	186.38
263.802	200.38
264.035	187.38
264.267	188.38
264.499	194.38
264.732	202.38
264.964	210.38
265.197	203.38
265.429	183.38
265.661	194.38
265.894	193.38
266.126	193.38
266.358	206.38
266.591	201.38
266.823	203.38
267.055	210.38
267.287	209.38
267.52	210.38
267.752	195.38
267.984	211.38
268.216	203.38
268.448	186.38
268.681	209.38
268.913	241.38
269.145	218.38
269.377	241.38
269.609	236.38
269.841	235.38
270.073	231.38
270.306	235.38
270.538	279.38
270.77	259.38
271.002	258.38
271.234	249.38
271.466	269.38
271.698	263.38
271.93	267.38
272.162	271.38
272.394	283.38
272.626	255.38
272.858	232.38
273.09	230.38
273.322	247.38
273.553	242.38
273.785	239.38
274.017	218.38
274.249	223.38
274.481	224.38
274.713	226.38
274.945	223.38
275.176	243.38
275.408	244.38
275.64	221.38
275.872	248.38
276.104	230.38
276.335	234.38
276.567	262.38
276.799	253.38
277.031	251.38
277.262	285.38
277.494	263.38
277.726	267.38
277.957	243.38
278.189	233.38
278.421	258.38
278.652	242.38
278.884	248.38
279.115	239.38
279.347	244.38
279.579	252.38
279.81	245.38
280.042	236.38
280.273	230.38
280.505	259.38
280.736	240.38
280.968	243.38
281.199	257.38
281.431	247.38
281.662	237.38
281.894	263.38
282.125	251.38
282.356	247.38
282.588	279.38
282.819	291.38
283.051	274.38
283.282	235.38
283.513	263.38
283.745	244.38
283.976	266.38
284.207	258.38
284.439	243.38
284.67	268.38
284.901	246.38
285.132	265.38
285.364	256.38
285.595	268.38
285.826	268.38
286.057	267.38
286.288	287.38
286.52	245.38
286.751	262.38
286.982	272.38
287.213	252.38
287.444	266.38
287.675	263.38
287.906	265.38
288.138	283.38
288.369	274.38
288.6	276.38
288.831	267.38
289.062	256.38
289.293	271.38
289.524	254.38
289.755	279.38
289.986	276.38
290.217	270.38
290.448	261.38
290.679	283.38
290.91	276.38
291.141	265.38
291.371	264.38
291.602	262.38
291.833	272.38
292.064	275.38
292.295	287.38
292.526	287.38
292.757	279.38
292.987	278.38
293.218	274.38
293.449	258.38
293.68	264.38
293.91	272.38
294.141	273.38
294.372	268.38
294.603	263.38
294.833	262.38
295.064	285.38
295.295	289.38
295.525	279.38
295.756	277.38
295.987	289.38
296.217	296.38
296.448	292.38
296.679	293.38
296.909	292.38
297.14	296.38
297.37	287.38
297.601	282.38
297.831	303.38
298.062	274.38
298.292	289.38
298.523	280.38
298.753	289.38
298.984	278.38
299.214	290.38
299.445	290.38
299.675	298.38
299.905	277.38
300.136	290.38
300.366	306.38
300.597	290.38
300.827	295.38
301.057	314.38
301.288	313.38
301.518	300.38
301.748	298.38
301.979	312.38
302.209	275.38
302.439	304.38
302.669	300.38
302.9	295.38
303.13	299.38
303.36	304.38
303.59	309.38
303.82	302.38
304.051	303.38
304.281	310.38
304.511	308.38
304.741	318.38
304.971	294.38
305.201	307.38
305.431	304.38
305.661	317.38
305.891	288.38
306.121	319.38
306.352	304.38
306.582	319.38
306.812	316.38
307.042	310.38
307.272	319.38
307.502	309.38
307.731	323.38
307.961	304.38
308.191	294.38
308.421	311.38
308.651	333.38
308.881	310.38
309.111	300.38
309.341	322.38
309.571	322.38
309.8	347.38
310.03	332.38
310.26	349.38
310.49	348.38
310.72	360.38
310.949	357.38
311.179	376.38
311.409	348.38
311.639	357.38
311.868	336.38
312.098	347.38
312.328	359.38
312.557	363.38
312.787	367.38
313.017	363.38
313.246	374.38
313.476	346.38
313.706	359.38
313.935	353.38
314.165	356.38
314.394	366.38
314.624	362.38
314.853	361.38
315.083	361.38
315.312	333.38
315.542	336.38
315.771	339.38
316.001	347.38
316.23	337.38
316.46	352.38
316.689	359.38
316.919	361.38
317.148	358.38
317.377	363.38
317.607	357.38
317.836	352.38
318.065	347.38
318.295	358.38
318.524	353.38
318.753	339.38
318.983	351.38
319.212	348.38
319.441	356.38
319.67	367.38
319.9	363.38
320.129	350.38
320.358	350.38
320.587	354.38
320.816	367.38
321.046	394.38
321.275	379.38
321.504	371.38
321.733	372.38
321.962	367.38
322.191	380.38
322.42	386.38
322.649	390.38
322.878	401.38
323.108	407.38
323.337	423.38
323.566	433.38
323.795	442.38
324.024	464.38
324.253	578.38
324.482	811.38
324.71	1258.38
324.939	1854.38
325.168	1618.38
325.397	803.38
325.626	577.38
325.855	480.38
326.084	462.38
326.313	438.38
326.542	460.38
326.77	472.38
326.999	559.38
327.228	736.38
327.457	1140.38
327.686	1410.38
327.914	944.38
328.143	614.38
328.372	544.38
328.6	511.38
328.829	477.38
329.058	508.38
329.287	508.38
329.515	487.38
329.744	460.38
329.972	447.38
330.201	470.38
330.43	497.38
330.658	503.38
330.887	542.38
331.115	514.38
331.344	448.38
331.572	449.38
331.801	437.38
332.03	426.38
332.258	437.38
332.486	411.38
332.715	448.38
332.943	423.38
333.172	472.38
333.4	450.38
333.629	472.38
333.857	467.38
334.085	460.38
334.314	464.38
334.542	513.38
334.771	511.38
334.999	473.38
335.227	453.38
335.455	447.38
335.684	439.38
335.912	434.38
336.14	426.38
336.369	435.38
336.597	420.38
336.825	436.38
337.053	425.38
337.281	421.38
337.51	411.38
337.738	432.38
337.966	416.38
338.194	426.38
338.422	399.38
338.65	420.38
338.878	419.38
339.106	419.38
339.334	422.38
339.562	400.38
339.79	397.38
340.018	383.38
340.246	408.38
340.474	407.38
340.702	414.38
340.93	400.38
341.158	414.38
341.386	381.38
341.614	414.38
341.842	410.38
342.07	409.38
342.298	399.38
342.526	393.38
342.754	387.38
342.981	394.38
343.209	395.38
343.437	384.38
343.665	418.38
343.893	415.38
344.12	447.38
344.348	424.38
344.576	428.38
344.804	402.38
345.031	416.38
345.259	418.38
345.487	427.38
345.714	411.38
345.942	396.38
346.17	411.38
346.397	397.38
346.625	389.38
346.853	394.38
347.08	387.38
347.308	407.38
347.535	390.38
347.763	428.38
347.99	388.38
348.218	405.38
348.445	406.38
348.673	376.38
348.9	384.38
349.128	372.38
349.355	383.38
349.583	388.38
349.81	388.38
350.037	382.38
350.265	401.38
350.492	380.38
350.72	368.38
350.947	393.38
351.174	422.38
351.402	404.38
351.629	396.38
351.856	395.38
352.083	391.38
352.311	410.38
352.538	384.38
352.765	388.38
352.992	409.38
353.22	386.38
353.447	401.38
353.674	400.38
353.901	390.38
354.128	395.38
354.355	374.38
354.583	380.38
354.81	382.38
355.037	398.38
355.264	376.38
355.491	360.38
355.718	378.38
355.945	374.38
356.172	361.38
356.399	361.38
356.626	384.38
356.853	387.38
357.08	375.38
357.307	370.38
357.534	378.38
357.761	352.38
357.988	372.38
358.215	356.38
358.441	366.38
358.668	397.38
358.895	383.38
359.122	380.38
359.349	373.38
359.576	387.38
359.802	417.38
360.029	434.38
360.256	448.38
360.483	412.38
360.709	395.38
360.936	390.38
361.163	409.38
361.39	411.38
361.616	396.38
361.843	403.38
362.07	399.38
362.296	412.38
362.523	420.38
362.749	392.38
362.976	397.38
363.203	408.38
363.429	389.38
363.656	390.38
363.882	391.38
364.109	387.38
364.335	404.38
364.562	384.38
364.788	378.38
365.015	387.38
365.241	380.38
365.468	387.38
365.694	411.38
365.92	404.38
366.147	396.38
366.373	390.38
366.599	368.38
366.826	392.38
367.052	384.38
367.278	391.38
367.505	383.38
367.731	392.38
367.957	377.38
368.184	378.38
368.41	392.38
368.636	396.38
368.862	402.38
369.089	378.38
369.315	417.38
369.541	386.38
369.767	386.38
369.993	388.38
370.219	415.38
370.445	395.38
370.672	375.38
370.898	404.38
371.124	389.38
371.35	392.38
371.576	395.38
371.802	389.38
372.028	389.38
372.254	389.38
372.48	386.38
372.706	399.38
372.932	386.38
373.158	391.38
373.384	392.38
373.61	397.38
373.835	386.38
374.061	396.38
374.287	414.38
374.513	396.38
374.739	411.38
374.965	415.38
375.191	441.38
375.416	402.38
375.642	411.38
375.868	415.38
376.094	415.38
376.319	405.38
376.545	406.38
376.771	405.38
376.997	376.38
377.222	416.38
377.448	393.38
377.674	418.38
377.899	394.38
378.125	386.38
378.35	407.38
378.576	394.38
378.802	402.38
379.027	394.38
379.253	376.38
379.478	372.38
379.704	398.38
379.929	416.38
380.155	396.38
380.38	423.38
380.606	384.38
380.831	400.38
381.057	386.38
381.282	405.38
381.507	374.38
381.733	425.38
381.958	404.38
382.184	398.38
382.409	388.38
382.634	408.38
382.86	415.38
383.085	420.38
383.31	423.38
383.535	422.38
383.761	407.38
383.986	431.38
384.211	424.38
384.436	415.38
384.662	425.38
384.887	434.38
385.112	439.38
385.337	417.38
385.562	425.38
385.787	451.38
386.013	452.38
386.238	443.38
386.463	443.38
386.688	442.38
386.913	452.38
387.138	440.38
387.363	452.38
387.588	439.38
387.813	468.38
388.038	443.38
388.263	448.38
388.488	452.38
388.713	464.38
388.938	439.38
389.163	448.38
389.387	451.38
389.612	428.38
389.837	448.38
390.062	446.38
390.287	434.38
390.512	428.38
390.736	439.38
390.961	434.38
391.186	446.38
391.411	449.38
391.636	445.38
391.86	451.38
392.085	466.38
392.31	468.38
392.534	470.38
392.759	455.38
392.984	464.38
393.208	472.38
393.433	452.38
393.658	460.38
393.882	471.38
394.107	457.38
394.331	454.38
394.556	455.38
394.78	461.38
395.005	462.38
395.229	456.38
395.454	444.38
395.678	478.38
395.903	450.38
396.127	483.38
396.352	497.38
396.576	470.38
396.801	472.38
397.025	490.38
397.249	480.38
397.474	485.38
397.698	478.38
397.922	479.38
398.147	519.38
398.371	519.38
398.595	519.38
398.82	500.38
399.044	538.38
399.268	538.38
399.492	594.38
399.717	620.38
399.941	624.38
400.165	660.38
400.389	667.38
400.613	563.38
400.837	539.38
401.062	524.38
401.286	524.38
401.51	530.38
401.734	544.38
401.958	532.38
402.182	542.38
402.406	552.38
402.63	566.38
402.854	533.38
403.078	537.38
403.302	531.38
403.526	557.38
403.75	556.38
403.974	553.38
404.198	551.38
404.422	560.38
404.645	567.38
404.869	563.38
405.093	616.38
405.317	617.38
405.541	651.38
405.765	576.38
405.988	593.38
406.212	578.38
406.436	589.38
406.66	607.38
406.883	599.38
407.107	615.38
407.331	670.38
407.555	726.38
407.778	720.38
408.002	676.38
408.226	613.38
408.449	590.38
408.673	607.38
408.896	652.38
409.12	666.38
409.344	626.38
409.567	589.38
409.791	552.38
410.014	559.38
410.238	573.38
410.461	550.38
410.685	555.38
410.908	569.38
411.132	605.38
411.355	618.38
411.578	622.38
411.802	570.38
412.025	542.38
412.249	571.38
412.472	577.38
412.695	618.38
412.919	601.38
413.142	544.38
413.365	568.38
413.589	536.38
413.812	526.38
414.035	546.38
414.258	536.38
414.482	548.38
414.705	513.38
414.928	530.38
415.151	514.38
415.374	514.38
415.597	521.38
415.821	518.38
416.044	512.38
416.267	523.38
416.49	544.38
416.713	492.38
416.936	531.38
417.159	532.38
417.382	522.38
417.605	530.38
417.828	522.38
418.051	552.38
418.274	542.38
418.497	504.38
418.72	531.38
418.943	524.38
419.166	539.38
419.389	547.38
419.611	593.38
419.834	580.38
420.057	552.38
420.28	544.38
420.503	543.38
420.726	539.38
420.948	554.38
421.171	587.38
421.394	613.38
421.617	548.38
421.839	547.38
422.062	565.38
422.285	550.38
422.507	613.38
422.73	662.38
422.953	625.38
423.175	564.38
423.398	561.38
423.621	554.38
423.843	568.38
424.066	546.38
424.288	577.38
424.511	569.38
424.733	674.38
424.956	706.38
425.178	690.38
425.401	666.38
425.623	687.38
425.846	609.38
426.068	598.38
426.291	570.38
426.513	564.38
426.735	568.38
426.958	595.38
427.18	681.38
427.402	790.38
427.625	849.38
427.847	762.38
428.069	667.38
428.292	597.38
428.514	579.38
428.736	534.38
428.958	547.38
429.181	552.38
429.403	521.38
429.625	533.38
429.847	552.38
430.069	627.38
430.292	632.38
430.514	551.38
430.736	520.38
430.958	543.38
431.18	498.38
431.402	512.38
431.624	501.38
431.846	488.38
432.068	488.38
432.29	517.38
432.512	502.38
432.734	519.38
432.956	524.38
433.178	530.38
433.4	534.38
433.622	532.38
433.844	527.38
434.066	495.38
434.287	522.38
434.509	533.38
434.731	548.38
434.953	527.38
435.175	541.38
435.397	563.38
435.618	560.38
435.84	585.38
436.062	688.38
436.284	732.38
436.505	627.38
436.727	560.38
436.949	532.38
437.17	546.38
437.392	528.38
437.614	539.38
437.835	556.38
438.057	640.38
438.278	722.38
438.5	718.38
438.721	785.38
438.943	767.38
439.165	635.38
439.386	561.38
439.608	563.38
439.829	580.38
440.05	606.38
440.272	635.38
440.493	608.38
440.715	558.38
440.936	546.38
441.158	532.38
441.379	536.38
441.6	540.38
441.822	565.38
442.043	576.38
442.264	687.38
442.486	734.38
442.707	603.38
442.928	595.38
443.149	606.38
443.371	606.38
443.592	630.38
443.813	734.38
444.034	790.38
444.255	688.38
444.476	592.38
444.698	596.38
444.919	610.38
445.14	685.38
445.361	628.38
445.582	628.38
445.803	637.38
446.024	769.38
446.245	759.38
446.466	692.38
446.687	586.38
446.908	586.38
447.129	552.38
447.35	556.38
447.571	532.38
447.792	518.38
448.013	528.38
448.234	532.38
448.455	574.38
448.675	679.38
448.896	768.38
449.117	676.38
449.338	617.38
449.559	745.38
449.779	849.38
450	671.38
450.221	563.38
450.442	506.38
450.662	498.38
450.883	515.38
451.104	528.38
451.324	529.38
451.545	495.38
451.766	475.38
451.986	470.38
452.207	475.38
452.428	465.38
452.648	486.38
452.869	496.38
453.089	481.38
453.31	491.38
453.53	454.38
453.751	469.38
453.971	453.38
454.192	492.38
454.412	472.38
454.633	464.38
454.853	471.38
455.073	449.38
455.294	474.38
455.514	549.38
455.734	542.38
455.955	467.38
456.175	465.38
456.395	453.38
456.616	434.38
456.836	465.38
457.056	432.38
457.276	427.38
457.497	455.38
457.717	466.38
457.937	475.38
458.157	454.38
458.377	477.38
458.598	478.38
458.818	553.38
459.038	607.38
459.258	636.38
459.478	546.38
459.698	536.38
459.918	524.38
460.138	531.38
460.358	547.38
460.578	520.38
460.798	528.38
461.018	550.38
461.238	545.38
461.458	545.38
461.678	529.38
461.898	551.38
462.118	525.38
462.338	556.38
462.558	566.38
462.777	578.38
462.997	574.38
463.217	624.38
463.437	619.38
463.657	586.38
463.876	595.38
464.096	576.38
464.316	582.38
464.536	572.38
464.755	554.38
464.975	588.38
465.195	600.38
465.414	663.38
465.634	594.38
465.854	561.38
466.073	521.38
466.293	520.38
466.512	506.38
466.732	500.38
466.951	515.38
467.171	491.38
467.391	470.38
467.61	500.38
467.829	506.38
468.049	484.38
468.268	508.38
468.488	494.38
468.707	506.38
468.927	508.38
469.146	492.38
469.365	488.38
469.585	488.38
469.804	498.38
470.023	520.38
470.243	499.38
470.462	510.38
470.681	519.38
470.901	499.38
471.12	514.38
471.339	505.38
471.558	515.38
471.777	494.38
471.997	496.38
472.216	500.38
472.435	523.38
472.654	516.38
472.873	480.38
473.092	496.38
473.311	476.38
473.53	494.38
473.749	506.38
473.968	532.38
474.187	613.38
474.406	618.38
474.625	531.38
474.844	485.38
475.063	511.38
475.282	508.38
475.501	499.38
475.72	511.38
475.939	518.38
476.158	527.38
476.377	507.38
476.596	516.38
476.814	538.38
477.033	516.38
477.252	550.38
477.471	549.38
477.69	558.38
477.908	535.38
478.127	586.38
478.346	566.38
478.564	564.38
478.783	564.38
479.002	562.38
479.22	542.38
479.439	585.38
479.658	590.38
479.876	589.38
480.095	626.38
480.313	621.38
480.532	633.38
480.751	617.38
480.969	624.38
481.188	667.38
481.406	703.38
481.624	627.38
481.843	598.38
482.061	603.38
482.28	590.38
482.498	597.38
482.717	603.38
482.935	595.38
483.153	603.38
483.372	586.38
483.59	579.38
483.808	582.38
484.027	592.38
484.245	608.38
484.463	602.38
484.681	622.38
484.9	578.38
485.118	617.38
485.336	602.38
485.554	614.38
485.772	616.38
485.99	587.38
486.209	610.38
486.427	612.38
486.645	608.38
486.863	627.38
487.081	618.38
487.299	639.38
487.517	617.38
487.735	614.38
487.953	638.38
488.171	645.38
488.389	644.38
488.607	636.38
488.825	618.38
489.043	614.38
489.261	635.38
489.479	624.38
489.696	634.38
489.914	624.38
490.132	648.38
490.35	663.38
490.568	664.38
490.786	648.38
491.003	674.38
491.221	656.38
491.439	693.38
491.657	668.38
491.874	682.38
492.092	699.38
492.31	684.38
492.527	702.38
492.745	716.38
492.963	697.38
493.18	710.38
493.398	696.38
493.615	716.38
493.833	723.38
494.05	763.38
494.268	721.38
494.485	742.38
494.703	731.38
494.92	739.38
495.138	706.38
495.355	711.38
495.573	729.38
495.79	726.38
496.008	722.38
496.225	739.38
496.442	722.38
496.66	745.38
496.877	752.38
497.094	745.38
497.312	740.38
497.529	767.38
497.746	758.38
497.963	776.38
498.181	825.38
498.398	849.38
498.615	830.38
498.832	880.38
499.049	884.38
499.267	895.38
499.484	958.38
499.701	1008.38
499.918	1044.38
500.135	1077.38
500.352	1134.38
500.569	1171.38
500.786	1194.38
501.003	1154.38
501.22	1112.38
501.437	1070.38
501.654	1011.38
501.871	1006.38
502.088	942.38
502.305	908.38
502.522	883.38
502.739	862.38
502.956	826.38
503.172	788.38
503.389	774.38
503.606	768.38
503.823	786.38
504.04	768.38
504.256	755.38
504.473	774.38
504.69	748.38
504.907	734.38
505.123	740.38
505.34	730.38
505.557	712.38
505.773	690.38
505.99	700.38
506.207	683.38
506.423	695.38
506.64	665.38
506.856	675.38
507.073	675.38
507.289	685.38
507.506	692.38
507.722	674.38
507.939	706.38
508.155	658.38
508.372	644.38
508.588	657.38
508.805	636.38
509.021	660.38
509.238	652.38
509.454	664.38
509.67	652.38
509.887	635.38
510.103	647.38
510.319	642.38
510.536	756.38
510.752	1170.38
510.968	963.38
511.184	670.38
511.401	650.38
511.617	631.38
511.833	614.38
512.049	614.38
512.265	635.38
512.481	608.38
512.698	630.38
512.914	619.38
513.13	634.38
513.346	615.38
513.562	612.38
513.778	619.38
513.994	624.38
514.21	615.38
514.426	630.38
514.642	660.38
514.858	687.38
515.074	727.38
515.29	855.38
515.506	1168.38
515.721	1029.38
515.937	736.38
516.153	681.38
516.369	677.38
516.585	655.38
516.801	644.38
517.016	671.38
517.232	669.38
517.448	676.38
517.664	673.38
517.879	679.38
518.095	695.38
518.311	674.38
518.527	666.38
518.742	634.38
518.958	657.38
519.173	652.38
519.389	646.38
519.605	639.38
519.82	622.38
520.036	624.38
520.251	651.38
520.467	699.38
520.682	647.38
520.898	687.38
521.113	664.38
521.329	698.38
521.544	720.38
521.76	941.38
521.975	1471.38
522.19	1507.38
522.406	848.38
522.621	706.38
522.836	624.38
523.052	608.38
523.267	587.38
523.482	580.38
523.698	579.38
523.913	563.38
524.128	562.38
524.343	554.38
524.559	552.38
524.774	538.38
524.989	570.38
525.204	562.38
525.419	535.38
525.634	534.38
525.849	559.38
526.064	537.38
526.28	527.38
526.495	512.38
526.71	530.38
526.925	529.38
527.14	522.38
527.355	521.38
527.57	524.38
527.785	519.38
527.999	519.38
528.214	520.38
528.429	508.38
528.644	527.38
528.859	533.38
529.074	534.38
529.289	546.38
529.503	610.38
529.718	608.38
529.933	571.38
530.148	523.38
530.363	526.38
530.577	528.38
530.792	497.38
531.007	530.38
531.221	519.38
531.436	528.38
531.651	517.38
531.865	504.38
532.08	523.38
532.295	524.38
532.509	500.38
532.724	491.38
532.938	524.38
533.153	505.38
533.367	495.38
533.582	516.38
533.796	499.38
534.011	483.38
534.225	510.38
534.44	502.38
534.654	494.38
534.868	497.38
535.083	487.38
535.297	500.38
535.511	483.38
535.726	506.38
535.94	508.38
536.154	488.38
536.369	522.38
536.583	491.38
536.797	523.38
537.011	494.38
537.225	511.38
537.44	486.38
537.654	488.38
537.868	499.38
538.082	466.38
538.296	487.38
538.51	460.38
538.724	488.38
538.938	513.38
539.153	483.38
539.367	492.38
539.581	494.38
539.795	480.38
540.009	483.38
540.222	502.38
540.436	456.38
540.65	470.38
540.864	484.38
541.078	482.38
541.292	488.38
541.506	484.38
541.72	467.38
541.934	483.38
542.147	474.38
542.361	462.38
542.575	465.38
542.789	451.38
543.002	482.38
543.216	494.38
543.43	476.38
543.644	477.38
543.857	490.38
544.071	508.38
544.285	477.38
544.498	472.38
544.712	474.38
544.925	476.38
545.139	477.38
545.352	472.38
545.566	485.38
545.779	467.38
545.993	482.38
546.206	469.38
546.42	480.38
546.633	482.38
546.847	455.38
547.06	454.38
547.274	473.38
547.487	479.38
547.7	451.38
547.914	466.38
548.127	484.38
548.34	464.38
548.554	476.38
548.767	455.38
548.98	484.38
549.193	464.38
549.407	466.38
549.62	468.38
549.833	468.38
550.046	484.38
550.259	476.38
550.473	436.38
550.686	464.38
550.899	454.38
551.112	456.38
551.325	472.38
551.538	478.38
551.751	442.38
551.964	481.38
552.177	460.38
552.39	457.38
552.603	463.38
552.816	462.38
553.029	487.38
553.242	468.38
553.455	469.38
553.667	503.38
553.88	485.38
554.093	476.38
554.306	487.38
554.519	460.38
554.732	455.38
554.944	454.38
555.157	445.38
555.37	452.38
555.583	433.38
555.795	455.38
556.008	426.38
556.221	417.38
556.433	415.38
556.646	440.38
556.859	425.38
557.071	441.38
557.284	408.38
557.496	435.38
557.709	413.38
557.921	425.38
558.134	418.38
558.346	407.38
558.559	396.38
558.771	414.38
558.984	410.38
559.196	435.38
559.409	411.38
559.621	411.38
559.833	413.38
560.046	425.38
560.258	415.38
560.47	421.38
560.683	409.38
560.895	412.38
561.107	395.38
561.32	409.38
561.532	418.38
561.744	424.38
561.956	434.38
562.168	421.38
562.381	405.38
562.593	417.38
562.805	411.38
563.017	403.38
563.229	409.38
563.441	415.38
563.653	413.38
563.865	424.38
564.077	424.38
564.289	434.38
564.501	418.38
564.713	419.38
564.925	442.38
565.137	460.38
565.349	466.38
565.561	437.38
565.773	449.38
565.985	464.38
566.197	494.38
566.408	497.38
566.62	484.38
566.832	528.38
567.044	520.38
567.255	554.38
567.467	536.38
567.679	553.38
567.891	562.38
568.102	577.38
568.314	566.38
568.526	525.38
568.737	498.38
568.949	514.38
569.161	490.38
569.372	457.38
569.584	425.38
569.795	423.38
570.007	427.38
570.218	451.38
570.43	428.38
570.641	390.38
570.853	420.38
571.064	410.38
571.276	404.38
571.487	387.38
571.698	399.38
571.91	387.38
572.121	384.38
572.333	391.38
572.544	360.38
572.755	385.38
572.966	376.38
573.178	368.38
573.389	397.38
573.6	372.38
573.811	348.38
574.023	359.38
574.234	368.38
574.445	366.38
574.656	349.38
574.867	353.38
575.078	360.38
575.289	358.38
575.501	372.38
575.712	368.38
575.923	332.38
576.134	357.38
576.345	366.38
576.556	345.38
576.767	342.38
576.978	348.38
577.188	352.38
577.399	340.38
577.61	363.38
577.821	343.38
578.032	326.38
578.243	374.38
578.454	570.38
578.665	430.38
578.875	347.38
579.086	344.38
579.297	337.38
579.508	335.38
579.718	330.38
579.929	332.38
580.14	326.38
580.35	335.38
580.561	335.38
580.772	316.38
580.982	316.38
581.193	312.38
581.403	301.38
581.614	331.38
581.825	331.38
582.035	337.38
582.246	325.38
582.456	330.38
582.667	323.38
582.877	331.38
583.087	324.38
583.298	338.38
583.508	329.38
583.719	306.38
583.929	320.38
584.139	316.38
584.35	318.38
584.56	315.38
584.77	335.38
584.981	314.38
585.191	317.38
585.401	334.38
585.611	317.38
585.821	313.38
586.032	321.38
586.242	321.38
586.452	318.38
586.662	309.38
586.872	321.38
587.082	308.38
587.292	311.38
587.502	329.38
587.713	314.38
587.923	318.38
588.133	315.38
588.343	308.38
588.553	315.38
588.762	310.38
588.972	318.38
589.182	359.38
589.392	352.38
589.602	315.38
589.812	328.38
590.022	325.38
590.232	310.38
590.441	310.38
590.651	313.38
590.861	317.38
591.071	312.38
591.281	307.38
591.49	328.38
591.7	321.38
591.91	310.38
592.119	312.38
592.329	324.38
592.539	351.38
592.748	347.38
592.958	346.38
593.167	326.38
593.377	331.38
593.587	354.38
593.796	350.38
594.006	350.38
594.215	343.38
594.424	327.38
594.634	340.38
594.843	341.38
595.053	320.38
595.262	340.38
595.472	326.38
595.681	322.38
595.89	307.38
596.1	310.38
596.309	305.38
596.518	306.38
596.727	312.38
596.937	307.38
597.146	293.38
597.355	286.38
597.564	295.38
597.774	276.38
597.983	276.38
598.192	273.38
598.401	279.38
598.61	274.38
598.819	292.38
599.028	273.38
599.237	279.38
599.446	290.38
599.655	274.38
599.864	284.38
600.073	263.38
600.282	298.38
600.491	282.38
600.7	269.38
600.909	284.38
601.118	274.38
601.327	279.38
601.536	271.38
601.745	287.38
601.953	274.38
602.162	262.38
602.371	272.38
602.58	272.38
602.789	278.38
602.997	261.38
603.206	271.38
603.415	266.38
603.623	282.38
603.832	257.38
604.041	268.38
604.249	250.38
604.458	260.38
604.666	243.38
604.875	266.38
605.084	269.38
605.292	251.38
605.501	267.38
605.709	266.38
605.918	258.38
606.126	259.38
606.334	264.38
606.543	240.38
606.751	250.38
606.96	270.38
607.168	248.38
607.376	258.38
607.585	264.38
607.793	252.38
608.001	267.38
608.21	269.38
608.418	254.38
608.626	238.38
608.834	263.38
609.043	262.38
609.251	256.38
609.459	242.38
609.667	255.38
609.875	268.38
610.083	248.38
610.291	230.38
610.499	240.38
610.707	222.38
610.916	252.38
611.124	247.38
611.332	243.38
611.54	261.38
611.748	258.38
611.955	247.38
612.163	256.38
612.371	263.38
612.579	245.38
612.787	261.38
612.995	257.38
613.203	245.38
613.411	246.38
613.618	245.38
613.826	260.38
614.034	240.38
614.242	247.38
614.449	248.38
614.657	256.38
614.865	245.38
615.072	251.38
615.28	238.38
615.488	261.38
615.695	251.38
615.903	238.38
616.111	234.38
616.318	248.38
616.526	252.38
616.733	255.38
616.941	259.38
617.148	263.38
617.356	255.38
617.563	242.38
617.771	254.38
617.978	254.38
618.185	263.38
618.393	222.38
618.6	240.38
618.807	246.38
619.015	240.38
619.222	232.38
619.429	229.38
619.637	240.38
619.844	223.38
620.051	235.38
620.258	229.38
620.466	225.38
620.673	227.38
620.88	218.38
621.087	233.38
621.294	212.38
621.501	232.38
621.708	224.38
621.915	216.38
622.122	228.38
622.329	225.38
622.536	243.38
622.743	227.38
622.95	237.38
623.157	225.38
623.364	230.38
623.571	229.38
623.778	222.38
623.985	229.38
624.192	232.38
624.399	218.38
624.606	201.38
624.812	227.38
625.019	232.38
625.226	230.38
625.433	229.38
625.639	202.38
625.846	217.38
626.053	222.38
626.259	222.38
626.466	202.38
626.673	200.38
626.879	229.38
627.086	216.38
627.293	195.38
627.499	216.38
627.706	204.38
627.912	207.38
628.119	209.38
628.325	218.38
628.532	202.38
628.738	213.38
628.945	202.38
629.151	195.38
629.357	184.38
629.564	190.38
629.77	187.38
629.976	199.38
630.183	211.38
630.389	195.38
630.595	203.38
630.802	214.38
631.008	196.38
631.214	200.38
631.42	193.38
631.627	204.38
631.833	205.38
632.039	190.38
632.245	195.38
632.451	184.38
632.657	189.38
632.863	198.38
633.069	201.38
633.275	206.38
633.481	198.38
633.688	186.38
633.893	191.38
634.099	195.38
634.305	180.38
634.511	175.38
634.717	197.38
634.923	177.38
635.129	186.38
635.335	181.38
635.541	196.38
635.747	177.38
635.952	195.38
636.158	186.38
636.364	188.38
636.57	187.38
636.775	188.38
636.981	181.38
637.187	187.38
637.392	195.38
637.598	191.38
637.804	204.38
638.009	185.38
638.215	192.38
638.421	183.38
638.626	164.38
638.832	178.38
639.037	172.38
639.243	171.38
639.448	162.38
639.654	168.38
639.859	171.38
640.065	175.38
640.27	188.38
640.475	174.38
640.681	194.38
640.886	189.38
641.091	160.38
641.297	180.38
641.502	170.38
641.707	161.38
641.913	186.38
642.118	169.38
642.323	175.38
642.528	178.38
642.733	155.38
642.939	163.38
643.144	172.38
643.349	184.38
643.554	164.38
643.759	167.38
643.964	172.38
644.169	169.38
644.374	163.38
644.579	166.38
644.784	161.38
644.989	164.38
645.194	182.38
645.399	182.38
645.604	170.38
645.809	157.38
646.014	166.38
646.219	176.38
646.423	161.38
646.628	168.38
646.833	174.38
647.038	172.38
647.243	166.38
647.447	164.38
647.652	165.38
647.857	187.38
648.062	184.38
648.266	155.38
648.471	165.38
648.676	169.38
648.88	164.38
649.085	167.38
649.289	169.38
649.494	164.38
649.698	188.38
649.903	172.38
650.107	161.38
650.312	159.38
650.516	160.38
650.721	168.38
650.925	144.38
651.13	162.38
651.334	167.38
651.539	152.38
651.743	151.38
651.947	149.38
652.152	147.38
652.356	136.38
652.56	157.38
652.764	158.38
652.969	155.38
653.173	147.38
653.377	140.38
653.581	139.38
653.785	135.38
653.99	141.38
654.194	139.38
654.398	145.38
654.602	164.38
654.806	138.38
655.01	145.38
655.214	135.38
655.418	144.38
655.622	126.38
655.826	152.38
656.03	140.38
656.234	137.38
656.438	135.38
656.642	139.38
656.846	144.38
657.049	127.38
657.253	144.38
657.457	126.38
657.661	117.38
657.865	126.38
658.068	119.38
658.272	119.38
658.476	124.38
658.68	102.38
658.883	96.38
659.087	91.38
659.291	112.38
659.494	99.38
659.698	94.38
659.901	101.38
660.105	95.38
660.309	106.38
660.512	91.38
660.716	95.38
660.919	99.38
661.123	87.38
661.326	89.38
661.53	80.38
661.733	86.38
661.936	91.38
662.14	98.38
662.343	76.38
662.546	99.38
662.75	79.38
662.953	87.38
663.156	68.38
663.36	70.38
663.563	91.38
663.766	76.38
663.969	80.38
664.173	92.38
664.376	81.38
664.579	75.38
664.782	69.38
664.985	82.38
665.188	86.38
665.391	83.38
665.594	88.38
665.797	90.38
666	89.38
666.203	68.38
666.406	81.38
666.609	85.38
666.812	76.38
667.015	84.38
667.218	70.38
667.421	78.38
667.624	80.38
667.827	82.38
668.03	80.38
668.232	88.38
668.435	82.38
668.638	83.38
668.841	84.38
669.043	86.38
669.246	69.38
669.449	76.38
669.651	78.38
669.854	68.38
670.057	94.38
670.259	71.38
670.462	73.38
670.665	77.38
670.867	90.38
671.07	78.38
671.272	83.38
671.475	83.38
671.677	86.38
671.88	76.38
672.082	82.38
672.284	98.38
672.487	92.38
672.689	83.38
672.892	84.38
