Data from 1979.PennyLincolnUp.Lamp.En5.5.200Scan.071719.P1_HRD10591_16-17-46-863.txt Node
Date: Thu Jul 18 16:17:46 EDT 2019
User: cochatt
Spectrometer: HR+D1059
Trigger mode: 1
Integration Time (sec): 1.000000E-1
Scans to average: 1
Electric dark correction enabled: true
Nonlinearity correction enabled: false
Boxcar width: 0
XAxis mode: Wavelengths
Number of Pixels in Spectrum: 2048
>>>>>Begin Spectral Data<<<<<
223.165	-11.94
223.4	-11.94
223.635	-11.94
223.869	-9.94
224.104	-17.94
224.338	-24.94
224.573	-9.94
224.808	9.06
225.042	-9.94
225.277	0.06
225.511	-1.94
225.746	3.06
225.98	13.06
226.215	-3.94
226.449	9.06
226.683	14.06
226.918	18.06
227.152	24.06
227.387	36.06
227.621	38.06
227.856	37.06
228.09	54.06
228.324	51.06
228.559	47.06
228.793	59.06
229.027	79.06
229.262	91.06
229.496	91.06
229.73	128.06
229.964	131.06
230.199	103.06
230.433	99.06
230.667	99.06
230.901	84.06
231.136	100.06
231.37	103.06
231.604	104.06
231.838	103.06
232.072	102.06
232.306	99.06
232.541	114.06
232.775	105.06
233.009	99.06
233.243	97.06
233.477	98.06
233.711	98.06
233.945	124.06
234.179	95.06
234.413	99.06
234.647	123.06
234.881	108.06
235.115	113.06
235.349	113.06
235.583	101.06
235.817	106.06
236.051	128.06
236.285	108.06
236.519	108.06
236.753	122.06
236.987	127.06
237.221	166.06
237.455	194.06
237.689	137.06
237.922	137.06
238.156	118.06
238.39	106.06
238.624	125.06
238.858	127.06
239.091	113.06
239.325	125.06
239.559	123.06
239.793	118.06
240.027	124.06
240.26	117.06
240.494	130.06
240.728	133.06
240.961	133.06
241.195	132.06
241.429	106.06
241.662	116.06
241.896	117.06
242.13	131.06
242.363	117.06
242.597	134.06
242.83	124.06
243.064	121.06
243.298	133.06
243.531	127.06
243.765	115.06
243.998	120.06
244.232	139.06
244.465	133.06
244.699	148.06
244.932	129.06
245.166	131.06
245.399	132.06
245.633	141.06
245.866	147.06
246.099	139.06
246.333	125.06
246.566	134.06
246.8	141.06
247.033	147.06
247.266	138.06
247.5	147.06
247.733	145.06
247.966	148.06
248.2	152.06
248.433	163.06
248.666	159.06
248.899	161.06
249.133	175.06
249.366	179.06
249.599	180.06
249.832	164.06
250.066	170.06
250.299	134.06
250.532	156.06
250.765	174.06
250.998	167.06
251.231	183.06
251.465	185.06
251.698	165.06
251.931	165.06
252.164	154.06
252.397	171.06
252.63	180.06
252.863	166.06
253.096	185.06
253.329	197.06
253.562	189.06
253.795	205.06
254.028	175.06
254.261	188.06
254.494	182.06
254.727	207.06
254.96	211.06
255.193	213.06
255.426	196.06
255.659	190.06
255.892	192.06
256.124	176.06
256.357	192.06
256.59	202.06
256.823	193.06
257.056	183.06
257.289	186.06
257.521	181.06
257.754	185.06
257.987	179.06
258.22	183.06
258.452	177.06
258.685	185.06
258.918	180.06
259.151	189.06
259.383	179.06
259.616	189.06
259.849	202.06
260.081	177.06
260.314	209.06
260.547	211.06
260.779	209.06
261.012	196.06
261.244	204.06
261.477	196.06
261.71	177.06
261.942	179.06
262.175	195.06
262.407	194.06
262.64	187.06
262.872	180.06
263.105	191.06
263.337	200.06
263.57	181.06
263.802	191.06
264.035	193.06
264.267	183.06
264.499	191.06
264.732	180.06
264.964	189.06
265.197	184.06
265.429	176.06
265.661	181.06
265.894	199.06
266.126	210.06
266.358	191.06
266.591	195.06
266.823	192.06
267.055	202.06
267.287	207.06
267.52	201.06
267.752	205.06
267.984	194.06
268.216	205.06
268.448	188.06
268.681	215.06
268.913	224.06
269.145	229.06
269.377	225.06
269.609	225.06
269.841	219.06
270.073	241.06
270.306	243.06
270.538	257.06
270.77	259.06
271.002	259.06
271.234	223.06
271.466	244.06
271.698	234.06
271.93	250.06
272.162	262.06
272.394	272.06
272.626	248.06
272.858	236.06
273.09	229.06
273.322	216.06
273.553	233.06
273.785	229.06
274.017	232.06
274.249	219.06
274.481	209.06
274.713	217.06
274.945	229.06
275.176	234.06
275.408	228.06
275.64	205.06
275.872	216.06
276.104	215.06
276.335	239.06
276.567	234.06
276.799	239.06
277.031	251.06
277.262	257.06
277.494	247.06
277.726	233.06
277.957	249.06
278.189	254.06
278.421	222.06
278.652	215.06
278.884	240.06
279.115	237.06
279.347	237.06
279.579	244.06
279.81	230.06
280.042	235.06
280.273	235.06
280.505	247.06
280.736	237.06
280.968	236.06
281.199	221.06
281.431	227.06
281.662	245.06
281.894	246.06
282.125	220.06
282.356	251.06
282.588	268.06
282.819	277.06
283.051	242.06
283.282	261.06
283.513	251.06
283.745	248.06
283.976	257.06
284.207	245.06
284.439	249.06
284.67	243.06
284.901	235.06
285.132	235.06
285.364	257.06
285.595	253.06
285.826	256.06
286.057	249.06
286.288	255.06
286.52	248.06
286.751	252.06
286.982	267.06
287.213	257.06
287.444	256.06
287.675	261.06
287.906	247.06
288.138	268.06
288.369	263.06
288.6	267.06
288.831	280.06
289.062	234.06
289.293	273.06
289.524	259.06
289.755	253.06
289.986	260.06
290.217	259.06
290.448	261.06
290.679	266.06
290.91	268.06
291.141	260.06
291.371	271.06
291.602	262.06
291.833	250.06
292.064	269.06
292.295	262.06
292.526	263.06
292.757	271.06
292.987	259.06
293.218	265.06
293.449	276.06
293.68	248.06
293.91	263.06
294.141	260.06
294.372	259.06
294.603	263.06
294.833	259.06
295.064	264.06
295.295	272.06
295.525	255.06
295.756	270.06
295.987	284.06
296.217	287.06
296.448	280.06
296.679	272.06
296.909	270.06
297.14	278.06
297.37	250.06
297.601	266.06
297.831	283.06
298.062	272.06
298.292	274.06
298.523	279.06
298.753	279.06
298.984	273.06
299.214	269.06
299.445	269.06
299.675	294.06
299.905	277.06
300.136	277.06
300.366	275.06
300.597	272.06
300.827	286.06
301.057	290.06
301.288	283.06
301.518	297.06
301.748	292.06
301.979	295.06
302.209	311.06
302.439	292.06
302.669	296.06
302.9	294.06
303.13	287.06
303.36	305.06
303.59	326.06
303.82	313.06
304.051	299.06
304.281	297.06
304.511	275.06
304.741	286.06
304.971	288.06
305.201	295.06
305.431	296.06
305.661	307.06
305.891	294.06
306.121	291.06
306.352	298.06
306.582	288.06
306.812	320.06
307.042	306.06
307.272	297.06
307.502	309.06
307.731	300.06
307.961	304.06
308.191	301.06
308.421	299.06
308.651	294.06
308.881	302.06
309.111	296.06
309.341	307.06
309.571	303.06
309.8	308.06
310.03	317.06
310.26	332.06
310.49	323.06
310.72	347.06
310.949	323.06
311.179	321.06
311.409	316.06
311.639	304.06
311.868	304.06
312.098	324.06
312.328	319.06
312.557	313.06
312.787	361.06
313.017	354.06
313.246	330.06
313.476	307.06
313.706	347.06
313.935	329.06
314.165	339.06
314.394	348.06
314.624	335.06
314.853	351.06
315.083	329.06
315.312	331.06
315.542	330.06
315.771	312.06
316.001	320.06
316.23	330.06
316.46	309.06
316.689	335.06
316.919	327.06
317.148	338.06
317.377	346.06
317.607	347.06
317.836	316.06
318.065	336.06
318.295	344.06
318.524	331.06
318.753	327.06
318.983	343.06
319.212	324.06
319.441	334.06
319.67	336.06
319.9	333.06
320.129	324.06
320.358	317.06
320.587	335.06
320.816	344.06
321.046	347.06
321.275	355.06
321.504	325.06
321.733	325.06
321.962	343.06
322.191	347.06
322.42	362.06
322.649	354.06
322.878	388.06
323.108	370.06
323.337	394.06
323.566	406.06
323.795	421.06
324.024	428.06
324.253	510.06
324.482	699.06
324.71	1057.06
324.939	1556.06
325.168	1327.06
325.397	663.06
325.626	490.06
325.855	429.06
326.084	420.06
326.313	410.06
326.542	416.06
326.77	439.06
326.999	504.06
327.228	645.06
327.457	991.06
327.686	1177.06
327.914	769.06
328.143	527.06
328.372	471.06
328.6	449.06
328.829	431.06
329.058	449.06
329.287	443.06
329.515	420.06
329.744	391.06
329.972	426.06
330.201	423.06
330.43	433.06
330.658	456.06
330.887	484.06
331.115	454.06
331.344	411.06
331.572	405.06
331.801	416.06
332.03	435.06
332.258	407.06
332.486	398.06
332.715	400.06
332.943	395.06
333.172	406.06
333.4	424.06
333.629	423.06
333.857	440.06
334.085	458.06
334.314	426.06
334.542	462.06
334.771	463.06
334.999	447.06
335.227	421.06
335.455	421.06
335.684	418.06
335.912	431.06
336.14	409.06
336.369	394.06
336.597	425.06
336.825	409.06
337.053	393.06
337.281	401.06
337.51	413.06
337.738	396.06
337.966	383.06
338.194	401.06
338.422	391.06
338.65	392.06
338.878	403.06
339.106	382.06
339.334	397.06
339.562	410.06
339.79	389.06
340.018	378.06
340.246	375.06
340.474	405.06
340.702	380.06
340.93	387.06
341.158	383.06
341.386	399.06
341.614	372.06
341.842	375.06
342.07	383.06
342.298	378.06
342.526	374.06
342.754	367.06
342.981	379.06
343.209	375.06
343.437	413.06
343.665	402.06
343.893	397.06
344.12	418.06
344.348	409.06
344.576	387.06
344.804	393.06
345.031	404.06
345.259	379.06
345.487	395.06
345.714	393.06
345.942	391.06
346.17	396.06
346.397	377.06
346.625	389.06
346.853	375.06
347.08	356.06
347.308	385.06
347.535	400.06
347.763	365.06
347.99	383.06
348.218	375.06
348.445	369.06
348.673	382.06
348.9	369.06
349.128	376.06
349.355	359.06
349.583	340.06
349.81	378.06
350.037	352.06
350.265	363.06
350.492	356.06
350.72	352.06
350.947	359.06
351.174	355.06
351.402	361.06
351.629	374.06
351.856	359.06
352.083	363.06
352.311	383.06
352.538	372.06
352.765	385.06
352.992	386.06
353.22	374.06
353.447	363.06
353.674	359.06
353.901	368.06
354.128	361.06
354.355	364.06
354.583	346.06
354.81	361.06
355.037	363.06
355.264	363.06
355.491	362.06
355.718	373.06
355.945	362.06
356.172	355.06
356.399	362.06
356.626	367.06
356.853	394.06
357.08	348.06
357.307	368.06
357.534	379.06
357.761	351.06
357.988	360.06
358.215	358.06
358.441	361.06
358.668	372.06
358.895	373.06
359.122	372.06
359.349	384.06
359.576	372.06
359.802	414.06
360.029	396.06
360.256	401.06
360.483	401.06
360.709	378.06
360.936	400.06
361.163	364.06
361.39	375.06
361.616	375.06
361.843	371.06
362.07	354.06
362.296	368.06
362.523	369.06
362.749	377.06
362.976	379.06
363.203	379.06
363.429	363.06
363.656	371.06
363.882	358.06
364.109	355.06
364.335	373.06
364.562	377.06
364.788	360.06
365.015	362.06
365.241	348.06
365.468	359.06
365.694	377.06
365.92	377.06
366.147	351.06
366.373	367.06
366.599	379.06
366.826	370.06
367.052	368.06
367.278	378.06
367.505	372.06
367.731	368.06
367.957	372.06
368.184	368.06
368.41	372.06
368.636	381.06
368.862	354.06
369.089	371.06
369.315	383.06
369.541	375.06
369.767	364.06
369.993	368.06
370.219	365.06
370.445	377.06
370.672	383.06
370.898	376.06
371.124	371.06
371.35	373.06
371.576	376.06
371.802	394.06
372.028	400.06
372.254	402.06
372.48	383.06
372.706	394.06
372.932	384.06
373.158	383.06
373.384	377.06
373.61	378.06
373.835	393.06
374.061	374.06
374.287	377.06
374.513	402.06
374.739	398.06
374.965	406.06
375.191	397.06
375.416	411.06
375.642	380.06
375.868	389.06
376.094	387.06
376.319	376.06
376.545	392.06
376.771	389.06
376.997	393.06
377.222	388.06
377.448	388.06
377.674	385.06
377.899	368.06
378.125	386.06
378.35	402.06
378.576	391.06
378.802	389.06
379.027	384.06
379.253	380.06
379.478	379.06
379.704	392.06
379.929	368.06
380.155	379.06
380.38	382.06
380.606	363.06
380.831	375.06
381.057	393.06
381.282	393.06
381.507	380.06
381.733	404.06
381.958	392.06
382.184	394.06
382.409	397.06
382.634	395.06
382.86	387.06
383.085	403.06
383.31	398.06
383.535	400.06
383.761	405.06
383.986	419.06
384.211	404.06
384.436	422.06
384.662	432.06
384.887	439.06
385.112	428.06
385.337	443.06
385.562	411.06
385.787	417.06
386.013	442.06
386.238	440.06
386.463	437.06
386.688	428.06
386.913	432.06
387.138	423.06
387.363	428.06
387.588	433.06
387.813	431.06
388.038	429.06
388.263	415.06
388.488	432.06
388.713	438.06
388.938	449.06
389.163	445.06
389.387	428.06
389.612	419.06
389.837	421.06
390.062	421.06
390.287	417.06
390.512	439.06
390.736	431.06
390.961	412.06
391.186	437.06
391.411	446.06
391.636	439.06
391.86	444.06
392.085	464.06
392.31	458.06
392.534	457.06
392.759	454.06
392.984	453.06
393.208	452.06
393.433	471.06
393.658	472.06
393.882	456.06
394.107	445.06
394.331	434.06
394.556	434.06
394.78	471.06
395.005	443.06
395.229	451.06
395.454	448.06
395.678	461.06
395.903	471.06
396.127	470.06
396.352	499.06
396.576	457.06
396.801	459.06
397.025	486.06
397.249	443.06
397.474	465.06
397.698	483.06
397.922	484.06
398.147	488.06
398.371	529.06
398.595	507.06
398.82	504.06
399.044	514.06
399.268	539.06
399.492	589.06
399.717	621.06
399.941	605.06
400.165	634.06
400.389	625.06
400.613	578.06
400.837	532.06
401.062	519.06
401.286	505.06
401.51	519.06
401.734	508.06
401.958	529.06
402.182	526.06
402.406	539.06
402.63	503.06
402.854	531.06
403.078	501.06
403.302	540.06
403.526	537.06
403.75	531.06
403.974	535.06
404.198	521.06
404.422	533.06
404.645	525.06
404.869	537.06
405.093	590.06
405.317	606.06
405.541	617.06
405.765	591.06
405.988	553.06
406.212	580.06
406.436	557.06
406.66	567.06
406.883	575.06
407.107	580.06
407.331	628.06
407.555	695.06
407.778	689.06
408.002	636.06
408.226	613.06
408.449	593.06
408.673	592.06
408.896	603.06
409.12	633.06
409.344	607.06
409.567	586.06
409.791	562.06
410.014	554.06
410.238	541.06
410.461	548.06
410.685	524.06
410.908	557.06
411.132	586.06
411.355	593.06
411.578	572.06
411.802	543.06
412.025	539.06
412.249	538.06
412.472	576.06
412.695	579.06
412.919	589.06
413.142	536.06
413.365	520.06
413.589	510.06
413.812	500.06
414.035	520.06
414.258	513.06
414.482	509.06
414.705	519.06
414.928	498.06
415.151	518.06
415.374	500.06
415.597	509.06
415.821	499.06
416.044	502.06
416.267	490.06
416.49	505.06
416.713	496.06
416.936	542.06
417.159	503.06
417.382	506.06
417.605	508.06
417.828	512.06
418.051	530.06
418.274	521.06
418.497	509.06
418.72	514.06
418.943	536.06
419.166	518.06
419.389	566.06
419.611	546.06
419.834	538.06
420.057	525.06
420.28	511.06
420.503	525.06
420.726	519.06
420.948	543.06
421.171	550.06
421.394	617.06
421.617	546.06
421.839	540.06
422.062	512.06
422.285	527.06
422.507	563.06
422.73	642.06
422.953	631.06
423.175	556.06
423.398	552.06
423.621	532.06
423.843	569.06
424.066	572.06
424.288	565.06
424.511	589.06
424.733	611.06
424.956	674.06
425.178	628.06
425.401	627.06
425.623	650.06
425.846	579.06
426.068	547.06
426.291	543.06
426.513	547.06
426.735	533.06
426.958	601.06
427.18	637.06
427.402	741.06
427.625	827.06
427.847	711.06
428.069	620.06
428.292	548.06
428.514	524.06
428.736	514.06
428.958	520.06
429.181	499.06
429.403	494.06
429.625	494.06
429.847	534.06
430.069	583.06
430.292	593.06
430.514	509.06
430.736	523.06
430.958	505.06
431.18	500.06
431.402	505.06
431.624	493.06
431.846	479.06
432.068	486.06
432.29	520.06
432.512	485.06
432.734	487.06
432.956	482.06
433.178	490.06
433.4	500.06
433.622	513.06
433.844	497.06
434.066	477.06
434.287	485.06
434.509	502.06
434.731	536.06
434.953	539.06
435.175	526.06
435.397	541.06
435.618	565.06
435.84	555.06
436.062	635.06
436.284	706.06
436.505	611.06
436.727	569.06
436.949	531.06
437.17	514.06
437.392	490.06
437.614	543.06
437.835	548.06
438.057	602.06
438.278	697.06
438.5	682.06
438.721	758.06
438.943	753.06
439.165	611.06
439.386	556.06
439.608	539.06
439.829	529.06
440.05	547.06
440.272	599.06
440.493	568.06
440.715	547.06
440.936	531.06
441.158	522.06
441.379	515.06
441.6	524.06
441.822	543.06
442.043	563.06
442.264	646.06
442.486	689.06
442.707	570.06
442.928	543.06
443.149	559.06
443.371	573.06
443.592	591.06
443.813	668.06
444.034	731.06
444.255	635.06
444.476	580.06
444.698	551.06
444.919	594.06
445.14	729.06
445.361	631.06
445.582	567.06
445.803	610.06
446.024	707.06
446.245	715.06
446.466	654.06
446.687	574.06
446.908	539.06
447.129	513.06
447.35	509.06
447.571	505.06
447.792	490.06
448.013	500.06
448.234	493.06
448.455	546.06
448.675	631.06
448.896	726.06
449.117	625.06
449.338	601.06
449.559	685.06
449.779	758.06
450	636.06
450.221	527.06
450.442	489.06
450.662	466.06
450.883	474.06
451.104	496.06
451.324	488.06
451.545	478.06
451.766	454.06
451.986	457.06
452.207	456.06
452.428	453.06
452.648	456.06
452.869	455.06
453.089	470.06
453.31	457.06
453.53	450.06
453.751	463.06
453.971	453.06
454.192	474.06
454.412	458.06
454.633	451.06
454.853	452.06
455.073	439.06
455.294	467.06
455.514	523.06
455.734	524.06
455.955	452.06
456.175	443.06
456.395	424.06
456.616	431.06
456.836	424.06
457.056	418.06
457.276	430.06
457.497	434.06
457.717	436.06
457.937	453.06
458.157	442.06
458.377	459.06
458.598	457.06
458.818	508.06
459.038	547.06
459.258	581.06
459.478	515.06
459.698	498.06
459.918	468.06
460.138	513.06
460.358	513.06
460.578	500.06
460.798	519.06
461.018	529.06
461.238	508.06
461.458	532.06
461.678	501.06
461.898	540.06
462.118	516.06
462.338	536.06
462.558	579.06
462.777	546.06
462.997	570.06
463.217	589.06
463.437	610.06
463.657	556.06
463.876	560.06
464.096	559.06
464.316	559.06
464.536	555.06
464.755	552.06
464.975	564.06
465.195	592.06
465.414	609.06
465.634	549.06
465.854	529.06
466.073	512.06
466.293	478.06
466.512	464.06
466.732	475.06
466.951	471.06
467.171	488.06
467.391	479.06
467.61	471.06
467.829	497.06
468.049	496.06
468.268	470.06
468.488	476.06
468.707	472.06
468.927	463.06
469.146	487.06
469.365	474.06
469.585	465.06
469.804	464.06
470.023	465.06
470.243	501.06
470.462	466.06
470.681	514.06
470.901	489.06
471.12	478.06
471.339	489.06
471.558	473.06
471.777	491.06
471.997	472.06
472.216	487.06
472.435	504.06
472.654	482.06
472.873	477.06
473.092	453.06
473.311	499.06
473.53	497.06
473.749	471.06
473.968	525.06
474.187	575.06
474.406	601.06
474.625	521.06
474.844	501.06
475.063	492.06
475.282	479.06
475.501	488.06
475.72	502.06
475.939	512.06
476.158	507.06
476.377	463.06
476.596	484.06
476.814	491.06
477.033	529.06
477.252	515.06
477.471	519.06
477.69	518.06
477.908	534.06
478.127	515.06
478.346	538.06
478.564	543.06
478.783	543.06
479.002	556.06
479.22	561.06
479.439	580.06
479.658	576.06
479.876	583.06
480.095	607.06
480.313	589.06
480.532	592.06
480.751	597.06
480.969	623.06
481.188	600.06
481.406	647.06
481.624	589.06
481.843	570.06
482.061	563.06
482.28	564.06
482.498	555.06
482.717	561.06
482.935	556.06
483.153	563.06
483.372	551.06
483.59	565.06
483.808	563.06
484.027	560.06
484.245	565.06
484.463	566.06
484.681	570.06
484.9	599.06
485.118	585.06
485.336	546.06
485.554	601.06
485.772	581.06
485.99	596.06
486.209	580.06
486.427	582.06
486.645	610.06
486.863	589.06
487.081	600.06
487.299	614.06
487.517	624.06
487.735	589.06
487.953	571.06
488.171	595.06
488.389	610.06
488.607	593.06
488.825	588.06
489.043	593.06
489.261	611.06
489.479	593.06
489.696	590.06
489.914	600.06
490.132	598.06
490.35	595.06
490.568	606.06
490.786	613.06
491.003	623.06
491.221	649.06
491.439	652.06
491.657	647.06
491.874	681.06
492.092	661.06
492.31	673.06
492.527	666.06
492.745	679.06
492.963	683.06
493.18	682.06
493.398	695.06
493.615	710.06
493.833	678.06
494.05	676.06
494.268	697.06
494.485	667.06
494.703	679.06
494.92	678.06
495.138	673.06
495.355	705.06
495.573	683.06
495.79	705.06
496.008	711.06
496.225	697.06
496.442	730.06
496.66	707.06
496.877	693.06
497.094	723.06
497.312	730.06
497.529	749.06
497.746	753.06
497.963	763.06
498.181	755.06
498.398	778.06
498.615	785.06
498.832	853.06
499.049	842.06
499.267	899.06
499.484	935.06
499.701	972.06
499.918	1047.06
500.135	1085.06
500.352	1137.06
500.569	1150.06
500.786	1152.06
501.003	1101.06
501.22	1073.06
501.437	1012.06
501.654	992.06
501.871	951.06
502.088	916.06
502.305	879.06
502.522	857.06
502.739	800.06
502.956	784.06
503.172	765.06
503.389	761.06
503.606	755.06
503.823	760.06
504.04	733.06
504.256	725.06
504.473	722.06
504.69	731.06
504.907	744.06
505.123	711.06
505.34	694.06
505.557	689.06
505.773	673.06
505.99	684.06
506.207	689.06
506.423	676.06
506.64	651.06
506.856	647.06
507.073	638.06
507.289	621.06
507.506	669.06
507.722	630.06
507.939	655.06
508.155	640.06
508.372	615.06
508.588	620.06
508.805	617.06
509.021	610.06
509.238	633.06
509.454	598.06
509.67	633.06
509.887	611.06
510.103	623.06
510.319	611.06
510.536	671.06
510.752	993.06
510.968	841.06
511.184	636.06
511.401	600.06
511.617	588.06
511.833	585.06
512.049	588.06
512.265	604.06
512.481	580.06
512.698	570.06
512.914	576.06
513.13	575.06
513.346	555.06
513.562	565.06
513.778	591.06
513.994	576.06
514.21	602.06
514.426	617.06
514.642	629.06
514.858	647.06
515.074	662.06
515.29	716.06
515.506	983.06
515.721	897.06
515.937	679.06
516.153	659.06
516.369	637.06
516.585	623.06
516.801	633.06
517.016	634.06
517.232	658.06
517.448	663.06
517.664	648.06
517.879	675.06
518.095	659.06
518.311	646.06
518.527	654.06
518.742	642.06
518.958	621.06
519.173	603.06
519.389	615.06
519.605	598.06
519.82	597.06
520.036	610.06
520.251	618.06
520.467	626.06
520.682	620.06
520.898	601.06
521.113	599.06
521.329	632.06
521.544	687.06
521.76	793.06
521.975	1145.06
522.19	1209.06
522.406	732.06
522.621	625.06
522.836	592.06
523.052	557.06
523.267	551.06
523.482	525.06
523.698	554.06
523.913	545.06
524.128	530.06
524.343	529.06
524.559	524.06
524.774	538.06
524.989	535.06
525.204	544.06
525.419	544.06
525.634	525.06
525.849	537.06
526.064	526.06
526.28	501.06
526.495	508.06
526.71	520.06
526.925	493.06
527.14	502.06
527.355	506.06
527.57	480.06
527.785	494.06
527.999	500.06
528.214	494.06
528.429	487.06
528.644	485.06
528.859	500.06
529.074	498.06
529.289	509.06
529.503	562.06
529.718	539.06
529.933	509.06
530.148	484.06
530.363	501.06
530.577	490.06
530.792	491.06
531.007	454.06
531.221	488.06
531.436	484.06
531.651	513.06
531.865	498.06
532.08	501.06
532.295	503.06
532.509	461.06
532.724	495.06
532.938	471.06
533.153	482.06
533.367	489.06
533.582	493.06
533.796	494.06
534.011	455.06
534.225	495.06
534.44	496.06
534.654	470.06
534.868	479.06
535.083	471.06
535.297	484.06
535.511	484.06
535.726	492.06
535.94	483.06
536.154	480.06
536.369	456.06
536.583	478.06
536.797	480.06
537.011	464.06
537.225	482.06
537.44	461.06
537.654	476.06
537.868	468.06
538.082	453.06
538.296	443.06
538.51	495.06
538.724	452.06
538.938	469.06
539.153	499.06
539.367	462.06
539.581	465.06
539.795	462.06
540.009	476.06
540.222	471.06
540.436	464.06
540.65	473.06
540.864	466.06
541.078	462.06
541.292	466.06
541.506	455.06
541.72	483.06
541.934	442.06
542.147	473.06
542.361	452.06
542.575	455.06
542.789	456.06
543.002	440.06
543.216	459.06
543.43	459.06
543.644	449.06
543.857	478.06
544.071	460.06
544.285	462.06
544.498	452.06
544.712	457.06
544.925	465.06
545.139	479.06
545.352	450.06
545.566	452.06
545.779	448.06
545.993	479.06
546.206	457.06
546.42	476.06
546.633	460.06
546.847	468.06
547.06	442.06
547.274	449.06
547.487	463.06
547.7	446.06
547.914	448.06
548.127	474.06
548.34	447.06
548.554	436.06
548.767	436.06
548.98	453.06
549.193	472.06
549.407	443.06
549.62	449.06
549.833	475.06
550.046	460.06
550.259	461.06
550.473	451.06
550.686	429.06
550.899	450.06
551.112	461.06
551.325	448.06
551.538	440.06
551.751	442.06
551.964	442.06
552.177	460.06
552.39	459.06
552.603	456.06
552.816	470.06
553.029	464.06
553.242	463.06
553.455	460.06
553.667	472.06
553.88	484.06
554.093	456.06
554.306	466.06
554.519	453.06
554.732	453.06
554.944	439.06
555.157	429.06
555.37	425.06
555.583	444.06
555.795	437.06
556.008	429.06
556.221	421.06
556.433	439.06
556.646	417.06
556.859	413.06
557.071	414.06
557.284	426.06
557.496	432.06
557.709	423.06
557.921	411.06
558.134	418.06
558.346	404.06
558.559	394.06
558.771	385.06
558.984	387.06
559.196	386.06
559.409	420.06
559.621	409.06
559.833	391.06
560.046	392.06
560.258	408.06
560.47	402.06
560.683	394.06
560.895	408.06
561.107	401.06
561.32	406.06
561.532	410.06
561.744	415.06
561.956	408.06
562.168	402.06
562.381	415.06
562.593	410.06
562.805	417.06
563.017	399.06
563.229	406.06
563.441	420.06
563.653	403.06
563.865	435.06
564.077	412.06
564.289	418.06
564.501	422.06
564.713	417.06
564.925	427.06
565.137	452.06
565.349	428.06
565.561	456.06
565.773	455.06
565.985	466.06
566.197	473.06
566.408	458.06
566.62	503.06
566.832	535.06
567.044	540.06
567.255	521.06
567.467	524.06
567.679	526.06
567.891	535.06
568.102	552.06
568.314	529.06
568.526	509.06
568.737	502.06
568.949	493.06
569.161	471.06
569.372	453.06
569.584	437.06
569.795	437.06
570.007	437.06
570.218	427.06
570.43	442.06
570.641	411.06
570.853	397.06
571.064	401.06
571.276	378.06
571.487	403.06
571.698	384.06
571.91	386.06
572.121	387.06
572.333	362.06
572.544	372.06
572.755	369.06
572.966	376.06
573.178	368.06
573.389	356.06
573.6	356.06
573.811	362.06
574.023	353.06
574.234	341.06
574.445	347.06
574.656	350.06
574.867	360.06
575.078	344.06
575.289	350.06
575.501	351.06
575.712	343.06
575.923	353.06
576.134	348.06
576.345	350.06
576.556	349.06
576.767	337.06
576.978	347.06
577.188	340.06
577.399	337.06
577.61	332.06
577.821	319.06
578.032	333.06
578.243	361.06
578.454	479.06
578.665	398.06
578.875	352.06
579.086	338.06
579.297	330.06
579.508	324.06
579.718	326.06
579.929	315.06
580.14	330.06
580.35	324.06
580.561	323.06
580.772	327.06
580.982	311.06
581.193	309.06
581.403	319.06
581.614	316.06
581.825	295.06
582.035	339.06
582.246	305.06
582.456	317.06
582.667	327.06
582.877	323.06
583.087	306.06
583.298	320.06
583.508	332.06
583.719	299.06
583.929	310.06
584.139	308.06
584.35	326.06
584.56	319.06
584.77	293.06
584.981	306.06
585.191	301.06
585.401	315.06
585.611	298.06
585.821	305.06
586.032	313.06
586.242	298.06
586.452	314.06
586.662	306.06
586.872	300.06
587.082	312.06
587.292	297.06
587.502	312.06
587.713	307.06
587.923	315.06
588.133	297.06
588.343	304.06
588.553	297.06
588.762	315.06
588.972	317.06
589.182	365.06
589.392	354.06
589.602	319.06
589.812	362.06
590.022	331.06
590.232	295.06
590.441	306.06
590.651	294.06
590.861	298.06
591.071	320.06
591.281	323.06
591.49	316.06
591.7	300.06
591.91	314.06
592.119	308.06
592.329	311.06
592.539	331.06
592.748	333.06
592.958	325.06
593.167	322.06
593.377	344.06
593.587	352.06
593.796	326.06
594.006	352.06
594.215	333.06
594.424	344.06
594.634	336.06
594.843	327.06
595.053	311.06
595.262	292.06
595.472	305.06
595.681	296.06
595.89	299.06
596.1	309.06
596.309	307.06
596.518	300.06
596.727	289.06
596.937	313.06
597.146	276.06
597.355	295.06
597.564	280.06
597.774	293.06
597.983	285.06
598.192	277.06
598.401	289.06
598.61	281.06
598.819	290.06
599.028	251.06
599.237	275.06
599.446	292.06
599.655	287.06
599.864	284.06
600.073	266.06
600.282	259.06
600.491	258.06
600.7	247.06
600.909	253.06
601.118	262.06
601.327	268.06
601.536	271.06
601.745	273.06
601.953	273.06
602.162	252.06
602.371	259.06
602.58	273.06
602.789	244.06
602.997	246.06
603.206	264.06
603.415	261.06
603.623	250.06
603.832	226.06
604.041	252.06
604.249	244.06
604.458	268.06
604.666	245.06
604.875	255.06
605.084	242.06
605.292	265.06
605.501	258.06
605.709	260.06
605.918	257.06
606.126	247.06
606.334	240.06
606.543	235.06
606.751	239.06
606.96	247.06
607.168	261.06
607.376	249.06
607.585	240.06
607.793	250.06
608.001	243.06
608.21	256.06
608.418	247.06
608.626	227.06
608.834	243.06
609.043	253.06
609.251	230.06
609.459	233.06
609.667	231.06
609.875	241.06
610.083	237.06
610.291	252.06
610.499	229.06
610.707	252.06
610.916	250.06
611.124	237.06
611.332	261.06
611.54	253.06
611.748	272.06
611.955	246.06
612.163	249.06
612.371	245.06
612.579	249.06
612.787	258.06
612.995	249.06
613.203	236.06
613.411	243.06
613.618	241.06
613.826	248.06
614.034	239.06
614.242	257.06
614.449	241.06
614.657	240.06
614.865	242.06
615.072	248.06
615.28	242.06
615.488	238.06
615.695	239.06
615.903	233.06
616.111	244.06
616.318	248.06
616.526	260.06
616.733	261.06
616.941	247.06
617.148	238.06
617.356	228.06
617.563	245.06
617.771	241.06
617.978	237.06
618.185	226.06
618.393	236.06
618.6	233.06
618.807	233.06
619.015	245.06
619.222	231.06
619.429	236.06
619.637	232.06
619.844	231.06
620.051	228.06
620.258	224.06
620.466	208.06
620.673	228.06
620.88	231.06
621.087	217.06
621.294	237.06
621.501	219.06
621.708	223.06
621.915	234.06
622.122	229.06
622.329	241.06
622.536	245.06
622.743	209.06
622.95	198.06
623.157	215.06
623.364	239.06
623.571	235.06
623.778	223.06
623.985	230.06
624.192	223.06
624.399	226.06
624.606	223.06
624.812	228.06
625.019	215.06
625.226	215.06
625.433	212.06
625.639	222.06
625.846	207.06
626.053	201.06
626.259	226.06
626.466	218.06
626.673	219.06
626.879	220.06
627.086	220.06
627.293	197.06
627.499	194.06
627.706	202.06
627.912	211.06
628.119	207.06
628.325	210.06
628.532	233.06
628.738	201.06
628.945	197.06
629.151	195.06
629.357	191.06
629.564	209.06
629.77	200.06
629.976	204.06
630.183	212.06
630.389	207.06
630.595	213.06
630.802	176.06
631.008	185.06
631.214	211.06
631.42	184.06
631.627	187.06
631.833	215.06
632.039	199.06
632.245	192.06
632.451	197.06
632.657	189.06
632.863	191.06
633.069	195.06
633.275	195.06
633.481	180.06
633.688	197.06
633.893	204.06
634.099	187.06
634.305	193.06
634.511	185.06
634.717	184.06
634.923	175.06
635.129	180.06
635.335	169.06
635.541	193.06
635.747	181.06
635.952	164.06
636.158	198.06
636.364	177.06
636.57	192.06
636.775	205.06
636.981	201.06
637.187	163.06
637.392	189.06
637.598	174.06
637.804	169.06
638.009	195.06
638.215	194.06
638.421	185.06
638.626	195.06
638.832	192.06
639.037	184.06
639.243	172.06
639.448	176.06
639.654	188.06
639.859	167.06
640.065	163.06
640.27	188.06
640.475	188.06
640.681	176.06
640.886	177.06
641.091	190.06
641.297	183.06
641.502	163.06
641.707	163.06
641.913	172.06
642.118	189.06
642.323	187.06
642.528	171.06
642.733	173.06
642.939	169.06
643.144	179.06
643.349	173.06
643.554	165.06
643.759	176.06
643.964	165.06
644.169	178.06
644.374	167.06
644.579	168.06
644.784	166.06
644.989	173.06
645.194	173.06
645.399	166.06
645.604	168.06
645.809	167.06
646.014	169.06
646.219	167.06
646.423	161.06
646.628	173.06
646.833	182.06
647.038	151.06
647.243	155.06
647.447	183.06
647.652	183.06
647.857	167.06
648.062	172.06
648.266	182.06
648.471	160.06
648.676	171.06
648.88	184.06
649.085	175.06
649.289	167.06
649.494	183.06
649.698	182.06
649.903	188.06
650.107	186.06
650.312	171.06
650.516	177.06
650.721	150.06
650.925	157.06
651.13	157.06
651.334	170.06
651.539	151.06
651.743	163.06
651.947	151.06
652.152	148.06
652.356	132.06
652.56	148.06
652.764	144.06
652.969	134.06
653.173	148.06
653.377	137.06
653.581	135.06
653.785	141.06
653.99	143.06
654.194	149.06
654.398	146.06
654.602	148.06
654.806	147.06
655.01	151.06
655.214	146.06
655.418	131.06
655.622	145.06
655.826	148.06
656.03	136.06
656.234	133.06
656.438	143.06
656.642	149.06
656.846	150.06
657.049	123.06
657.253	127.06
657.457	136.06
657.661	126.06
657.865	120.06
658.068	118.06
658.272	111.06
658.476	111.06
658.68	104.06
658.883	98.06
659.087	89.06
659.291	95.06
659.494	94.06
659.698	93.06
659.901	101.06
660.105	98.06
660.309	86.06
660.512	100.06
660.716	91.06
660.919	82.06
661.123	83.06
661.326	105.06
661.53	90.06
661.733	95.06
661.936	92.06
662.14	85.06
662.343	90.06
662.546	86.06
662.75	96.06
662.953	89.06
663.156	70.06
663.36	72.06
663.563	84.06
663.766	86.06
663.969	76.06
664.173	87.06
664.376	85.06
664.579	73.06
664.782	82.06
664.985	77.06
665.188	83.06
665.391	69.06
665.594	81.06
665.797	86.06
666	86.06
666.203	67.06
666.406	73.06
666.609	76.06
666.812	94.06
667.015	75.06
667.218	96.06
667.421	77.06
667.624	80.06
667.827	96.06
668.03	84.06
668.232	83.06
668.435	88.06
668.638	94.06
668.841	91.06
669.043	88.06
669.246	89.06
669.449	80.06
669.651	74.06
669.854	72.06
670.057	89.06
670.259	76.06
670.462	82.06
670.665	77.06
670.867	74.06
671.07	80.06
671.272	86.06
671.475	85.06
671.677	71.06
671.88	77.06
672.082	93.06
672.284	73.06
672.487	88.06
672.689	87.06
672.892	80.06
