Data from 1979.PennyLincolnUp.Lamp.En5.5.200Scan.071719.P1_HRD10591_16-19-08-863.txt Node
Date: Thu Jul 18 16:19:08 EDT 2019
User: cochatt
Spectrometer: HR+D1059
Trigger mode: 1
Integration Time (sec): 1.000000E-1
Scans to average: 1
Electric dark correction enabled: true
Nonlinearity correction enabled: false
Boxcar width: 0
XAxis mode: Wavelengths
Number of Pixels in Spectrum: 2048
>>>>>Begin Spectral Data<<<<<
223.165	-15.25
223.4	-15.25
223.635	-15.25
223.869	-23.25
224.104	-9.25
224.338	-16.25
224.573	-9.25
224.808	-19.25
225.042	-8.25
225.277	-1.25
225.511	-4.25
225.746	2.75
225.98	6.75
226.215	7.75
226.449	20.75
226.683	10.75
226.918	25.75
227.152	31.75
227.387	24.75
227.621	35.75
227.856	44.75
228.09	44.75
228.324	62.75
228.559	61.75
228.793	59.75
229.027	90.75
229.262	110.75
229.496	94.75
229.73	125.75
229.964	145.75
230.199	119.75
230.433	114.75
230.667	100.75
230.901	126.75
231.136	108.75
231.37	108.75
231.604	111.75
231.838	91.75
232.072	106.75
232.306	107.75
232.541	115.75
232.775	120.75
233.009	106.75
233.243	122.75
233.477	131.75
233.711	128.75
233.945	117.75
234.179	122.75
234.413	124.75
234.647	120.75
234.881	102.75
235.115	116.75
235.349	120.75
235.583	115.75
235.817	111.75
236.051	113.75
236.285	134.75
236.519	121.75
236.753	136.75
236.987	135.75
237.221	172.75
237.455	207.75
237.689	170.75
237.922	141.75
238.156	120.75
238.39	124.75
238.624	126.75
238.858	115.75
239.091	123.75
239.325	121.75
239.559	135.75
239.793	131.75
240.027	130.75
240.26	137.75
240.494	158.75
240.728	130.75
240.961	152.75
241.195	138.75
241.429	127.75
241.662	114.75
241.896	128.75
242.13	127.75
242.363	124.75
242.597	140.75
242.83	136.75
243.064	137.75
243.298	143.75
243.531	144.75
243.765	147.75
243.998	127.75
244.232	137.75
244.465	137.75
244.699	147.75
244.932	132.75
245.166	149.75
245.399	143.75
245.633	147.75
245.866	145.75
246.099	156.75
246.333	140.75
246.566	139.75
246.8	151.75
247.033	144.75
247.266	152.75
247.5	161.75
247.733	154.75
247.966	167.75
248.2	163.75
248.433	170.75
248.666	169.75
248.899	169.75
249.133	205.75
249.366	195.75
249.599	187.75
249.832	187.75
250.066	179.75
250.299	172.75
250.532	179.75
250.765	200.75
250.998	202.75
251.231	203.75
251.465	199.75
251.698	187.75
251.931	176.75
252.164	202.75
252.397	184.75
252.63	190.75
252.863	194.75
253.096	190.75
253.329	204.75
253.562	197.75
253.795	197.75
254.028	213.75
254.261	204.75
254.494	191.75
254.727	230.75
254.96	246.75
255.193	252.75
255.426	210.75
255.659	213.75
255.892	208.75
256.124	220.75
256.357	231.75
256.59	204.75
256.823	198.75
257.056	195.75
257.289	192.75
257.521	202.75
257.754	199.75
257.987	197.75
258.22	203.75
258.452	198.75
258.685	210.75
258.918	202.75
259.151	197.75
259.383	203.75
259.616	218.75
259.849	220.75
260.081	209.75
260.314	232.75
260.547	248.75
260.779	229.75
261.012	205.75
261.244	207.75
261.477	220.75
261.71	206.75
261.942	217.75
262.175	230.75
262.407	227.75
262.64	220.75
262.872	201.75
263.105	196.75
263.337	205.75
263.57	200.75
263.802	213.75
264.035	216.75
264.267	214.75
264.499	205.75
264.732	208.75
264.964	206.75
265.197	184.75
265.429	207.75
265.661	219.75
265.894	199.75
266.126	199.75
266.358	211.75
266.591	203.75
266.823	211.75
267.055	211.75
267.287	204.75
267.52	220.75
267.752	208.75
267.984	218.75
268.216	216.75
268.448	218.75
268.681	236.75
268.913	235.75
269.145	240.75
269.377	237.75
269.609	270.75
269.841	235.75
270.073	264.75
270.306	260.75
270.538	294.75
270.77	287.75
271.002	275.75
271.234	273.75
271.466	264.75
271.698	264.75
271.93	279.75
272.162	302.75
272.394	304.75
272.626	301.75
272.858	266.75
273.09	243.75
273.322	242.75
273.553	263.75
273.785	265.75
274.017	251.75
274.249	243.75
274.481	246.75
274.713	274.75
274.945	250.75
275.176	246.75
275.408	276.75
275.64	250.75
275.872	264.75
276.104	264.75
276.335	260.75
276.567	266.75
276.799	281.75
277.031	276.75
277.262	293.75
277.494	307.75
277.726	299.75
277.957	266.75
278.189	259.75
278.421	253.75
278.652	273.75
278.884	261.75
279.115	267.75
279.347	244.75
279.579	247.75
279.81	258.75
280.042	270.75
280.273	269.75
280.505	256.75
280.736	258.75
280.968	271.75
281.199	244.75
281.431	260.75
281.662	264.75
281.894	279.75
282.125	267.75
282.356	264.75
282.588	291.75
282.819	318.75
283.051	275.75
283.282	261.75
283.513	252.75
283.745	267.75
283.976	249.75
284.207	284.75
284.439	275.75
284.67	273.75
284.901	266.75
285.132	288.75
285.364	271.75
285.595	282.75
285.826	263.75
286.057	282.75
286.288	265.75
286.52	263.75
286.751	266.75
286.982	294.75
287.213	267.75
287.444	277.75
287.675	294.75
287.906	311.75
288.138	278.75
288.369	299.75
288.6	298.75
288.831	312.75
289.062	300.75
289.293	294.75
289.524	282.75
289.755	271.75
289.986	308.75
290.217	274.75
290.448	284.75
290.679	283.75
290.91	290.75
291.141	280.75
291.371	270.75
291.602	293.75
291.833	299.75
292.064	286.75
292.295	271.75
292.526	273.75
292.757	289.75
292.987	281.75
293.218	295.75
293.449	288.75
293.68	277.75
293.91	291.75
294.141	278.75
294.372	280.75
294.603	290.75
294.833	302.75
295.064	286.75
295.295	298.75
295.525	295.75
295.756	283.75
295.987	300.75
296.217	322.75
296.448	310.75
296.679	304.75
296.909	273.75
297.14	304.75
297.37	294.75
297.601	298.75
297.831	296.75
298.062	302.75
298.292	292.75
298.523	305.75
298.753	306.75
298.984	314.75
299.214	319.75
299.445	294.75
299.675	292.75
299.905	337.75
300.136	321.75
300.366	328.75
300.597	327.75
300.827	314.75
301.057	326.75
301.288	322.75
301.518	331.75
301.748	316.75
301.979	322.75
302.209	329.75
302.439	331.75
302.669	330.75
302.9	331.75
303.13	310.75
303.36	318.75
303.59	310.75
303.82	330.75
304.051	330.75
304.281	334.75
304.511	326.75
304.741	302.75
304.971	323.75
305.201	317.75
305.431	310.75
305.661	316.75
305.891	320.75
306.121	351.75
306.352	349.75
306.582	348.75
306.812	337.75
307.042	352.75
307.272	316.75
307.502	317.75
307.731	330.75
307.961	313.75
308.191	319.75
308.421	335.75
308.651	321.75
308.881	307.75
309.111	345.75
309.341	346.75
309.571	352.75
309.8	351.75
310.03	355.75
310.26	354.75
310.49	369.75
310.72	360.75
310.949	363.75
311.179	382.75
311.409	374.75
311.639	356.75
311.868	368.75
312.098	374.75
312.328	370.75
312.557	365.75
312.787	382.75
313.017	400.75
313.246	384.75
313.476	366.75
313.706	345.75
313.935	378.75
314.165	378.75
314.394	389.75
314.624	381.75
314.853	378.75
315.083	389.75
315.312	375.75
315.542	352.75
315.771	374.75
316.001	371.75
316.23	364.75
316.46	368.75
316.689	382.75
316.919	379.75
317.148	388.75
317.377	374.75
317.607	394.75
317.836	391.75
318.065	387.75
318.295	387.75
318.524	371.75
318.753	353.75
318.983	374.75
319.212	386.75
319.441	389.75
319.67	353.75
319.9	372.75
320.129	374.75
320.358	364.75
320.587	389.75
320.816	392.75
321.046	389.75
321.275	405.75
321.504	401.75
321.733	395.75
321.962	387.75
322.191	423.75
322.42	417.75
322.649	440.75
322.878	436.75
323.108	432.75
323.337	448.75
323.566	466.75
323.795	507.75
324.024	554.75
324.253	627.75
324.482	881.75
324.71	1373.75
324.939	2079.75
325.168	1776.75
325.397	889.75
325.626	613.75
325.855	502.75
326.084	487.75
326.313	474.75
326.542	496.75
326.77	514.75
326.999	611.75
327.228	834.75
327.457	1268.75
327.686	1594.75
327.914	1001.75
328.143	684.75
328.372	573.75
328.6	566.75
328.829	496.75
329.058	534.75
329.287	538.75
329.515	527.75
329.744	489.75
329.972	484.75
330.201	512.75
330.43	523.75
330.658	534.75
330.887	564.75
331.115	555.75
331.344	491.75
331.572	474.75
331.801	499.75
332.03	495.75
332.258	463.75
332.486	439.75
332.715	457.75
332.943	459.75
333.172	455.75
333.4	472.75
333.629	483.75
333.857	499.75
334.085	500.75
334.314	514.75
334.542	525.75
334.771	562.75
334.999	522.75
335.227	486.75
335.455	498.75
335.684	460.75
335.912	452.75
336.14	469.75
336.369	456.75
336.597	459.75
336.825	483.75
337.053	462.75
337.281	452.75
337.51	440.75
337.738	442.75
337.966	428.75
338.194	442.75
338.422	432.75
338.65	440.75
338.878	441.75
339.106	459.75
339.334	434.75
339.562	448.75
339.79	421.75
340.018	442.75
340.246	406.75
340.474	423.75
340.702	428.75
340.93	437.75
341.158	426.75
341.386	450.75
341.614	422.75
341.842	438.75
342.07	443.75
342.298	438.75
342.526	410.75
342.754	422.75
342.981	432.75
343.209	410.75
343.437	441.75
343.665	442.75
343.893	441.75
344.12	454.75
344.348	474.75
344.576	445.75
344.804	439.75
345.031	465.75
345.259	448.75
345.487	450.75
345.714	452.75
345.942	430.75
346.17	425.75
346.397	431.75
346.625	420.75
346.853	420.75
347.08	416.75
347.308	412.75
347.535	426.75
347.763	451.75
347.99	440.75
348.218	416.75
348.445	442.75
348.673	421.75
348.9	412.75
349.128	401.75
349.355	398.75
349.583	424.75
349.81	408.75
350.037	426.75
350.265	394.75
350.492	404.75
350.72	404.75
350.947	405.75
351.174	395.75
351.402	436.75
351.629	432.75
351.856	432.75
352.083	425.75
352.311	455.75
352.538	432.75
352.765	451.75
352.992	424.75
353.22	408.75
353.447	411.75
353.674	415.75
353.901	405.75
354.128	416.75
354.355	408.75
354.583	410.75
354.81	420.75
355.037	418.75
355.264	382.75
355.491	394.75
355.718	385.75
355.945	384.75
356.172	397.75
356.399	399.75
356.626	414.75
356.853	411.75
357.08	389.75
357.307	392.75
357.534	392.75
357.761	401.75
357.988	388.75
358.215	406.75
358.441	406.75
358.668	398.75
358.895	411.75
359.122	422.75
359.349	428.75
359.576	432.75
359.802	426.75
360.029	460.75
360.256	486.75
360.483	443.75
360.709	451.75
360.936	416.75
361.163	422.75
361.39	437.75
361.616	438.75
361.843	429.75
362.07	434.75
362.296	424.75
362.523	442.75
362.749	408.75
362.976	419.75
363.203	407.75
363.429	400.75
363.656	407.75
363.882	405.75
364.109	415.75
364.335	427.75
364.562	400.75
364.788	391.75
365.015	410.75
365.241	406.75
365.468	404.75
365.694	434.75
365.92	421.75
366.147	428.75
366.373	408.75
366.599	393.75
366.826	403.75
367.052	398.75
367.278	411.75
367.505	390.75
367.731	404.75
367.957	416.75
368.184	399.75
368.41	438.75
368.636	436.75
368.862	434.75
369.089	427.75
369.315	430.75
369.541	421.75
369.767	396.75
369.993	415.75
370.219	439.75
370.445	414.75
370.672	398.75
370.898	412.75
371.124	410.75
371.35	430.75
371.576	414.75
371.802	422.75
372.028	397.75
372.254	428.75
372.48	423.75
372.706	407.75
372.932	417.75
373.158	425.75
373.384	418.75
373.61	427.75
373.835	442.75
374.061	430.75
374.287	448.75
374.513	437.75
374.739	436.75
374.965	420.75
375.191	458.75
375.416	438.75
375.642	434.75
375.868	458.75
376.094	435.75
376.319	432.75
376.545	399.75
376.771	414.75
376.997	438.75
377.222	433.75
377.448	426.75
377.674	411.75
377.899	406.75
378.125	427.75
378.35	444.75
378.576	417.75
378.802	412.75
379.027	410.75
379.253	422.75
379.478	417.75
379.704	435.75
379.929	435.75
380.155	437.75
380.38	404.75
380.606	447.75
380.831	402.75
381.057	432.75
381.282	432.75
381.507	441.75
381.733	437.75
381.958	455.75
382.184	430.75
382.409	419.75
382.634	434.75
382.86	444.75
383.085	450.75
383.31	453.75
383.535	450.75
383.761	444.75
383.986	446.75
384.211	440.75
384.436	438.75
384.662	454.75
384.887	455.75
385.112	462.75
385.337	455.75
385.562	460.75
385.787	474.75
386.013	483.75
386.238	474.75
386.463	458.75
386.688	473.75
386.913	454.75
387.138	447.75
387.363	467.75
387.588	457.75
387.813	480.75
388.038	480.75
388.263	459.75
388.488	466.75
388.713	478.75
388.938	483.75
389.163	467.75
389.387	490.75
389.612	443.75
389.837	482.75
390.062	473.75
390.287	461.75
390.512	476.75
390.736	485.75
390.961	482.75
391.186	492.75
391.411	495.75
391.636	491.75
391.86	498.75
392.085	495.75
392.31	487.75
392.534	496.75
392.759	494.75
392.984	473.75
393.208	501.75
393.433	486.75
393.658	519.75
393.882	514.75
394.107	471.75
394.331	455.75
394.556	467.75
394.78	481.75
395.005	495.75
395.229	496.75
395.454	495.75
395.678	498.75
395.903	522.75
396.127	528.75
396.352	530.75
396.576	491.75
396.801	487.75
397.025	488.75
397.249	510.75
397.474	534.75
397.698	510.75
397.922	540.75
398.147	534.75
398.371	543.75
398.595	548.75
398.82	560.75
399.044	579.75
399.268	584.75
399.492	640.75
399.717	663.75
399.941	703.75
400.165	692.75
400.389	693.75
400.613	628.75
400.837	589.75
401.062	576.75
401.286	552.75
401.51	583.75
401.734	567.75
401.958	564.75
402.182	569.75
402.406	572.75
402.63	590.75
402.854	582.75
403.078	578.75
403.302	605.75
403.526	580.75
403.75	613.75
403.974	586.75
404.198	583.75
404.422	604.75
404.645	576.75
404.869	581.75
405.093	617.75
405.317	642.75
405.541	699.75
405.765	617.75
405.988	616.75
406.212	628.75
406.436	633.75
406.66	654.75
406.883	646.75
407.107	654.75
407.331	708.75
407.555	781.75
407.778	789.75
408.002	720.75
408.226	677.75
408.449	647.75
408.673	642.75
408.896	675.75
409.12	697.75
409.344	678.75
409.567	604.75
409.791	598.75
410.014	603.75
410.238	602.75
410.461	614.75
410.685	619.75
410.908	601.75
411.132	639.75
411.355	660.75
411.578	634.75
411.802	615.75
412.025	604.75
412.249	615.75
412.472	615.75
412.695	670.75
412.919	648.75
413.142	603.75
413.365	598.75
413.589	595.75
413.812	558.75
414.035	563.75
414.258	558.75
414.482	563.75
414.705	564.75
414.928	554.75
415.151	580.75
415.374	595.75
415.597	558.75
415.821	555.75
416.044	544.75
416.267	558.75
416.49	555.75
416.713	561.75
416.936	548.75
417.159	571.75
417.382	571.75
417.605	552.75
417.828	590.75
418.051	592.75
418.274	602.75
418.497	570.75
418.72	557.75
418.943	554.75
419.166	580.75
419.389	604.75
419.611	616.75
419.834	587.75
420.057	588.75
420.28	571.75
420.503	556.75
420.726	566.75
420.948	592.75
421.171	616.75
421.394	645.75
421.617	600.75
421.839	572.75
422.062	593.75
422.285	585.75
422.507	664.75
422.73	712.75
422.953	699.75
423.175	632.75
423.398	616.75
423.621	591.75
423.843	615.75
424.066	617.75
424.288	617.75
424.511	633.75
424.733	688.75
424.956	742.75
425.178	708.75
425.401	707.75
425.623	738.75
425.846	661.75
426.068	622.75
426.291	595.75
426.513	592.75
426.735	612.75
426.958	659.75
427.18	688.75
427.402	869.75
427.625	971.75
427.847	837.75
428.069	736.75
428.292	652.75
428.514	592.75
428.736	601.75
428.958	563.75
429.181	571.75
429.403	581.75
429.625	576.75
429.847	606.75
430.069	668.75
430.292	671.75
430.514	592.75
430.736	561.75
430.958	551.75
431.18	552.75
431.402	557.75
431.624	544.75
431.846	534.75
432.068	538.75
432.29	541.75
432.512	548.75
432.734	548.75
432.956	526.75
433.178	576.75
433.4	576.75
433.622	548.75
433.844	548.75
434.066	545.75
434.287	541.75
434.509	572.75
434.731	580.75
434.953	578.75
435.175	605.75
435.397	622.75
435.618	632.75
435.84	637.75
436.062	742.75
436.284	817.75
436.505	690.75
436.727	615.75
436.949	607.75
437.17	568.75
437.392	584.75
437.614	576.75
437.835	597.75
438.057	690.75
438.278	793.75
438.5	769.75
438.721	858.75
438.943	809.75
439.165	670.75
439.386	611.75
439.608	628.75
439.829	594.75
440.05	623.75
440.272	691.75
440.493	636.75
440.715	594.75
440.936	585.75
441.158	551.75
441.379	586.75
441.6	578.75
441.822	599.75
442.043	640.75
442.264	721.75
442.486	772.75
442.707	674.75
442.928	633.75
443.149	630.75
443.371	640.75
443.592	690.75
443.813	810.75
444.034	844.75
444.255	709.75
444.476	628.75
444.698	646.75
444.919	630.75
445.14	703.75
445.361	670.75
445.582	671.75
445.803	726.75
446.024	803.75
446.245	810.75
446.466	755.75
446.687	638.75
446.908	590.75
447.129	588.75
447.35	553.75
447.571	564.75
447.792	553.75
448.013	556.75
448.234	577.75
448.455	666.75
448.675	742.75
448.896	862.75
449.117	697.75
449.338	683.75
449.559	804.75
449.779	912.75
450	717.75
450.221	626.75
450.442	559.75
450.662	537.75
450.883	560.75
451.104	572.75
451.324	561.75
451.545	546.75
451.766	544.75
451.986	525.75
452.207	537.75
452.428	517.75
452.648	504.75
452.869	501.75
453.089	519.75
453.31	521.75
453.53	522.75
453.751	498.75
453.971	510.75
454.192	542.75
454.412	514.75
454.633	510.75
454.853	501.75
455.073	491.75
455.294	500.75
455.514	568.75
455.734	576.75
455.955	478.75
456.175	480.75
456.395	469.75
456.616	485.75
456.836	497.75
457.056	488.75
457.276	470.75
457.497	476.75
457.717	505.75
457.937	508.75
458.157	479.75
458.377	498.75
458.598	501.75
458.818	573.75
459.038	647.75
459.258	636.75
459.478	570.75
459.698	568.75
459.918	556.75
460.138	544.75
460.358	566.75
460.578	574.75
460.798	569.75
461.018	581.75
461.238	582.75
461.458	574.75
461.678	574.75
461.898	580.75
462.118	583.75
462.338	601.75
462.558	588.75
462.777	610.75
462.997	638.75
463.217	658.75
463.437	646.75
463.657	600.75
463.876	623.75
464.096	606.75
464.316	608.75
464.536	629.75
464.755	600.75
464.975	632.75
465.195	650.75
465.414	706.75
465.634	612.75
465.854	586.75
466.073	569.75
466.293	541.75
466.512	560.75
466.732	517.75
466.951	537.75
467.171	534.75
467.391	532.75
467.61	525.75
467.829	549.75
468.049	550.75
468.268	527.75
468.488	513.75
468.707	498.75
468.927	523.75
469.146	502.75
469.365	498.75
469.585	530.75
469.804	516.75
470.023	548.75
470.243	529.75
470.462	556.75
470.681	553.75
470.901	534.75
471.12	539.75
471.339	536.75
471.558	555.75
471.777	539.75
471.997	535.75
472.216	523.75
472.435	584.75
472.654	548.75
472.873	547.75
473.092	521.75
473.311	544.75
473.53	511.75
473.749	566.75
473.968	571.75
474.187	646.75
474.406	676.75
474.625	587.75
474.844	566.75
475.063	547.75
475.282	544.75
475.501	538.75
475.72	534.75
475.939	522.75
476.158	549.75
476.377	560.75
476.596	566.75
476.814	546.75
477.033	550.75
477.252	552.75
477.471	556.75
477.69	584.75
477.908	596.75
478.127	594.75
478.346	603.75
478.564	588.75
478.783	609.75
479.002	624.75
479.22	617.75
479.439	636.75
479.658	640.75
479.876	662.75
480.095	664.75
480.313	709.75
480.532	684.75
480.751	648.75
480.969	667.75
481.188	704.75
481.406	756.75
481.624	668.75
481.843	643.75
482.061	612.75
482.28	643.75
482.498	619.75
482.717	604.75
482.935	613.75
483.153	612.75
483.372	622.75
483.59	632.75
483.808	624.75
484.027	627.75
484.245	634.75
484.463	614.75
484.681	650.75
484.9	628.75
485.118	644.75
485.336	656.75
485.554	660.75
485.772	664.75
485.99	653.75
486.209	650.75
486.427	662.75
486.645	659.75
486.863	652.75
487.081	657.75
487.299	669.75
487.517	666.75
487.735	677.75
487.953	662.75
488.171	659.75
488.389	632.75
488.607	660.75
488.825	670.75
489.043	671.75
489.261	683.75
489.479	680.75
489.696	691.75
489.914	670.75
490.132	664.75
490.35	708.75
490.568	704.75
490.786	707.75
491.003	714.75
491.221	706.75
491.439	742.75
491.657	730.75
491.874	742.75
492.092	752.75
492.31	772.75
492.527	743.75
492.745	776.75
492.963	746.75
493.18	770.75
493.398	794.75
493.615	768.75
493.833	770.75
494.05	779.75
494.268	766.75
494.485	778.75
494.703	796.75
494.92	759.75
495.138	785.75
495.355	770.75
495.573	780.75
495.79	776.75
496.008	799.75
496.225	813.75
496.442	814.75
496.66	786.75
496.877	769.75
497.094	793.75
497.312	820.75
497.529	830.75
497.746	820.75
497.963	875.75
498.181	902.75
498.398	868.75
498.615	871.75
498.832	939.75
499.049	936.75
499.267	994.75
499.484	1022.75
499.701	1041.75
499.918	1108.75
500.135	1154.75
500.352	1238.75
500.569	1243.75
500.786	1226.75
501.003	1223.75
501.22	1188.75
501.437	1112.75
501.654	1085.75
501.871	1058.75
502.088	1043.75
502.305	1001.75
502.522	935.75
502.739	916.75
502.956	883.75
503.172	874.75
503.389	851.75
503.606	851.75
503.823	832.75
504.04	819.75
504.256	807.75
504.473	813.75
504.69	828.75
504.907	805.75
505.123	776.75
505.34	760.75
505.557	758.75
505.773	776.75
505.99	747.75
506.207	754.75
506.423	766.75
506.64	724.75
506.856	741.75
507.073	732.75
507.289	730.75
507.506	712.75
507.722	738.75
507.939	758.75
508.155	730.75
508.372	714.75
508.588	717.75
508.805	674.75
509.021	690.75
509.238	723.75
509.454	724.75
509.67	689.75
509.887	662.75
510.103	707.75
510.319	700.75
510.536	788.75
510.752	1306.75
510.968	1057.75
511.184	729.75
511.401	704.75
511.617	694.75
511.833	675.75
512.049	652.75
512.265	667.75
512.481	664.75
512.698	656.75
512.914	660.75
513.13	668.75
513.346	656.75
513.562	655.75
513.778	660.75
513.994	665.75
514.21	673.75
514.426	697.75
514.642	766.75
514.858	776.75
515.074	791.75
515.29	907.75
515.506	1302.75
515.721	1115.75
515.937	795.75
516.153	725.75
516.369	731.75
516.585	713.75
516.801	728.75
517.016	699.75
517.232	724.75
517.448	739.75
517.664	723.75
517.879	718.75
518.095	697.75
518.311	727.75
518.527	715.75
518.742	711.75
518.958	674.75
519.173	691.75
519.389	670.75
519.605	672.75
519.82	677.75
520.036	674.75
520.251	700.75
520.467	724.75
520.682	733.75
520.898	716.75
521.113	737.75
521.329	795.75
521.544	854.75
521.76	1016.75
521.975	1642.75
522.19	1694.75
522.406	930.75
522.621	723.75
522.836	676.75
523.052	654.75
523.267	635.75
523.482	608.75
523.698	613.75
523.913	624.75
524.128	633.75
524.343	613.75
524.559	595.75
524.774	601.75
524.989	587.75
525.204	580.75
525.419	592.75
525.634	585.75
525.849	581.75
526.064	588.75
526.28	587.75
526.495	557.75
526.71	562.75
526.925	578.75
527.14	546.75
527.355	529.75
527.57	554.75
527.785	577.75
527.999	547.75
528.214	552.75
528.429	567.75
528.644	586.75
528.859	563.75
529.074	542.75
529.289	599.75
529.503	663.75
529.718	652.75
529.933	596.75
530.148	548.75
530.363	558.75
530.577	542.75
530.792	546.75
531.007	542.75
531.221	553.75
531.436	515.75
531.651	559.75
531.865	542.75
532.08	534.75
532.295	550.75
532.509	525.75
532.724	544.75
532.938	544.75
533.153	527.75
533.367	531.75
533.582	558.75
533.796	538.75
534.011	548.75
534.225	543.75
534.44	524.75
534.654	542.75
534.868	544.75
535.083	535.75
535.297	526.75
535.511	513.75
535.726	549.75
535.94	514.75
536.154	526.75
536.369	537.75
536.583	504.75
536.797	533.75
537.011	518.75
537.225	518.75
537.44	517.75
537.654	517.75
537.868	535.75
538.082	502.75
538.296	533.75
538.51	529.75
538.724	515.75
538.938	504.75
539.153	525.75
539.367	510.75
539.581	497.75
539.795	516.75
540.009	510.75
540.222	500.75
540.436	520.75
540.65	507.75
540.864	516.75
541.078	521.75
541.292	524.75
541.506	503.75
541.72	498.75
541.934	512.75
542.147	512.75
542.361	474.75
542.575	500.75
542.789	506.75
543.002	503.75
543.216	501.75
543.43	508.75
543.644	515.75
543.857	510.75
544.071	500.75
544.285	514.75
544.498	497.75
544.712	524.75
544.925	488.75
545.139	495.75
545.352	519.75
545.566	514.75
545.779	507.75
545.993	514.75
546.206	502.75
546.42	523.75
546.633	494.75
546.847	481.75
547.06	509.75
547.274	484.75
547.487	509.75
547.7	500.75
547.914	519.75
548.127	488.75
548.34	490.75
548.554	489.75
548.767	511.75
548.98	515.75
549.193	490.75
549.407	497.75
549.62	489.75
549.833	483.75
550.046	487.75
550.259	510.75
550.473	484.75
550.686	506.75
550.899	492.75
551.112	499.75
551.325	486.75
551.538	492.75
551.751	470.75
551.964	479.75
552.177	500.75
552.39	485.75
552.603	510.75
552.816	490.75
553.029	496.75
553.242	491.75
553.455	535.75
553.667	530.75
553.88	534.75
554.093	522.75
554.306	510.75
554.519	502.75
554.732	494.75
554.944	475.75
555.157	480.75
555.37	475.75
555.583	472.75
555.795	464.75
556.008	447.75
556.221	451.75
556.433	460.75
556.646	448.75
556.859	440.75
557.071	431.75
557.284	432.75
557.496	450.75
557.709	451.75
557.921	446.75
558.134	454.75
558.346	456.75
558.559	436.75
558.771	439.75
558.984	439.75
559.196	452.75
559.409	430.75
559.621	444.75
559.833	444.75
560.046	431.75
560.258	423.75
560.47	439.75
560.683	436.75
560.895	418.75
561.107	412.75
561.32	445.75
561.532	441.75
561.744	431.75
561.956	472.75
562.168	417.75
562.381	431.75
562.593	441.75
562.805	432.75
563.017	445.75
563.229	462.75
563.441	467.75
563.653	451.75
563.865	461.75
564.077	448.75
564.289	475.75
564.501	455.75
564.713	445.75
564.925	451.75
565.137	480.75
565.349	487.75
565.561	513.75
565.773	494.75
565.985	516.75
566.197	498.75
566.408	516.75
566.62	551.75
566.832	560.75
567.044	555.75
567.255	567.75
567.467	584.75
567.679	610.75
567.891	602.75
568.102	588.75
568.314	592.75
568.526	565.75
568.737	535.75
568.949	513.75
569.161	498.75
569.372	489.75
569.584	479.75
569.795	470.75
570.007	456.75
570.218	514.75
570.43	483.75
570.641	442.75
570.853	428.75
571.064	439.75
571.276	423.75
571.487	446.75
571.698	404.75
571.91	425.75
572.121	420.75
572.333	384.75
572.544	412.75
572.755	392.75
572.966	411.75
573.178	392.75
573.389	404.75
573.6	411.75
573.811	378.75
574.023	382.75
574.234	387.75
574.445	397.75
574.656	379.75
574.867	368.75
575.078	384.75
575.289	380.75
575.501	376.75
575.712	372.75
575.923	375.75
576.134	376.75
576.345	380.75
576.556	375.75
576.767	376.75
576.978	374.75
577.188	355.75
577.399	361.75
577.61	373.75
577.821	356.75
578.032	367.75
578.243	422.75
578.454	608.75
578.665	457.75
578.875	372.75
579.086	361.75
579.297	354.75
579.508	354.75
579.718	350.75
579.929	342.75
580.14	358.75
580.35	329.75
580.561	345.75
580.772	336.75
580.982	336.75
581.193	342.75
581.403	343.75
581.614	346.75
581.825	348.75
582.035	357.75
582.246	338.75
582.456	355.75
582.667	346.75
582.877	347.75
583.087	345.75
583.298	342.75
583.508	337.75
583.719	334.75
583.929	338.75
584.139	334.75
584.35	322.75
584.56	347.75
584.77	344.75
584.981	331.75
585.191	346.75
585.401	345.75
585.611	326.75
585.821	354.75
586.032	329.75
586.242	323.75
586.452	322.75
586.662	321.75
586.872	337.75
587.082	325.75
587.292	340.75
587.502	350.75
587.713	319.75
587.923	335.75
588.133	324.75
588.343	310.75
588.553	344.75
588.762	321.75
588.972	334.75
589.182	351.75
589.392	346.75
589.602	328.75
589.812	347.75
590.022	343.75
590.232	343.75
590.441	322.75
590.651	334.75
590.861	339.75
591.071	355.75
591.281	328.75
591.49	360.75
591.7	345.75
591.91	323.75
592.119	344.75
592.329	340.75
592.539	354.75
592.748	354.75
592.958	357.75
593.167	370.75
593.377	374.75
593.587	365.75
593.796	354.75
594.006	350.75
594.215	358.75
594.424	357.75
594.634	370.75
594.843	361.75
595.053	350.75
595.262	339.75
595.472	327.75
595.681	336.75
595.89	330.75
596.1	334.75
596.309	320.75
596.518	322.75
596.727	328.75
596.937	313.75
597.146	290.75
597.355	318.75
597.564	307.75
597.774	292.75
597.983	290.75
598.192	277.75
598.401	294.75
598.61	268.75
598.819	294.75
599.028	287.75
599.237	275.75
599.446	292.75
599.655	304.75
599.864	294.75
600.073	302.75
600.282	274.75
600.491	287.75
600.7	272.75
600.909	288.75
601.118	281.75
601.327	290.75
601.536	290.75
601.745	303.75
601.953	285.75
602.162	295.75
602.371	251.75
602.58	262.75
602.789	274.75
602.997	266.75
603.206	274.75
603.415	282.75
603.623	263.75
603.832	262.75
604.041	273.75
604.249	264.75
604.458	274.75
604.666	256.75
604.875	285.75
605.084	256.75
605.292	264.75
605.501	270.75
605.709	251.75
605.918	266.75
606.126	274.75
606.334	271.75
606.543	265.75
606.751	270.75
606.96	254.75
607.168	270.75
607.376	254.75
607.585	278.75
607.793	264.75
608.001	271.75
608.21	255.75
608.418	266.75
608.626	269.75
608.834	272.75
609.043	259.75
609.251	266.75
609.459	265.75
609.667	278.75
609.875	270.75
610.083	264.75
610.291	263.75
610.499	255.75
610.707	261.75
610.916	265.75
611.124	274.75
611.332	266.75
611.54	267.75
611.748	268.75
611.955	270.75
612.163	256.75
612.371	259.75
612.579	255.75
612.787	272.75
612.995	246.75
613.203	267.75
613.411	247.75
613.618	252.75
613.826	251.75
614.034	255.75
614.242	268.75
614.449	235.75
614.657	248.75
614.865	248.75
615.072	259.75
615.28	278.75
615.488	269.75
615.695	240.75
615.903	263.75
616.111	238.75
616.318	278.75
616.526	267.75
616.733	247.75
616.941	246.75
617.148	251.75
617.356	247.75
617.563	257.75
617.771	265.75
617.978	259.75
618.185	238.75
618.393	248.75
618.6	239.75
618.807	258.75
619.015	268.75
619.222	235.75
619.429	254.75
619.637	246.75
619.844	225.75
620.051	243.75
620.258	231.75
620.466	224.75
620.673	225.75
620.88	238.75
621.087	230.75
621.294	251.75
621.501	245.75
621.708	234.75
621.915	231.75
622.122	226.75
622.329	235.75
622.536	246.75
622.743	244.75
622.95	230.75
623.157	234.75
623.364	229.75
623.571	222.75
623.778	227.75
623.985	233.75
624.192	234.75
624.399	232.75
624.606	233.75
624.812	215.75
625.019	243.75
625.226	218.75
625.433	238.75
625.639	211.75
625.846	224.75
626.053	227.75
626.259	213.75
626.466	240.75
626.673	228.75
626.879	219.75
627.086	220.75
627.293	215.75
627.499	215.75
627.706	221.75
627.912	207.75
628.119	207.75
628.325	234.75
628.532	198.75
628.738	215.75
628.945	230.75
629.151	223.75
629.357	209.75
629.564	217.75
629.77	225.75
629.976	211.75
630.183	215.75
630.389	201.75
630.595	212.75
630.802	209.75
631.008	190.75
631.214	203.75
631.42	203.75
631.627	208.75
631.833	214.75
632.039	202.75
632.245	200.75
632.451	193.75
632.657	202.75
632.863	207.75
633.069	205.75
633.275	193.75
633.481	193.75
633.688	192.75
633.893	193.75
634.099	193.75
634.305	195.75
634.511	194.75
634.717	193.75
634.923	203.75
635.129	186.75
635.335	196.75
635.541	196.75
635.747	188.75
635.952	186.75
636.158	182.75
636.364	186.75
636.57	204.75
636.775	200.75
636.981	190.75
637.187	196.75
637.392	194.75
637.598	201.75
637.804	209.75
638.009	198.75
638.215	208.75
638.421	187.75
638.626	187.75
638.832	193.75
639.037	181.75
639.243	187.75
639.448	195.75
639.654	192.75
639.859	171.75
640.065	171.75
640.27	197.75
640.475	183.75
640.681	182.75
640.886	180.75
641.091	190.75
641.297	169.75
641.502	180.75
641.707	171.75
641.913	177.75
642.118	184.75
642.323	179.75
642.528	196.75
642.733	199.75
642.939	181.75
643.144	195.75
643.349	199.75
643.554	165.75
643.759	170.75
643.964	166.75
644.169	163.75
644.374	178.75
644.579	182.75
644.784	158.75
644.989	185.75
645.194	176.75
645.399	180.75
645.604	168.75
645.809	172.75
646.014	190.75
646.219	175.75
646.423	186.75
646.628	166.75
646.833	160.75
647.038	174.75
647.243	179.75
647.447	170.75
647.652	174.75
647.857	169.75
648.062	190.75
648.266	175.75
648.471	189.75
648.676	180.75
648.88	170.75
649.085	176.75
649.289	184.75
649.494	177.75
649.698	181.75
649.903	183.75
650.107	161.75
650.312	164.75
650.516	155.75
650.721	162.75
650.925	151.75
651.13	157.75
651.334	168.75
651.539	151.75
651.743	167.75
651.947	140.75
652.152	139.75
652.356	152.75
652.56	156.75
652.764	158.75
652.969	149.75
653.173	159.75
653.377	137.75
653.581	146.75
653.785	138.75
653.99	137.75
654.194	153.75
654.398	134.75
654.602	135.75
654.806	152.75
655.01	146.75
655.214	127.75
655.418	147.75
655.622	139.75
655.826	122.75
656.03	138.75
656.234	143.75
656.438	136.75
656.642	151.75
656.846	143.75
657.049	117.75
657.253	123.75
657.457	120.75
657.661	124.75
657.865	118.75
658.068	115.75
658.272	107.75
658.476	103.75
658.68	103.75
658.883	117.75
659.087	103.75
659.291	99.75
659.494	105.75
659.698	104.75
659.901	100.75
660.105	111.75
660.309	90.75
660.512	102.75
660.716	97.75
660.919	90.75
661.123	92.75
661.326	96.75
661.53	92.75
661.733	84.75
661.936	87.75
662.14	88.75
662.343	81.75
662.546	91.75
662.75	90.75
662.953	102.75
663.156	82.75
663.36	85.75
663.563	90.75
663.766	91.75
663.969	67.75
664.173	63.75
664.376	68.75
664.579	85.75
664.782	70.75
664.985	79.75
665.188	76.75
665.391	87.75
665.594	95.75
665.797	77.75
666	100.75
666.203	75.75
666.406	88.75
666.609	97.75
666.812	88.75
667.015	86.75
667.218	92.75
667.421	82.75
667.624	77.75
667.827	73.75
668.03	82.75
668.232	77.75
668.435	88.75
668.638	76.75
668.841	79.75
669.043	76.75
669.246	92.75
669.449	81.75
669.651	81.75
669.854	64.75
670.057	78.75
670.259	76.75
670.462	80.75
670.665	80.75
670.867	86.75
671.07	82.75
671.272	74.75
671.475	83.75
671.677	72.75
671.88	85.75
672.082	73.75
672.284	80.75
672.487	75.75
672.689	75.75
672.892	55.75
