Data from 1979.PennyLincolnUp.Lamp.En5.5.200Scan.071719.P1_HRD10591_16-17-45-863.txt Node
Date: Thu Jul 18 16:17:45 EDT 2019
User: cochatt
Spectrometer: HR+D1059
Trigger mode: 1
Integration Time (sec): 1.000000E-1
Scans to average: 1
Electric dark correction enabled: true
Nonlinearity correction enabled: false
Boxcar width: 0
XAxis mode: Wavelengths
Number of Pixels in Spectrum: 2048
>>>>>Begin Spectral Data<<<<<
223.165	-19.62
223.4	-19.62
223.635	-19.62
223.869	-16.62
224.104	-24.62
224.338	-11.62
224.573	-16.62
224.808	-16.62
225.042	-7.62
225.277	-3.62
225.511	-11.62
225.746	0.38
225.98	16.38
226.215	1.38
226.449	12.38
226.683	21.38
226.918	37.38
227.152	39.38
227.387	28.38
227.621	52.38
227.856	39.38
228.09	37.38
228.324	32.38
228.559	43.38
228.793	63.38
229.027	79.38
229.262	100.38
229.496	90.38
229.73	122.38
229.964	133.38
230.199	109.38
230.433	110.38
230.667	98.38
230.901	91.38
231.136	97.38
231.37	103.38
231.604	104.38
231.838	99.38
232.072	116.38
232.306	108.38
232.541	94.38
232.775	114.38
233.009	105.38
233.243	105.38
233.477	116.38
233.711	114.38
233.945	117.38
234.179	103.38
234.413	97.38
234.647	118.38
234.881	114.38
235.115	115.38
235.349	111.38
235.583	107.38
235.817	116.38
236.051	103.38
236.285	128.38
236.519	113.38
236.753	118.38
236.987	121.38
237.221	153.38
237.455	197.38
237.689	159.38
237.922	126.38
238.156	116.38
238.39	107.38
238.624	116.38
238.858	109.38
239.091	128.38
239.325	109.38
239.559	118.38
239.793	126.38
240.027	132.38
240.26	117.38
240.494	141.38
240.728	140.38
240.961	127.38
241.195	135.38
241.429	125.38
241.662	126.38
241.896	115.38
242.13	140.38
242.363	114.38
242.597	125.38
242.83	135.38
243.064	128.38
243.298	114.38
243.531	121.38
243.765	125.38
243.998	130.38
244.232	137.38
244.465	138.38
244.699	134.38
244.932	118.38
245.166	117.38
245.399	145.38
245.633	144.38
245.866	138.38
246.099	136.38
246.333	139.38
246.566	142.38
246.8	142.38
247.033	134.38
247.266	147.38
247.5	151.38
247.733	148.38
247.966	146.38
248.2	156.38
248.433	159.38
248.666	167.38
248.899	173.38
249.133	160.38
249.366	175.38
249.599	164.38
249.832	158.38
250.066	162.38
250.299	172.38
250.532	179.38
250.765	178.38
250.998	196.38
251.231	199.38
251.465	171.38
251.698	174.38
251.931	162.38
252.164	174.38
252.397	164.38
252.63	185.38
252.863	183.38
253.096	174.38
253.329	181.38
253.562	200.38
253.795	196.38
254.028	190.38
254.261	182.38
254.494	204.38
254.727	198.38
254.96	225.38
255.193	214.38
255.426	183.38
255.659	190.38
255.892	165.38
256.124	180.38
256.357	198.38
256.59	182.38
256.823	192.38
257.056	182.38
257.289	175.38
257.521	192.38
257.754	186.38
257.987	178.38
258.22	201.38
258.452	189.38
258.685	194.38
258.918	187.38
259.151	183.38
259.383	189.38
259.616	178.38
259.849	194.38
260.081	220.38
260.314	206.38
260.547	213.38
260.779	217.38
261.012	192.38
261.244	184.38
261.477	194.38
261.71	184.38
261.942	199.38
262.175	201.38
262.407	184.38
262.64	173.38
262.872	194.38
263.105	186.38
263.337	188.38
263.57	188.38
263.802	183.38
264.035	196.38
264.267	183.38
264.499	191.38
264.732	189.38
264.964	199.38
265.197	204.38
265.429	175.38
265.661	172.38
265.894	191.38
266.126	194.38
266.358	188.38
266.591	202.38
266.823	182.38
267.055	191.38
267.287	203.38
267.52	195.38
267.752	185.38
267.984	199.38
268.216	192.38
268.448	221.38
268.681	197.38
268.913	213.38
269.145	228.38
269.377	220.38
269.609	221.38
269.841	213.38
270.073	227.38
270.306	230.38
270.538	245.38
270.77	256.38
271.002	244.38
271.234	217.38
271.466	232.38
271.698	245.38
271.93	262.38
272.162	250.38
272.394	266.38
272.626	263.38
272.858	236.38
273.09	233.38
273.322	229.38
273.553	223.38
273.785	232.38
274.017	218.38
274.249	226.38
274.481	221.38
274.713	226.38
274.945	236.38
275.176	243.38
275.408	219.38
275.64	229.38
275.872	215.38
276.104	231.38
276.335	223.38
276.567	244.38
276.799	236.38
277.031	251.38
277.262	250.38
277.494	256.38
277.726	261.38
277.957	242.38
278.189	224.38
278.421	240.38
278.652	232.38
278.884	234.38
279.115	223.38
279.347	234.38
279.579	226.38
279.81	214.38
280.042	246.38
280.273	232.38
280.505	223.38
280.736	235.38
280.968	244.38
281.199	226.38
281.431	238.38
281.662	249.38
281.894	250.38
282.125	240.38
282.356	242.38
282.588	269.38
282.819	258.38
283.051	242.38
283.282	233.38
283.513	245.38
283.745	260.38
283.976	244.38
284.207	259.38
284.439	254.38
284.67	239.38
284.901	248.38
285.132	238.38
285.364	239.38
285.595	248.38
285.826	256.38
286.057	254.38
286.288	227.38
286.52	248.38
286.751	237.38
286.982	248.38
287.213	266.38
287.444	249.38
287.675	269.38
287.906	256.38
288.138	263.38
288.369	254.38
288.6	268.38
288.831	247.38
289.062	255.38
289.293	261.38
289.524	260.38
289.755	259.38
289.986	285.38
290.217	258.38
290.448	250.38
290.679	255.38
290.91	270.38
291.141	258.38
291.371	261.38
291.602	249.38
291.833	252.38
292.064	263.38
292.295	265.38
292.526	263.38
292.757	249.38
292.987	247.38
293.218	271.38
293.449	255.38
293.68	262.38
293.91	255.38
294.141	267.38
294.372	264.38
294.603	255.38
294.833	281.38
295.064	268.38
295.295	264.38
295.525	255.38
295.756	290.38
295.987	263.38
296.217	278.38
296.448	288.38
296.679	283.38
296.909	279.38
297.14	275.38
297.37	259.38
297.601	301.38
297.831	286.38
298.062	263.38
298.292	266.38
298.523	274.38
298.753	290.38
298.984	282.38
299.214	269.38
299.445	313.38
299.675	287.38
299.905	282.38
300.136	268.38
300.366	283.38
300.597	290.38
300.827	298.38
301.057	281.38
301.288	276.38
301.518	289.38
301.748	293.38
301.979	293.38
302.209	284.38
302.439	290.38
302.669	293.38
302.9	291.38
303.13	282.38
303.36	314.38
303.59	283.38
303.82	299.38
304.051	284.38
304.281	281.38
304.511	300.38
304.741	276.38
304.971	294.38
305.201	302.38
305.431	309.38
305.661	301.38
305.891	302.38
306.121	302.38
306.352	299.38
306.582	287.38
306.812	281.38
307.042	282.38
307.272	304.38
307.502	280.38
307.731	316.38
307.961	291.38
308.191	284.38
308.421	309.38
308.651	298.38
308.881	299.38
309.111	314.38
309.341	295.38
309.571	316.38
309.8	324.38
310.03	313.38
310.26	325.38
310.49	322.38
310.72	323.38
310.949	311.38
311.179	349.38
311.409	315.38
311.639	329.38
311.868	341.38
312.098	327.38
312.328	341.38
312.557	340.38
312.787	356.38
313.017	361.38
313.246	336.38
313.476	332.38
313.706	321.38
313.935	321.38
314.165	339.38
314.394	358.38
314.624	347.38
314.853	340.38
315.083	323.38
315.312	330.38
315.542	325.38
315.771	324.38
316.001	313.38
316.23	319.38
316.46	314.38
316.689	327.38
316.919	332.38
317.148	335.38
317.377	352.38
317.607	347.38
317.836	341.38
318.065	334.38
318.295	324.38
318.524	355.38
318.753	344.38
318.983	325.38
319.212	327.38
319.441	342.38
319.67	348.38
319.9	335.38
320.129	341.38
320.358	344.38
320.587	327.38
320.816	343.38
321.046	359.38
321.275	336.38
321.504	360.38
321.733	355.38
321.962	350.38
322.191	369.38
322.42	382.38
322.649	382.38
322.878	359.38
323.108	384.38
323.337	408.38
323.566	401.38
323.795	406.38
324.024	456.38
324.253	524.38
324.482	696.38
324.71	1099.38
324.939	1596.38
325.168	1391.38
325.397	669.38
325.626	494.38
325.855	426.38
326.084	427.38
326.313	406.38
326.542	422.38
326.77	427.38
326.999	508.38
327.228	640.38
327.457	1024.38
327.686	1222.38
327.914	802.38
328.143	516.38
328.372	482.38
328.6	468.38
328.829	444.38
329.058	439.38
329.287	448.38
329.515	440.38
329.744	448.38
329.972	403.38
330.201	430.38
330.43	451.38
330.658	444.38
330.887	478.38
331.115	476.38
331.344	430.38
331.572	411.38
331.801	435.38
332.03	435.38
332.258	392.38
332.486	410.38
332.715	402.38
332.943	391.38
333.172	413.38
333.4	404.38
333.629	430.38
333.857	427.38
334.085	436.38
334.314	435.38
334.542	463.38
334.771	447.38
334.999	451.38
335.227	439.38
335.455	409.38
335.684	419.38
335.912	411.38
336.14	415.38
336.369	412.38
336.597	418.38
336.825	414.38
337.053	416.38
337.281	401.38
337.51	417.38
337.738	384.38
337.966	396.38
338.194	409.38
338.422	387.38
338.65	372.38
338.878	390.38
339.106	405.38
339.334	407.38
339.562	392.38
339.79	391.38
340.018	381.38
340.246	382.38
340.474	383.38
340.702	380.38
340.93	356.38
341.158	396.38
341.386	372.38
341.614	387.38
341.842	367.38
342.07	392.38
342.298	399.38
342.526	385.38
342.754	394.38
342.981	378.38
343.209	377.38
343.437	398.38
343.665	386.38
343.893	389.38
344.12	411.38
344.348	416.38
344.576	420.38
344.804	402.38
345.031	400.38
345.259	408.38
345.487	388.38
345.714	400.38
345.942	379.38
346.17	367.38
346.397	366.38
346.625	378.38
346.853	382.38
347.08	369.38
347.308	371.38
347.535	385.38
347.763	365.38
347.99	377.38
348.218	390.38
348.445	390.38
348.673	373.38
348.9	391.38
349.128	386.38
349.355	351.38
349.583	386.38
349.81	363.38
350.037	363.38
350.265	355.38
350.492	356.38
350.72	375.38
350.947	376.38
351.174	386.38
351.402	374.38
351.629	359.38
351.856	362.38
352.083	367.38
352.311	390.38
352.538	394.38
352.765	382.38
352.992	376.38
353.22	362.38
353.447	370.38
353.674	378.38
353.901	391.38
354.128	372.38
354.355	374.38
354.583	373.38
354.81	359.38
355.037	358.38
355.264	352.38
355.491	380.38
355.718	368.38
355.945	378.38
356.172	370.38
356.399	351.38
356.626	361.38
356.853	347.38
357.08	356.38
357.307	364.38
357.534	363.38
357.761	351.38
357.988	371.38
358.215	366.38
358.441	380.38
358.668	371.38
358.895	365.38
359.122	363.38
359.349	369.38
359.576	388.38
359.802	386.38
360.029	398.38
360.256	413.38
360.483	405.38
360.709	393.38
360.936	374.38
361.163	371.38
361.39	375.38
361.616	371.38
361.843	363.38
362.07	378.38
362.296	376.38
362.523	367.38
362.749	378.38
362.976	378.38
363.203	366.38
363.429	356.38
363.656	374.38
363.882	382.38
364.109	378.38
364.335	377.38
364.562	373.38
364.788	373.38
365.015	374.38
365.241	378.38
365.468	360.38
365.694	376.38
365.92	370.38
366.147	361.38
366.373	364.38
366.599	355.38
366.826	358.38
367.052	377.38
367.278	359.38
367.505	374.38
367.731	356.38
367.957	376.38
368.184	390.38
368.41	389.38
368.636	392.38
368.862	378.38
369.089	382.38
369.315	364.38
369.541	378.38
369.767	388.38
369.993	387.38
370.219	376.38
370.445	359.38
370.672	380.38
370.898	370.38
371.124	385.38
371.35	382.38
371.576	384.38
371.802	395.38
372.028	402.38
372.254	380.38
372.48	375.38
372.706	398.38
372.932	379.38
373.158	392.38
373.384	394.38
373.61	404.38
373.835	384.38
374.061	359.38
374.287	365.38
374.513	399.38
374.739	394.38
374.965	395.38
375.191	399.38
375.416	372.38
375.642	389.38
375.868	392.38
376.094	384.38
376.319	392.38
376.545	390.38
376.771	380.38
376.997	378.38
377.222	392.38
377.448	387.38
377.674	384.38
377.899	388.38
378.125	394.38
378.35	386.38
378.576	358.38
378.802	380.38
379.027	382.38
379.253	395.38
379.478	370.38
379.704	360.38
379.929	394.38
380.155	392.38
380.38	392.38
380.606	401.38
380.831	374.38
381.057	386.38
381.282	382.38
381.507	391.38
381.733	383.38
381.958	378.38
382.184	394.38
382.409	387.38
382.634	403.38
382.86	392.38
383.085	394.38
383.31	380.38
383.535	392.38
383.761	397.38
383.986	409.38
384.211	408.38
384.436	424.38
384.662	426.38
384.887	418.38
385.112	440.38
385.337	424.38
385.562	429.38
385.787	405.38
386.013	423.38
386.238	427.38
386.463	413.38
386.688	420.38
386.913	428.38
387.138	438.38
387.363	438.38
387.588	402.38
387.813	417.38
388.038	430.38
388.263	412.38
388.488	423.38
388.713	434.38
388.938	432.38
389.163	438.38
389.387	460.38
389.612	428.38
389.837	439.38
390.062	431.38
390.287	437.38
390.512	408.38
390.736	428.38
390.961	423.38
391.186	429.38
391.411	438.38
391.636	454.38
391.86	436.38
392.085	463.38
392.31	450.38
392.534	452.38
392.759	451.38
392.984	427.38
393.208	453.38
393.433	449.38
393.658	435.38
393.882	446.38
394.107	434.38
394.331	430.38
394.556	443.38
394.78	455.38
395.005	451.38
395.229	439.38
395.454	455.38
395.678	469.38
395.903	467.38
396.127	479.38
396.352	467.38
396.576	460.38
396.801	437.38
397.025	490.38
397.249	471.38
397.474	495.38
397.698	454.38
397.922	487.38
398.147	509.38
398.371	490.38
398.595	487.38
398.82	494.38
399.044	534.38
399.268	542.38
399.492	556.38
399.717	583.38
399.941	613.38
400.165	623.38
400.389	618.38
400.613	568.38
400.837	562.38
401.062	538.38
401.286	498.38
401.51	514.38
401.734	514.38
401.958	494.38
402.182	525.38
402.406	541.38
402.63	519.38
402.854	532.38
403.078	549.38
403.302	547.38
403.526	548.38
403.75	533.38
403.974	558.38
404.198	506.38
404.422	546.38
404.645	528.38
404.869	530.38
405.093	564.38
405.317	594.38
405.541	617.38
405.765	576.38
405.988	574.38
406.212	553.38
406.436	590.38
406.66	592.38
406.883	583.38
407.107	606.38
407.331	636.38
407.555	678.38
407.778	678.38
408.002	627.38
408.226	602.38
408.449	603.38
408.673	597.38
408.896	604.38
409.12	629.38
409.344	590.38
409.567	573.38
409.791	568.38
410.014	544.38
410.238	538.38
410.461	567.38
410.685	531.38
410.908	523.38
411.132	553.38
411.355	612.38
411.578	572.38
411.802	536.38
412.025	528.38
412.249	540.38
412.472	559.38
412.695	583.38
412.919	580.38
413.142	546.38
413.365	542.38
413.589	500.38
413.812	520.38
414.035	529.38
414.258	509.38
414.482	502.38
414.705	519.38
414.928	514.38
415.151	542.38
415.374	528.38
415.597	493.38
415.821	501.38
416.044	476.38
416.267	518.38
416.49	520.38
416.713	505.38
416.936	500.38
417.159	499.38
417.382	508.38
417.605	493.38
417.828	503.38
418.051	526.38
418.274	547.38
418.497	524.38
418.72	511.38
418.943	498.38
419.166	530.38
419.389	583.38
419.611	550.38
419.834	530.38
420.057	521.38
420.28	505.38
420.503	519.38
420.726	526.38
420.948	534.38
421.171	565.38
421.394	586.38
421.617	531.38
421.839	541.38
422.062	525.38
422.285	528.38
422.507	583.38
422.73	640.38
422.953	632.38
423.175	583.38
423.398	565.38
423.621	548.38
423.843	556.38
424.066	565.38
424.288	547.38
424.511	560.38
424.733	593.38
424.956	668.38
425.178	619.38
425.401	639.38
425.623	663.38
425.846	583.38
426.068	546.38
426.291	559.38
426.513	536.38
426.735	557.38
426.958	572.38
427.18	638.38
427.402	750.38
427.625	822.38
427.847	701.38
428.069	624.38
428.292	566.38
428.514	556.38
428.736	512.38
428.958	535.38
429.181	510.38
429.403	517.38
429.625	507.38
429.847	532.38
430.069	586.38
430.292	571.38
430.514	500.38
430.736	519.38
430.958	523.38
431.18	515.38
431.402	503.38
431.624	491.38
431.846	499.38
432.068	479.38
432.29	499.38
432.512	506.38
432.734	498.38
432.956	494.38
433.178	492.38
433.4	483.38
433.622	489.38
433.844	477.38
434.066	491.38
434.287	490.38
434.509	521.38
434.731	502.38
434.953	534.38
435.175	543.38
435.397	559.38
435.618	551.38
435.84	573.38
436.062	628.38
436.284	694.38
436.505	582.38
436.727	540.38
436.949	538.38
437.17	497.38
437.392	494.38
437.614	533.38
437.835	558.38
438.057	614.38
438.278	687.38
438.5	676.38
438.721	746.38
438.943	712.38
439.165	599.38
439.386	557.38
439.608	539.38
439.829	527.38
440.05	567.38
440.272	623.38
440.493	541.38
440.715	550.38
440.936	514.38
441.158	491.38
441.379	502.38
441.6	536.38
441.822	531.38
442.043	560.38
442.264	662.38
442.486	692.38
442.707	586.38
442.928	566.38
443.149	576.38
443.371	567.38
443.592	587.38
443.813	649.38
444.034	722.38
444.255	652.38
444.476	579.38
444.698	544.38
444.919	566.38
445.14	680.38
445.361	610.38
445.582	584.38
445.803	615.38
446.024	693.38
446.245	710.38
446.466	646.38
446.687	574.38
446.908	556.38
447.129	512.38
447.35	508.38
447.571	482.38
447.792	467.38
448.013	508.38
448.234	523.38
448.455	543.38
448.675	644.38
448.896	730.38
449.117	603.38
449.338	595.38
449.559	696.38
449.779	778.38
450	604.38
450.221	530.38
450.442	528.38
450.662	487.38
450.883	500.38
451.104	487.38
451.324	486.38
451.545	467.38
451.766	473.38
451.986	454.38
452.207	467.38
452.428	452.38
452.648	470.38
452.869	422.38
453.089	461.38
453.31	470.38
453.53	448.38
453.751	451.38
453.971	442.38
454.192	466.38
454.412	459.38
454.633	457.38
454.853	443.38
455.073	461.38
455.294	469.38
455.514	502.38
455.734	516.38
455.955	440.38
456.175	426.38
456.395	423.38
456.616	454.38
456.836	423.38
457.056	426.38
457.276	411.38
457.497	455.38
457.717	434.38
457.937	442.38
458.157	441.38
458.377	448.38
458.598	475.38
458.818	511.38
459.038	585.38
459.258	574.38
459.478	515.38
459.698	475.38
459.918	490.38
460.138	503.38
460.358	512.38
460.578	520.38
460.798	510.38
461.018	526.38
461.238	523.38
461.458	513.38
461.678	515.38
461.898	514.38
462.118	510.38
462.338	545.38
462.558	537.38
462.777	576.38
462.997	565.38
463.217	585.38
463.437	590.38
463.657	578.38
463.876	567.38
464.096	583.38
464.316	553.38
464.536	568.38
464.755	567.38
464.975	540.38
465.195	562.38
465.414	586.38
465.634	547.38
465.854	516.38
466.073	492.38
466.293	496.38
466.512	490.38
466.732	490.38
466.951	488.38
467.171	480.38
467.391	471.38
467.61	450.38
467.829	484.38
468.049	498.38
468.268	484.38
468.488	473.38
468.707	483.38
468.927	472.38
469.146	454.38
469.365	476.38
469.585	463.38
469.804	498.38
470.023	487.38
470.243	488.38
470.462	499.38
470.681	481.38
470.901	487.38
471.12	480.38
471.339	488.38
471.558	487.38
471.777	492.38
471.997	493.38
472.216	476.38
472.435	502.38
472.654	484.38
472.873	475.38
473.092	465.38
473.311	480.38
473.53	476.38
473.749	476.38
473.968	503.38
474.187	591.38
474.406	589.38
474.625	522.38
474.844	505.38
475.063	496.38
475.282	495.38
475.501	506.38
475.72	490.38
475.939	487.38
476.158	503.38
476.377	488.38
476.596	509.38
476.814	491.38
477.033	510.38
477.252	498.38
477.471	501.38
477.69	521.38
477.908	525.38
478.127	527.38
478.346	549.38
478.564	545.38
478.783	546.38
479.002	540.38
479.22	539.38
479.439	558.38
479.658	562.38
479.876	576.38
480.095	599.38
480.313	621.38
480.532	590.38
480.751	580.38
480.969	611.38
481.188	624.38
481.406	634.38
481.624	609.38
481.843	591.38
482.061	579.38
482.28	580.38
482.498	573.38
482.717	544.38
482.935	563.38
483.153	568.38
483.372	574.38
483.59	552.38
483.808	581.38
484.027	568.38
484.245	581.38
484.463	589.38
484.681	548.38
484.9	576.38
485.118	578.38
485.336	579.38
485.554	597.38
485.772	577.38
485.99	587.38
486.209	619.38
486.427	583.38
486.645	587.38
486.863	588.38
487.081	590.38
487.299	603.38
487.517	606.38
487.735	575.38
487.953	583.38
488.171	583.38
488.389	607.38
488.607	617.38
488.825	616.38
489.043	608.38
489.261	616.38
489.479	616.38
489.696	615.38
489.914	610.38
490.132	604.38
490.35	612.38
490.568	636.38
490.786	610.38
491.003	634.38
491.221	624.38
491.439	663.38
491.657	640.38
491.874	677.38
492.092	657.38
492.31	665.38
492.527	655.38
492.745	654.38
492.963	678.38
493.18	700.38
493.398	691.38
493.615	692.38
493.833	690.38
494.05	696.38
494.268	695.38
494.485	702.38
494.703	686.38
494.92	675.38
495.138	691.38
495.355	696.38
495.573	673.38
495.79	676.38
496.008	724.38
496.225	697.38
496.442	679.38
496.66	694.38
496.877	692.38
497.094	705.38
497.312	720.38
497.529	728.38
497.746	755.38
497.963	736.38
498.181	766.38
498.398	799.38
498.615	836.38
498.832	828.38
499.049	885.38
499.267	871.38
499.484	921.38
499.701	963.38
499.918	992.38
500.135	1068.38
500.352	1106.38
500.569	1145.38
500.786	1127.38
501.003	1112.38
501.22	1052.38
501.437	1038.38
501.654	984.38
501.871	940.38
502.088	916.38
502.305	873.38
502.522	846.38
502.739	854.38
502.956	797.38
503.172	751.38
503.389	772.38
503.606	756.38
503.823	776.38
504.04	759.38
504.256	741.38
504.473	734.38
504.69	726.38
504.907	719.38
505.123	729.38
505.34	710.38
505.557	679.38
505.773	690.38
505.99	658.38
506.207	653.38
506.423	673.38
506.64	651.38
506.856	631.38
507.073	655.38
507.289	627.38
507.506	650.38
507.722	639.38
507.939	688.38
508.155	660.38
508.372	632.38
508.588	622.38
508.805	587.38
509.021	605.38
509.238	613.38
509.454	623.38
509.67	626.38
509.887	588.38
510.103	591.38
510.319	619.38
510.536	639.38
510.752	980.38
510.968	840.38
511.184	624.38
511.401	606.38
511.617	592.38
511.833	583.38
512.049	582.38
512.265	574.38
512.481	585.38
512.698	595.38
512.914	583.38
513.13	584.38
513.346	567.38
513.562	573.38
513.778	576.38
513.994	571.38
514.21	586.38
514.426	591.38
514.642	650.38
514.858	638.38
515.074	662.38
515.29	745.38
515.506	997.38
515.721	902.38
515.937	668.38
516.153	652.38
516.369	638.38
516.585	626.38
516.801	594.38
517.016	628.38
517.232	640.38
517.448	641.38
517.664	637.38
517.879	640.38
518.095	653.38
518.311	680.38
518.527	618.38
518.742	628.38
518.958	600.38
519.173	611.38
519.389	607.38
519.605	588.38
519.82	580.38
520.036	598.38
520.251	614.38
520.467	628.38
520.682	637.38
520.898	612.38
521.113	606.38
521.329	640.38
521.544	679.38
521.76	798.38
521.975	1209.38
522.19	1194.38
522.406	761.38
522.621	605.38
522.836	566.38
523.052	552.38
523.267	558.38
523.482	539.38
523.698	551.38
523.913	552.38
524.128	539.38
524.343	550.38
524.559	547.38
524.774	533.38
524.989	520.38
525.204	531.38
525.419	503.38
525.634	529.38
525.849	524.38
526.064	533.38
526.28	501.38
526.495	502.38
526.71	514.38
526.925	500.38
527.14	498.38
527.355	493.38
527.57	500.38
527.785	476.38
527.999	503.38
528.214	528.38
528.429	519.38
528.644	495.38
528.859	507.38
529.074	496.38
529.289	520.38
529.503	575.38
529.718	538.38
529.933	495.38
530.148	502.38
530.363	496.38
530.577	492.38
530.792	503.38
531.007	501.38
531.221	494.38
531.436	483.38
531.651	505.38
531.865	496.38
532.08	478.38
532.295	492.38
532.509	478.38
532.724	499.38
532.938	503.38
533.153	469.38
533.367	475.38
533.582	495.38
533.796	484.38
534.011	484.38
534.225	484.38
534.44	472.38
534.654	482.38
534.868	495.38
535.083	476.38
535.297	470.38
535.511	487.38
535.726	503.38
535.94	506.38
536.154	475.38
536.369	459.38
536.583	468.38
536.797	471.38
537.011	493.38
537.225	435.38
537.44	458.38
537.654	468.38
537.868	473.38
538.082	471.38
538.296	460.38
538.51	460.38
538.724	460.38
538.938	452.38
539.153	470.38
539.367	474.38
539.581	475.38
539.795	462.38
540.009	455.38
540.222	456.38
540.436	462.38
540.65	452.38
540.864	446.38
541.078	483.38
541.292	472.38
541.506	478.38
541.72	462.38
541.934	445.38
542.147	477.38
542.361	463.38
542.575	462.38
542.789	465.38
543.002	489.38
543.216	461.38
543.43	458.38
543.644	440.38
543.857	477.38
544.071	458.38
544.285	467.38
544.498	450.38
544.712	454.38
544.925	463.38
545.139	472.38
545.352	452.38
545.566	457.38
545.779	457.38
545.993	466.38
546.206	475.38
546.42	473.38
546.633	455.38
546.847	438.38
547.06	460.38
547.274	460.38
547.487	453.38
547.7	463.38
547.914	455.38
548.127	450.38
548.34	451.38
548.554	467.38
548.767	482.38
548.98	459.38
549.193	454.38
549.407	440.38
549.62	466.38
549.833	485.38
550.046	454.38
550.259	455.38
550.473	451.38
550.686	442.38
550.899	452.38
551.112	438.38
551.325	438.38
551.538	458.38
551.751	463.38
551.964	452.38
552.177	440.38
552.39	456.38
552.603	458.38
552.816	474.38
553.029	444.38
553.242	449.38
553.455	475.38
553.667	463.38
553.88	467.38
554.093	475.38
554.306	463.38
554.519	474.38
554.732	456.38
554.944	447.38
555.157	444.38
555.37	430.38
555.583	444.38
555.795	426.38
556.008	448.38
556.221	418.38
556.433	423.38
556.646	431.38
556.859	415.38
557.071	409.38
557.284	401.38
557.496	411.38
557.709	412.38
557.921	412.38
558.134	411.38
558.346	406.38
558.559	410.38
558.771	408.38
558.984	420.38
559.196	395.38
559.409	406.38
559.621	387.38
559.833	410.38
560.046	398.38
560.258	391.38
560.47	395.38
560.683	418.38
560.895	418.38
561.107	420.38
561.32	408.38
561.532	403.38
561.744	422.38
561.956	392.38
562.168	392.38
562.381	381.38
562.593	398.38
562.805	406.38
563.017	389.38
563.229	409.38
563.441	405.38
563.653	416.38
563.865	418.38
564.077	411.38
564.289	408.38
564.501	432.38
564.713	417.38
564.925	426.38
565.137	439.38
565.349	454.38
565.561	446.38
565.773	450.38
565.985	470.38
566.197	486.38
566.408	480.38
566.62	508.38
566.832	532.38
567.044	519.38
567.255	557.38
567.467	517.38
567.679	526.38
567.891	566.38
568.102	557.38
568.314	544.38
568.526	511.38
568.737	495.38
568.949	459.38
569.161	467.38
569.372	434.38
569.584	449.38
569.795	432.38
570.007	420.38
570.218	443.38
570.43	419.38
570.641	404.38
570.853	417.38
571.064	406.38
571.276	394.38
571.487	384.38
571.698	400.38
571.91	364.38
572.121	388.38
572.333	369.38
572.544	386.38
572.755	368.38
572.966	376.38
573.178	354.38
573.389	361.38
573.6	347.38
573.811	371.38
574.023	352.38
574.234	340.38
574.445	352.38
574.656	347.38
574.867	339.38
575.078	372.38
575.289	373.38
575.501	361.38
575.712	340.38
575.923	360.38
576.134	336.38
576.345	334.38
576.556	339.38
576.767	342.38
576.978	348.38
577.188	340.38
577.399	322.38
577.61	335.38
577.821	347.38
578.032	357.38
578.243	363.38
578.454	477.38
578.665	397.38
578.875	344.38
579.086	338.38
579.297	333.38
579.508	330.38
579.718	318.38
579.929	339.38
580.14	314.38
580.35	315.38
580.561	330.38
580.772	337.38
580.982	304.38
581.193	321.38
581.403	322.38
581.614	332.38
581.825	322.38
582.035	300.38
582.246	301.38
582.456	306.38
582.667	310.38
582.877	318.38
583.087	293.38
583.298	308.38
583.508	308.38
583.719	323.38
583.929	316.38
584.139	313.38
584.35	304.38
584.56	302.38
584.77	307.38
584.981	318.38
585.191	316.38
585.401	307.38
585.611	315.38
585.821	306.38
586.032	314.38
586.242	315.38
586.452	320.38
586.662	302.38
586.872	311.38
587.082	285.38
587.292	301.38
587.502	312.38
587.713	322.38
587.923	302.38
588.133	301.38
588.343	294.38
588.553	306.38
588.762	315.38
588.972	322.38
589.182	367.38
589.392	359.38
589.602	327.38
589.812	336.38
590.022	333.38
590.232	320.38
590.441	307.38
590.651	294.38
590.861	285.38
591.071	318.38
591.281	312.38
591.49	311.38
591.7	340.38
591.91	327.38
592.119	318.38
592.329	318.38
592.539	331.38
592.748	334.38
592.958	320.38
593.167	341.38
593.377	332.38
593.587	330.38
593.796	329.38
594.006	330.38
594.215	323.38
594.424	333.38
594.634	312.38
594.843	318.38
595.053	315.38
595.262	315.38
595.472	327.38
595.681	312.38
595.89	294.38
596.1	313.38
596.309	314.38
596.518	307.38
596.727	292.38
596.937	295.38
597.146	292.38
597.355	293.38
597.564	301.38
597.774	279.38
597.983	286.38
598.192	294.38
598.401	281.38
598.61	268.38
598.819	278.38
599.028	262.38
599.237	282.38
599.446	273.38
599.655	280.38
599.864	275.38
600.073	274.38
600.282	282.38
600.491	260.38
600.7	270.38
600.909	268.38
601.118	272.38
601.327	266.38
601.536	267.38
601.745	265.38
601.953	277.38
602.162	268.38
602.371	264.38
602.58	258.38
602.789	247.38
602.997	261.38
603.206	262.38
603.415	256.38
603.623	263.38
603.832	274.38
604.041	253.38
604.249	251.38
604.458	260.38
604.666	247.38
604.875	253.38
605.084	251.38
605.292	270.38
605.501	266.38
605.709	258.38
605.918	251.38
606.126	262.38
606.334	264.38
606.543	264.38
606.751	251.38
606.96	247.38
607.168	253.38
607.376	263.38
607.585	246.38
607.793	233.38
608.001	250.38
608.21	262.38
608.418	257.38
608.626	246.38
608.834	252.38
609.043	238.38
609.251	269.38
609.459	242.38
609.667	249.38
609.875	246.38
610.083	236.38
610.291	232.38
610.499	250.38
610.707	262.38
610.916	248.38
611.124	232.38
611.332	260.38
611.54	262.38
611.748	249.38
611.955	268.38
612.163	278.38
612.371	269.38
612.579	244.38
612.787	252.38
612.995	254.38
613.203	222.38
613.411	255.38
613.618	264.38
613.826	227.38
614.034	250.38
614.242	228.38
614.449	247.38
614.657	221.38
614.865	238.38
615.072	246.38
615.28	251.38
615.488	251.38
615.695	228.38
615.903	252.38
616.111	231.38
616.318	242.38
616.526	242.38
616.733	231.38
616.941	246.38
617.148	250.38
617.356	231.38
617.563	250.38
617.771	244.38
617.978	251.38
618.185	234.38
618.393	243.38
618.6	235.38
618.807	250.38
619.015	218.38
619.222	237.38
619.429	231.38
619.637	231.38
619.844	225.38
620.051	233.38
620.258	222.38
620.466	231.38
620.673	241.38
620.88	232.38
621.087	226.38
621.294	243.38
621.501	234.38
621.708	233.38
621.915	234.38
622.122	235.38
622.329	228.38
622.536	224.38
622.743	209.38
622.95	204.38
623.157	216.38
623.364	216.38
623.571	226.38
623.778	217.38
623.985	226.38
624.192	203.38
624.399	226.38
624.606	226.38
624.812	214.38
625.019	222.38
625.226	224.38
625.433	218.38
625.639	223.38
625.846	211.38
626.053	200.38
626.259	207.38
626.466	223.38
626.673	219.38
626.879	226.38
627.086	214.38
627.293	207.38
627.499	218.38
627.706	216.38
627.912	214.38
628.119	198.38
628.325	212.38
628.532	217.38
628.738	206.38
628.945	194.38
629.151	191.38
629.357	215.38
629.564	200.38
629.77	202.38
629.976	198.38
630.183	207.38
630.389	214.38
630.595	207.38
630.802	199.38
631.008	207.38
631.214	214.38
631.42	212.38
631.627	230.38
631.833	195.38
632.039	205.38
632.245	208.38
632.451	194.38
632.657	194.38
632.863	199.38
633.069	203.38
633.275	173.38
633.481	190.38
633.688	172.38
633.893	184.38
634.099	197.38
634.305	194.38
634.511	177.38
634.717	188.38
634.923	189.38
635.129	188.38
635.335	188.38
635.541	195.38
635.747	193.38
635.952	182.38
636.158	178.38
636.364	184.38
636.57	188.38
636.775	158.38
636.981	171.38
637.187	178.38
637.392	186.38
637.598	181.38
637.804	188.38
638.009	176.38
638.215	162.38
638.421	183.38
638.626	183.38
638.832	186.38
639.037	189.38
639.243	184.38
639.448	176.38
639.654	180.38
639.859	162.38
640.065	169.38
640.27	178.38
640.475	180.38
640.681	175.38
640.886	178.38
641.091	185.38
641.297	187.38
641.502	175.38
641.707	171.38
641.913	181.38
642.118	159.38
642.323	167.38
642.528	187.38
642.733	172.38
642.939	182.38
643.144	171.38
643.349	184.38
643.554	184.38
643.759	163.38
643.964	185.38
644.169	168.38
644.374	182.38
644.579	180.38
644.784	169.38
644.989	184.38
645.194	161.38
645.399	175.38
645.604	186.38
645.809	173.38
646.014	160.38
646.219	175.38
646.423	161.38
646.628	174.38
646.833	172.38
647.038	183.38
647.243	170.38
647.447	194.38
647.652	178.38
647.857	173.38
648.062	172.38
648.266	173.38
648.471	175.38
648.676	179.38
648.88	178.38
649.085	178.38
649.289	169.38
649.494	174.38
649.698	187.38
649.903	167.38
650.107	164.38
650.312	149.38
650.516	153.38
650.721	168.38
650.925	153.38
651.13	154.38
651.334	169.38
651.539	156.38
651.743	163.38
651.947	163.38
652.152	156.38
652.356	157.38
652.56	153.38
652.764	141.38
652.969	152.38
653.173	151.38
653.377	149.38
653.581	142.38
653.785	150.38
653.99	148.38
654.194	141.38
654.398	148.38
654.602	142.38
654.806	136.38
655.01	134.38
655.214	155.38
655.418	145.38
655.622	135.38
655.826	151.38
656.03	147.38
656.234	134.38
656.438	142.38
656.642	151.38
656.846	138.38
657.049	123.38
657.253	132.38
657.457	135.38
657.661	131.38
657.865	123.38
658.068	113.38
658.272	114.38
658.476	114.38
658.68	102.38
658.883	99.38
659.087	110.38
659.291	107.38
659.494	84.38
659.698	112.38
659.901	101.38
660.105	104.38
660.309	95.38
660.512	84.38
660.716	101.38
660.919	85.38
661.123	92.38
661.326	98.38
661.53	94.38
661.733	92.38
661.936	94.38
662.14	99.38
662.343	99.38
662.546	99.38
662.75	88.38
662.953	95.38
663.156	79.38
663.36	81.38
663.563	95.38
663.766	83.38
663.969	82.38
664.173	103.38
664.376	86.38
664.579	81.38
664.782	72.38
664.985	80.38
665.188	70.38
665.391	93.38
665.594	88.38
665.797	90.38
666	77.38
666.203	76.38
666.406	78.38
666.609	72.38
666.812	93.38
667.015	83.38
667.218	87.38
667.421	78.38
667.624	78.38
667.827	78.38
668.03	89.38
668.232	79.38
668.435	87.38
668.638	85.38
668.841	86.38
669.043	80.38
669.246	85.38
669.449	80.38
669.651	84.38
669.854	90.38
670.057	92.38
670.259	78.38
670.462	80.38
670.665	80.38
670.867	77.38
671.07	92.38
671.272	85.38
671.475	78.38
671.677	79.38
671.88	85.38
672.082	87.38
672.284	95.38
672.487	85.38
672.689	87.38
672.892	80.38
