Data from 1979.PennyLincolnUp.Lamp.En5.5.200Scan.071719.P1_HRD10591_16-18-53-863.txt Node
Date: Thu Jul 18 16:18:53 EDT 2019
User: cochatt
Spectrometer: HR+D1059
Trigger mode: 1
Integration Time (sec): 1.000000E-1
Scans to average: 1
Electric dark correction enabled: true
Nonlinearity correction enabled: false
Boxcar width: 0
XAxis mode: Wavelengths
Number of Pixels in Spectrum: 2048
>>>>>Begin Spectral Data<<<<<
223.165	-10.62
223.4	-10.62
223.635	-10.62
223.869	-13.62
224.104	-23.62
224.338	-27.62
224.573	-24.62
224.808	-20.62
225.042	-9.62
225.277	-2.62
225.511	-8.62
225.746	-12.62
225.98	14.38
226.215	20.38
226.449	27.38
226.683	34.38
226.918	21.38
227.152	36.38
227.387	25.38
227.621	42.38
227.856	53.38
228.09	35.38
228.324	58.38
228.559	64.38
228.793	53.38
229.027	98.38
229.262	101.38
229.496	116.38
229.73	108.38
229.964	141.38
230.199	120.38
230.433	104.38
230.667	114.38
230.901	115.38
231.136	117.38
231.37	113.38
231.604	113.38
231.838	103.38
232.072	119.38
232.306	100.38
232.541	105.38
232.775	103.38
233.009	121.38
233.243	108.38
233.477	105.38
233.711	117.38
233.945	123.38
234.179	113.38
234.413	113.38
234.647	117.38
234.881	106.38
235.115	127.38
235.349	120.38
235.583	123.38
235.817	114.38
236.051	110.38
236.285	116.38
236.519	127.38
236.753	138.38
236.987	136.38
237.221	158.38
237.455	212.38
237.689	149.38
237.922	137.38
238.156	129.38
238.39	125.38
238.624	114.38
238.858	115.38
239.091	125.38
239.325	119.38
239.559	117.38
239.793	125.38
240.027	109.38
240.26	126.38
240.494	135.38
240.728	150.38
240.961	157.38
241.195	143.38
241.429	126.38
241.662	113.38
241.896	133.38
242.13	127.38
242.363	129.38
242.597	129.38
242.83	140.38
243.064	142.38
243.298	136.38
243.531	142.38
243.765	132.38
243.998	133.38
244.232	139.38
244.465	138.38
244.699	155.38
244.932	141.38
245.166	138.38
245.399	153.38
245.633	149.38
245.866	136.38
246.099	153.38
246.333	125.38
246.566	143.38
246.8	130.38
247.033	159.38
247.266	155.38
247.5	165.38
247.733	168.38
247.966	171.38
248.2	169.38
248.433	157.38
248.666	165.38
248.899	185.38
249.133	167.38
249.366	182.38
249.599	166.38
249.832	171.38
250.066	158.38
250.299	172.38
250.532	177.38
250.765	193.38
250.998	190.38
251.231	193.38
251.465	202.38
251.698	188.38
251.931	203.38
252.164	194.38
252.397	174.38
252.63	198.38
252.863	204.38
253.096	189.38
253.329	200.38
253.562	205.38
253.795	194.38
254.028	196.38
254.261	207.38
254.494	197.38
254.727	210.38
254.96	227.38
255.193	241.38
255.426	216.38
255.659	212.38
255.892	207.38
256.124	215.38
256.357	211.38
256.59	204.38
256.823	188.38
257.056	200.38
257.289	182.38
257.521	209.38
257.754	187.38
257.987	187.38
258.22	196.38
258.452	172.38
258.685	201.38
258.918	200.38
259.151	198.38
259.383	208.38
259.616	207.38
259.849	204.38
260.081	205.38
260.314	225.38
260.547	232.38
260.779	225.38
261.012	199.38
261.244	211.38
261.477	207.38
261.71	213.38
261.942	203.38
262.175	218.38
262.407	220.38
262.64	213.38
262.872	209.38
263.105	199.38
263.337	208.38
263.57	208.38
263.802	206.38
264.035	205.38
264.267	203.38
264.499	203.38
264.732	194.38
264.964	214.38
265.197	194.38
265.429	214.38
265.661	196.38
265.894	193.38
266.126	225.38
266.358	208.38
266.591	207.38
266.823	202.38
267.055	217.38
267.287	211.38
267.52	206.38
267.752	214.38
267.984	202.38
268.216	216.38
268.448	211.38
268.681	219.38
268.913	238.38
269.145	250.38
269.377	236.38
269.609	245.38
269.841	229.38
270.073	238.38
270.306	234.38
270.538	284.38
270.77	273.38
271.002	278.38
271.234	272.38
271.466	258.38
271.698	280.38
271.93	282.38
272.162	283.38
272.394	266.38
272.626	266.38
272.858	255.38
273.09	248.38
273.322	251.38
273.553	229.38
273.785	237.38
274.017	243.38
274.249	220.38
274.481	236.38
274.713	248.38
274.945	253.38
275.176	244.38
275.408	236.38
275.64	260.38
275.872	249.38
276.104	251.38
276.335	241.38
276.567	254.38
276.799	279.38
277.031	276.38
277.262	285.38
277.494	290.38
277.726	290.38
277.957	264.38
278.189	259.38
278.421	259.38
278.652	257.38
278.884	255.38
279.115	239.38
279.347	252.38
279.579	249.38
279.81	258.38
280.042	252.38
280.273	247.38
280.505	246.38
280.736	243.38
280.968	224.38
281.199	222.38
281.431	246.38
281.662	250.38
281.894	268.38
282.125	258.38
282.356	276.38
282.588	282.38
282.819	270.38
283.051	252.38
283.282	257.38
283.513	242.38
283.745	263.38
283.976	261.38
284.207	264.38
284.439	269.38
284.67	244.38
284.901	264.38
285.132	267.38
285.364	252.38
285.595	245.38
285.826	241.38
286.057	264.38
286.288	267.38
286.52	267.38
286.751	269.38
286.982	290.38
287.213	265.38
287.444	257.38
287.675	262.38
287.906	267.38
288.138	277.38
288.369	286.38
288.6	281.38
288.831	279.38
289.062	273.38
289.293	277.38
289.524	258.38
289.755	269.38
289.986	261.38
290.217	280.38
290.448	263.38
290.679	260.38
290.91	276.38
291.141	283.38
291.371	271.38
291.602	281.38
291.833	277.38
292.064	281.38
292.295	289.38
292.526	262.38
292.757	265.38
292.987	263.38
293.218	278.38
293.449	280.38
293.68	272.38
293.91	262.38
294.141	271.38
294.372	265.38
294.603	266.38
294.833	280.38
295.064	293.38
295.295	278.38
295.525	263.38
295.756	276.38
295.987	275.38
296.217	302.38
296.448	315.38
296.679	313.38
296.909	298.38
297.14	283.38
297.37	281.38
297.601	284.38
297.831	290.38
298.062	294.38
298.292	309.38
298.523	290.38
298.753	317.38
298.984	302.38
299.214	280.38
299.445	294.38
299.675	279.38
299.905	313.38
300.136	302.38
300.366	295.38
300.597	296.38
300.827	310.38
301.057	330.38
301.288	309.38
301.518	308.38
301.748	297.38
301.979	315.38
302.209	292.38
302.439	321.38
302.669	301.38
302.9	326.38
303.13	305.38
303.36	333.38
303.59	311.38
303.82	320.38
304.051	318.38
304.281	306.38
304.511	312.38
304.741	309.38
304.971	307.38
305.201	305.38
305.431	327.38
305.661	322.38
305.891	329.38
306.121	313.38
306.352	310.38
306.582	341.38
306.812	306.38
307.042	320.38
307.272	317.38
307.502	310.38
307.731	333.38
307.961	325.38
308.191	316.38
308.421	289.38
308.651	332.38
308.881	322.38
309.111	318.38
309.341	318.38
309.571	324.38
309.8	340.38
310.03	352.38
310.26	363.38
310.49	342.38
310.72	369.38
310.949	332.38
311.179	370.38
311.409	356.38
311.639	331.38
311.868	357.38
312.098	364.38
312.328	345.38
312.557	378.38
312.787	397.38
313.017	377.38
313.246	372.38
313.476	351.38
313.706	350.38
313.935	356.38
314.165	367.38
314.394	384.38
314.624	373.38
314.853	364.38
315.083	374.38
315.312	369.38
315.542	343.38
315.771	361.38
316.001	345.38
316.23	339.38
316.46	342.38
316.689	380.38
316.919	355.38
317.148	369.38
317.377	356.38
317.607	353.38
317.836	362.38
318.065	353.38
318.295	371.38
318.524	357.38
318.753	369.38
318.983	361.38
319.212	356.38
319.441	373.38
319.67	372.38
319.9	359.38
320.129	353.38
320.358	366.38
320.587	350.38
320.816	364.38
321.046	374.38
321.275	381.38
321.504	386.38
321.733	375.38
321.962	366.38
322.191	385.38
322.42	391.38
322.649	402.38
322.878	402.38
323.108	406.38
323.337	443.38
323.566	459.38
323.795	476.38
324.024	498.38
324.253	613.38
324.482	859.38
324.71	1315.38
324.939	1930.38
325.168	1713.38
325.397	848.38
325.626	579.38
325.855	492.38
326.084	474.38
326.313	449.38
326.542	449.38
326.77	498.38
326.999	574.38
327.228	775.38
327.457	1187.38
327.686	1504.38
327.914	979.38
328.143	627.38
328.372	563.38
328.6	540.38
328.829	506.38
329.058	503.38
329.287	521.38
329.515	503.38
329.744	457.38
329.972	483.38
330.201	493.38
330.43	504.38
330.658	533.38
330.887	551.38
331.115	526.38
331.344	475.38
331.572	465.38
331.801	467.38
332.03	448.38
332.258	448.38
332.486	412.38
332.715	428.38
332.943	433.38
333.172	446.38
333.4	433.38
333.629	422.38
333.857	450.38
334.085	483.38
334.314	476.38
334.542	525.38
334.771	503.38
334.999	501.38
335.227	464.38
335.455	453.38
335.684	450.38
335.912	446.38
336.14	418.38
336.369	415.38
336.597	433.38
336.825	443.38
337.053	445.38
337.281	423.38
337.51	429.38
337.738	425.38
337.966	452.38
338.194	423.38
338.422	417.38
338.65	419.38
338.878	409.38
339.106	414.38
339.334	399.38
339.562	417.38
339.79	385.38
340.018	410.38
340.246	407.38
340.474	438.38
340.702	422.38
340.93	416.38
341.158	418.38
341.386	433.38
341.614	402.38
341.842	431.38
342.07	420.38
342.298	391.38
342.526	397.38
342.754	391.38
342.981	399.38
343.209	417.38
343.437	407.38
343.665	423.38
343.893	393.38
344.12	434.38
344.348	428.38
344.576	433.38
344.804	423.38
345.031	441.38
345.259	430.38
345.487	421.38
345.714	428.38
345.942	393.38
346.17	400.38
346.397	389.38
346.625	422.38
346.853	391.38
347.08	385.38
347.308	421.38
347.535	402.38
347.763	405.38
347.99	379.38
348.218	412.38
348.445	400.38
348.673	419.38
348.9	399.38
349.128	383.38
349.355	410.38
349.583	392.38
349.81	410.38
350.037	380.38
350.265	392.38
350.492	369.38
350.72	387.38
350.947	387.38
351.174	387.38
351.402	393.38
351.629	399.38
351.856	408.38
352.083	415.38
352.311	419.38
352.538	410.38
352.765	411.38
352.992	395.38
353.22	387.38
353.447	408.38
353.674	401.38
353.901	391.38
354.128	375.38
354.355	388.38
354.583	371.38
354.81	380.38
355.037	403.38
355.264	391.38
355.491	383.38
355.718	386.38
355.945	365.38
356.172	387.38
356.399	382.38
356.626	355.38
356.853	377.38
357.08	376.38
357.307	407.38
357.534	376.38
357.761	395.38
357.988	381.38
358.215	375.38
358.441	395.38
358.668	376.38
358.895	385.38
359.122	389.38
359.349	389.38
359.576	417.38
359.802	427.38
360.029	429.38
360.256	458.38
360.483	445.38
360.709	397.38
360.936	418.38
361.163	397.38
361.39	409.38
361.616	405.38
361.843	402.38
362.07	410.38
362.296	406.38
362.523	390.38
362.749	386.38
362.976	384.38
363.203	397.38
363.429	399.38
363.656	395.38
363.882	390.38
364.109	393.38
364.335	395.38
364.562	390.38
364.788	386.38
365.015	407.38
365.241	385.38
365.468	404.38
365.694	416.38
365.92	411.38
366.147	398.38
366.373	404.38
366.599	397.38
366.826	389.38
367.052	394.38
367.278	397.38
367.505	395.38
367.731	383.38
367.957	383.38
368.184	388.38
368.41	393.38
368.636	395.38
368.862	424.38
369.089	394.38
369.315	412.38
369.541	399.38
369.767	400.38
369.993	398.38
370.219	386.38
370.445	408.38
370.672	385.38
370.898	401.38
371.124	386.38
371.35	397.38
371.576	397.38
371.802	382.38
372.028	395.38
372.254	394.38
372.48	399.38
372.706	400.38
372.932	411.38
373.158	394.38
373.384	392.38
373.61	420.38
373.835	392.38
374.061	397.38
374.287	404.38
374.513	420.38
374.739	397.38
374.965	404.38
375.191	409.38
375.416	428.38
375.642	415.38
375.868	404.38
376.094	400.38
376.319	376.38
376.545	404.38
376.771	407.38
376.997	415.38
377.222	415.38
377.448	386.38
377.674	392.38
377.899	413.38
378.125	400.38
378.35	377.38
378.576	382.38
378.802	388.38
379.027	403.38
379.253	387.38
379.478	427.38
379.704	409.38
379.929	394.38
380.155	402.38
380.38	391.38
380.606	424.38
380.831	400.38
381.057	392.38
381.282	403.38
381.507	402.38
381.733	419.38
381.958	393.38
382.184	397.38
382.409	418.38
382.634	422.38
382.86	406.38
383.085	400.38
383.31	428.38
383.535	401.38
383.761	391.38
383.986	417.38
384.211	417.38
384.436	440.38
384.662	448.38
384.887	435.38
385.112	434.38
385.337	428.38
385.562	437.38
385.787	425.38
386.013	458.38
386.238	452.38
386.463	463.38
386.688	468.38
386.913	453.38
387.138	443.38
387.363	446.38
387.588	464.38
387.813	445.38
388.038	476.38
388.263	456.38
388.488	455.38
388.713	454.38
388.938	448.38
389.163	451.38
389.387	465.38
389.612	464.38
389.837	451.38
390.062	449.38
390.287	458.38
390.512	451.38
390.736	451.38
390.961	462.38
391.186	455.38
391.411	475.38
391.636	456.38
391.86	472.38
392.085	463.38
392.31	487.38
392.534	471.38
392.759	455.38
392.984	460.38
393.208	459.38
393.433	476.38
393.658	481.38
393.882	475.38
394.107	482.38
394.331	454.38
394.556	463.38
394.78	456.38
395.005	472.38
395.229	464.38
395.454	475.38
395.678	500.38
395.903	497.38
396.127	499.38
396.352	513.38
396.576	469.38
396.801	482.38
397.025	487.38
397.249	493.38
397.474	505.38
397.698	498.38
397.922	495.38
398.147	529.38
398.371	528.38
398.595	522.38
398.82	501.38
399.044	554.38
399.268	561.38
399.492	597.38
399.717	615.38
399.941	655.38
400.165	649.38
400.389	651.38
400.613	616.38
400.837	556.38
401.062	558.38
401.286	540.38
401.51	541.38
401.734	529.38
401.958	548.38
402.182	535.38
402.406	533.38
402.63	534.38
402.854	560.38
403.078	546.38
403.302	532.38
403.526	541.38
403.75	545.38
403.974	581.38
404.198	551.38
404.422	551.38
404.645	548.38
404.869	565.38
405.093	588.38
405.317	629.38
405.541	641.38
405.765	622.38
405.988	597.38
406.212	587.38
406.436	623.38
406.66	648.38
406.883	607.38
407.107	617.38
407.331	648.38
407.555	723.38
407.778	708.38
408.002	659.38
408.226	609.38
408.449	627.38
408.673	611.38
408.896	630.38
409.12	692.38
409.344	641.38
409.567	569.38
409.791	572.38
410.014	578.38
410.238	561.38
410.461	558.38
410.685	565.38
410.908	601.38
411.132	599.38
411.355	633.38
411.578	615.38
411.802	565.38
412.025	575.38
412.249	578.38
412.472	595.38
412.695	623.38
412.919	623.38
413.142	580.38
413.365	572.38
413.589	541.38
413.812	527.38
414.035	540.38
414.258	543.38
414.482	529.38
414.705	545.38
414.928	528.38
415.151	521.38
415.374	551.38
415.597	523.38
415.821	524.38
416.044	544.38
416.267	548.38
416.49	503.38
416.713	522.38
416.936	549.38
417.159	523.38
417.382	555.38
417.605	513.38
417.828	538.38
418.051	571.38
418.274	550.38
418.497	519.38
418.72	524.38
418.943	516.38
419.166	567.38
419.389	583.38
419.611	565.38
419.834	571.38
420.057	557.38
420.28	541.38
420.503	551.38
420.726	573.38
420.948	563.38
421.171	587.38
421.394	625.38
421.617	574.38
421.839	527.38
422.062	540.38
422.285	551.38
422.507	600.38
422.73	657.38
422.953	652.38
423.175	590.38
423.398	577.38
423.621	556.38
423.843	601.38
424.066	594.38
424.288	573.38
424.511	609.38
424.733	650.38
424.956	732.38
425.178	674.38
425.401	684.38
425.623	697.38
425.846	592.38
426.068	582.38
426.291	582.38
426.513	577.38
426.735	589.38
426.958	599.38
427.18	657.38
427.402	819.38
427.625	890.38
427.847	767.38
428.069	692.38
428.292	621.38
428.514	562.38
428.736	549.38
428.958	558.38
429.181	558.38
429.403	534.38
429.625	531.38
429.847	567.38
430.069	635.38
430.292	642.38
430.514	555.38
430.736	525.38
430.958	526.38
431.18	524.38
431.402	514.38
431.624	514.38
431.846	527.38
432.068	495.38
432.29	490.38
432.512	521.38
432.734	505.38
432.956	515.38
433.178	527.38
433.4	538.38
433.622	530.38
433.844	511.38
434.066	532.38
434.287	519.38
434.509	520.38
434.731	527.38
434.953	546.38
435.175	571.38
435.397	569.38
435.618	574.38
435.84	606.38
436.062	710.38
436.284	732.38
436.505	637.38
436.727	586.38
436.949	571.38
437.17	542.38
437.392	565.38
437.614	556.38
437.835	571.38
438.057	656.38
438.278	758.38
438.5	753.38
438.721	815.38
438.943	803.38
439.165	629.38
439.386	600.38
439.608	596.38
439.829	565.38
440.05	603.38
440.272	651.38
440.493	628.38
440.715	557.38
440.936	572.38
441.158	544.38
441.379	537.38
441.6	544.38
441.822	563.38
442.043	622.38
442.264	698.38
442.486	729.38
442.707	641.38
442.928	571.38
443.149	606.38
443.371	617.38
443.592	663.38
443.813	744.38
444.034	796.38
444.255	681.38
444.476	618.38
444.698	616.38
444.919	614.38
445.14	693.38
445.361	630.38
445.582	641.38
445.803	670.38
446.024	748.38
446.245	785.38
446.466	704.38
446.687	621.38
446.908	579.38
447.129	550.38
447.35	547.38
447.571	544.38
447.792	533.38
448.013	528.38
448.234	557.38
448.455	595.38
448.675	685.38
448.896	795.38
449.117	681.38
449.338	638.38
449.559	732.38
449.779	853.38
450	681.38
450.221	577.38
450.442	557.38
450.662	538.38
450.883	551.38
451.104	534.38
451.324	518.38
451.545	523.38
451.766	497.38
451.986	502.38
452.207	465.38
452.428	477.38
452.648	499.38
452.869	467.38
453.089	482.38
453.31	490.38
453.53	466.38
453.751	478.38
453.971	487.38
454.192	519.38
454.412	468.38
454.633	483.38
454.853	486.38
455.073	475.38
455.294	514.38
455.514	556.38
455.734	523.38
455.955	490.38
456.175	452.38
456.395	447.38
456.616	456.38
456.836	468.38
457.056	451.38
457.276	439.38
457.497	477.38
457.717	458.38
457.937	471.38
458.157	487.38
458.377	491.38
458.598	484.38
458.818	537.38
459.038	623.38
459.258	630.38
459.478	585.38
459.698	502.38
459.918	524.38
460.138	518.38
460.358	555.38
460.578	545.38
460.798	531.38
461.018	532.38
461.238	549.38
461.458	534.38
461.678	534.38
461.898	536.38
462.118	537.38
462.338	526.38
462.558	536.38
462.777	574.38
462.997	604.38
463.217	631.38
463.437	612.38
463.657	585.38
463.876	585.38
464.096	589.38
464.316	592.38
464.536	576.38
464.755	592.38
464.975	565.38
465.195	623.38
465.414	676.38
465.634	598.38
465.854	554.38
466.073	539.38
466.293	525.38
466.512	524.38
466.732	510.38
466.951	491.38
467.171	489.38
467.391	513.38
467.61	498.38
467.829	511.38
468.049	549.38
468.268	520.38
468.488	495.38
468.707	516.38
468.927	492.38
469.146	510.38
469.365	497.38
469.585	475.38
469.804	481.38
470.023	517.38
470.243	513.38
470.462	506.38
470.681	520.38
470.901	527.38
471.12	533.38
471.339	530.38
471.558	504.38
471.777	502.38
471.997	490.38
472.216	509.38
472.435	542.38
472.654	535.38
472.873	513.38
473.092	499.38
473.311	494.38
473.53	502.38
473.749	535.38
473.968	537.38
474.187	617.38
474.406	635.38
474.625	543.38
474.844	493.38
475.063	514.38
475.282	524.38
475.501	531.38
475.72	513.38
475.939	525.38
476.158	530.38
476.377	501.38
476.596	534.38
476.814	527.38
477.033	533.38
477.252	542.38
477.471	545.38
477.69	554.38
477.908	570.38
478.127	590.38
478.346	562.38
478.564	558.38
478.783	581.38
479.002	593.38
479.22	559.38
479.439	604.38
479.658	629.38
479.876	604.38
480.095	614.38
480.313	638.38
480.532	633.38
480.751	630.38
480.969	636.38
481.188	661.38
481.406	707.38
481.624	647.38
481.843	624.38
482.061	595.38
482.28	595.38
482.498	595.38
482.717	588.38
482.935	600.38
483.153	579.38
483.372	589.38
483.59	590.38
483.808	592.38
484.027	589.38
484.245	596.38
484.463	598.38
484.681	620.38
484.9	614.38
485.118	636.38
485.336	615.38
485.554	609.38
485.772	614.38
485.99	601.38
486.209	597.38
486.427	623.38
486.645	639.38
486.863	637.38
487.081	657.38
487.299	635.38
487.517	635.38
487.735	640.38
487.953	631.38
488.171	633.38
488.389	616.38
488.607	618.38
488.825	635.38
489.043	628.38
489.261	632.38
489.479	647.38
489.696	673.38
489.914	641.38
490.132	658.38
490.35	645.38
490.568	661.38
490.786	671.38
491.003	674.38
491.221	693.38
491.439	690.38
491.657	697.38
491.874	698.38
492.092	711.38
492.31	682.38
492.527	731.38
492.745	714.38
492.963	727.38
493.18	725.38
493.398	726.38
493.615	750.38
493.833	757.38
494.05	718.38
494.268	733.38
494.485	717.38
494.703	718.38
494.92	737.38
495.138	736.38
495.355	721.38
495.573	715.38
495.79	762.38
496.008	745.38
496.225	752.38
496.442	743.38
496.66	761.38
496.877	742.38
497.094	735.38
497.312	772.38
497.529	757.38
497.746	814.38
497.963	813.38
498.181	807.38
498.398	844.38
498.615	863.38
498.832	895.38
499.049	917.38
499.267	948.38
499.484	949.38
499.701	982.38
499.918	1031.38
500.135	1088.38
500.352	1146.38
500.569	1171.38
500.786	1181.38
501.003	1159.38
501.22	1085.38
501.437	1036.38
501.654	1035.38
501.871	990.38
502.088	926.38
502.305	922.38
502.522	889.38
502.739	853.38
502.956	854.38
503.172	819.38
503.389	796.38
503.606	773.38
503.823	772.38
504.04	764.38
504.256	766.38
504.473	758.38
504.69	761.38
504.907	791.38
505.123	733.38
505.34	731.38
505.557	734.38
505.773	713.38
505.99	693.38
506.207	714.38
506.423	732.38
506.64	714.38
506.856	696.38
507.073	710.38
507.289	695.38
507.506	680.38
507.722	683.38
507.939	729.38
508.155	681.38
508.372	680.38
508.588	643.38
508.805	678.38
509.021	644.38
509.238	695.38
509.454	680.38
509.67	656.38
509.887	650.38
510.103	645.38
510.319	653.38
510.536	741.38
510.752	1210.38
510.968	991.38
511.184	665.38
511.401	636.38
511.617	653.38
511.833	627.38
512.049	617.38
512.265	614.38
512.481	641.38
512.698	635.38
512.914	644.38
513.13	610.38
513.346	612.38
513.562	621.38
513.778	624.38
513.994	630.38
514.21	638.38
514.426	673.38
514.642	684.38
514.858	733.38
515.074	772.38
515.29	859.38
515.506	1241.38
515.721	1075.38
515.937	746.38
516.153	686.38
516.369	666.38
516.585	674.38
516.801	678.38
517.016	683.38
517.232	668.38
517.448	675.38
517.664	673.38
517.879	657.38
518.095	687.38
518.311	693.38
518.527	679.38
518.742	673.38
518.958	656.38
519.173	674.38
519.389	657.38
519.605	642.38
519.82	643.38
520.036	671.38
520.251	676.38
520.467	699.38
520.682	679.38
520.898	685.38
521.113	682.38
521.329	722.38
521.544	777.38
521.76	965.38
521.975	1554.38
522.19	1587.38
522.406	901.38
522.621	691.38
522.836	645.38
523.052	630.38
523.267	586.38
523.482	587.38
523.698	562.38
523.913	579.38
524.128	599.38
524.343	563.38
524.559	574.38
524.774	576.38
524.989	557.38
525.204	591.38
525.419	594.38
525.634	563.38
525.849	550.38
526.064	540.38
526.28	544.38
526.495	559.38
526.71	543.38
526.925	542.38
527.14	545.38
527.355	517.38
527.57	533.38
527.785	546.38
527.999	523.38
528.214	529.38
528.429	531.38
528.644	531.38
528.859	527.38
529.074	546.38
529.289	547.38
529.503	617.38
529.718	599.38
529.933	562.38
530.148	533.38
530.363	530.38
530.577	551.38
530.792	522.38
531.007	512.38
531.221	545.38
531.436	510.38
531.651	501.38
531.865	500.38
532.08	510.38
532.295	519.38
532.509	510.38
532.724	495.38
532.938	535.38
533.153	507.38
533.367	511.38
533.582	493.38
533.796	525.38
534.011	509.38
534.225	512.38
534.44	500.38
534.654	519.38
534.868	503.38
535.083	493.38
535.297	492.38
535.511	501.38
535.726	510.38
535.94	531.38
536.154	500.38
536.369	503.38
536.583	507.38
536.797	504.38
537.011	479.38
537.225	481.38
537.44	502.38
537.654	492.38
537.868	493.38
538.082	490.38
538.296	477.38
538.51	481.38
538.724	496.38
538.938	493.38
539.153	486.38
539.367	491.38
539.581	502.38
539.795	488.38
540.009	483.38
540.222	493.38
540.436	484.38
540.65	477.38
540.864	482.38
541.078	488.38
541.292	513.38
541.506	494.38
541.72	485.38
541.934	483.38
542.147	489.38
542.361	500.38
542.575	460.38
542.789	485.38
543.002	491.38
543.216	490.38
543.43	467.38
543.644	491.38
543.857	489.38
544.071	491.38
544.285	498.38
544.498	477.38
544.712	480.38
544.925	480.38
545.139	494.38
545.352	473.38
545.566	471.38
545.779	484.38
545.993	492.38
546.206	498.38
546.42	469.38
546.633	460.38
546.847	481.38
547.06	484.38
547.274	481.38
547.487	462.38
547.7	477.38
547.914	455.38
548.127	471.38
548.34	487.38
548.554	469.38
548.767	490.38
548.98	469.38
549.193	461.38
549.407	480.38
549.62	469.38
549.833	490.38
550.046	462.38
550.259	470.38
550.473	456.38
550.686	472.38
550.899	460.38
551.112	463.38
551.325	456.38
551.538	438.38
551.751	489.38
551.964	474.38
552.177	470.38
552.39	467.38
552.603	472.38
552.816	477.38
553.029	468.38
553.242	508.38
553.455	497.38
553.667	508.38
553.88	486.38
554.093	494.38
554.306	462.38
554.519	474.38
554.732	460.38
554.944	438.38
555.157	467.38
555.37	449.38
555.583	433.38
555.795	463.38
556.008	440.38
556.221	420.38
556.433	428.38
556.646	442.38
556.859	452.38
557.071	444.38
557.284	428.38
557.496	424.38
557.709	401.38
557.921	425.38
558.134	395.38
558.346	411.38
558.559	428.38
558.771	417.38
558.984	417.38
559.196	419.38
559.409	409.38
559.621	423.38
559.833	407.38
560.046	422.38
560.258	418.38
560.47	415.38
560.683	406.38
560.895	405.38
561.107	423.38
561.32	406.38
561.532	410.38
561.744	421.38
561.956	415.38
562.168	410.38
562.381	410.38
562.593	429.38
562.805	417.38
563.017	420.38
563.229	426.38
563.441	433.38
563.653	442.38
563.865	434.38
564.077	420.38
564.289	437.38
564.501	442.38
564.713	449.38
564.925	434.38
565.137	457.38
565.349	460.38
565.561	471.38
565.773	489.38
565.985	485.38
566.197	491.38
566.408	511.38
566.62	543.38
566.832	547.38
567.044	521.38
567.255	516.38
567.467	562.38
567.679	544.38
567.891	562.38
568.102	601.38
568.314	561.38
568.526	544.38
568.737	515.38
568.949	495.38
569.161	473.38
569.372	479.38
569.584	453.38
569.795	452.38
570.007	453.38
570.218	466.38
570.43	439.38
570.641	434.38
570.853	411.38
571.064	403.38
571.276	416.38
571.487	417.38
571.698	407.38
571.91	399.38
572.121	410.38
572.333	375.38
572.544	394.38
572.755	381.38
572.966	398.38
573.178	395.38
573.389	373.38
573.6	378.38
573.811	374.38
574.023	377.38
574.234	359.38
574.445	361.38
574.656	354.38
574.867	361.38
575.078	349.38
575.289	357.38
575.501	370.38
575.712	342.38
575.923	354.38
576.134	368.38
576.345	355.38
576.556	329.38
576.767	354.38
576.978	349.38
577.188	358.38
577.399	348.38
577.61	327.38
577.821	350.38
578.032	338.38
578.243	393.38
578.454	581.38
578.665	444.38
578.875	348.38
579.086	332.38
579.297	314.38
579.508	332.38
579.718	333.38
579.929	343.38
580.14	334.38
580.35	317.38
580.561	327.38
580.772	321.38
580.982	339.38
581.193	337.38
581.403	335.38
581.614	326.38
581.825	317.38
582.035	326.38
582.246	329.38
582.456	321.38
582.667	324.38
582.877	329.38
583.087	338.38
583.298	319.38
583.508	307.38
583.719	325.38
583.929	344.38
584.139	311.38
584.35	311.38
584.56	311.38
584.77	325.38
584.981	319.38
585.191	322.38
585.401	311.38
585.611	315.38
585.821	321.38
586.032	302.38
586.242	334.38
586.452	338.38
586.662	302.38
586.872	315.38
587.082	311.38
587.292	300.38
587.502	314.38
587.713	299.38
587.923	295.38
588.133	311.38
588.343	315.38
588.553	304.38
588.762	311.38
588.972	333.38
589.182	326.38
589.392	339.38
589.602	325.38
589.812	321.38
590.022	330.38
590.232	319.38
590.441	303.38
590.651	298.38
590.861	334.38
591.071	307.38
591.281	339.38
591.49	316.38
591.7	316.38
591.91	309.38
592.119	302.38
592.329	309.38
592.539	336.38
592.748	330.38
592.958	343.38
593.167	355.38
593.377	356.38
593.587	350.38
593.796	355.38
594.006	338.38
594.215	337.38
594.424	357.38
594.634	346.38
594.843	326.38
595.053	336.38
595.262	332.38
595.472	313.38
595.681	337.38
595.89	310.38
596.1	317.38
596.309	281.38
596.518	300.38
596.727	299.38
596.937	297.38
597.146	286.38
597.355	293.38
597.564	306.38
597.774	307.38
597.983	288.38
598.192	265.38
598.401	291.38
598.61	268.38
598.819	293.38
599.028	276.38
599.237	305.38
599.446	279.38
599.655	286.38
599.864	283.38
600.073	279.38
600.282	265.38
600.491	266.38
600.7	267.38
600.909	260.38
601.118	285.38
601.327	262.38
601.536	280.38
601.745	290.38
601.953	282.38
602.162	274.38
602.371	262.38
602.58	270.38
602.789	266.38
602.997	273.38
603.206	271.38
603.415	269.38
603.623	260.38
603.832	274.38
604.041	266.38
604.249	258.38
604.458	259.38
604.666	257.38
604.875	251.38
605.084	271.38
605.292	246.38
605.501	252.38
605.709	249.38
605.918	245.38
606.126	247.38
606.334	260.38
606.543	243.38
606.751	269.38
606.96	267.38
607.168	245.38
607.376	265.38
607.585	263.38
607.793	275.38
608.001	232.38
608.21	263.38
608.418	249.38
608.626	257.38
608.834	245.38
609.043	245.38
609.251	232.38
609.459	257.38
609.667	267.38
609.875	260.38
610.083	262.38
610.291	285.38
610.499	259.38
610.707	249.38
610.916	259.38
611.124	248.38
611.332	278.38
611.54	266.38
611.748	260.38
611.955	266.38
612.163	257.38
612.371	259.38
612.579	264.38
612.787	262.38
612.995	235.38
613.203	239.38
613.411	242.38
613.618	236.38
613.826	267.38
614.034	261.38
614.242	252.38
614.449	250.38
614.657	234.38
614.865	242.38
615.072	236.38
615.28	236.38
615.488	230.38
615.695	237.38
615.903	253.38
616.111	254.38
616.318	242.38
616.526	259.38
616.733	249.38
616.941	255.38
617.148	242.38
617.356	246.38
617.563	226.38
617.771	229.38
617.978	236.38
618.185	227.38
618.393	233.38
618.6	255.38
618.807	239.38
619.015	243.38
619.222	251.38
619.429	229.38
619.637	233.38
619.844	226.38
620.051	236.38
620.258	246.38
620.466	219.38
620.673	218.38
620.88	226.38
621.087	225.38
621.294	240.38
621.501	229.38
621.708	229.38
621.915	226.38
622.122	244.38
622.329	249.38
622.536	228.38
622.743	231.38
622.95	245.38
623.157	227.38
623.364	230.38
623.571	232.38
623.778	242.38
623.985	209.38
624.192	230.38
624.399	224.38
624.606	233.38
624.812	226.38
625.019	226.38
625.226	224.38
625.433	218.38
625.639	227.38
625.846	219.38
626.053	214.38
626.259	213.38
626.466	216.38
626.673	218.38
626.879	203.38
627.086	211.38
627.293	219.38
627.499	231.38
627.706	212.38
627.912	206.38
628.119	223.38
628.325	220.38
628.532	215.38
628.738	214.38
628.945	203.38
629.151	219.38
629.357	213.38
629.564	201.38
629.77	204.38
629.976	196.38
630.183	215.38
630.389	198.38
630.595	194.38
630.802	199.38
631.008	198.38
631.214	199.38
631.42	217.38
631.627	203.38
631.833	204.38
632.039	193.38
632.245	199.38
632.451	192.38
632.657	197.38
632.863	204.38
633.069	211.38
633.275	211.38
633.481	184.38
633.688	175.38
633.893	190.38
634.099	198.38
634.305	198.38
634.511	184.38
634.717	206.38
634.923	196.38
635.129	201.38
635.335	194.38
635.541	199.38
635.747	181.38
635.952	195.38
636.158	187.38
636.364	190.38
636.57	181.38
636.775	187.38
636.981	188.38
637.187	193.38
637.392	180.38
637.598	179.38
637.804	170.38
638.009	196.38
638.215	191.38
638.421	192.38
638.626	181.38
638.832	196.38
639.037	188.38
639.243	172.38
639.448	178.38
639.654	181.38
639.859	167.38
640.065	185.38
640.27	174.38
640.475	193.38
640.681	167.38
640.886	171.38
641.091	188.38
641.297	170.38
641.502	179.38
641.707	181.38
641.913	166.38
642.118	177.38
642.323	183.38
642.528	177.38
642.733	160.38
642.939	173.38
643.144	184.38
643.349	177.38
643.554	187.38
643.759	172.38
643.964	171.38
644.169	169.38
644.374	164.38
644.579	169.38
644.784	171.38
644.989	187.38
645.194	183.38
645.399	170.38
645.604	169.38
645.809	164.38
646.014	173.38
646.219	168.38
646.423	172.38
646.628	171.38
646.833	185.38
647.038	170.38
647.243	172.38
647.447	160.38
647.652	191.38
647.857	169.38
648.062	182.38
648.266	181.38
648.471	185.38
648.676	186.38
648.88	185.38
649.085	179.38
649.289	184.38
649.494	174.38
649.698	194.38
649.903	188.38
650.107	182.38
650.312	150.38
650.516	173.38
650.721	154.38
650.925	168.38
651.13	153.38
651.334	154.38
651.539	166.38
651.743	162.38
651.947	161.38
652.152	164.38
652.356	170.38
652.56	144.38
652.764	143.38
652.969	145.38
653.173	128.38
653.377	136.38
653.581	141.38
653.785	132.38
653.99	142.38
654.194	145.38
654.398	127.38
654.602	131.38
654.806	134.38
655.01	154.38
655.214	150.38
655.418	133.38
655.622	131.38
655.826	129.38
656.03	139.38
656.234	142.38
656.438	140.38
656.642	129.38
656.846	131.38
657.049	127.38
657.253	137.38
657.457	131.38
657.661	123.38
657.865	131.38
658.068	104.38
658.272	125.38
658.476	108.38
658.68	98.38
658.883	96.38
659.087	110.38
659.291	100.38
659.494	96.38
659.698	93.38
659.901	86.38
660.105	96.38
660.309	88.38
660.512	86.38
660.716	111.38
660.919	87.38
661.123	98.38
661.326	104.38
661.53	102.38
661.733	105.38
661.936	86.38
662.14	79.38
662.343	102.38
662.546	87.38
662.75	99.38
662.953	81.38
663.156	97.38
663.36	80.38
663.563	86.38
663.766	86.38
663.969	97.38
664.173	80.38
664.376	79.38
664.579	72.38
664.782	76.38
664.985	80.38
665.188	81.38
665.391	83.38
665.594	82.38
665.797	101.38
666	79.38
666.203	79.38
666.406	90.38
666.609	86.38
666.812	82.38
667.015	87.38
667.218	87.38
667.421	75.38
667.624	68.38
667.827	80.38
668.03	70.38
668.232	72.38
668.435	90.38
668.638	92.38
668.841	78.38
669.043	83.38
669.246	81.38
669.449	79.38
669.651	81.38
669.854	76.38
670.057	78.38
670.259	83.38
670.462	93.38
670.665	80.38
670.867	98.38
671.07	83.38
671.272	90.38
671.475	98.38
671.677	92.38
671.88	101.38
672.082	86.38
672.284	77.38
672.487	79.38
672.689	87.38
672.892	85.38
