Data from 1979.PennyLincolnUp.Lamp.En5.5.200Scan.071719.P1_HRD10591_16-17-24-863.txt Node
Date: Thu Jul 18 16:17:24 EDT 2019
User: cochatt
Spectrometer: HR+D1059
Trigger mode: 1
Integration Time (sec): 1.000000E-1
Scans to average: 1
Electric dark correction enabled: true
Nonlinearity correction enabled: false
Boxcar width: 0
XAxis mode: Wavelengths
Number of Pixels in Spectrum: 2048
>>>>>Begin Spectral Data<<<<<
223.165	-23.31
223.4	-23.31
223.635	-23.31
223.869	-21.31
224.104	-13.31
224.338	-8.31
224.573	-19.31
224.808	-16.31
225.042	-6.31
225.277	-9.31
225.511	0.69
225.746	5.69
225.98	16.69
226.215	10.69
226.449	22.69
226.683	8.69
226.918	12.69
227.152	39.69
227.387	24.69
227.621	28.69
227.856	26.69
228.09	35.69
228.324	31.69
228.559	46.69
228.793	72.69
229.027	96.69
229.262	108.69
229.496	131.69
229.73	151.69
229.964	177.69
230.199	155.69
230.433	122.69
230.667	131.69
230.901	139.69
231.136	109.69
231.37	117.69
231.604	98.69
231.838	118.69
232.072	115.69
232.306	114.69
232.541	120.69
232.775	116.69
233.009	109.69
233.243	125.69
233.477	123.69
233.711	130.69
233.945	132.69
234.179	120.69
234.413	123.69
234.647	120.69
234.881	121.69
235.115	133.69
235.349	124.69
235.583	124.69
235.817	123.69
236.051	129.69
236.285	123.69
236.519	145.69
236.753	139.69
236.987	145.69
237.221	227.69
237.455	274.69
237.689	209.69
237.922	149.69
238.156	146.69
238.39	129.69
238.624	153.69
238.858	154.69
239.091	135.69
239.325	135.69
239.559	136.69
239.793	135.69
240.027	142.69
240.26	157.69
240.494	192.69
240.728	175.69
240.961	159.69
241.195	156.69
241.429	155.69
241.662	156.69
241.896	143.69
242.13	141.69
242.363	148.69
242.597	136.69
242.83	149.69
243.064	159.69
243.298	151.69
243.531	148.69
243.765	123.69
243.998	139.69
244.232	134.69
244.465	147.69
244.699	158.69
244.932	140.69
245.166	160.69
245.399	150.69
245.633	153.69
245.866	147.69
246.099	167.69
246.333	153.69
246.566	149.69
246.8	163.69
247.033	160.69
247.266	167.69
247.5	169.69
247.733	189.69
247.966	187.69
248.2	222.69
248.433	204.69
248.666	191.69
248.899	206.69
249.133	222.69
249.366	217.69
249.599	226.69
249.832	191.69
250.066	186.69
250.299	191.69
250.532	199.69
250.765	225.69
250.998	249.69
251.231	245.69
251.465	233.69
251.698	219.69
251.931	255.69
252.164	239.69
252.397	219.69
252.63	226.69
252.863	217.69
253.096	249.69
253.329	251.69
253.562	248.69
253.795	224.69
254.028	241.69
254.261	231.69
254.494	234.69
254.727	269.69
254.96	289.69
255.193	287.69
255.426	243.69
255.659	231.69
255.892	223.69
256.124	231.69
256.357	205.69
256.59	243.69
256.823	210.69
257.056	211.69
257.289	210.69
257.521	224.69
257.754	212.69
257.987	213.69
258.22	217.69
258.452	205.69
258.685	216.69
258.918	228.69
259.151	236.69
259.383	226.69
259.616	232.69
259.849	234.69
260.081	253.69
260.314	264.69
260.547	271.69
260.779	245.69
261.012	240.69
261.244	248.69
261.477	246.69
261.71	243.69
261.942	274.69
262.175	327.69
262.407	292.69
262.64	227.69
262.872	236.69
263.105	236.69
263.337	246.69
263.57	239.69
263.802	224.69
264.035	230.69
264.267	252.69
264.499	236.69
264.732	226.69
264.964	224.69
265.197	231.69
265.429	232.69
265.661	223.69
265.894	235.69
266.126	243.69
266.358	231.69
266.591	212.69
266.823	218.69
267.055	249.69
267.287	253.69
267.52	235.69
267.752	242.69
267.984	231.69
268.216	244.69
268.448	241.69
268.681	246.69
268.913	266.69
269.145	273.69
269.377	285.69
269.609	298.69
269.841	295.69
270.073	294.69
270.306	326.69
270.538	358.69
270.77	332.69
271.002	313.69
271.234	301.69
271.466	315.69
271.698	325.69
271.93	338.69
272.162	356.69
272.394	342.69
272.626	340.69
272.858	330.69
273.09	285.69
273.322	284.69
273.553	271.69
273.785	285.69
274.017	284.69
274.249	284.69
274.481	299.69
274.713	292.69
274.945	311.69
275.176	312.69
275.408	311.69
275.64	289.69
275.872	285.69
276.104	270.69
276.335	300.69
276.567	304.69
276.799	349.69
277.031	403.69
277.262	399.69
277.494	371.69
277.726	330.69
277.957	325.69
278.189	310.69
278.421	301.69
278.652	305.69
278.884	301.69
279.115	308.69
279.347	347.69
279.579	441.69
279.81	569.69
280.042	519.69
280.273	445.69
280.505	483.69
280.736	439.69
280.968	325.69
281.199	289.69
281.431	298.69
281.662	283.69
281.894	304.69
282.125	315.69
282.356	335.69
282.588	379.69
282.819	393.69
283.051	322.69
283.282	303.69
283.513	294.69
283.745	310.69
283.976	319.69
284.207	329.69
284.439	313.69
284.67	300.69
284.901	307.69
285.132	327.69
285.364	352.69
285.595	347.69
285.826	307.69
286.057	324.69
286.288	298.69
286.52	300.69
286.751	317.69
286.982	300.69
287.213	321.69
287.444	314.69
287.675	307.69
287.906	345.69
288.138	360.69
288.369	410.69
288.6	401.69
288.831	357.69
289.062	348.69
289.293	307.69
289.524	320.69
289.755	327.69
289.986	320.69
290.217	285.69
290.448	291.69
290.679	319.69
290.91	304.69
291.141	334.69
291.371	299.69
291.602	307.69
291.833	303.69
292.064	315.69
292.295	313.69
292.526	330.69
292.757	309.69
292.987	319.69
293.218	313.69
293.449	322.69
293.68	311.69
293.91	313.69
294.141	318.69
294.372	328.69
294.603	325.69
294.833	334.69
295.064	325.69
295.295	311.69
295.525	324.69
295.756	333.69
295.987	348.69
296.217	409.69
296.448	435.69
296.679	361.69
296.909	332.69
297.14	328.69
297.37	325.69
297.601	345.69
297.831	330.69
298.062	339.69
298.292	358.69
298.523	339.69
298.753	338.69
298.984	342.69
299.214	350.69
299.445	354.69
299.675	336.69
299.905	357.69
300.136	352.69
300.366	343.69
300.597	365.69
300.827	368.69
301.057	381.69
301.288	411.69
301.518	401.69
301.748	370.69
301.979	363.69
302.209	373.69
302.439	369.69
302.669	377.69
302.9	353.69
303.13	347.69
303.36	355.69
303.59	364.69
303.82	416.69
304.051	393.69
304.281	392.69
304.511	374.69
304.741	357.69
304.971	351.69
305.201	359.69
305.431	357.69
305.661	353.69
305.891	384.69
306.121	380.69
306.352	389.69
306.582	367.69
306.812	394.69
307.042	381.69
307.272	388.69
307.502	378.69
307.731	383.69
307.961	407.69
308.191	391.69
308.421	392.69
308.651	385.69
308.881	409.69
309.111	407.69
309.341	407.69
309.571	432.69
309.8	437.69
310.03	469.69
310.26	502.69
310.49	481.69
310.72	497.69
310.949	504.69
311.179	527.69
311.409	476.69
311.639	467.69
311.868	471.69
312.098	469.69
312.328	492.69
312.557	503.69
312.787	552.69
313.017	561.69
313.246	497.69
313.476	449.69
313.706	460.69
313.935	473.69
314.165	475.69
314.394	535.69
314.624	508.69
314.853	479.69
315.083	477.69
315.312	448.69
315.542	459.69
315.771	445.69
316.001	476.69
316.23	486.69
316.46	461.69
316.689	469.69
316.919	453.69
317.148	491.69
317.377	492.69
317.607	503.69
317.836	501.69
318.065	539.69
318.295	546.69
318.524	518.69
318.753	494.69
318.983	457.69
319.212	444.69
319.441	492.69
319.67	476.69
319.9	459.69
320.129	457.69
320.358	461.69
320.587	441.69
320.816	461.69
321.046	492.69
321.275	477.69
321.504	507.69
321.733	515.69
321.962	505.69
322.191	523.69
322.42	548.69
322.649	584.69
322.878	587.69
323.108	647.69
323.337	670.69
323.566	747.69
323.795	818.69
324.024	951.69
324.253	1243.69
324.482	1962.69
324.71	3313.69
324.939	4840.69
325.168	4050.69
325.397	1880.69
325.626	1103.69
325.855	831.69
326.084	722.69
326.313	705.69
326.542	723.69
326.77	832.69
326.999	1066.69
327.228	1675.69
327.457	2889.69
327.686	3658.69
327.914	2150.69
328.143	1265.69
328.372	1075.69
328.6	956.69
328.829	863.69
329.058	913.69
329.287	927.69
329.515	845.69
329.744	705.69
329.972	661.69
330.201	728.69
330.43	824.69
330.658	907.69
330.887	983.69
331.115	1001.69
331.344	739.69
331.572	652.69
331.801	661.69
332.03	679.69
332.258	604.69
332.486	563.69
332.715	540.69
332.943	543.69
333.172	541.69
333.4	559.69
333.629	568.69
333.857	605.69
334.085	631.69
334.314	640.69
334.542	700.69
334.771	746.69
334.999	675.69
335.227	646.69
335.455	572.69
335.684	541.69
335.912	586.69
336.14	530.69
336.369	561.69
336.597	554.69
336.825	556.69
337.053	533.69
337.281	532.69
337.51	532.69
337.738	543.69
337.966	540.69
338.194	554.69
338.422	564.69
338.65	553.69
338.878	513.69
339.106	491.69
339.334	545.69
339.562	515.69
339.79	508.69
340.018	523.69
340.246	501.69
340.474	553.69
340.702	530.69
340.93	501.69
341.158	477.69
341.386	513.69
341.614	537.69
341.842	533.69
342.07	511.69
342.298	477.69
342.526	495.69
342.754	469.69
342.981	467.69
343.209	488.69
343.437	492.69
343.665	483.69
343.893	492.69
344.12	531.69
344.348	505.69
344.576	524.69
344.804	531.69
345.031	538.69
345.259	580.69
345.487	569.69
345.714	533.69
345.942	541.69
346.17	528.69
346.397	499.69
346.625	506.69
346.853	509.69
347.08	485.69
347.308	511.69
347.535	513.69
347.763	553.69
347.99	526.69
348.218	535.69
348.445	552.69
348.673	569.69
348.9	515.69
349.128	505.69
349.355	475.69
349.583	481.69
349.81	487.69
350.037	467.69
350.265	456.69
350.492	480.69
350.72	471.69
350.947	492.69
351.174	529.69
351.402	551.69
351.629	543.69
351.856	564.69
352.083	554.69
352.311	557.69
352.538	572.69
352.765	588.69
352.992	557.69
353.22	519.69
353.447	511.69
353.674	490.69
353.901	485.69
354.128	457.69
354.355	454.69
354.583	488.69
354.81	457.69
355.037	448.69
355.264	437.69
355.491	447.69
355.718	447.69
355.945	433.69
356.172	443.69
356.399	432.69
356.626	438.69
356.853	455.69
357.08	457.69
357.307	460.69
357.534	449.69
357.761	445.69
357.988	459.69
358.215	481.69
358.441	473.69
358.668	461.69
358.895	457.69
359.122	471.69
359.349	487.69
359.576	526.69
359.802	589.69
360.029	647.69
360.256	680.69
360.483	651.69
360.709	527.69
360.936	503.69
361.163	535.69
361.39	531.69
361.616	563.69
361.843	544.69
362.07	533.69
362.296	567.69
362.523	512.69
362.749	517.69
362.976	490.69
363.203	499.69
363.429	484.69
363.656	493.69
363.882	471.69
364.109	470.69
364.335	475.69
364.562	467.69
364.788	486.69
365.015	495.69
365.241	485.69
365.468	479.69
365.694	509.69
365.92	494.69
366.147	502.69
366.373	465.69
366.599	473.69
366.826	458.69
367.052	457.69
367.278	462.69
367.505	477.69
367.731	477.69
367.957	487.69
368.184	483.69
368.41	462.69
368.636	513.69
368.862	504.69
369.089	463.69
369.315	492.69
369.541	460.69
369.767	474.69
369.993	499.69
370.219	485.69
370.445	475.69
370.672	487.69
370.898	487.69
371.124	469.69
371.35	464.69
371.576	448.69
371.802	456.69
372.028	459.69
372.254	464.69
372.48	461.69
372.706	447.69
372.932	455.69
373.158	449.69
373.384	458.69
373.61	486.69
373.835	502.69
374.061	516.69
374.287	488.69
374.513	491.69
374.739	483.69
374.965	477.69
375.191	467.69
375.416	487.69
375.642	476.69
375.868	483.69
376.094	482.69
376.319	467.69
376.545	449.69
376.771	461.69
376.997	444.69
377.222	433.69
377.448	465.69
377.674	467.69
377.899	463.69
378.125	451.69
378.35	433.69
378.576	459.69
378.802	454.69
379.027	460.69
379.253	470.69
379.478	454.69
379.704	448.69
379.929	443.69
380.155	454.69
380.38	445.69
380.606	456.69
380.831	475.69
381.057	455.69
381.282	467.69
381.507	460.69
381.733	480.69
381.958	490.69
382.184	482.69
382.409	471.69
382.634	488.69
382.86	496.69
383.085	496.69
383.31	511.69
383.535	513.69
383.761	505.69
383.986	535.69
384.211	537.69
384.436	514.69
384.662	482.69
384.887	506.69
385.112	527.69
385.337	532.69
385.562	551.69
385.787	523.69
386.013	553.69
386.238	579.69
386.463	585.69
386.688	552.69
386.913	539.69
387.138	524.69
387.363	544.69
387.588	518.69
387.813	519.69
388.038	512.69
388.263	533.69
388.488	538.69
388.713	523.69
388.938	510.69
389.163	517.69
389.387	525.69
389.612	509.69
389.837	506.69
390.062	513.69
390.287	508.69
390.512	529.69
390.736	507.69
390.961	540.69
391.186	504.69
391.411	523.69
391.636	549.69
391.86	517.69
392.085	560.69
392.31	554.69
392.534	580.69
392.759	611.69
392.984	718.69
393.208	1035.69
393.433	1683.69
393.658	1976.69
393.882	983.69
394.107	653.69
394.331	566.69
394.556	589.69
394.78	572.69
395.005	540.69
395.229	550.69
395.454	539.69
395.678	560.69
395.903	598.69
396.127	641.69
396.352	698.69
396.576	746.69
396.801	996.69
397.025	1461.69
397.249	1101.69
397.474	684.69
397.698	588.69
397.922	611.69
398.147	605.69
398.371	607.69
398.595	563.69
398.82	585.69
399.044	600.69
399.268	606.69
399.492	666.69
399.717	660.69
399.941	711.69
400.165	768.69
400.389	758.69
400.613	683.69
400.837	616.69
401.062	635.69
401.286	625.69
401.51	641.69
401.734	614.69
401.958	633.69
402.182	643.69
402.406	653.69
402.63	671.69
402.854	648.69
403.078	659.69
403.302	654.69
403.526	663.69
403.75	655.69
403.974	652.69
404.198	651.69
404.422	626.69
404.645	655.69
404.869	668.69
405.093	693.69
405.317	739.69
405.541	764.69
405.765	733.69
405.988	685.69
406.212	758.69
406.436	769.69
406.66	825.69
406.883	753.69
407.107	771.69
407.331	817.69
407.555	872.69
407.778	858.69
408.002	801.69
408.226	746.69
408.449	711.69
408.673	699.69
408.896	744.69
409.12	776.69
409.344	752.69
409.567	681.69
409.791	647.69
410.014	668.69
410.238	640.69
410.461	641.69
410.685	656.69
410.908	654.69
411.132	701.69
411.355	729.69
411.578	687.69
411.802	640.69
412.025	632.69
412.249	637.69
412.472	670.69
412.695	710.69
412.919	708.69
413.142	629.69
413.365	620.69
413.589	613.69
413.812	607.69
414.035	599.69
414.258	597.69
414.482	586.69
414.705	594.69
414.928	589.69
415.151	586.69
415.374	600.69
415.597	602.69
415.821	616.69
416.044	606.69
416.267	592.69
416.49	606.69
416.713	578.69
416.936	587.69
417.159	568.69
417.382	608.69
417.605	600.69
417.828	642.69
418.051	627.69
418.274	609.69
418.497	583.69
418.72	577.69
418.943	605.69
419.166	637.69
419.389	644.69
419.611	648.69
419.834	623.69
420.057	643.69
420.28	636.69
420.503	623.69
420.726	638.69
420.948	612.69
421.171	657.69
421.394	723.69
421.617	657.69
421.839	625.69
422.062	636.69
422.285	659.69
422.507	803.69
422.73	996.69
422.953	1124.69
423.175	780.69
423.398	685.69
423.621	656.69
423.843	695.69
424.066	675.69
424.288	664.69
424.511	691.69
424.733	781.69
424.956	870.69
425.178	852.69
425.401	856.69
425.623	862.69
425.846	712.69
426.068	693.69
426.291	704.69
426.513	672.69
426.735	685.69
426.958	758.69
427.18	840.69
427.402	1012.69
427.625	1236.69
427.847	1167.69
428.069	930.69
428.292	796.69
428.514	718.69
428.736	648.69
428.958	661.69
429.181	643.69
429.403	624.69
429.625	639.69
429.847	702.69
430.069	800.69
430.292	787.69
430.514	716.69
430.736	650.69
430.958	648.69
431.18	618.69
431.402	589.69
431.624	575.69
431.846	581.69
432.068	583.69
432.29	585.69
432.512	580.69
432.734	594.69
432.956	608.69
433.178	612.69
433.4	636.69
433.622	619.69
433.844	601.69
434.066	571.69
434.287	611.69
434.509	596.69
434.731	608.69
434.953	630.69
435.175	647.69
435.397	704.69
435.618	679.69
435.84	742.69
436.062	851.69
436.284	943.69
436.505	783.69
436.727	727.69
436.949	665.69
437.17	633.69
437.392	658.69
437.614	660.69
437.835	730.69
438.057	887.69
438.278	1001.69
438.5	951.69
438.721	1034.69
438.943	965.69
439.165	776.69
439.386	727.69
439.608	728.69
439.829	736.69
440.05	770.69
440.272	879.69
440.493	821.69
440.715	720.69
440.936	673.69
441.158	647.69
441.379	623.69
441.6	668.69
441.822	732.69
442.043	757.69
442.264	849.69
442.486	905.69
442.707	765.69
442.928	748.69
443.149	735.69
443.371	788.69
443.592	844.69
443.813	947.69
444.034	988.69
444.255	835.69
444.476	742.69
444.698	708.69
444.919	697.69
445.14	803.69
445.361	795.69
445.582	837.69
445.803	949.69
446.024	1058.69
446.245	1023.69
446.466	941.69
446.687	792.69
446.908	701.69
447.129	672.69
447.35	645.69
447.571	645.69
447.792	624.69
448.013	668.69
448.234	652.69
448.455	731.69
448.675	861.69
448.896	952.69
449.117	844.69
449.338	776.69
449.559	917.69
449.779	1053.69
450	821.69
450.221	701.69
450.442	646.69
450.662	665.69
450.883	695.69
451.104	757.69
451.324	737.69
451.545	681.69
451.766	614.69
451.986	587.69
452.207	566.69
452.428	581.69
452.648	579.69
452.869	605.69
453.089	625.69
453.31	657.69
453.53	622.69
453.751	631.69
453.971	640.69
454.192	692.69
454.412	675.69
454.633	618.69
454.853	587.69
455.073	577.69
455.294	597.69
455.514	724.69
455.734	695.69
455.955	605.69
456.175	547.69
456.395	543.69
456.616	534.69
456.836	552.69
457.056	553.69
457.276	525.69
457.497	514.69
457.717	532.69
457.937	543.69
458.157	551.69
458.377	568.69
458.598	637.69
458.818	788.69
459.038	957.69
459.258	879.69
459.478	751.69
459.698	650.69
459.918	612.69
460.138	623.69
460.358	587.69
460.578	600.69
460.798	623.69
461.018	620.69
461.238	605.69
461.458	605.69
461.678	603.69
461.898	588.69
462.118	590.69
462.338	622.69
462.558	632.69
462.777	635.69
462.997	667.69
463.217	657.69
463.437	653.69
463.657	629.69
463.876	647.69
464.096	696.69
464.316	668.69
464.536	722.69
464.755	681.69
464.975	707.69
465.195	866.69
465.414	1186.69
465.634	893.69
465.854	737.69
466.073	663.69
466.293	627.69
466.512	597.69
466.732	599.69
466.951	583.69
467.171	585.69
467.391	623.69
467.61	647.69
467.829	654.69
468.049	639.69
468.268	632.69
468.488	623.69
468.707	602.69
468.927	567.69
469.146	575.69
469.365	598.69
469.585	553.69
469.804	608.69
470.023	649.69
470.243	637.69
470.462	646.69
470.681	699.69
470.901	674.69
471.12	617.69
471.339	600.69
471.558	614.69
471.777	618.69
471.997	576.69
472.216	619.69
472.435	694.69
472.654	676.69
472.873	606.69
473.092	588.69
473.311	585.69
473.53	597.69
473.749	588.69
473.968	671.69
474.187	768.69
474.406	791.69
474.625	654.69
474.844	586.69
475.063	594.69
475.282	603.69
475.501	601.69
475.72	610.69
475.939	585.69
476.158	627.69
476.377	625.69
476.596	611.69
476.814	659.69
477.033	662.69
477.252	646.69
477.471	649.69
477.69	660.69
477.908	635.69
478.127	664.69
478.346	623.69
478.564	681.69
478.783	671.69
479.002	676.69
479.22	716.69
479.439	736.69
479.658	795.69
479.876	791.69
480.095	741.69
480.313	766.69
480.532	743.69
480.751	739.69
480.969	774.69
481.188	916.69
481.406	998.69
481.624	826.69
481.843	767.69
482.061	732.69
482.28	715.69
482.498	701.69
482.717	683.69
482.935	707.69
483.153	674.69
483.372	682.69
483.59	696.69
483.808	711.69
484.027	690.69
484.245	679.69
484.463	732.69
484.681	746.69
484.9	695.69
485.118	714.69
485.336	729.69
485.554	723.69
485.772	741.69
485.99	723.69
486.209	751.69
486.427	753.69
486.645	795.69
486.863	845.69
487.081	831.69
487.299	801.69
487.517	771.69
487.735	778.69
487.953	752.69
488.171	743.69
488.389	740.69
488.607	781.69
488.825	760.69
489.043	751.69
489.261	748.69
489.479	757.69
489.696	751.69
489.914	757.69
490.132	765.69
490.35	790.69
490.568	761.69
490.786	809.69
491.003	785.69
491.221	811.69
491.439	815.69
491.657	840.69
491.874	825.69
492.092	831.69
492.31	880.69
492.527	852.69
492.745	815.69
492.963	861.69
493.18	833.69
493.398	872.69
493.615	900.69
493.833	913.69
494.05	868.69
494.268	832.69
494.485	870.69
494.703	883.69
494.92	880.69
495.138	851.69
495.355	875.69
495.573	859.69
495.79	880.69
496.008	891.69
496.225	891.69
496.442	857.69
496.66	862.69
496.877	855.69
497.094	902.69
497.312	881.69
497.529	892.69
497.746	903.69
497.963	927.69
498.181	962.69
498.398	967.69
498.615	972.69
498.832	1002.69
499.049	1005.69
499.267	1037.69
499.484	1081.69
499.701	1116.69
499.918	1132.69
500.135	1221.69
500.352	1260.69
500.569	1277.69
500.786	1267.69
501.003	1292.69
501.22	1247.69
501.437	1199.69
501.654	1174.69
501.871	1243.69
502.088	1157.69
502.305	1063.69
502.522	1045.69
502.739	1011.69
502.956	968.69
503.172	973.69
503.389	971.69
503.606	1030.69
503.823	970.69
504.04	952.69
504.256	952.69
504.473	928.69
504.69	894.69
504.907	909.69
505.123	900.69
505.34	858.69
505.557	887.69
505.773	873.69
505.99	884.69
506.207	842.69
506.423	858.69
506.64	864.69
506.856	853.69
507.073	826.69
507.289	848.69
507.506	829.69
507.722	896.69
507.939	973.69
508.155	898.69
508.372	849.69
508.588	817.69
508.805	826.69
509.021	791.69
509.238	814.69
509.454	855.69
509.67	851.69
509.887	834.69
510.103	828.69
510.319	879.69
510.536	1163.69
510.752	2795.69
510.968	2089.69
511.184	985.69
511.401	850.69
511.617	880.69
511.833	803.69
512.049	801.69
512.265	801.69
512.481	772.69
512.698	797.69
512.914	790.69
513.13	769.69
513.346	787.69
513.562	819.69
513.778	845.69
513.994	859.69
514.21	910.69
514.426	985.69
514.642	1185.69
514.858	1260.69
515.074	1427.69
515.29	1962.69
515.506	3576.69
515.721	2673.69
515.937	1416.69
516.153	1097.69
516.369	1006.69
516.585	945.69
516.801	903.69
517.016	867.69
517.232	878.69
517.448	894.69
517.664	909.69
517.879	868.69
518.095	911.69
518.311	895.69
518.527	853.69
518.742	885.69
518.958	865.69
519.173	854.69
519.389	871.69
519.605	893.69
519.82	895.69
520.036	954.69
520.251	1034.69
520.467	1068.69
520.682	1072.69
520.898	1115.69
521.113	1195.69
521.329	1405.69
521.544	1776.69
521.76	2660.69
521.975	5125.69
522.19	4953.69
522.406	2199.69
522.621	1377.69
522.836	1122.69
523.052	979.69
523.267	891.69
523.482	849.69
523.698	842.69
523.913	841.69
524.128	853.69
524.343	792.69
524.559	757.69
524.774	735.69
524.989	730.69
525.204	727.69
525.419	769.69
525.634	715.69
525.849	709.69
526.064	697.69
526.28	675.69
526.495	690.69
526.71	677.69
526.925	681.69
527.14	678.69
527.355	692.69
527.57	632.69
527.785	627.69
527.999	637.69
528.214	631.69
528.429	630.69
528.644	659.69
528.859	653.69
529.074	667.69
529.289	733.69
529.503	1050.69
529.718	953.69
529.933	759.69
530.148	693.69
530.363	667.69
530.577	656.69
530.792	653.69
531.007	654.69
531.221	613.69
531.436	617.69
531.651	617.69
531.865	630.69
532.08	599.69
532.295	584.69
532.509	571.69
532.724	605.69
532.938	606.69
533.153	597.69
533.367	587.69
533.582	561.69
533.796	600.69
534.011	594.69
534.225	607.69
534.44	596.69
534.654	577.69
534.868	566.69
535.083	589.69
535.297	591.69
535.511	632.69
535.726	661.69
535.94	662.69
536.154	620.69
536.369	606.69
536.583	597.69
536.797	586.69
537.011	562.69
537.225	560.69
537.44	566.69
537.654	590.69
537.868	555.69
538.082	564.69
538.296	583.69
538.51	580.69
538.724	602.69
538.938	571.69
539.153	589.69
539.367	633.69
539.581	649.69
539.795	575.69
540.009	563.69
540.222	561.69
540.436	595.69
540.65	590.69
540.864	586.69
541.078	625.69
541.292	607.69
541.506	574.69
541.72	584.69
541.934	566.69
542.147	561.69
542.361	564.69
542.575	569.69
542.789	547.69
543.002	565.69
543.216	576.69
543.43	574.69
543.644	592.69
543.857	584.69
544.071	580.69
544.285	569.69
544.498	567.69
544.712	546.69
544.925	572.69
545.139	553.69
545.352	552.69
545.566	545.69
545.779	543.69
545.993	553.69
546.206	555.69
546.42	575.69
546.633	545.69
546.847	541.69
547.06	518.69
547.274	523.69
547.487	543.69
547.7	543.69
547.914	545.69
548.127	536.69
548.34	569.69
548.554	541.69
548.767	535.69
548.98	543.69
549.193	529.69
549.407	524.69
549.62	556.69
549.833	541.69
550.046	538.69
550.259	535.69
550.473	542.69
550.686	528.69
550.899	527.69
551.112	524.69
551.325	509.69
551.538	535.69
551.751	531.69
551.964	547.69
552.177	528.69
552.39	530.69
552.603	561.69
552.816	554.69
553.029	545.69
553.242	548.69
553.455	589.69
553.667	615.69
553.88	623.69
554.093	588.69
554.306	569.69
554.519	545.69
554.732	546.69
554.944	528.69
555.157	503.69
555.37	526.69
555.583	515.69
555.795	542.69
556.008	523.69
556.221	509.69
556.433	501.69
556.646	515.69
556.859	479.69
557.071	509.69
557.284	477.69
557.496	507.69
557.709	492.69
557.921	486.69
558.134	496.69
558.346	486.69
558.559	479.69
558.771	518.69
558.984	511.69
559.196	583.69
559.409	559.69
559.621	546.69
559.833	527.69
560.046	506.69
560.258	495.69
560.47	513.69
560.683	484.69
560.895	506.69
561.107	475.69
561.32	480.69
561.532	468.69
561.744	496.69
561.956	479.69
562.168	473.69
562.381	455.69
562.593	475.69
562.805	466.69
563.017	468.69
563.229	487.69
563.441	487.69
563.653	470.69
563.865	495.69
564.077	476.69
564.289	451.69
564.501	492.69
564.713	511.69
564.925	526.69
565.137	529.69
565.349	508.69
565.561	496.69
565.773	538.69
565.985	538.69
566.197	547.69
566.408	579.69
566.62	566.69
566.832	604.69
567.044	595.69
567.255	596.69
567.467	604.69
567.679	575.69
567.891	625.69
568.102	620.69
568.314	604.69
568.526	592.69
568.737	573.69
568.949	555.69
569.161	547.69
569.372	527.69
569.584	515.69
569.795	516.69
570.007	531.69
570.218	708.69
570.43	640.69
570.641	504.69
570.853	488.69
571.064	482.69
571.276	492.69
571.487	457.69
571.698	456.69
571.91	438.69
572.121	440.69
572.333	447.69
572.544	431.69
572.755	425.69
572.966	435.69
573.178	423.69
573.389	421.69
573.6	419.69
573.811	424.69
574.023	415.69
574.234	410.69
574.445	429.69
574.656	406.69
574.867	403.69
575.078	419.69
575.289	422.69
575.501	399.69
575.712	402.69
575.923	417.69
576.134	375.69
576.345	410.69
576.556	411.69
576.767	420.69
576.978	410.69
577.188	422.69
577.399	416.69
577.61	395.69
577.821	407.69
578.032	432.69
578.243	539.69
578.454	1288.69
578.665	818.69
578.875	467.69
579.086	409.69
579.297	396.69
579.508	393.69
579.718	373.69
579.929	379.69
580.14	364.69
580.35	395.69
580.561	387.69
580.772	364.69
580.982	385.69
581.193	392.69
581.403	381.69
581.614	380.69
581.825	363.69
582.035	363.69
582.246	364.69
582.456	373.69
582.667	351.69
582.877	363.69
583.087	370.69
583.298	381.69
583.508	390.69
583.719	365.69
583.929	377.69
584.139	372.69
584.35	377.69
584.56	363.69
584.77	377.69
584.981	380.69
585.191	377.69
585.401	366.69
585.611	374.69
585.821	379.69
586.032	389.69
586.242	391.69
586.452	371.69
586.662	368.69
586.872	366.69
587.082	357.69
587.292	375.69
587.502	376.69
587.713	362.69
587.923	379.69
588.133	371.69
588.343	377.69
588.553	409.69
588.762	420.69
588.972	579.69
589.182	1365.69
589.392	1440.69
589.602	737.69
589.812	1260.69
590.022	920.69
590.232	497.69
590.441	411.69
590.651	379.69
590.861	386.69
591.071	387.69
591.281	383.69
591.49	386.69
591.7	377.69
591.91	357.69
592.119	371.69
592.329	375.69
592.539	390.69
592.748	389.69
592.958	376.69
593.167	390.69
593.377	372.69
593.587	391.69
593.796	382.69
594.006	387.69
594.215	388.69
594.424	395.69
594.634	391.69
594.843	382.69
595.053	396.69
595.262	382.69
595.472	361.69
595.681	382.69
595.89	363.69
596.1	367.69
596.309	339.69
596.518	335.69
596.727	343.69
596.937	351.69
597.146	324.69
597.355	330.69
597.564	368.69
597.774	333.69
597.983	333.69
598.192	344.69
598.401	338.69
598.61	343.69
598.819	312.69
599.028	330.69
599.237	319.69
599.446	332.69
599.655	338.69
599.864	324.69
600.073	311.69
600.282	318.69
600.491	327.69
600.7	312.69
600.909	328.69
601.118	318.69
601.327	324.69
601.536	331.69
601.745	331.69
601.953	296.69
602.162	310.69
602.371	321.69
602.58	319.69
602.789	331.69
602.997	320.69
603.206	305.69
603.415	307.69
603.623	313.69
603.832	311.69
604.041	296.69
604.249	295.69
604.458	295.69
604.666	313.69
604.875	328.69
605.084	320.69
605.292	299.69
605.501	311.69
605.709	297.69
605.918	312.69
606.126	302.69
606.334	289.69
606.543	294.69
606.751	293.69
606.96	306.69
607.168	308.69
607.376	298.69
607.585	293.69
607.793	299.69
608.001	300.69
608.21	298.69
608.418	288.69
608.626	315.69
608.834	289.69
609.043	306.69
609.251	291.69
609.459	305.69
609.667	302.69
609.875	296.69
610.083	293.69
610.291	315.69
610.499	312.69
610.707	315.69
610.916	303.69
611.124	308.69
611.332	316.69
611.54	299.69
611.748	322.69
611.955	298.69
612.163	293.69
612.371	330.69
612.579	342.69
612.787	289.69
612.995	303.69
613.203	291.69
613.411	287.69
613.618	314.69
613.826	307.69
614.034	296.69
614.242	297.69
614.449	294.69
614.657	295.69
614.865	290.69
615.072	300.69
615.28	267.69
615.488	303.69
615.695	274.69
615.903	311.69
616.111	298.69
616.318	315.69
616.526	345.69
616.733	297.69
616.941	294.69
617.148	323.69
617.356	298.69
617.563	287.69
617.771	297.69
617.978	289.69
618.185	292.69
618.393	271.69
618.6	296.69
618.807	295.69
619.015	285.69
619.222	279.69
619.429	269.69
619.637	279.69
619.844	288.69
620.051	285.69
620.258	285.69
620.466	282.69
620.673	282.69
620.88	250.69
621.087	274.69
621.294	278.69
621.501	273.69
621.708	285.69
621.915	285.69
622.122	273.69
622.329	289.69
622.536	259.69
622.743	248.69
622.95	262.69
623.157	281.69
623.364	270.69
623.571	271.69
623.778	261.69
623.985	266.69
624.192	250.69
624.399	258.69
624.606	265.69
624.812	271.69
625.019	262.69
625.226	262.69
625.433	262.69
625.639	255.69
625.846	251.69
626.053	258.69
626.259	261.69
626.466	251.69
626.673	268.69
626.879	267.69
627.086	236.69
627.293	271.69
627.499	272.69
627.706	268.69
627.912	257.69
628.119	238.69
628.325	239.69
628.532	260.69
628.738	265.69
628.945	233.69
629.151	227.69
629.357	242.69
629.564	232.69
629.77	229.69
629.976	225.69
630.183	244.69
630.389	229.69
630.595	243.69
630.802	255.69
631.008	251.69
631.214	232.69
631.42	226.69
631.627	230.69
631.833	223.69
632.039	231.69
632.245	230.69
632.451	208.69
632.657	223.69
632.863	230.69
633.069	229.69
633.275	239.69
633.481	238.69
633.688	214.69
633.893	233.69
634.099	210.69
634.305	223.69
634.511	205.69
634.717	222.69
634.923	228.69
635.129	226.69
635.335	218.69
635.541	220.69
635.747	221.69
635.952	228.69
636.158	223.69
636.364	234.69
636.57	242.69
636.775	227.69
636.981	222.69
637.187	209.69
637.392	227.69
637.598	234.69
637.804	214.69
638.009	218.69
638.215	195.69
638.421	216.69
638.626	211.69
638.832	219.69
639.037	220.69
639.243	225.69
639.448	203.69
639.654	179.69
639.859	201.69
640.065	216.69
640.27	223.69
640.475	206.69
640.681	205.69
640.886	209.69
641.091	212.69
641.297	206.69
641.502	209.69
641.707	208.69
641.913	217.69
642.118	199.69
642.323	181.69
642.528	206.69
642.733	209.69
642.939	216.69
643.144	196.69
643.349	213.69
643.554	217.69
643.759	212.69
643.964	212.69
644.169	241.69
644.374	215.69
644.579	202.69
644.784	189.69
644.989	217.69
645.194	183.69
645.399	190.69
645.604	208.69
645.809	204.69
646.014	206.69
646.219	215.69
646.423	201.69
646.628	219.69
646.833	202.69
647.038	218.69
647.243	211.69
647.447	204.69
647.652	221.69
647.857	191.69
648.062	206.69
648.266	211.69
648.471	202.69
648.676	224.69
648.88	220.69
649.085	226.69
649.289	205.69
649.494	236.69
649.698	272.69
649.903	251.69
650.107	220.69
650.312	224.69
650.516	194.69
650.721	194.69
650.925	168.69
651.13	206.69
651.334	191.69
651.539	203.69
651.743	188.69
651.947	182.69
652.152	172.69
652.356	163.69
652.56	175.69
652.764	188.69
652.969	186.69
653.173	172.69
653.377	185.69
653.581	166.69
653.785	175.69
653.99	178.69
654.194	154.69
654.398	177.69
654.602	186.69
654.806	193.69
655.01	201.69
655.214	199.69
655.418	198.69
655.622	195.69
655.826	200.69
656.03	201.69
656.234	202.69
656.438	208.69
656.642	212.69
656.846	206.69
657.049	181.69
657.253	168.69
657.457	166.69
657.661	167.69
657.865	162.69
658.068	150.69
658.272	134.69
658.476	129.69
658.68	133.69
658.883	138.69
659.087	125.69
659.291	106.69
659.494	114.69
659.698	108.69
659.901	104.69
660.105	100.69
660.309	96.69
660.512	93.69
660.716	79.69
660.919	100.69
661.123	97.69
661.326	97.69
661.53	99.69
661.733	89.69
661.936	100.69
662.14	86.69
662.343	87.69
662.546	96.69
662.75	88.69
662.953	77.69
663.156	96.69
663.36	91.69
663.563	96.69
663.766	90.69
663.969	85.69
664.173	87.69
664.376	79.69
664.579	75.69
664.782	83.69
664.985	68.69
665.188	79.69
665.391	91.69
665.594	84.69
665.797	88.69
666	85.69
666.203	71.69
666.406	68.69
666.609	67.69
666.812	83.69
667.015	80.69
667.218	85.69
667.421	81.69
667.624	89.69
667.827	74.69
668.03	87.69
668.232	89.69
668.435	83.69
668.638	74.69
668.841	86.69
669.043	81.69
669.246	85.69
669.449	82.69
669.651	88.69
669.854	73.69
670.057	80.69
670.259	82.69
670.462	90.69
670.665	76.69
670.867	71.69
671.07	84.69
671.272	75.69
671.475	81.69
671.677	91.69
671.88	97.69
672.082	88.69
672.284	74.69
672.487	83.69
672.689	82.69
672.892	67.69
