Data from 1979.PennyLincolnUp.Lamp.En5.5.200Scan.071719.P1_HRD10591_16-18-37-863.txt Node
Date: Thu Jul 18 16:18:37 EDT 2019
User: cochatt
Spectrometer: HR+D1059
Trigger mode: 1
Integration Time (sec): 1.000000E-1
Scans to average: 1
Electric dark correction enabled: true
Nonlinearity correction enabled: false
Boxcar width: 0
XAxis mode: Wavelengths
Number of Pixels in Spectrum: 2048
>>>>>Begin Spectral Data<<<<<
223.165	-14.94
223.4	-14.94
223.635	-14.94
223.869	-18.94
224.104	-16.94
224.338	-22.94
224.573	-16.94
224.808	-11.94
225.042	-9.94
225.277	-6.94
225.511	1.06
225.746	4.06
225.98	3.06
226.215	12.06
226.449	13.06
226.683	27.06
226.918	26.06
227.152	33.06
227.387	22.06
227.621	21.06
227.856	32.06
228.09	40.06
228.324	48.06
228.559	54.06
228.793	71.06
229.027	93.06
229.262	97.06
229.496	116.06
229.73	124.06
229.964	156.06
230.199	122.06
230.433	125.06
230.667	120.06
230.901	103.06
231.136	122.06
231.37	103.06
231.604	96.06
231.838	111.06
232.072	104.06
232.306	111.06
232.541	97.06
232.775	104.06
233.009	116.06
233.243	110.06
233.477	113.06
233.711	111.06
233.945	116.06
234.179	100.06
234.413	117.06
234.647	112.06
234.881	112.06
235.115	133.06
235.349	120.06
235.583	112.06
235.817	125.06
236.051	129.06
236.285	121.06
236.519	132.06
236.753	128.06
236.987	144.06
237.221	160.06
237.455	209.06
237.689	168.06
237.922	144.06
238.156	125.06
238.39	117.06
238.624	117.06
238.858	121.06
239.091	127.06
239.325	125.06
239.559	125.06
239.793	116.06
240.027	136.06
240.26	125.06
240.494	140.06
240.728	142.06
240.961	146.06
241.195	151.06
241.429	144.06
241.662	127.06
241.896	120.06
242.13	128.06
242.363	133.06
242.597	125.06
242.83	130.06
243.064	130.06
243.298	128.06
243.531	125.06
243.765	142.06
243.998	130.06
244.232	149.06
244.465	147.06
244.699	161.06
244.932	125.06
245.166	138.06
245.399	129.06
245.633	143.06
245.866	144.06
246.099	140.06
246.333	140.06
246.566	146.06
246.8	140.06
247.033	150.06
247.266	140.06
247.5	152.06
247.733	157.06
247.966	157.06
248.2	158.06
248.433	157.06
248.666	159.06
248.899	180.06
249.133	180.06
249.366	194.06
249.599	175.06
249.832	166.06
250.066	168.06
250.299	170.06
250.532	178.06
250.765	184.06
250.998	191.06
251.231	185.06
251.465	193.06
251.698	176.06
251.931	197.06
252.164	186.06
252.397	162.06
252.63	191.06
252.863	197.06
253.096	187.06
253.329	204.06
253.562	216.06
253.795	195.06
254.028	194.06
254.261	191.06
254.494	194.06
254.727	223.06
254.96	235.06
255.193	231.06
255.426	219.06
255.659	198.06
255.892	210.06
256.124	208.06
256.357	209.06
256.59	191.06
256.823	206.06
257.056	178.06
257.289	195.06
257.521	193.06
257.754	202.06
257.987	193.06
258.22	216.06
258.452	197.06
258.685	198.06
258.918	198.06
259.151	191.06
259.383	186.06
259.616	224.06
259.849	204.06
260.081	210.06
260.314	237.06
260.547	227.06
260.779	219.06
261.012	218.06
261.244	209.06
261.477	201.06
261.71	210.06
261.942	206.06
262.175	217.06
262.407	228.06
262.64	202.06
262.872	208.06
263.105	200.06
263.337	205.06
263.57	196.06
263.802	211.06
264.035	202.06
264.267	201.06
264.499	194.06
264.732	210.06
264.964	212.06
265.197	210.06
265.429	196.06
265.661	191.06
265.894	207.06
266.126	205.06
266.358	221.06
266.591	212.06
266.823	217.06
267.055	210.06
267.287	215.06
267.52	194.06
267.752	206.06
267.984	210.06
268.216	211.06
268.448	222.06
268.681	218.06
268.913	246.06
269.145	224.06
269.377	246.06
269.609	254.06
269.841	237.06
270.073	262.06
270.306	256.06
270.538	275.06
270.77	284.06
271.002	270.06
271.234	251.06
271.466	257.06
271.698	260.06
271.93	286.06
272.162	273.06
272.394	269.06
272.626	283.06
272.858	249.06
273.09	264.06
273.322	261.06
273.553	246.06
273.785	226.06
274.017	251.06
274.249	256.06
274.481	246.06
274.713	249.06
274.945	241.06
275.176	246.06
275.408	242.06
275.64	240.06
275.872	246.06
276.104	258.06
276.335	244.06
276.567	251.06
276.799	256.06
277.031	280.06
277.262	276.06
277.494	293.06
277.726	273.06
277.957	254.06
278.189	264.06
278.421	252.06
278.652	248.06
278.884	255.06
279.115	259.06
279.347	230.06
279.579	250.06
279.81	247.06
280.042	261.06
280.273	257.06
280.505	245.06
280.736	248.06
280.968	240.06
281.199	247.06
281.431	257.06
281.662	249.06
281.894	245.06
282.125	272.06
282.356	272.06
282.588	297.06
282.819	296.06
283.051	276.06
283.282	256.06
283.513	261.06
283.745	266.06
283.976	277.06
284.207	261.06
284.439	272.06
284.67	271.06
284.901	271.06
285.132	257.06
285.364	244.06
285.595	252.06
285.826	256.06
286.057	266.06
286.288	268.06
286.52	289.06
286.751	247.06
286.982	253.06
287.213	258.06
287.444	273.06
287.675	257.06
287.906	271.06
288.138	272.06
288.369	296.06
288.6	295.06
288.831	297.06
289.062	273.06
289.293	285.06
289.524	283.06
289.755	293.06
289.986	292.06
290.217	269.06
290.448	284.06
290.679	269.06
290.91	254.06
291.141	284.06
291.371	300.06
291.602	272.06
291.833	279.06
292.064	286.06
292.295	269.06
292.526	257.06
292.757	277.06
292.987	282.06
293.218	279.06
293.449	286.06
293.68	286.06
293.91	277.06
294.141	276.06
294.372	274.06
294.603	281.06
294.833	271.06
295.064	287.06
295.295	271.06
295.525	290.06
295.756	278.06
295.987	293.06
296.217	314.06
296.448	302.06
296.679	290.06
296.909	273.06
297.14	289.06
297.37	297.06
297.601	289.06
297.831	288.06
298.062	293.06
298.292	288.06
298.523	306.06
298.753	301.06
298.984	281.06
299.214	294.06
299.445	312.06
299.675	285.06
299.905	306.06
300.136	296.06
300.366	303.06
300.597	300.06
300.827	308.06
301.057	314.06
301.288	332.06
301.518	312.06
301.748	309.06
301.979	318.06
302.209	316.06
302.439	315.06
302.669	328.06
302.9	318.06
303.13	326.06
303.36	308.06
303.59	331.06
303.82	326.06
304.051	318.06
304.281	321.06
304.511	328.06
304.741	318.06
304.971	300.06
305.201	329.06
305.431	320.06
305.661	330.06
305.891	320.06
306.121	300.06
306.352	331.06
306.582	331.06
306.812	315.06
307.042	325.06
307.272	334.06
307.502	325.06
307.731	317.06
307.961	301.06
308.191	329.06
308.421	316.06
308.651	314.06
308.881	332.06
309.111	340.06
309.341	348.06
309.571	347.06
309.8	317.06
310.03	333.06
310.26	349.06
310.49	346.06
310.72	351.06
310.949	372.06
311.179	378.06
311.409	353.06
311.639	351.06
311.868	346.06
312.098	349.06
312.328	377.06
312.557	377.06
312.787	377.06
313.017	385.06
313.246	358.06
313.476	355.06
313.706	360.06
313.935	344.06
314.165	379.06
314.394	376.06
314.624	364.06
314.853	360.06
315.083	353.06
315.312	340.06
315.542	360.06
315.771	340.06
316.001	339.06
316.23	359.06
316.46	337.06
316.689	345.06
316.919	349.06
317.148	366.06
317.377	366.06
317.607	377.06
317.836	372.06
318.065	361.06
318.295	369.06
318.524	353.06
318.753	351.06
318.983	361.06
319.212	354.06
319.441	378.06
319.67	384.06
319.9	369.06
320.129	359.06
320.358	384.06
320.587	358.06
320.816	361.06
321.046	387.06
321.275	369.06
321.504	364.06
321.733	372.06
321.962	384.06
322.191	386.06
322.42	403.06
322.649	398.06
322.878	406.06
323.108	415.06
323.337	457.06
323.566	445.06
323.795	472.06
324.024	504.06
324.253	601.06
324.482	822.06
324.71	1261.06
324.939	1863.06
325.168	1617.06
325.397	780.06
325.626	558.06
325.855	528.06
326.084	489.06
326.313	451.06
326.542	444.06
326.77	484.06
326.999	571.06
327.228	761.06
327.457	1144.06
327.686	1417.06
327.914	934.06
328.143	634.06
328.372	564.06
328.6	536.06
328.829	502.06
329.058	508.06
329.287	528.06
329.515	495.06
329.744	450.06
329.972	465.06
330.201	449.06
330.43	506.06
330.658	515.06
330.887	528.06
331.115	535.06
331.344	470.06
331.572	462.06
331.801	439.06
332.03	465.06
332.258	448.06
332.486	424.06
332.715	408.06
332.943	425.06
333.172	446.06
333.4	468.06
333.629	458.06
333.857	461.06
334.085	464.06
334.314	497.06
334.542	506.06
334.771	498.06
334.999	496.06
335.227	469.06
335.455	466.06
335.684	438.06
335.912	441.06
336.14	436.06
336.369	436.06
336.597	451.06
336.825	429.06
337.053	433.06
337.281	421.06
337.51	427.06
337.738	430.06
337.966	453.06
338.194	429.06
338.422	425.06
338.65	416.06
338.878	431.06
339.106	426.06
339.334	418.06
339.562	416.06
339.79	404.06
340.018	416.06
340.246	409.06
340.474	442.06
340.702	430.06
340.93	418.06
341.158	421.06
341.386	407.06
341.614	401.06
341.842	427.06
342.07	390.06
342.298	406.06
342.526	386.06
342.754	388.06
342.981	409.06
343.209	408.06
343.437	412.06
343.665	408.06
343.893	444.06
344.12	413.06
344.348	430.06
344.576	418.06
344.804	450.06
345.031	399.06
345.259	449.06
345.487	458.06
345.714	418.06
345.942	421.06
346.17	398.06
346.397	396.06
346.625	409.06
346.853	406.06
347.08	409.06
347.308	410.06
347.535	401.06
347.763	431.06
347.99	412.06
348.218	384.06
348.445	411.06
348.673	398.06
348.9	415.06
349.128	378.06
349.355	387.06
349.583	391.06
349.81	390.06
350.037	397.06
350.265	384.06
350.492	391.06
350.72	402.06
350.947	398.06
351.174	426.06
351.402	423.06
351.629	418.06
351.856	394.06
352.083	406.06
352.311	402.06
352.538	404.06
352.765	417.06
352.992	410.06
353.22	414.06
353.447	414.06
353.674	413.06
353.901	403.06
354.128	389.06
354.355	394.06
354.583	383.06
354.81	382.06
355.037	379.06
355.264	382.06
355.491	357.06
355.718	394.06
355.945	395.06
356.172	375.06
356.399	377.06
356.626	359.06
356.853	394.06
357.08	388.06
357.307	400.06
357.534	394.06
357.761	373.06
357.988	390.06
358.215	370.06
358.441	390.06
358.668	414.06
358.895	379.06
359.122	381.06
359.349	386.06
359.576	408.06
359.802	414.06
360.029	450.06
360.256	424.06
360.483	429.06
360.709	411.06
360.936	428.06
361.163	388.06
361.39	408.06
361.616	411.06
361.843	410.06
362.07	411.06
362.296	415.06
362.523	417.06
362.749	406.06
362.976	395.06
363.203	416.06
363.429	412.06
363.656	403.06
363.882	396.06
364.109	390.06
364.335	405.06
364.562	385.06
364.788	387.06
365.015	398.06
365.241	386.06
365.468	407.06
365.694	403.06
365.92	403.06
366.147	410.06
366.373	398.06
366.599	398.06
366.826	402.06
367.052	383.06
367.278	392.06
367.505	378.06
367.731	408.06
367.957	415.06
368.184	392.06
368.41	397.06
368.636	396.06
368.862	426.06
369.089	412.06
369.315	386.06
369.541	398.06
369.767	414.06
369.993	400.06
370.219	391.06
370.445	394.06
370.672	405.06
370.898	392.06
371.124	394.06
371.35	403.06
371.576	401.06
371.802	412.06
372.028	402.06
372.254	400.06
372.48	405.06
372.706	414.06
372.932	400.06
373.158	409.06
373.384	416.06
373.61	414.06
373.835	396.06
374.061	422.06
374.287	424.06
374.513	416.06
374.739	409.06
374.965	424.06
375.191	433.06
375.416	424.06
375.642	425.06
375.868	421.06
376.094	432.06
376.319	412.06
376.545	421.06
376.771	415.06
376.997	412.06
377.222	416.06
377.448	392.06
377.674	409.06
377.899	410.06
378.125	388.06
378.35	412.06
378.576	388.06
378.802	382.06
379.027	392.06
379.253	420.06
379.478	402.06
379.704	406.06
379.929	392.06
380.155	405.06
380.38	422.06
380.606	429.06
380.831	416.06
381.057	408.06
381.282	390.06
381.507	414.06
381.733	424.06
381.958	400.06
382.184	415.06
382.409	415.06
382.634	410.06
382.86	409.06
383.085	404.06
383.31	457.06
383.535	420.06
383.761	431.06
383.986	426.06
384.211	456.06
384.436	442.06
384.662	443.06
384.887	438.06
385.112	450.06
385.337	448.06
385.562	452.06
385.787	471.06
386.013	470.06
386.238	446.06
386.463	464.06
386.688	464.06
386.913	440.06
387.138	453.06
387.363	470.06
387.588	444.06
387.813	438.06
388.038	471.06
388.263	448.06
388.488	459.06
388.713	462.06
388.938	448.06
389.163	448.06
389.387	448.06
389.612	460.06
389.837	452.06
390.062	450.06
390.287	431.06
390.512	473.06
390.736	464.06
390.961	460.06
391.186	457.06
391.411	460.06
391.636	488.06
391.86	455.06
392.085	475.06
392.31	484.06
392.534	478.06
392.759	470.06
392.984	473.06
393.208	476.06
393.433	468.06
393.658	468.06
393.882	472.06
394.107	450.06
394.331	466.06
394.556	465.06
394.78	453.06
395.005	484.06
395.229	465.06
395.454	466.06
395.678	469.06
395.903	481.06
396.127	507.06
396.352	516.06
396.576	497.06
396.801	502.06
397.025	488.06
397.249	498.06
397.474	483.06
397.698	494.06
397.922	502.06
398.147	516.06
398.371	525.06
398.595	530.06
398.82	543.06
399.044	540.06
399.268	539.06
399.492	600.06
399.717	622.06
399.941	652.06
400.165	663.06
400.389	662.06
400.613	625.06
400.837	551.06
401.062	559.06
401.286	549.06
401.51	553.06
401.734	529.06
401.958	550.06
402.182	556.06
402.406	554.06
402.63	559.06
402.854	549.06
403.078	575.06
403.302	577.06
403.526	579.06
403.75	567.06
403.974	571.06
404.198	559.06
404.422	552.06
404.645	575.06
404.869	580.06
405.093	591.06
405.317	640.06
405.541	656.06
405.765	626.06
405.988	607.06
406.212	597.06
406.436	601.06
406.66	632.06
406.883	599.06
407.107	638.06
407.331	677.06
407.555	747.06
407.778	729.06
408.002	685.06
408.226	636.06
408.449	613.06
408.673	614.06
408.896	618.06
409.12	666.06
409.344	637.06
409.567	591.06
409.791	577.06
410.014	570.06
410.238	557.06
410.461	577.06
410.685	573.06
410.908	586.06
411.132	602.06
411.355	639.06
411.578	612.06
411.802	583.06
412.025	570.06
412.249	584.06
412.472	605.06
412.695	604.06
412.919	629.06
413.142	556.06
413.365	538.06
413.589	580.06
413.812	554.06
414.035	543.06
414.258	542.06
414.482	545.06
414.705	555.06
414.928	553.06
415.151	512.06
415.374	508.06
415.597	541.06
415.821	509.06
416.044	514.06
416.267	546.06
416.49	545.06
416.713	536.06
416.936	554.06
417.159	537.06
417.382	538.06
417.605	513.06
417.828	545.06
418.051	539.06
418.274	538.06
418.497	540.06
418.72	545.06
418.943	521.06
419.166	559.06
419.389	577.06
419.611	605.06
419.834	578.06
420.057	545.06
420.28	550.06
420.503	556.06
420.726	550.06
420.948	544.06
421.171	618.06
421.394	627.06
421.617	544.06
421.839	552.06
422.062	534.06
422.285	554.06
422.507	609.06
422.73	680.06
422.953	662.06
423.175	578.06
423.398	564.06
423.621	561.06
423.843	595.06
424.066	607.06
424.288	591.06
424.511	620.06
424.733	652.06
424.956	715.06
425.178	711.06
425.401	685.06
425.623	713.06
425.846	622.06
426.068	604.06
426.291	568.06
426.513	594.06
426.735	581.06
426.958	625.06
427.18	694.06
427.402	810.06
427.625	857.06
427.847	792.06
428.069	680.06
428.292	610.06
428.514	562.06
428.736	556.06
428.958	564.06
429.181	566.06
429.403	553.06
429.625	566.06
429.847	591.06
430.069	628.06
430.292	624.06
430.514	560.06
430.736	550.06
430.958	550.06
431.18	520.06
431.402	525.06
431.624	528.06
431.846	500.06
432.068	517.06
432.29	528.06
432.512	513.06
432.734	511.06
432.956	550.06
433.178	551.06
433.4	544.06
433.622	543.06
433.844	526.06
434.066	510.06
434.287	542.06
434.509	518.06
434.731	544.06
434.953	527.06
435.175	564.06
435.397	590.06
435.618	562.06
435.84	612.06
436.062	700.06
436.284	738.06
436.505	631.06
436.727	592.06
436.949	591.06
437.17	561.06
437.392	554.06
437.614	561.06
437.835	581.06
438.057	661.06
438.278	764.06
438.5	738.06
438.721	802.06
438.943	767.06
439.165	605.06
439.386	584.06
439.608	601.06
439.829	582.06
440.05	597.06
440.272	637.06
440.493	620.06
440.715	584.06
440.936	564.06
441.158	560.06
441.379	549.06
441.6	562.06
441.822	597.06
442.043	628.06
442.264	685.06
442.486	702.06
442.707	621.06
442.928	597.06
443.149	609.06
443.371	620.06
443.592	630.06
443.813	737.06
444.034	797.06
444.255	673.06
444.476	633.06
444.698	608.06
444.919	615.06
445.14	752.06
445.361	669.06
445.582	637.06
445.803	706.06
446.024	779.06
446.245	784.06
446.466	697.06
446.687	598.06
446.908	579.06
447.129	571.06
447.35	538.06
447.571	554.06
447.792	553.06
448.013	513.06
448.234	557.06
448.455	576.06
448.675	693.06
448.896	794.06
449.117	682.06
449.338	665.06
449.559	736.06
449.779	839.06
450	693.06
450.221	583.06
450.442	534.06
450.662	532.06
450.883	509.06
451.104	526.06
451.324	530.06
451.545	508.06
451.766	451.06
451.986	474.06
452.207	508.06
452.428	486.06
452.648	466.06
452.869	449.06
453.089	486.06
453.31	486.06
453.53	491.06
453.751	482.06
453.971	471.06
454.192	509.06
454.412	473.06
454.633	480.06
454.853	474.06
455.073	470.06
455.294	490.06
455.514	564.06
455.734	536.06
455.955	466.06
456.175	461.06
456.395	443.06
456.616	462.06
456.836	447.06
457.056	442.06
457.276	495.06
457.497	466.06
457.717	479.06
457.937	486.06
458.157	456.06
458.377	498.06
458.598	516.06
458.818	528.06
459.038	605.06
459.258	621.06
459.478	576.06
459.698	533.06
459.918	504.06
460.138	527.06
460.358	540.06
460.578	555.06
460.798	555.06
461.018	544.06
461.238	544.06
461.458	538.06
461.678	541.06
461.898	545.06
462.118	530.06
462.338	583.06
462.558	580.06
462.777	564.06
462.997	605.06
463.217	635.06
463.437	626.06
463.657	616.06
463.876	561.06
464.096	607.06
464.316	587.06
464.536	612.06
464.755	601.06
464.975	599.06
465.195	600.06
465.414	645.06
465.634	590.06
465.854	552.06
466.073	529.06
466.293	523.06
466.512	490.06
466.732	496.06
466.951	532.06
467.171	485.06
467.391	504.06
467.61	529.06
467.829	541.06
468.049	484.06
468.268	527.06
468.488	495.06
468.707	490.06
468.927	504.06
469.146	488.06
469.365	485.06
469.585	490.06
469.804	534.06
470.023	522.06
470.243	510.06
470.462	524.06
470.681	522.06
470.901	542.06
471.12	518.06
471.339	495.06
471.558	494.06
471.777	503.06
471.997	497.06
472.216	538.06
472.435	535.06
472.654	529.06
472.873	520.06
473.092	506.06
473.311	493.06
473.53	496.06
473.749	513.06
473.968	542.06
474.187	624.06
474.406	648.06
474.625	549.06
474.844	498.06
475.063	531.06
475.282	516.06
475.501	513.06
475.72	528.06
475.939	543.06
476.158	540.06
476.377	530.06
476.596	529.06
476.814	524.06
477.033	527.06
477.252	536.06
477.471	540.06
477.69	539.06
477.908	557.06
478.127	555.06
478.346	551.06
478.564	547.06
478.783	572.06
479.002	632.06
479.22	608.06
479.439	609.06
479.658	622.06
479.876	604.06
480.095	629.06
480.313	639.06
480.532	657.06
480.751	660.06
480.969	645.06
481.188	664.06
481.406	715.06
481.624	643.06
481.843	630.06
482.061	598.06
482.28	624.06
482.498	584.06
482.717	604.06
482.935	606.06
483.153	590.06
483.372	585.06
483.59	602.06
483.808	590.06
484.027	617.06
484.245	609.06
484.463	610.06
484.681	618.06
484.9	604.06
485.118	593.06
485.336	616.06
485.554	601.06
485.772	604.06
485.99	613.06
486.209	617.06
486.427	604.06
486.645	630.06
486.863	632.06
487.081	631.06
487.299	641.06
487.517	650.06
487.735	608.06
487.953	656.06
488.171	664.06
488.389	632.06
488.607	636.06
488.825	629.06
489.043	622.06
489.261	645.06
489.479	640.06
489.696	634.06
489.914	646.06
490.132	654.06
490.35	663.06
490.568	648.06
490.786	667.06
491.003	684.06
491.221	695.06
491.439	698.06
491.657	719.06
491.874	702.06
492.092	696.06
492.31	701.06
492.527	696.06
492.745	733.06
492.963	714.06
493.18	705.06
493.398	760.06
493.615	766.06
493.833	724.06
494.05	751.06
494.268	711.06
494.485	757.06
494.703	737.06
494.92	749.06
495.138	748.06
495.355	728.06
495.573	735.06
495.79	732.06
496.008	751.06
496.225	735.06
496.442	744.06
496.66	737.06
496.877	757.06
497.094	782.06
497.312	781.06
497.529	785.06
497.746	797.06
497.963	798.06
498.181	846.06
498.398	853.06
498.615	844.06
498.832	857.06
499.049	884.06
499.267	928.06
499.484	963.06
499.701	1040.06
499.918	1054.06
500.135	1110.06
500.352	1172.06
500.569	1168.06
500.786	1213.06
501.003	1172.06
501.22	1112.06
501.437	1086.06
501.654	1026.06
501.871	1014.06
502.088	970.06
502.305	918.06
502.522	880.06
502.739	870.06
502.956	823.06
503.172	806.06
503.389	813.06
503.606	788.06
503.823	793.06
504.04	789.06
504.256	789.06
504.473	763.06
504.69	791.06
504.907	782.06
505.123	765.06
505.34	738.06
505.557	740.06
505.773	718.06
505.99	746.06
506.207	710.06
506.423	714.06
506.64	711.06
506.856	703.06
507.073	689.06
507.289	693.06
507.506	704.06
507.722	692.06
507.939	702.06
508.155	713.06
508.372	668.06
508.588	646.06
508.805	636.06
509.021	654.06
509.238	669.06
509.454	648.06
509.67	668.06
509.887	655.06
510.103	640.06
510.319	651.06
510.536	725.06
510.752	1167.06
510.968	974.06
511.184	675.06
511.401	654.06
511.617	612.06
511.833	622.06
512.049	633.06
512.265	618.06
512.481	600.06
512.698	609.06
512.914	616.06
513.13	623.06
513.346	592.06
513.562	629.06
513.778	608.06
513.994	618.06
514.21	637.06
514.426	662.06
514.642	693.06
514.858	719.06
515.074	733.06
515.29	816.06
515.506	1185.06
515.721	1026.06
515.937	730.06
516.153	694.06
516.369	686.06
516.585	685.06
516.801	689.06
517.016	667.06
517.232	692.06
517.448	701.06
517.664	702.06
517.879	697.06
518.095	706.06
518.311	710.06
518.527	685.06
518.742	672.06
518.958	693.06
519.173	659.06
519.389	666.06
519.605	651.06
519.82	658.06
520.036	661.06
520.251	657.06
520.467	690.06
520.682	679.06
520.898	675.06
521.113	683.06
521.329	737.06
521.544	769.06
521.76	913.06
521.975	1518.06
522.19	1511.06
522.406	878.06
522.621	689.06
522.836	652.06
523.052	617.06
523.267	615.06
523.482	600.06
523.698	597.06
523.913	584.06
524.128	560.06
524.343	569.06
524.559	572.06
524.774	569.06
524.989	567.06
525.204	566.06
525.419	582.06
525.634	571.06
525.849	556.06
526.064	552.06
526.28	559.06
526.495	554.06
526.71	548.06
526.925	531.06
527.14	534.06
527.355	517.06
527.57	554.06
527.785	530.06
527.999	517.06
528.214	540.06
528.429	556.06
528.644	543.06
528.859	522.06
529.074	540.06
529.289	538.06
529.503	621.06
529.718	606.06
529.933	564.06
530.148	543.06
530.363	530.06
530.577	551.06
530.792	553.06
531.007	529.06
531.221	526.06
531.436	510.06
531.651	510.06
531.865	527.06
532.08	538.06
532.295	526.06
532.509	523.06
532.724	506.06
532.938	529.06
533.153	538.06
533.367	542.06
533.582	521.06
533.796	531.06
534.011	514.06
534.225	504.06
534.44	508.06
534.654	505.06
534.868	512.06
535.083	524.06
535.297	507.06
535.511	498.06
535.726	536.06
535.94	523.06
536.154	523.06
536.369	510.06
536.583	507.06
536.797	520.06
537.011	502.06
537.225	489.06
537.44	493.06
537.654	504.06
537.868	510.06
538.082	497.06
538.296	525.06
538.51	480.06
538.724	478.06
538.938	494.06
539.153	467.06
539.367	476.06
539.581	502.06
539.795	490.06
540.009	502.06
540.222	488.06
540.436	475.06
540.65	480.06
540.864	493.06
541.078	502.06
541.292	496.06
541.506	488.06
541.72	477.06
541.934	504.06
542.147	502.06
542.361	489.06
542.575	480.06
542.789	502.06
543.002	488.06
543.216	491.06
543.43	487.06
543.644	481.06
543.857	480.06
544.071	496.06
544.285	492.06
544.498	486.06
544.712	497.06
544.925	500.06
545.139	494.06
545.352	474.06
545.566	488.06
545.779	495.06
545.993	493.06
546.206	472.06
546.42	482.06
546.633	498.06
546.847	484.06
547.06	492.06
547.274	465.06
547.487	469.06
547.7	474.06
547.914	480.06
548.127	486.06
548.34	489.06
548.554	477.06
548.767	484.06
548.98	474.06
549.193	485.06
549.407	481.06
549.62	492.06
549.833	500.06
550.046	481.06
550.259	465.06
550.473	456.06
550.686	471.06
550.899	481.06
551.112	472.06
551.325	485.06
551.538	459.06
551.751	478.06
551.964	475.06
552.177	502.06
552.39	462.06
552.603	461.06
552.816	462.06
553.029	492.06
553.242	505.06
553.455	490.06
553.667	490.06
553.88	492.06
554.093	493.06
554.306	465.06
554.519	488.06
554.732	494.06
554.944	469.06
555.157	460.06
555.37	475.06
555.583	460.06
555.795	465.06
556.008	449.06
556.221	426.06
556.433	460.06
556.646	445.06
556.859	430.06
557.071	423.06
557.284	439.06
557.496	430.06
557.709	418.06
557.921	415.06
558.134	421.06
558.346	420.06
558.559	432.06
558.771	436.06
558.984	428.06
559.196	428.06
559.409	406.06
559.621	420.06
559.833	404.06
560.046	422.06
560.258	415.06
560.47	432.06
560.683	441.06
560.895	399.06
561.107	400.06
561.32	421.06
561.532	429.06
561.744	422.06
561.956	423.06
562.168	402.06
562.381	436.06
562.593	410.06
562.805	439.06
563.017	410.06
563.229	436.06
563.441	427.06
563.653	428.06
563.865	439.06
564.077	420.06
564.289	421.06
564.501	459.06
564.713	472.06
564.925	442.06
565.137	466.06
565.349	449.06
565.561	467.06
565.773	458.06
565.985	500.06
566.197	496.06
566.408	534.06
566.62	531.06
566.832	541.06
567.044	547.06
567.255	553.06
567.467	560.06
567.679	562.06
567.891	585.06
568.102	590.06
568.314	574.06
568.526	544.06
568.737	506.06
568.949	502.06
569.161	502.06
569.372	447.06
569.584	464.06
569.795	430.06
570.007	463.06
570.218	464.06
570.43	444.06
570.641	414.06
570.853	414.06
571.064	427.06
571.276	426.06
571.487	413.06
571.698	388.06
571.91	403.06
572.121	408.06
572.333	386.06
572.544	359.06
572.755	380.06
572.966	378.06
573.178	366.06
573.389	376.06
573.6	356.06
573.811	374.06
574.023	377.06
574.234	361.06
574.445	380.06
574.656	380.06
574.867	361.06
575.078	358.06
575.289	360.06
575.501	361.06
575.712	357.06
575.923	356.06
576.134	352.06
576.345	350.06
576.556	361.06
576.767	352.06
576.978	354.06
577.188	373.06
577.399	355.06
577.61	358.06
577.821	343.06
578.032	357.06
578.243	377.06
578.454	548.06
578.665	445.06
578.875	357.06
579.086	348.06
579.297	336.06
579.508	339.06
579.718	366.06
579.929	347.06
580.14	347.06
580.35	328.06
580.561	334.06
580.772	321.06
580.982	316.06
581.193	332.06
581.403	327.06
581.614	328.06
581.825	335.06
582.035	326.06
582.246	324.06
582.456	331.06
582.667	336.06
582.877	326.06
583.087	336.06
583.298	337.06
583.508	363.06
583.719	322.06
583.929	323.06
584.139	308.06
584.35	321.06
584.56	329.06
584.77	332.06
584.981	332.06
585.191	324.06
585.401	337.06
585.611	327.06
585.821	319.06
586.032	328.06
586.242	321.06
586.452	312.06
586.662	310.06
586.872	314.06
587.082	308.06
587.292	320.06
587.502	318.06
587.713	318.06
587.923	321.06
588.133	317.06
588.343	326.06
588.553	291.06
588.762	306.06
588.972	329.06
589.182	350.06
589.392	361.06
589.602	335.06
589.812	337.06
590.022	339.06
590.232	325.06
590.441	327.06
590.651	320.06
590.861	316.06
591.071	316.06
591.281	340.06
591.49	317.06
591.7	316.06
591.91	326.06
592.119	329.06
592.329	334.06
592.539	330.06
592.748	333.06
592.958	342.06
593.167	351.06
593.377	336.06
593.587	346.06
593.796	349.06
594.006	340.06
594.215	351.06
594.424	352.06
594.634	376.06
594.843	325.06
595.053	335.06
595.262	324.06
595.472	315.06
595.681	306.06
595.89	334.06
596.1	316.06
596.309	321.06
596.518	327.06
596.727	309.06
596.937	304.06
597.146	314.06
597.355	303.06
597.564	295.06
597.774	300.06
597.983	304.06
598.192	295.06
598.401	271.06
598.61	285.06
598.819	291.06
599.028	293.06
599.237	292.06
599.446	273.06
599.655	281.06
599.864	267.06
600.073	293.06
600.282	285.06
600.491	290.06
600.7	278.06
600.909	272.06
601.118	273.06
601.327	269.06
601.536	284.06
601.745	280.06
601.953	280.06
602.162	280.06
602.371	281.06
602.58	272.06
602.789	292.06
602.997	259.06
603.206	267.06
603.415	265.06
603.623	269.06
603.832	261.06
604.041	262.06
604.249	247.06
604.458	264.06
604.666	270.06
604.875	273.06
605.084	265.06
605.292	278.06
605.501	250.06
605.709	253.06
605.918	268.06
606.126	255.06
606.334	274.06
606.543	275.06
606.751	246.06
606.96	258.06
607.168	241.06
607.376	270.06
607.585	272.06
607.793	254.06
608.001	236.06
608.21	273.06
608.418	262.06
608.626	258.06
608.834	264.06
609.043	269.06
609.251	256.06
609.459	248.06
609.667	260.06
609.875	262.06
610.083	247.06
610.291	264.06
610.499	262.06
610.707	253.06
610.916	256.06
611.124	264.06
611.332	262.06
611.54	261.06
611.748	267.06
611.955	267.06
612.163	256.06
612.371	259.06
612.579	251.06
612.787	240.06
612.995	284.06
613.203	258.06
613.411	252.06
613.618	249.06
613.826	248.06
614.034	251.06
614.242	235.06
614.449	262.06
614.657	264.06
614.865	235.06
615.072	258.06
615.28	258.06
615.488	255.06
615.695	249.06
615.903	251.06
616.111	272.06
616.318	239.06
616.526	244.06
616.733	256.06
616.941	229.06
617.148	260.06
617.356	248.06
617.563	253.06
617.771	262.06
617.978	232.06
618.185	230.06
618.393	241.06
618.6	248.06
618.807	244.06
619.015	255.06
619.222	244.06
619.429	249.06
619.637	252.06
619.844	249.06
620.051	233.06
620.258	228.06
620.466	229.06
620.673	220.06
620.88	245.06
621.087	227.06
621.294	235.06
621.501	256.06
621.708	250.06
621.915	248.06
622.122	232.06
622.329	250.06
622.536	230.06
622.743	241.06
622.95	245.06
623.157	234.06
623.364	233.06
623.571	203.06
623.778	225.06
623.985	234.06
624.192	219.06
624.399	216.06
624.606	211.06
624.812	218.06
625.019	230.06
625.226	240.06
625.433	213.06
625.639	214.06
625.846	225.06
626.053	222.06
626.259	219.06
626.466	221.06
626.673	225.06
626.879	227.06
627.086	207.06
627.293	227.06
627.499	226.06
627.706	209.06
627.912	234.06
628.119	208.06
628.325	222.06
628.532	197.06
628.738	206.06
628.945	210.06
629.151	203.06
629.357	210.06
629.564	207.06
629.77	216.06
629.976	200.06
630.183	208.06
630.389	220.06
630.595	194.06
630.802	209.06
631.008	198.06
631.214	210.06
631.42	204.06
631.627	197.06
631.833	207.06
632.039	217.06
632.245	193.06
632.451	212.06
632.657	185.06
632.863	191.06
633.069	188.06
633.275	188.06
633.481	198.06
633.688	186.06
633.893	216.06
634.099	202.06
634.305	193.06
634.511	194.06
634.717	192.06
634.923	185.06
635.129	192.06
635.335	202.06
635.541	201.06
635.747	193.06
635.952	202.06
636.158	205.06
636.364	201.06
636.57	192.06
636.775	200.06
636.981	203.06
637.187	204.06
637.392	183.06
637.598	172.06
637.804	186.06
638.009	204.06
638.215	198.06
638.421	202.06
638.626	176.06
638.832	193.06
639.037	168.06
639.243	184.06
639.448	176.06
639.654	193.06
639.859	170.06
640.065	197.06
640.27	182.06
640.475	188.06
640.681	176.06
640.886	182.06
641.091	187.06
641.297	173.06
641.502	183.06
641.707	190.06
641.913	174.06
642.118	182.06
642.323	173.06
642.528	184.06
642.733	191.06
642.939	183.06
643.144	180.06
643.349	176.06
643.554	192.06
643.759	159.06
643.964	182.06
644.169	176.06
644.374	168.06
644.579	176.06
644.784	168.06
644.989	195.06
645.194	180.06
645.399	166.06
645.604	171.06
645.809	190.06
646.014	184.06
646.219	182.06
646.423	162.06
646.628	168.06
646.833	173.06
647.038	178.06
647.243	187.06
647.447	186.06
647.652	182.06
647.857	188.06
648.062	184.06
648.266	184.06
648.471	176.06
648.676	178.06
648.88	181.06
649.085	177.06
649.289	173.06
649.494	191.06
649.698	198.06
649.903	181.06
650.107	169.06
650.312	172.06
650.516	185.06
650.721	172.06
650.925	166.06
651.13	157.06
651.334	173.06
651.539	167.06
651.743	154.06
651.947	152.06
652.152	172.06
652.356	165.06
652.56	158.06
652.764	161.06
652.969	153.06
653.173	150.06
653.377	140.06
653.581	141.06
653.785	142.06
653.99	135.06
654.194	144.06
654.398	147.06
654.602	144.06
654.806	138.06
655.01	132.06
655.214	155.06
655.418	150.06
655.622	144.06
655.826	144.06
656.03	137.06
656.234	154.06
656.438	147.06
656.642	152.06
656.846	143.06
657.049	134.06
657.253	128.06
657.457	121.06
657.661	129.06
657.865	122.06
658.068	122.06
658.272	121.06
658.476	124.06
658.68	109.06
658.883	94.06
659.087	109.06
659.291	102.06
659.494	89.06
659.698	111.06
659.901	106.06
660.105	106.06
660.309	105.06
660.512	103.06
660.716	90.06
660.919	100.06
661.123	110.06
661.326	108.06
661.53	94.06
661.733	110.06
661.936	77.06
662.14	91.06
662.343	93.06
662.546	93.06
662.75	81.06
662.953	101.06
663.156	89.06
663.36	83.06
663.563	77.06
663.766	78.06
663.969	94.06
664.173	102.06
664.376	101.06
664.579	86.06
664.782	87.06
664.985	93.06
665.188	90.06
665.391	77.06
665.594	87.06
665.797	84.06
666	101.06
666.203	88.06
666.406	88.06
666.609	100.06
666.812	95.06
667.015	87.06
667.218	92.06
667.421	76.06
667.624	73.06
667.827	89.06
668.03	82.06
668.232	90.06
668.435	85.06
668.638	80.06
668.841	81.06
669.043	85.06
669.246	80.06
669.449	81.06
669.651	82.06
669.854	83.06
670.057	72.06
670.259	91.06
670.462	84.06
670.665	100.06
670.867	85.06
671.07	92.06
671.272	93.06
671.475	89.06
671.677	90.06
671.88	93.06
672.082	79.06
672.284	92.06
672.487	83.06
672.689	70.06
672.892	72.06
