Data from 1979.PennyLincolnUp.Lamp.En5.5.200Scan.071719.P1_HRD10591_16-19-52-863.txt Node
Date: Thu Jul 18 16:19:52 EDT 2019
User: cochatt
Spectrometer: HR+D1059
Trigger mode: 1
Integration Time (sec): 1.000000E-1
Scans to average: 1
Electric dark correction enabled: true
Nonlinearity correction enabled: false
Boxcar width: 0
XAxis mode: Wavelengths
Number of Pixels in Spectrum: 2048
>>>>>Begin Spectral Data<<<<<
223.165	-27.62
223.4	-27.62
223.635	-27.62
223.869	-5.62
224.104	-19.62
224.338	-11.62
224.573	-16.62
224.808	-12.62
225.042	7.38
225.277	-0.62
225.511	-2.62
225.746	-5.62
225.98	0.38
226.215	-1.62
226.449	17.38
226.683	22.38
226.918	21.38
227.152	35.38
227.387	41.38
227.621	40.38
227.856	40.38
228.09	52.38
228.324	46.38
228.559	54.38
228.793	62.38
229.027	100.38
229.262	106.38
229.496	109.38
229.73	128.38
229.964	151.38
230.199	133.38
230.433	121.38
230.667	102.38
230.901	97.38
231.136	109.38
231.37	109.38
231.604	103.38
231.838	109.38
232.072	114.38
232.306	108.38
232.541	105.38
232.775	118.38
233.009	119.38
233.243	101.38
233.477	106.38
233.711	110.38
233.945	109.38
234.179	113.38
234.413	115.38
234.647	118.38
234.881	108.38
235.115	120.38
235.349	118.38
235.583	116.38
235.817	126.38
236.051	114.38
236.285	121.38
236.519	114.38
236.753	132.38
236.987	139.38
237.221	175.38
237.455	228.38
237.689	170.38
237.922	137.38
238.156	126.38
238.39	139.38
238.624	135.38
238.858	123.38
239.091	114.38
239.325	129.38
239.559	134.38
239.793	121.38
240.027	136.38
240.26	125.38
240.494	164.38
240.728	141.38
240.961	142.38
241.195	136.38
241.429	138.38
241.662	136.38
241.896	128.38
242.13	134.38
242.363	127.38
242.597	148.38
242.83	129.38
243.064	140.38
243.298	152.38
243.531	131.38
243.765	132.38
243.998	133.38
244.232	127.38
244.465	149.38
244.699	142.38
244.932	165.38
245.166	159.38
245.399	155.38
245.633	149.38
245.866	155.38
246.099	150.38
246.333	148.38
246.566	153.38
246.8	162.38
247.033	150.38
247.266	141.38
247.5	154.38
247.733	179.38
247.966	162.38
248.2	148.38
248.433	168.38
248.666	150.38
248.899	186.38
249.133	182.38
249.366	204.38
249.599	189.38
249.832	162.38
250.066	159.38
250.299	176.38
250.532	206.38
250.765	201.38
250.998	208.38
251.231	224.38
251.465	208.38
251.698	187.38
251.931	180.38
252.164	185.38
252.397	195.38
252.63	202.38
252.863	196.38
253.096	206.38
253.329	214.38
253.562	215.38
253.795	186.38
254.028	194.38
254.261	206.38
254.494	220.38
254.727	227.38
254.96	242.38
255.193	248.38
255.426	240.38
255.659	209.38
255.892	213.38
256.124	201.38
256.357	209.38
256.59	205.38
256.823	211.38
257.056	190.38
257.289	207.38
257.521	185.38
257.754	207.38
257.987	208.38
258.22	198.38
258.452	198.38
258.685	194.38
258.918	187.38
259.151	215.38
259.383	210.38
259.616	227.38
259.849	218.38
260.081	230.38
260.314	246.38
260.547	251.38
260.779	242.38
261.012	235.38
261.244	217.38
261.477	221.38
261.71	206.38
261.942	210.38
262.175	223.38
262.407	216.38
262.64	212.38
262.872	212.38
263.105	206.38
263.337	215.38
263.57	206.38
263.802	215.38
264.035	203.38
264.267	195.38
264.499	209.38
264.732	212.38
264.964	222.38
265.197	206.38
265.429	196.38
265.661	218.38
265.894	222.38
266.126	213.38
266.358	219.38
266.591	201.38
266.823	207.38
267.055	224.38
267.287	217.38
267.52	216.38
267.752	213.38
267.984	214.38
268.216	210.38
268.448	218.38
268.681	234.38
268.913	223.38
269.145	252.38
269.377	256.38
269.609	255.38
269.841	258.38
270.073	264.38
270.306	276.38
270.538	291.38
270.77	279.38
271.002	281.38
271.234	266.38
271.466	288.38
271.698	286.38
271.93	291.38
272.162	287.38
272.394	284.38
272.626	299.38
272.858	261.38
273.09	259.38
273.322	256.38
273.553	253.38
273.785	249.38
274.017	247.38
274.249	239.38
274.481	262.38
274.713	260.38
274.945	257.38
275.176	254.38
275.408	247.38
275.64	256.38
275.872	260.38
276.104	252.38
276.335	267.38
276.567	252.38
276.799	273.38
277.031	297.38
277.262	300.38
277.494	296.38
277.726	297.38
277.957	271.38
278.189	269.38
278.421	266.38
278.652	246.38
278.884	242.38
279.115	265.38
279.347	260.38
279.579	265.38
279.81	284.38
280.042	272.38
280.273	252.38
280.505	267.38
280.736	261.38
280.968	267.38
281.199	255.38
281.431	251.38
281.662	257.38
281.894	261.38
282.125	286.38
282.356	270.38
282.588	311.38
282.819	319.38
283.051	277.38
283.282	258.38
283.513	278.38
283.745	271.38
283.976	270.38
284.207	283.38
284.439	278.38
284.67	253.38
284.901	262.38
285.132	261.38
285.364	266.38
285.595	260.38
285.826	276.38
286.057	283.38
286.288	268.38
286.52	287.38
286.751	260.38
286.982	294.38
287.213	275.38
287.444	286.38
287.675	299.38
287.906	270.38
288.138	270.38
288.369	282.38
288.6	301.38
288.831	294.38
289.062	281.38
289.293	285.38
289.524	308.38
289.755	297.38
289.986	294.38
290.217	294.38
290.448	284.38
290.679	285.38
290.91	279.38
291.141	286.38
291.371	303.38
291.602	280.38
291.833	285.38
292.064	274.38
292.295	298.38
292.526	310.38
292.757	288.38
292.987	283.38
293.218	284.38
293.449	294.38
293.68	295.38
293.91	277.38
294.141	288.38
294.372	288.38
294.603	281.38
294.833	273.38
295.064	300.38
295.295	283.38
295.525	292.38
295.756	292.38
295.987	286.38
296.217	323.38
296.448	334.38
296.679	319.38
296.909	295.38
297.14	304.38
297.37	316.38
297.601	299.38
297.831	303.38
298.062	292.38
298.292	313.38
298.523	303.38
298.753	311.38
298.984	304.38
299.214	299.38
299.445	306.38
299.675	305.38
299.905	333.38
300.136	306.38
300.366	324.38
300.597	310.38
300.827	339.38
301.057	324.38
301.288	340.38
301.518	329.38
301.748	310.38
301.979	323.38
302.209	312.38
302.439	344.38
302.669	327.38
302.9	318.38
303.13	331.38
303.36	329.38
303.59	326.38
303.82	347.38
304.051	330.38
304.281	322.38
304.511	318.38
304.741	323.38
304.971	343.38
305.201	350.38
305.431	327.38
305.661	318.38
305.891	309.38
306.121	327.38
306.352	351.38
306.582	340.38
306.812	325.38
307.042	331.38
307.272	342.38
307.502	322.38
307.731	344.38
307.961	345.38
308.191	339.38
308.421	327.38
308.651	338.38
308.881	336.38
309.111	335.38
309.341	334.38
309.571	358.38
309.8	367.38
310.03	362.38
310.26	383.38
310.49	359.38
310.72	390.38
310.949	388.38
311.179	394.38
311.409	375.38
311.639	376.38
311.868	388.38
312.098	362.38
312.328	375.38
312.557	402.38
312.787	412.38
313.017	397.38
313.246	394.38
313.476	364.38
313.706	388.38
313.935	382.38
314.165	391.38
314.394	402.38
314.624	383.38
314.853	403.38
315.083	382.38
315.312	367.38
315.542	378.38
315.771	367.38
316.001	378.38
316.23	359.38
316.46	367.38
316.689	372.38
316.919	383.38
317.148	385.38
317.377	384.38
317.607	383.38
317.836	379.38
318.065	382.38
318.295	377.38
318.524	357.38
318.753	374.38
318.983	366.38
319.212	365.38
319.441	375.38
319.67	394.38
319.9	365.38
320.129	374.38
320.358	388.38
320.587	389.38
320.816	403.38
321.046	373.38
321.275	392.38
321.504	386.38
321.733	400.38
321.962	406.38
322.191	418.38
322.42	388.38
322.649	413.38
322.878	428.38
323.108	433.38
323.337	471.38
323.566	493.38
323.795	505.38
324.024	556.38
324.253	652.38
324.482	916.38
324.71	1428.38
324.939	2116.38
325.168	1821.38
325.397	932.38
325.626	616.38
325.855	522.38
326.084	483.38
326.313	483.38
326.542	493.38
326.77	539.38
326.999	605.38
327.228	832.38
327.457	1318.38
327.686	1620.38
327.914	1050.38
328.143	682.38
328.372	606.38
328.6	568.38
328.829	526.38
329.058	524.38
329.287	554.38
329.515	524.38
329.744	503.38
329.972	502.38
330.201	511.38
330.43	536.38
330.658	554.38
330.887	586.38
331.115	563.38
331.344	508.38
331.572	495.38
331.801	466.38
332.03	490.38
332.258	489.38
332.486	443.38
332.715	456.38
332.943	458.38
333.172	476.38
333.4	479.38
333.629	468.38
333.857	487.38
334.085	502.38
334.314	491.38
334.542	530.38
334.771	570.38
334.999	516.38
335.227	501.38
335.455	485.38
335.684	471.38
335.912	466.38
336.14	451.38
336.369	478.38
336.597	472.38
336.825	476.38
337.053	446.38
337.281	459.38
337.51	458.38
337.738	443.38
337.966	456.38
338.194	458.38
338.422	445.38
338.65	421.38
338.878	443.38
339.106	422.38
339.334	445.38
339.562	460.38
339.79	442.38
340.018	423.38
340.246	434.38
340.474	462.38
340.702	442.38
340.93	440.38
341.158	415.38
341.386	429.38
341.614	443.38
341.842	436.38
342.07	422.38
342.298	430.38
342.526	426.38
342.754	410.38
342.981	418.38
343.209	424.38
343.437	414.38
343.665	427.38
343.893	452.38
344.12	456.38
344.348	465.38
344.576	440.38
344.804	442.38
345.031	440.38
345.259	450.38
345.487	429.38
345.714	435.38
345.942	406.38
346.17	405.38
346.397	434.38
346.625	430.38
346.853	420.38
347.08	424.38
347.308	429.38
347.535	441.38
347.763	429.38
347.99	440.38
348.218	442.38
348.445	447.38
348.673	424.38
348.9	423.38
349.128	432.38
349.355	410.38
349.583	395.38
349.81	411.38
350.037	413.38
350.265	403.38
350.492	410.38
350.72	410.38
350.947	409.38
351.174	424.38
351.402	430.38
351.629	431.38
351.856	428.38
352.083	420.38
352.311	434.38
352.538	436.38
352.765	450.38
352.992	420.38
353.22	404.38
353.447	393.38
353.674	402.38
353.901	401.38
354.128	418.38
354.355	403.38
354.583	398.38
354.81	406.38
355.037	413.38
355.264	409.38
355.491	403.38
355.718	393.38
355.945	383.38
356.172	407.38
356.399	424.38
356.626	421.38
356.853	392.38
357.08	389.38
357.307	398.38
357.534	381.38
357.761	414.38
357.988	391.38
358.215	404.38
358.441	407.38
358.668	415.38
358.895	421.38
359.122	415.38
359.349	425.38
359.576	434.38
359.802	451.38
360.029	458.38
360.256	470.38
360.483	463.38
360.709	440.38
360.936	446.38
361.163	429.38
361.39	445.38
361.616	448.38
361.843	436.38
362.07	427.38
362.296	432.38
362.523	422.38
362.749	414.38
362.976	401.38
363.203	431.38
363.429	407.38
363.656	428.38
363.882	426.38
364.109	415.38
364.335	414.38
364.562	417.38
364.788	416.38
365.015	439.38
365.241	417.38
365.468	430.38
365.694	426.38
365.92	414.38
366.147	411.38
366.373	439.38
366.599	414.38
366.826	400.38
367.052	406.38
367.278	412.38
367.505	408.38
367.731	423.38
367.957	426.38
368.184	408.38
368.41	416.38
368.636	435.38
368.862	445.38
369.089	409.38
369.315	436.38
369.541	423.38
369.767	426.38
369.993	410.38
370.219	404.38
370.445	420.38
370.672	430.38
370.898	407.38
371.124	400.38
371.35	423.38
371.576	435.38
371.802	427.38
372.028	420.38
372.254	400.38
372.48	435.38
372.706	419.38
372.932	415.38
373.158	424.38
373.384	435.38
373.61	432.38
373.835	454.38
374.061	418.38
374.287	427.38
374.513	438.38
374.739	420.38
374.965	426.38
375.191	446.38
375.416	452.38
375.642	422.38
375.868	444.38
376.094	423.38
376.319	422.38
376.545	423.38
376.771	423.38
376.997	411.38
377.222	388.38
377.448	434.38
377.674	448.38
377.899	424.38
378.125	420.38
378.35	409.38
378.576	420.38
378.802	419.38
379.027	416.38
379.253	432.38
379.478	409.38
379.704	427.38
379.929	436.38
380.155	424.38
380.38	419.38
380.606	430.38
380.831	426.38
381.057	424.38
381.282	421.38
381.507	432.38
381.733	419.38
381.958	447.38
382.184	415.38
382.409	458.38
382.634	448.38
382.86	428.38
383.085	434.38
383.31	443.38
383.535	448.38
383.761	427.38
383.986	447.38
384.211	434.38
384.436	460.38
384.662	447.38
384.887	463.38
385.112	460.38
385.337	488.38
385.562	469.38
385.787	480.38
386.013	467.38
386.238	484.38
386.463	483.38
386.688	472.38
386.913	468.38
387.138	448.38
387.363	472.38
387.588	474.38
387.813	482.38
388.038	460.38
388.263	462.38
388.488	472.38
388.713	484.38
388.938	459.38
389.163	487.38
389.387	471.38
389.612	458.38
389.837	495.38
390.062	470.38
390.287	489.38
390.512	471.38
390.736	470.38
390.961	486.38
391.186	477.38
391.411	486.38
391.636	502.38
391.86	510.38
392.085	499.38
392.31	486.38
392.534	493.38
392.759	474.38
392.984	462.38
393.208	500.38
393.433	475.38
393.658	490.38
393.882	472.38
394.107	482.38
394.331	488.38
394.556	489.38
394.78	481.38
395.005	486.38
395.229	466.38
395.454	509.38
395.678	510.38
395.903	520.38
396.127	538.38
396.352	516.38
396.576	523.38
396.801	499.38
397.025	510.38
397.249	502.38
397.474	519.38
397.698	532.38
397.922	556.38
398.147	557.38
398.371	555.38
398.595	531.38
398.82	562.38
399.044	553.38
399.268	588.38
399.492	626.38
399.717	655.38
399.941	693.38
400.165	678.38
400.389	717.38
400.613	618.38
400.837	591.38
401.062	568.38
401.286	570.38
401.51	570.38
401.734	527.38
401.958	585.38
402.182	567.38
402.406	568.38
402.63	571.38
402.854	588.38
403.078	587.38
403.302	570.38
403.526	578.38
403.75	570.38
403.974	589.38
404.198	597.38
404.422	599.38
404.645	608.38
404.869	598.38
405.093	636.38
405.317	673.38
405.541	699.38
405.765	658.38
405.988	597.38
406.212	615.38
406.436	653.38
406.66	660.38
406.883	632.38
407.107	684.38
407.331	722.38
407.555	769.38
407.778	761.38
408.002	690.38
408.226	645.38
408.449	669.38
408.673	664.38
408.896	662.38
409.12	690.38
409.344	682.38
409.567	626.38
409.791	587.38
410.014	575.38
410.238	584.38
410.461	596.38
410.685	607.38
410.908	609.38
411.132	645.38
411.355	666.38
411.578	629.38
411.802	590.38
412.025	604.38
412.249	604.38
412.472	644.38
412.695	646.38
412.919	649.38
413.142	597.38
413.365	586.38
413.589	576.38
413.812	584.38
414.035	540.38
414.258	591.38
414.482	573.38
414.705	591.38
414.928	559.38
415.151	566.38
415.374	548.38
415.597	570.38
415.821	551.38
416.044	566.38
416.267	562.38
416.49	558.38
416.713	546.38
416.936	562.38
417.159	558.38
417.382	560.38
417.605	560.38
417.828	561.38
418.051	574.38
418.274	585.38
418.497	554.38
418.72	582.38
418.943	572.38
419.166	599.38
419.389	626.38
419.611	607.38
419.834	592.38
420.057	604.38
420.28	594.38
420.503	591.38
420.726	578.38
420.948	604.38
421.171	633.38
421.394	636.38
421.617	630.38
421.839	598.38
422.062	587.38
422.285	582.38
422.507	648.38
422.73	729.38
422.953	698.38
423.175	617.38
423.398	606.38
423.621	593.38
423.843	643.38
424.066	635.38
424.288	630.38
424.511	621.38
424.733	683.38
424.956	780.38
425.178	746.38
425.401	738.38
425.623	760.38
425.846	683.38
426.068	621.38
426.291	602.38
426.513	625.38
426.735	633.38
426.958	643.38
427.18	712.38
427.402	896.38
427.625	973.38
427.847	858.38
428.069	748.38
428.292	660.38
428.514	605.38
428.736	589.38
428.958	579.38
429.181	558.38
429.403	580.38
429.625	575.38
429.847	595.38
430.069	684.38
430.292	681.38
430.514	571.38
430.736	578.38
430.958	565.38
431.18	548.38
431.402	540.38
431.624	554.38
431.846	529.38
432.068	548.38
432.29	550.38
432.512	554.38
432.734	584.38
432.956	547.38
433.178	558.38
433.4	560.38
433.622	538.38
433.844	563.38
434.066	538.38
434.287	547.38
434.509	571.38
434.731	578.38
434.953	564.38
435.175	596.38
435.397	619.38
435.618	614.38
435.84	664.38
436.062	727.38
436.284	832.38
436.505	702.38
436.727	644.38
436.949	575.38
437.17	588.38
437.392	582.38
437.614	589.38
437.835	616.38
438.057	704.38
438.278	800.38
438.5	805.38
438.721	886.38
438.943	836.38
439.165	674.38
439.386	620.38
439.608	629.38
439.829	614.38
440.05	650.38
440.272	675.38
440.493	636.38
440.715	609.38
440.936	580.38
441.158	570.38
441.379	596.38
441.6	599.38
441.822	620.38
442.043	655.38
442.264	731.38
442.486	761.38
442.707	666.38
442.928	644.38
443.149	640.38
443.371	643.38
443.592	682.38
443.813	786.38
444.034	841.38
444.255	739.38
444.476	655.38
444.698	631.38
444.919	642.38
445.14	740.38
445.361	719.38
445.582	658.38
445.803	712.38
446.024	826.38
446.245	823.38
446.466	744.38
446.687	652.38
446.908	615.38
447.129	584.38
447.35	585.38
447.571	542.38
447.792	547.38
448.013	546.38
448.234	584.38
448.455	623.38
448.675	731.38
448.896	877.38
449.117	733.38
449.338	680.38
449.559	806.38
449.779	891.38
450	724.38
450.221	596.38
450.442	566.38
450.662	550.38
450.883	548.38
451.104	561.38
451.324	568.38
451.545	521.38
451.766	527.38
451.986	517.38
452.207	506.38
452.428	493.38
452.648	491.38
452.869	506.38
453.089	530.38
453.31	543.38
453.53	504.38
453.751	512.38
453.971	512.38
454.192	534.38
454.412	499.38
454.633	480.38
454.853	501.38
455.073	473.38
455.294	529.38
455.514	596.38
455.734	580.38
455.955	524.38
456.175	473.38
456.395	471.38
456.616	479.38
456.836	475.38
457.056	479.38
457.276	490.38
457.497	487.38
457.717	488.38
457.937	513.38
458.157	482.38
458.377	511.38
458.598	510.38
458.818	564.38
459.038	653.38
459.258	683.38
459.478	578.38
459.698	555.38
459.918	543.38
460.138	575.38
460.358	546.38
460.578	561.38
460.798	566.38
461.018	594.38
461.238	599.38
461.458	555.38
461.678	568.38
461.898	595.38
462.118	577.38
462.338	594.38
462.558	574.38
462.777	618.38
462.997	613.38
463.217	654.38
463.437	666.38
463.657	643.38
463.876	620.38
464.096	621.38
464.316	604.38
464.536	613.38
464.755	617.38
464.975	636.38
465.195	644.38
465.414	710.38
465.634	636.38
465.854	572.38
466.073	584.38
466.293	571.38
466.512	538.38
466.732	527.38
466.951	525.38
467.171	535.38
467.391	531.38
467.61	550.38
467.829	528.38
468.049	548.38
468.268	539.38
468.488	535.38
468.707	499.38
468.927	537.38
469.146	506.38
469.365	537.38
469.585	512.38
469.804	536.38
470.023	528.38
470.243	532.38
470.462	556.38
470.681	583.38
470.901	566.38
471.12	531.38
471.339	544.38
471.558	532.38
471.777	534.38
471.997	532.38
472.216	543.38
472.435	552.38
472.654	570.38
472.873	537.38
473.092	530.38
473.311	509.38
473.53	533.38
473.749	540.38
473.968	580.38
474.187	658.38
474.406	706.38
474.625	580.38
474.844	534.38
475.063	532.38
475.282	527.38
475.501	536.38
475.72	547.38
475.939	543.38
476.158	543.38
476.377	549.38
476.596	557.38
476.814	554.38
477.033	560.38
477.252	569.38
477.471	584.38
477.69	591.38
477.908	567.38
478.127	569.38
478.346	588.38
478.564	583.38
478.783	611.38
479.002	615.38
479.22	603.38
479.439	632.38
479.658	668.38
479.876	666.38
480.095	637.38
480.313	672.38
480.532	657.38
480.751	645.38
480.969	676.38
481.188	733.38
481.406	769.38
481.624	673.38
481.843	633.38
482.061	638.38
482.28	612.38
482.498	612.38
482.717	634.38
482.935	626.38
483.153	620.38
483.372	612.38
483.59	597.38
483.808	617.38
484.027	623.38
484.245	626.38
484.463	619.38
484.681	628.38
484.9	626.38
485.118	664.38
485.336	633.38
485.554	614.38
485.772	648.38
485.99	650.38
486.209	644.38
486.427	657.38
486.645	678.38
486.863	672.38
487.081	644.38
487.299	666.38
487.517	678.38
487.735	678.38
487.953	665.38
488.171	672.38
488.389	662.38
488.607	675.38
488.825	683.38
489.043	652.38
489.261	643.38
489.479	671.38
489.696	684.38
489.914	690.38
490.132	674.38
490.35	708.38
490.568	681.38
490.786	709.38
491.003	696.38
491.221	726.38
491.439	735.38
491.657	741.38
491.874	721.38
492.092	791.38
492.31	762.38
492.527	754.38
492.745	774.38
492.963	764.38
493.18	779.38
493.398	779.38
493.615	778.38
493.833	774.38
494.05	772.38
494.268	780.38
494.485	774.38
494.703	778.38
494.92	782.38
495.138	776.38
495.355	770.38
495.573	779.38
495.79	757.38
496.008	775.38
496.225	793.38
496.442	794.38
496.66	793.38
496.877	780.38
497.094	794.38
497.312	802.38
497.529	824.38
497.746	830.38
497.963	812.38
498.181	879.38
498.398	878.38
498.615	900.38
498.832	910.38
499.049	963.38
499.267	962.38
499.484	1019.38
499.701	1022.38
499.918	1101.38
500.135	1156.38
500.352	1247.38
500.569	1235.38
500.786	1230.38
501.003	1219.38
501.22	1183.38
501.437	1132.38
501.654	1103.38
501.871	1060.38
502.088	1016.38
502.305	964.38
502.522	926.38
502.739	914.38
502.956	875.38
503.172	861.38
503.389	861.38
503.606	831.38
503.823	816.38
504.04	814.38
504.256	840.38
504.473	799.38
504.69	803.38
504.907	820.38
505.123	774.38
505.34	792.38
505.557	782.38
505.773	782.38
505.99	758.38
506.207	761.38
506.423	778.38
506.64	744.38
506.856	715.38
507.073	740.38
507.289	710.38
507.506	716.38
507.722	758.38
507.939	761.38
508.155	726.38
508.372	703.38
508.588	685.38
508.805	694.38
509.021	700.38
509.238	701.38
509.454	714.38
509.67	711.38
509.887	709.38
510.103	688.38
510.319	719.38
510.536	812.38
510.752	1317.38
510.968	1042.38
511.184	730.38
511.401	695.38
511.617	668.38
511.833	667.38
512.049	676.38
512.265	633.38
512.481	664.38
512.698	664.38
512.914	663.38
513.13	660.38
513.346	647.38
513.562	649.38
513.778	686.38
513.994	677.38
514.21	673.38
514.426	716.38
514.642	734.38
514.858	766.38
515.074	776.38
515.29	915.38
515.506	1344.38
515.721	1110.38
515.937	795.38
516.153	743.38
516.369	709.38
516.585	726.38
516.801	722.38
517.016	718.38
517.232	710.38
517.448	717.38
517.664	733.38
517.879	722.38
518.095	722.38
518.311	707.38
518.527	710.38
518.742	728.38
518.958	700.38
519.173	688.38
519.389	668.38
519.605	688.38
519.82	680.38
520.036	693.38
520.251	686.38
520.467	732.38
520.682	706.38
520.898	702.38
521.113	716.38
521.329	768.38
521.544	858.38
521.76	1046.38
521.975	1705.38
522.19	1722.38
522.406	946.38
522.621	750.38
522.836	674.38
523.052	653.38
523.267	651.38
523.482	641.38
523.698	635.38
523.913	628.38
524.128	617.38
524.343	605.38
524.559	622.38
524.774	592.38
524.989	600.38
525.204	591.38
525.419	599.38
525.634	588.38
525.849	576.38
526.064	582.38
526.28	574.38
526.495	566.38
526.71	554.38
526.925	570.38
527.14	541.38
527.355	559.38
527.57	551.38
527.785	557.38
527.999	559.38
528.214	555.38
528.429	574.38
528.644	583.38
528.859	576.38
529.074	554.38
529.289	599.38
529.503	649.38
529.718	640.38
529.933	564.38
530.148	550.38
530.363	554.38
530.577	568.38
530.792	541.38
531.007	564.38
531.221	544.38
531.436	535.38
531.651	542.38
531.865	540.38
532.08	555.38
532.295	544.38
532.509	547.38
532.724	549.38
532.938	552.38
533.153	550.38
533.367	529.38
533.582	541.38
533.796	523.38
534.011	528.38
534.225	544.38
534.44	500.38
534.654	537.38
534.868	522.38
535.083	511.38
535.297	527.38
535.511	547.38
535.726	552.38
535.94	533.38
536.154	555.38
536.369	521.38
536.583	532.38
536.797	526.38
537.011	508.38
537.225	516.38
537.44	507.38
537.654	525.38
537.868	524.38
538.082	512.38
538.296	550.38
538.51	519.38
538.724	542.38
538.938	515.38
539.153	521.38
539.367	534.38
539.581	533.38
539.795	522.38
540.009	509.38
540.222	511.38
540.436	513.38
540.65	503.38
540.864	511.38
541.078	516.38
541.292	504.38
541.506	507.38
541.72	504.38
541.934	489.38
542.147	518.38
542.361	528.38
542.575	511.38
542.789	498.38
543.002	487.38
543.216	500.38
543.43	492.38
543.644	495.38
543.857	525.38
544.071	508.38
544.285	534.38
544.498	519.38
544.712	495.38
544.925	507.38
545.139	516.38
545.352	507.38
545.566	491.38
545.779	502.38
545.993	478.38
546.206	512.38
546.42	513.38
546.633	496.38
546.847	485.38
547.06	485.38
547.274	503.38
547.487	485.38
547.7	491.38
547.914	500.38
548.127	482.38
548.34	487.38
548.554	499.38
548.767	488.38
548.98	485.38
549.193	485.38
549.407	500.38
549.62	504.38
549.833	486.38
550.046	493.38
550.259	483.38
550.473	483.38
550.686	480.38
550.899	500.38
551.112	470.38
551.325	482.38
551.538	501.38
551.751	464.38
551.964	483.38
552.177	470.38
552.39	491.38
552.603	510.38
552.816	511.38
553.029	496.38
553.242	493.38
553.455	496.38
553.667	505.38
553.88	519.38
554.093	522.38
554.306	523.38
554.519	482.38
554.732	475.38
554.944	468.38
555.157	461.38
555.37	466.38
555.583	471.38
555.795	459.38
556.008	476.38
556.221	451.38
556.433	444.38
556.646	456.38
556.859	455.38
557.071	446.38
557.284	449.38
557.496	439.38
557.709	452.38
557.921	455.38
558.134	431.38
558.346	437.38
558.559	440.38
558.771	437.38
558.984	443.38
559.196	435.38
559.409	431.38
559.621	456.38
559.833	414.38
560.046	419.38
560.258	422.38
560.47	438.38
560.683	416.38
560.895	411.38
561.107	431.38
561.32	448.38
561.532	443.38
561.744	446.38
561.956	433.38
562.168	452.38
562.381	452.38
562.593	455.38
562.805	439.38
563.017	444.38
563.229	434.38
563.441	446.38
563.653	435.38
563.865	469.38
564.077	438.38
564.289	458.38
564.501	439.38
564.713	468.38
564.925	476.38
565.137	487.38
565.349	454.38
565.561	510.38
565.773	493.38
565.985	503.38
566.197	494.38
566.408	542.38
566.62	546.38
566.832	559.38
567.044	579.38
567.255	575.38
567.467	570.38
567.679	592.38
567.891	596.38
568.102	610.38
568.314	592.38
568.526	563.38
568.737	537.38
568.949	495.38
569.161	518.38
569.372	487.38
569.584	465.38
569.795	459.38
570.007	457.38
570.218	494.38
570.43	490.38
570.641	446.38
570.853	432.38
571.064	428.38
571.276	431.38
571.487	429.38
571.698	420.38
571.91	416.38
572.121	411.38
572.333	418.38
572.544	410.38
572.755	406.38
572.966	396.38
573.178	377.38
573.389	392.38
573.6	396.38
573.811	407.38
574.023	376.38
574.234	367.38
574.445	362.38
574.656	374.38
574.867	364.38
575.078	386.38
575.289	372.38
575.501	386.38
575.712	363.38
575.923	354.38
576.134	374.38
576.345	371.38
576.556	376.38
576.767	347.38
576.978	378.38
577.188	358.38
577.399	367.38
577.61	356.38
577.821	356.38
578.032	358.38
578.243	389.38
578.454	599.38
578.665	475.38
578.875	379.38
579.086	358.38
579.297	357.38
579.508	337.38
579.718	367.38
579.929	353.38
580.14	340.38
580.35	341.38
580.561	350.38
580.772	342.38
580.982	340.38
581.193	342.38
581.403	339.38
581.614	334.38
581.825	345.38
582.035	346.38
582.246	327.38
582.456	332.38
582.667	338.38
582.877	324.38
583.087	336.38
583.298	339.38
583.508	350.38
583.719	331.38
583.929	342.38
584.139	348.38
584.35	327.38
584.56	345.38
584.77	334.38
584.981	316.38
585.191	330.38
585.401	332.38
585.611	356.38
585.821	325.38
586.032	332.38
586.242	324.38
586.452	319.38
586.662	333.38
586.872	327.38
587.082	328.38
587.292	311.38
587.502	323.38
587.713	330.38
587.923	340.38
588.133	338.38
588.343	335.38
588.553	324.38
588.762	343.38
588.972	324.38
589.182	343.38
589.392	332.38
589.602	318.38
589.812	325.38
590.022	318.38
590.232	322.38
590.441	324.38
590.651	322.38
590.861	334.38
591.071	325.38
591.281	330.38
591.49	331.38
591.7	336.38
591.91	326.38
592.119	350.38
592.329	315.38
592.539	352.38
592.748	356.38
592.958	362.38
593.167	347.38
593.377	365.38
593.587	364.38
593.796	370.38
594.006	367.38
594.215	358.38
594.424	365.38
594.634	363.38
594.843	352.38
595.053	353.38
595.262	324.38
595.472	336.38
595.681	316.38
595.89	314.38
596.1	314.38
596.309	338.38
596.518	325.38
596.727	326.38
596.937	322.38
597.146	315.38
597.355	314.38
597.564	294.38
597.774	304.38
597.983	280.38
598.192	301.38
598.401	293.38
598.61	308.38
598.819	265.38
599.028	290.38
599.237	301.38
599.446	290.38
599.655	287.38
599.864	277.38
600.073	287.38
600.282	291.38
600.491	276.38
600.7	278.38
600.909	281.38
601.118	286.38
601.327	280.38
601.536	294.38
601.745	300.38
601.953	288.38
602.162	290.38
602.371	282.38
602.58	271.38
602.789	274.38
602.997	269.38
603.206	272.38
603.415	284.38
603.623	267.38
603.832	272.38
604.041	271.38
604.249	273.38
604.458	262.38
604.666	268.38
604.875	267.38
605.084	251.38
605.292	266.38
605.501	274.38
605.709	258.38
605.918	292.38
606.126	277.38
606.334	260.38
606.543	273.38
606.751	272.38
606.96	284.38
607.168	272.38
607.376	264.38
607.585	263.38
607.793	256.38
608.001	275.38
608.21	250.38
608.418	260.38
608.626	281.38
608.834	273.38
609.043	273.38
609.251	249.38
609.459	267.38
609.667	273.38
609.875	270.38
610.083	235.38
610.291	264.38
610.499	263.38
610.707	260.38
610.916	255.38
611.124	264.38
611.332	272.38
611.54	296.38
611.748	263.38
611.955	272.38
612.163	260.38
612.371	269.38
612.579	251.38
612.787	237.38
612.995	251.38
613.203	262.38
613.411	266.38
613.618	262.38
613.826	258.38
614.034	250.38
614.242	247.38
614.449	260.38
614.657	274.38
614.865	262.38
615.072	271.38
615.28	262.38
615.488	243.38
615.695	262.38
615.903	271.38
616.111	259.38
616.318	255.38
616.526	255.38
616.733	264.38
616.941	262.38
617.148	259.38
617.356	267.38
617.563	250.38
617.771	262.38
617.978	260.38
618.185	258.38
618.393	246.38
618.6	258.38
618.807	255.38
619.015	240.38
619.222	218.38
619.429	237.38
619.637	249.38
619.844	232.38
620.051	239.38
620.258	253.38
620.466	237.38
620.673	236.38
620.88	237.38
621.087	234.38
621.294	256.38
621.501	228.38
621.708	210.38
621.915	235.38
622.122	252.38
622.329	252.38
622.536	242.38
622.743	230.38
622.95	233.38
623.157	224.38
623.364	245.38
623.571	230.38
623.778	228.38
623.985	240.38
624.192	250.38
624.399	239.38
624.606	235.38
624.812	232.38
625.019	204.38
625.226	229.38
625.433	224.38
625.639	220.38
625.846	233.38
626.053	230.38
626.259	212.38
626.466	229.38
626.673	213.38
626.879	219.38
627.086	207.38
627.293	220.38
627.499	222.38
627.706	219.38
627.912	214.38
628.119	218.38
628.325	213.38
628.532	237.38
628.738	215.38
628.945	234.38
629.151	211.38
629.357	199.38
629.564	218.38
629.77	217.38
629.976	198.38
630.183	214.38
630.389	208.38
630.595	211.38
630.802	212.38
631.008	212.38
631.214	207.38
631.42	215.38
631.627	217.38
631.833	228.38
632.039	212.38
632.245	197.38
632.451	186.38
632.657	200.38
632.863	203.38
633.069	199.38
633.275	202.38
633.481	198.38
633.688	208.38
633.893	207.38
634.099	196.38
634.305	202.38
634.511	189.38
634.717	199.38
634.923	195.38
635.129	191.38
635.335	196.38
635.541	199.38
635.747	184.38
635.952	204.38
636.158	205.38
636.364	202.38
636.57	210.38
636.775	196.38
636.981	203.38
637.187	201.38
637.392	203.38
637.598	182.38
637.804	178.38
638.009	192.38
638.215	196.38
638.421	189.38
638.626	177.38
638.832	181.38
639.037	192.38
639.243	191.38
639.448	182.38
639.654	194.38
639.859	180.38
640.065	185.38
640.27	190.38
640.475	194.38
640.681	170.38
640.886	170.38
641.091	178.38
641.297	181.38
641.502	176.38
641.707	178.38
641.913	197.38
642.118	185.38
642.323	183.38
642.528	189.38
642.733	184.38
642.939	183.38
643.144	175.38
643.349	183.38
643.554	168.38
643.759	162.38
643.964	178.38
644.169	177.38
644.374	182.38
644.579	183.38
644.784	187.38
644.989	171.38
645.194	166.38
645.399	194.38
645.604	184.38
645.809	176.38
646.014	167.38
646.219	166.38
646.423	157.38
646.628	180.38
646.833	178.38
647.038	166.38
647.243	204.38
647.447	186.38
647.652	173.38
647.857	199.38
648.062	172.38
648.266	200.38
648.471	174.38
648.676	182.38
648.88	189.38
649.085	185.38
649.289	159.38
649.494	186.38
649.698	190.38
649.903	204.38
650.107	189.38
650.312	174.38
650.516	167.38
650.721	162.38
650.925	160.38
651.13	162.38
651.334	184.38
651.539	160.38
651.743	157.38
651.947	150.38
652.152	173.38
652.356	157.38
652.56	155.38
652.764	143.38
652.969	153.38
653.173	152.38
653.377	143.38
653.581	136.38
653.785	140.38
653.99	144.38
654.194	149.38
654.398	134.38
654.602	138.38
654.806	152.38
655.01	144.38
655.214	149.38
655.418	139.38
655.622	152.38
655.826	159.38
656.03	143.38
656.234	137.38
656.438	144.38
656.642	154.38
656.846	142.38
657.049	131.38
657.253	144.38
657.457	123.38
657.661	126.38
657.865	126.38
658.068	117.38
658.272	101.38
658.476	112.38
658.68	95.38
658.883	116.38
659.087	107.38
659.291	110.38
659.494	90.38
659.698	122.38
659.901	94.38
660.105	103.38
660.309	91.38
660.512	101.38
660.716	100.38
660.919	96.38
661.123	86.38
661.326	88.38
661.53	100.38
661.733	82.38
661.936	99.38
662.14	86.38
662.343	106.38
662.546	88.38
662.75	83.38
662.953	91.38
663.156	92.38
663.36	90.38
663.563	88.38
663.766	93.38
663.969	85.38
664.173	88.38
664.376	89.38
664.579	80.38
664.782	85.38
664.985	74.38
665.188	94.38
665.391	82.38
665.594	89.38
665.797	85.38
666	88.38
666.203	85.38
666.406	87.38
666.609	68.38
666.812	72.38
667.015	74.38
667.218	92.38
667.421	79.38
667.624	84.38
667.827	78.38
668.03	80.38
668.232	74.38
668.435	85.38
668.638	98.38
668.841	81.38
669.043	82.38
669.246	88.38
669.449	114.38
669.651	85.38
669.854	91.38
670.057	90.38
670.259	75.38
670.462	86.38
670.665	78.38
670.867	72.38
671.07	86.38
671.272	91.38
671.475	81.38
671.677	75.38
671.88	85.38
672.082	89.38
672.284	62.38
672.487	91.38
672.689	85.38
672.892	84.38
