Data from 1979.PennyLincolnUp.Lamp.En5.5.200Scan.071719.P1_HRD10591_16-20-28-863.txt Node
Date: Thu Jul 18 16:20:28 EDT 2019
User: cochatt
Spectrometer: HR+D1059
Trigger mode: 1
Integration Time (sec): 1.000000E-1
Scans to average: 1
Electric dark correction enabled: true
Nonlinearity correction enabled: false
Boxcar width: 0
XAxis mode: Wavelengths
Number of Pixels in Spectrum: 2048
>>>>>Begin Spectral Data<<<<<
223.165	-8.19
223.4	-8.19
223.635	-8.19
223.869	-32.19
224.104	-18.19
224.338	-26.19
224.573	-11.19
224.808	-10.19
225.042	-1.19
225.277	-9.19
225.511	4.81
225.746	-3.19
225.98	12.81
226.215	5.81
226.449	17.81
226.683	22.81
226.918	27.81
227.152	27.81
227.387	42.81
227.621	53.81
227.856	47.81
228.09	56.81
228.324	55.81
228.559	55.81
228.793	73.81
229.027	88.81
229.262	118.81
229.496	116.81
229.73	135.81
229.964	152.81
230.199	112.81
230.433	116.81
230.667	107.81
230.901	113.81
231.136	102.81
231.37	113.81
231.604	102.81
231.838	124.81
232.072	123.81
232.306	118.81
232.541	116.81
232.775	119.81
233.009	120.81
233.243	116.81
233.477	107.81
233.711	113.81
233.945	119.81
234.179	125.81
234.413	122.81
234.647	128.81
234.881	119.81
235.115	120.81
235.349	126.81
235.583	122.81
235.817	124.81
236.051	121.81
236.285	123.81
236.519	121.81
236.753	141.81
236.987	129.81
237.221	166.81
237.455	247.81
237.689	181.81
237.922	141.81
238.156	134.81
238.39	125.81
238.624	122.81
238.858	126.81
239.091	116.81
239.325	127.81
239.559	139.81
239.793	125.81
240.027	149.81
240.26	134.81
240.494	151.81
240.728	138.81
240.961	145.81
241.195	144.81
241.429	137.81
241.662	131.81
241.896	123.81
242.13	129.81
242.363	141.81
242.597	127.81
242.83	143.81
243.064	139.81
243.298	132.81
243.531	131.81
243.765	157.81
243.998	138.81
244.232	145.81
244.465	141.81
244.699	145.81
244.932	160.81
245.166	129.81
245.399	142.81
245.633	149.81
245.866	155.81
246.099	145.81
246.333	150.81
246.566	164.81
246.8	153.81
247.033	139.81
247.266	152.81
247.5	156.81
247.733	166.81
247.966	158.81
248.2	165.81
248.433	171.81
248.666	175.81
248.899	182.81
249.133	202.81
249.366	190.81
249.599	197.81
249.832	177.81
250.066	179.81
250.299	170.81
250.532	187.81
250.765	213.81
250.998	200.81
251.231	213.81
251.465	208.81
251.698	193.81
251.931	201.81
252.164	189.81
252.397	203.81
252.63	204.81
252.863	201.81
253.096	214.81
253.329	208.81
253.562	223.81
253.795	208.81
254.028	220.81
254.261	198.81
254.494	208.81
254.727	248.81
254.96	253.81
255.193	251.81
255.426	222.81
255.659	250.81
255.892	210.81
256.124	217.81
256.357	207.81
256.59	210.81
256.823	228.81
257.056	217.81
257.289	209.81
257.521	197.81
257.754	205.81
257.987	204.81
258.22	209.81
258.452	207.81
258.685	193.81
258.918	199.81
259.151	190.81
259.383	214.81
259.616	204.81
259.849	219.81
260.081	227.81
260.314	263.81
260.547	252.81
260.779	237.81
261.012	251.81
261.244	207.81
261.477	221.81
261.71	225.81
261.942	226.81
262.175	225.81
262.407	233.81
262.64	216.81
262.872	224.81
263.105	222.81
263.337	218.81
263.57	212.81
263.802	203.81
264.035	216.81
264.267	197.81
264.499	224.81
264.732	223.81
264.964	214.81
265.197	204.81
265.429	217.81
265.661	208.81
265.894	221.81
266.126	210.81
266.358	224.81
266.591	217.81
266.823	227.81
267.055	217.81
267.287	227.81
267.52	222.81
267.752	226.81
267.984	219.81
268.216	256.81
268.448	236.81
268.681	242.81
268.913	229.81
269.145	232.81
269.377	268.81
269.609	267.81
269.841	258.81
270.073	270.81
270.306	289.81
270.538	297.81
270.77	307.81
271.002	289.81
271.234	266.81
271.466	274.81
271.698	295.81
271.93	296.81
272.162	297.81
272.394	274.81
272.626	263.81
272.858	271.81
273.09	266.81
273.322	257.81
273.553	244.81
273.785	239.81
274.017	252.81
274.249	250.81
274.481	263.81
274.713	268.81
274.945	259.81
275.176	287.81
275.408	287.81
275.64	264.81
275.872	270.81
276.104	268.81
276.335	256.81
276.567	278.81
276.799	290.81
277.031	295.81
277.262	299.81
277.494	310.81
277.726	293.81
277.957	272.81
278.189	278.81
278.421	269.81
278.652	278.81
278.884	290.81
279.115	284.81
279.347	270.81
279.579	254.81
279.81	273.81
280.042	268.81
280.273	261.81
280.505	275.81
280.736	257.81
280.968	259.81
281.199	259.81
281.431	292.81
281.662	264.81
281.894	268.81
282.125	266.81
282.356	296.81
282.588	296.81
282.819	309.81
283.051	273.81
283.282	256.81
283.513	262.81
283.745	291.81
283.976	277.81
284.207	259.81
284.439	279.81
284.67	275.81
284.901	283.81
285.132	278.81
285.364	279.81
285.595	274.81
285.826	273.81
286.057	280.81
286.288	279.81
286.52	300.81
286.751	283.81
286.982	282.81
287.213	287.81
287.444	289.81
287.675	299.81
287.906	286.81
288.138	311.81
288.369	295.81
288.6	297.81
288.831	302.81
289.062	285.81
289.293	299.81
289.524	285.81
289.755	271.81
289.986	294.81
290.217	297.81
290.448	301.81
290.679	295.81
290.91	291.81
291.141	268.81
291.371	284.81
291.602	287.81
291.833	273.81
292.064	288.81
292.295	310.81
292.526	291.81
292.757	297.81
292.987	299.81
293.218	288.81
293.449	283.81
293.68	302.81
293.91	302.81
294.141	303.81
294.372	311.81
294.603	298.81
294.833	288.81
295.064	297.81
295.295	293.81
295.525	304.81
295.756	296.81
295.987	327.81
296.217	325.81
296.448	345.81
296.679	295.81
296.909	297.81
297.14	301.81
297.37	284.81
297.601	303.81
297.831	303.81
298.062	296.81
298.292	301.81
298.523	323.81
298.753	307.81
298.984	303.81
299.214	313.81
299.445	331.81
299.675	304.81
299.905	316.81
300.136	320.81
300.366	322.81
300.597	320.81
300.827	335.81
301.057	329.81
301.288	336.81
301.518	348.81
301.748	329.81
301.979	304.81
302.209	335.81
302.439	330.81
302.669	335.81
302.9	339.81
303.13	326.81
303.36	324.81
303.59	342.81
303.82	348.81
304.051	357.81
304.281	330.81
304.511	317.81
304.741	319.81
304.971	334.81
305.201	345.81
305.431	335.81
305.661	323.81
305.891	324.81
306.121	326.81
306.352	358.81
306.582	343.81
306.812	325.81
307.042	333.81
307.272	338.81
307.502	347.81
307.731	346.81
307.961	343.81
308.191	357.81
308.421	353.81
308.651	341.81
308.881	356.81
309.111	337.81
309.341	334.81
309.571	346.81
309.8	355.81
310.03	376.81
310.26	373.81
310.49	371.81
310.72	365.81
310.949	380.81
311.179	399.81
311.409	378.81
311.639	384.81
311.868	377.81
312.098	368.81
312.328	377.81
312.557	401.81
312.787	407.81
313.017	412.81
313.246	381.81
313.476	371.81
313.706	379.81
313.935	397.81
314.165	400.81
314.394	397.81
314.624	386.81
314.853	383.81
315.083	393.81
315.312	381.81
315.542	367.81
315.771	394.81
316.001	361.81
316.23	372.81
316.46	373.81
316.689	397.81
316.919	400.81
317.148	387.81
317.377	394.81
317.607	380.81
317.836	398.81
318.065	391.81
318.295	379.81
318.524	377.81
318.753	372.81
318.983	384.81
319.212	360.81
319.441	380.81
319.67	415.81
319.9	385.81
320.129	386.81
320.358	389.81
320.587	378.81
320.816	396.81
321.046	396.81
321.275	414.81
321.504	407.81
321.733	397.81
321.962	415.81
322.191	413.81
322.42	402.81
322.649	449.81
322.878	447.81
323.108	463.81
323.337	478.81
323.566	483.81
323.795	515.81
324.024	544.81
324.253	656.81
324.482	933.81
324.71	1455.81
324.939	2192.81
325.168	1848.81
325.397	929.81
325.626	657.81
325.855	555.81
326.084	507.81
326.313	496.81
326.542	491.81
326.77	563.81
326.999	639.81
327.228	862.81
327.457	1338.81
327.686	1655.81
327.914	1077.81
328.143	695.81
328.372	619.81
328.6	580.81
328.829	557.81
329.058	548.81
329.287	574.81
329.515	521.81
329.744	503.81
329.972	491.81
330.201	526.81
330.43	548.81
330.658	584.81
330.887	608.81
331.115	598.81
331.344	524.81
331.572	488.81
331.801	491.81
332.03	491.81
332.258	490.81
332.486	445.81
332.715	454.81
332.943	471.81
333.172	464.81
333.4	475.81
333.629	469.81
333.857	501.81
334.085	506.81
334.314	520.81
334.542	573.81
334.771	565.81
334.999	511.81
335.227	507.81
335.455	499.81
335.684	494.81
335.912	473.81
336.14	464.81
336.369	458.81
336.597	459.81
336.825	469.81
337.053	472.81
337.281	454.81
337.51	446.81
337.738	457.81
337.966	455.81
338.194	478.81
338.422	459.81
338.65	445.81
338.878	445.81
339.106	450.81
339.334	472.81
339.562	465.81
339.79	459.81
340.018	430.81
340.246	451.81
340.474	447.81
340.702	440.81
340.93	438.81
341.158	426.81
341.386	430.81
341.614	469.81
341.842	450.81
342.07	428.81
342.298	436.81
342.526	414.81
342.754	397.81
342.981	423.81
343.209	431.81
343.437	448.81
343.665	446.81
343.893	467.81
344.12	462.81
344.348	448.81
344.576	454.81
344.804	461.81
345.031	458.81
345.259	461.81
345.487	455.81
345.714	435.81
345.942	425.81
346.17	441.81
346.397	445.81
346.625	432.81
346.853	428.81
347.08	419.81
347.308	420.81
347.535	419.81
347.763	447.81
347.99	460.81
348.218	416.81
348.445	431.81
348.673	437.81
348.9	439.81
349.128	436.81
349.355	413.81
349.583	397.81
349.81	407.81
350.037	419.81
350.265	421.81
350.492	418.81
350.72	408.81
350.947	408.81
351.174	428.81
351.402	452.81
351.629	438.81
351.856	426.81
352.083	451.81
352.311	435.81
352.538	438.81
352.765	433.81
352.992	439.81
353.22	417.81
353.447	455.81
353.674	429.81
353.901	419.81
354.128	417.81
354.355	419.81
354.583	407.81
354.81	408.81
355.037	417.81
355.264	401.81
355.491	405.81
355.718	407.81
355.945	391.81
356.172	416.81
356.399	391.81
356.626	387.81
356.853	397.81
357.08	399.81
357.307	417.81
357.534	412.81
357.761	409.81
357.988	404.81
358.215	408.81
358.441	417.81
358.668	422.81
358.895	428.81
359.122	400.81
359.349	412.81
359.576	430.81
359.802	442.81
360.029	470.81
360.256	484.81
360.483	481.81
360.709	446.81
360.936	420.81
361.163	424.81
361.39	422.81
361.616	407.81
361.843	427.81
362.07	441.81
362.296	431.81
362.523	442.81
362.749	461.81
362.976	443.81
363.203	408.81
363.429	411.81
363.656	409.81
363.882	424.81
364.109	420.81
364.335	424.81
364.562	419.81
364.788	425.81
365.015	441.81
365.241	424.81
365.468	418.81
365.694	421.81
365.92	411.81
366.147	415.81
366.373	413.81
366.599	419.81
366.826	415.81
367.052	421.81
367.278	413.81
367.505	402.81
367.731	418.81
367.957	409.81
368.184	430.81
368.41	428.81
368.636	428.81
368.862	428.81
369.089	437.81
369.315	418.81
369.541	418.81
369.767	428.81
369.993	415.81
370.219	442.81
370.445	408.81
370.672	429.81
370.898	425.81
371.124	422.81
371.35	415.81
371.576	417.81
371.802	422.81
372.028	441.81
372.254	425.81
372.48	417.81
372.706	417.81
372.932	420.81
373.158	453.81
373.384	446.81
373.61	436.81
373.835	466.81
374.061	421.81
374.287	446.81
374.513	454.81
374.739	434.81
374.965	448.81
375.191	423.81
375.416	413.81
375.642	421.81
375.868	445.81
376.094	447.81
376.319	431.81
376.545	428.81
376.771	426.81
376.997	443.81
377.222	414.81
377.448	428.81
377.674	432.81
377.899	447.81
378.125	427.81
378.35	410.81
378.576	420.81
378.802	422.81
379.027	419.81
379.253	438.81
379.478	432.81
379.704	406.81
379.929	436.81
380.155	451.81
380.38	425.81
380.606	420.81
380.831	421.81
381.057	441.81
381.282	422.81
381.507	414.81
381.733	438.81
381.958	432.81
382.184	431.81
382.409	425.81
382.634	412.81
382.86	440.81
383.085	421.81
383.31	452.81
383.535	436.81
383.761	468.81
383.986	449.81
384.211	445.81
384.436	468.81
384.662	466.81
384.887	446.81
385.112	465.81
385.337	456.81
385.562	463.81
385.787	483.81
386.013	480.81
386.238	485.81
386.463	466.81
386.688	493.81
386.913	489.81
387.138	489.81
387.363	488.81
387.588	470.81
387.813	471.81
388.038	464.81
388.263	470.81
388.488	475.81
388.713	494.81
388.938	489.81
389.163	481.81
389.387	481.81
389.612	484.81
389.837	462.81
390.062	466.81
390.287	475.81
390.512	480.81
390.736	460.81
390.961	463.81
391.186	479.81
391.411	491.81
391.636	494.81
391.86	486.81
392.085	503.81
392.31	507.81
392.534	518.81
392.759	493.81
392.984	474.81
393.208	504.81
393.433	494.81
393.658	483.81
393.882	478.81
394.107	471.81
394.331	466.81
394.556	469.81
394.78	478.81
395.005	509.81
395.229	477.81
395.454	504.81
395.678	513.81
395.903	525.81
396.127	537.81
396.352	566.81
396.576	529.81
396.801	497.81
397.025	497.81
397.249	508.81
397.474	523.81
397.698	526.81
397.922	545.81
398.147	535.81
398.371	544.81
398.595	560.81
398.82	569.81
399.044	555.81
399.268	572.81
399.492	631.81
399.717	656.81
399.941	676.81
400.165	719.81
400.389	707.81
400.613	636.81
400.837	601.81
401.062	563.81
401.286	581.81
401.51	592.81
401.734	575.81
401.958	583.81
402.182	569.81
402.406	580.81
402.63	608.81
402.854	601.81
403.078	597.81
403.302	618.81
403.526	592.81
403.75	603.81
403.974	591.81
404.198	604.81
404.422	592.81
404.645	611.81
404.869	614.81
405.093	647.81
405.317	674.81
405.541	705.81
405.765	649.81
405.988	615.81
406.212	647.81
406.436	641.81
406.66	658.81
406.883	649.81
407.107	654.81
407.331	723.81
407.555	791.81
407.778	788.81
408.002	713.81
408.226	695.81
408.449	643.81
408.673	635.81
408.896	663.81
409.12	723.81
409.344	704.81
409.567	641.81
409.791	586.81
410.014	611.81
410.238	591.81
410.461	613.81
410.685	590.81
410.908	583.81
411.132	643.81
411.355	689.81
411.578	645.81
411.802	620.81
412.025	604.81
412.249	606.81
412.472	621.81
412.695	669.81
412.919	622.81
413.142	601.81
413.365	588.81
413.589	583.81
413.812	570.81
414.035	581.81
414.258	581.81
414.482	566.81
414.705	581.81
414.928	582.81
415.151	578.81
415.374	589.81
415.597	568.81
415.821	546.81
416.044	579.81
416.267	584.81
416.49	566.81
416.713	568.81
416.936	570.81
417.159	582.81
417.382	559.81
417.605	551.81
417.828	583.81
418.051	575.81
418.274	596.81
418.497	575.81
418.72	577.81
418.943	571.81
419.166	593.81
419.389	613.81
419.611	619.81
419.834	606.81
420.057	601.81
420.28	597.81
420.503	575.81
420.726	575.81
420.948	592.81
421.171	641.81
421.394	660.81
421.617	612.81
421.839	598.81
422.062	591.81
422.285	581.81
422.507	665.81
422.73	727.81
422.953	705.81
423.175	651.81
423.398	608.81
423.621	614.81
423.843	628.81
424.066	668.81
424.288	620.81
424.511	634.81
424.733	675.81
424.956	766.81
425.178	724.81
425.401	762.81
425.623	763.81
425.846	668.81
426.068	616.81
426.291	629.81
426.513	621.81
426.735	612.81
426.958	678.81
427.18	739.81
427.402	870.81
427.625	965.81
427.847	853.81
428.069	739.81
428.292	644.81
428.514	609.81
428.736	586.81
428.958	565.81
429.181	579.81
429.403	585.81
429.625	597.81
429.847	630.81
430.069	699.81
430.292	658.81
430.514	600.81
430.736	583.81
430.958	547.81
431.18	557.81
431.402	551.81
431.624	561.81
431.846	524.81
432.068	533.81
432.29	576.81
432.512	558.81
432.734	543.81
432.956	572.81
433.178	569.81
433.4	553.81
433.622	571.81
433.844	553.81
434.066	569.81
434.287	556.81
434.509	569.81
434.731	567.81
434.953	556.81
435.175	609.81
435.397	615.81
435.618	613.81
435.84	645.81
436.062	756.81
436.284	828.81
436.505	702.81
436.727	640.81
436.949	569.81
437.17	568.81
437.392	581.81
437.614	591.81
437.835	599.81
438.057	725.81
438.278	807.81
438.5	801.81
438.721	881.81
438.943	837.81
439.165	683.81
439.386	617.81
439.608	625.81
439.829	637.81
440.05	638.81
440.272	705.81
440.493	660.81
440.715	605.81
440.936	605.81
441.158	584.81
441.379	601.81
441.6	593.81
441.822	606.81
442.043	657.81
442.264	729.81
442.486	787.81
442.707	669.81
442.928	643.81
443.149	661.81
443.371	670.81
443.592	697.81
443.813	769.81
444.034	876.81
444.255	741.81
444.476	662.81
444.698	655.81
444.919	631.81
445.14	716.81
445.361	686.81
445.582	667.81
445.803	724.81
446.024	857.81
446.245	843.81
446.466	767.81
446.687	649.81
446.908	620.81
447.129	592.81
447.35	600.81
447.571	568.81
447.792	564.81
448.013	569.81
448.234	567.81
448.455	649.81
448.675	741.81
448.896	831.81
449.117	699.81
449.338	693.81
449.559	804.81
449.779	942.81
450	743.81
450.221	631.81
450.442	569.81
450.662	562.81
450.883	535.81
451.104	600.81
451.324	550.81
451.545	542.81
451.766	548.81
451.986	510.81
452.207	495.81
452.428	500.81
452.648	544.81
452.869	512.81
453.089	521.81
453.31	533.81
453.53	544.81
453.751	518.81
453.971	523.81
454.192	521.81
454.412	505.81
454.633	509.81
454.853	497.81
455.073	529.81
455.294	537.81
455.514	590.81
455.734	595.81
455.955	501.81
456.175	494.81
456.395	479.81
456.616	484.81
456.836	504.81
457.056	481.81
457.276	476.81
457.497	501.81
457.717	461.81
457.937	495.81
458.157	505.81
458.377	503.81
458.598	535.81
458.818	570.81
459.038	664.81
459.258	681.81
459.478	588.81
459.698	555.81
459.918	558.81
460.138	567.81
460.358	577.81
460.578	584.81
460.798	588.81
461.018	585.81
461.238	616.81
461.458	585.81
461.678	574.81
461.898	609.81
462.118	590.81
462.338	609.81
462.558	601.81
462.777	593.81
462.997	644.81
463.217	653.81
463.437	644.81
463.657	634.81
463.876	628.81
464.096	636.81
464.316	624.81
464.536	632.81
464.755	627.81
464.975	618.81
465.195	641.81
465.414	721.81
465.634	633.81
465.854	601.81
466.073	576.81
466.293	535.81
466.512	551.81
466.732	543.81
466.951	546.81
467.171	521.81
467.391	535.81
467.61	569.81
467.829	558.81
468.049	551.81
468.268	540.81
468.488	550.81
468.707	533.81
468.927	539.81
469.146	526.81
469.365	521.81
469.585	495.81
469.804	543.81
470.023	551.81
470.243	548.81
470.462	548.81
470.681	580.81
470.901	563.81
471.12	527.81
471.339	538.81
471.558	542.81
471.777	540.81
471.997	536.81
472.216	557.81
472.435	555.81
472.654	575.81
472.873	549.81
473.092	542.81
473.311	525.81
473.53	535.81
473.749	546.81
473.968	565.81
474.187	647.81
474.406	691.81
474.625	591.81
474.844	559.81
475.063	548.81
475.282	552.81
475.501	538.81
475.72	521.81
475.939	556.81
476.158	520.81
476.377	567.81
476.596	547.81
476.814	563.81
477.033	551.81
477.252	588.81
477.471	569.81
477.69	578.81
477.908	597.81
478.127	601.81
478.346	589.81
478.564	576.81
478.783	572.81
479.002	599.81
479.22	653.81
479.439	651.81
479.658	664.81
479.876	657.81
480.095	655.81
480.313	666.81
480.532	677.81
480.751	684.81
480.969	661.81
481.188	722.81
481.406	778.81
481.624	684.81
481.843	644.81
482.061	648.81
482.28	620.81
482.498	639.81
482.717	633.81
482.935	648.81
483.153	624.81
483.372	616.81
483.59	624.81
483.808	631.81
484.027	645.81
484.245	629.81
484.463	629.81
484.681	652.81
484.9	664.81
485.118	669.81
485.336	653.81
485.554	654.81
485.772	676.81
485.99	651.81
486.209	655.81
486.427	653.81
486.645	665.81
486.863	672.81
487.081	659.81
487.299	664.81
487.517	685.81
487.735	667.81
487.953	664.81
488.171	684.81
488.389	695.81
488.607	667.81
488.825	696.81
489.043	665.81
489.261	682.81
489.479	701.81
489.696	689.81
489.914	691.81
490.132	691.81
490.35	684.81
490.568	711.81
490.786	725.81
491.003	705.81
491.221	748.81
491.439	725.81
491.657	742.81
491.874	758.81
492.092	745.81
492.31	750.81
492.527	775.81
492.745	772.81
492.963	756.81
493.18	783.81
493.398	799.81
493.615	811.81
493.833	796.81
494.05	785.81
494.268	782.81
494.485	775.81
494.703	780.81
494.92	783.81
495.138	823.81
495.355	778.81
495.573	802.81
495.79	791.81
496.008	799.81
496.225	787.81
496.442	805.81
496.66	791.81
496.877	787.81
497.094	788.81
497.312	809.81
497.529	843.81
497.746	849.81
497.963	868.81
498.181	875.81
498.398	890.81
498.615	891.81
498.832	939.81
499.049	934.81
499.267	966.81
499.484	1006.81
499.701	1049.81
499.918	1091.81
500.135	1180.81
500.352	1228.81
500.569	1226.81
500.786	1225.81
501.003	1191.81
501.22	1178.81
501.437	1133.81
501.654	1089.81
501.871	1059.81
502.088	1035.81
502.305	996.81
502.522	939.81
502.739	920.81
502.956	893.81
503.172	881.81
503.389	859.81
503.606	853.81
503.823	866.81
504.04	811.81
504.256	809.81
504.473	829.81
504.69	839.81
504.907	819.81
505.123	817.81
505.34	794.81
505.557	801.81
505.773	737.81
505.99	776.81
506.207	772.81
506.423	761.81
506.64	736.81
506.856	735.81
507.073	715.81
507.289	759.81
507.506	733.81
507.722	751.81
507.939	762.81
508.155	702.81
508.372	738.81
508.588	717.81
508.805	705.81
509.021	715.81
509.238	731.81
509.454	704.81
509.67	749.81
509.887	704.81
510.103	713.81
510.319	718.81
510.536	831.81
510.752	1327.81
510.968	1084.81
511.184	726.81
511.401	677.81
511.617	699.81
511.833	686.81
512.049	674.81
512.265	682.81
512.481	656.81
512.698	687.81
512.914	678.81
513.13	673.81
513.346	658.81
513.562	647.81
513.778	671.81
513.994	670.81
514.21	676.81
514.426	696.81
514.642	758.81
514.858	781.81
515.074	779.81
515.29	912.81
515.506	1386.81
515.721	1150.81
515.937	828.81
516.153	745.81
516.369	728.81
516.585	712.81
516.801	718.81
517.016	707.81
517.232	728.81
517.448	730.81
517.664	720.81
517.879	734.81
518.095	755.81
518.311	744.81
518.527	708.81
518.742	713.81
518.958	694.81
519.173	700.81
519.389	688.81
519.605	683.81
519.82	676.81
520.036	691.81
520.251	734.81
520.467	763.81
520.682	741.81
520.898	733.81
521.113	761.81
521.329	788.81
521.544	860.81
521.76	1050.81
521.975	1740.81
522.19	1740.81
522.406	981.81
522.621	772.81
522.836	696.81
523.052	647.81
523.267	636.81
523.482	631.81
523.698	603.81
523.913	627.81
524.128	651.81
524.343	617.81
524.559	604.81
524.774	592.81
524.989	603.81
525.204	604.81
525.419	624.81
525.634	591.81
525.849	581.81
526.064	582.81
526.28	581.81
526.495	585.81
526.71	568.81
526.925	570.81
527.14	575.81
527.355	551.81
527.57	560.81
527.785	580.81
527.999	557.81
528.214	557.81
528.429	576.81
528.644	552.81
528.859	539.81
529.074	565.81
529.289	585.81
529.503	674.81
529.718	647.81
529.933	583.81
530.148	566.81
530.363	556.81
530.577	564.81
530.792	548.81
531.007	537.81
531.221	583.81
531.436	552.81
531.651	580.81
531.865	546.81
532.08	537.81
532.295	566.81
532.509	550.81
532.724	561.81
532.938	531.81
533.153	535.81
533.367	551.81
533.582	539.81
533.796	538.81
534.011	548.81
534.225	531.81
534.44	540.81
534.654	522.81
534.868	535.81
535.083	510.81
535.297	528.81
535.511	552.81
535.726	555.81
535.94	557.81
536.154	527.81
536.369	531.81
536.583	504.81
536.797	511.81
537.011	542.81
537.225	529.81
537.44	511.81
537.654	526.81
537.868	536.81
538.082	520.81
538.296	526.81
538.51	534.81
538.724	530.81
538.938	537.81
539.153	535.81
539.367	530.81
539.581	548.81
539.795	537.81
540.009	533.81
540.222	513.81
540.436	526.81
540.65	515.81
540.864	505.81
541.078	505.81
541.292	515.81
541.506	522.81
541.72	509.81
541.934	527.81
542.147	499.81
542.361	520.81
542.575	503.81
542.789	514.81
543.002	508.81
543.216	521.81
543.43	535.81
543.644	513.81
543.857	501.81
544.071	508.81
544.285	533.81
544.498	499.81
544.712	492.81
544.925	521.81
545.139	500.81
545.352	497.81
545.566	514.81
545.779	493.81
545.993	508.81
546.206	521.81
546.42	514.81
546.633	492.81
546.847	492.81
547.06	495.81
547.274	504.81
547.487	503.81
547.7	503.81
547.914	499.81
548.127	516.81
548.34	497.81
548.554	489.81
548.767	490.81
548.98	505.81
549.193	492.81
549.407	497.81
549.62	509.81
549.833	488.81
550.046	493.81
550.259	499.81
550.473	497.81
550.686	494.81
550.899	497.81
551.112	495.81
551.325	484.81
551.538	487.81
551.751	507.81
551.964	499.81
552.177	515.81
552.39	499.81
552.603	501.81
552.816	506.81
553.029	506.81
553.242	509.81
553.455	513.81
553.667	531.81
553.88	541.81
554.093	494.81
554.306	519.81
554.519	503.81
554.732	502.81
554.944	489.81
555.157	477.81
555.37	478.81
555.583	456.81
555.795	477.81
556.008	457.81
556.221	464.81
556.433	460.81
556.646	461.81
556.859	468.81
557.071	465.81
557.284	454.81
557.496	461.81
557.709	460.81
557.921	446.81
558.134	443.81
558.346	461.81
558.559	454.81
558.771	425.81
558.984	430.81
559.196	449.81
559.409	470.81
559.621	437.81
559.833	439.81
560.046	438.81
560.258	457.81
560.47	439.81
560.683	421.81
560.895	440.81
561.107	424.81
561.32	429.81
561.532	448.81
561.744	449.81
561.956	433.81
562.168	451.81
562.381	441.81
562.593	432.81
562.805	456.81
563.017	429.81
563.229	439.81
563.441	453.81
563.653	439.81
563.865	449.81
564.077	454.81
564.289	448.81
564.501	440.81
564.713	453.81
564.925	484.81
565.137	477.81
565.349	464.81
565.561	481.81
565.773	494.81
565.985	501.81
566.197	483.81
566.408	527.81
566.62	539.81
566.832	567.81
567.044	587.81
567.255	564.81
567.467	576.81
567.679	578.81
567.891	603.81
568.102	617.81
568.314	556.81
568.526	581.81
568.737	535.81
568.949	523.81
569.161	505.81
569.372	479.81
569.584	457.81
569.795	474.81
570.007	475.81
570.218	506.81
570.43	487.81
570.641	447.81
570.853	435.81
571.064	434.81
571.276	440.81
571.487	444.81
571.698	407.81
571.91	432.81
572.121	409.81
572.333	393.81
572.544	391.81
572.755	408.81
572.966	408.81
573.178	399.81
573.389	395.81
573.6	381.81
573.811	361.81
574.023	391.81
574.234	394.81
574.445	375.81
574.656	377.81
574.867	395.81
575.078	375.81
575.289	379.81
575.501	368.81
575.712	374.81
575.923	376.81
576.134	367.81
576.345	363.81
576.556	353.81
576.767	360.81
576.978	372.81
577.188	356.81
577.399	363.81
577.61	353.81
577.821	380.81
578.032	379.81
578.243	386.81
578.454	641.81
578.665	470.81
578.875	382.81
579.086	364.81
579.297	361.81
579.508	345.81
579.718	350.81
579.929	353.81
580.14	351.81
580.35	364.81
580.561	348.81
580.772	342.81
580.982	334.81
581.193	349.81
581.403	342.81
581.614	347.81
581.825	340.81
582.035	342.81
582.246	350.81
582.456	333.81
582.667	346.81
582.877	328.81
583.087	337.81
583.298	339.81
583.508	331.81
583.719	322.81
583.929	338.81
584.139	323.81
584.35	331.81
584.56	341.81
584.77	347.81
584.981	343.81
585.191	356.81
585.401	345.81
585.611	337.81
585.821	349.81
586.032	354.81
586.242	328.81
586.452	320.81
586.662	326.81
586.872	316.81
587.082	327.81
587.292	334.81
587.502	334.81
587.713	342.81
587.923	340.81
588.133	331.81
588.343	323.81
588.553	325.81
588.762	343.81
588.972	336.81
589.182	327.81
589.392	343.81
589.602	322.81
589.812	340.81
590.022	336.81
590.232	334.81
590.441	326.81
590.651	344.81
590.861	342.81
591.071	336.81
591.281	344.81
591.49	331.81
591.7	334.81
591.91	352.81
592.119	336.81
592.329	336.81
592.539	358.81
592.748	350.81
592.958	358.81
593.167	356.81
593.377	364.81
593.587	386.81
593.796	371.81
594.006	346.81
594.215	360.81
594.424	352.81
594.634	343.81
594.843	366.81
595.053	340.81
595.262	347.81
595.472	333.81
595.681	343.81
595.89	336.81
596.1	319.81
596.309	314.81
596.518	332.81
596.727	328.81
596.937	313.81
597.146	303.81
597.355	312.81
597.564	311.81
597.774	315.81
597.983	298.81
598.192	317.81
598.401	300.81
598.61	295.81
598.819	296.81
599.028	292.81
599.237	305.81
599.446	295.81
599.655	292.81
599.864	298.81
600.073	278.81
600.282	283.81
600.491	270.81
600.7	285.81
600.909	297.81
601.118	290.81
601.327	289.81
601.536	291.81
601.745	302.81
601.953	296.81
602.162	285.81
602.371	302.81
602.58	287.81
602.789	294.81
602.997	277.81
603.206	295.81
603.415	276.81
603.623	278.81
603.832	289.81
604.041	288.81
604.249	271.81
604.458	269.81
604.666	263.81
604.875	293.81
605.084	273.81
605.292	271.81
605.501	262.81
605.709	263.81
605.918	272.81
606.126	266.81
606.334	297.81
606.543	266.81
606.751	281.81
606.96	268.81
607.168	269.81
607.376	279.81
607.585	273.81
607.793	268.81
608.001	252.81
608.21	278.81
608.418	259.81
608.626	279.81
608.834	273.81
609.043	285.81
609.251	265.81
609.459	260.81
609.667	276.81
609.875	251.81
610.083	253.81
610.291	257.81
610.499	276.81
610.707	270.81
610.916	267.81
611.124	258.81
611.332	273.81
611.54	271.81
611.748	262.81
611.955	277.81
612.163	281.81
612.371	276.81
612.579	273.81
612.787	270.81
612.995	271.81
613.203	281.81
613.411	269.81
613.618	263.81
613.826	265.81
614.034	263.81
614.242	268.81
614.449	260.81
614.657	273.81
614.865	270.81
615.072	257.81
615.28	266.81
615.488	270.81
615.695	258.81
615.903	261.81
616.111	248.81
616.318	266.81
616.526	254.81
616.733	269.81
616.941	265.81
617.148	257.81
617.356	255.81
617.563	263.81
617.771	275.81
617.978	251.81
618.185	255.81
618.393	257.81
618.6	250.81
618.807	255.81
619.015	256.81
619.222	249.81
619.429	254.81
619.637	252.81
619.844	239.81
620.051	250.81
620.258	224.81
620.466	248.81
620.673	257.81
620.88	237.81
621.087	247.81
621.294	236.81
621.501	251.81
621.708	265.81
621.915	251.81
622.122	240.81
622.329	249.81
622.536	239.81
622.743	229.81
622.95	230.81
623.157	233.81
623.364	230.81
623.571	242.81
623.778	229.81
623.985	222.81
624.192	224.81
624.399	230.81
624.606	234.81
624.812	233.81
625.019	216.81
625.226	231.81
625.433	228.81
625.639	223.81
625.846	235.81
626.053	215.81
626.259	219.81
626.466	225.81
626.673	231.81
626.879	217.81
627.086	235.81
627.293	247.81
627.499	236.81
627.706	234.81
627.912	225.81
628.119	218.81
628.325	205.81
628.532	227.81
628.738	223.81
628.945	207.81
629.151	210.81
629.357	221.81
629.564	224.81
629.77	221.81
629.976	221.81
630.183	227.81
630.389	236.81
630.595	215.81
630.802	217.81
631.008	212.81
631.214	215.81
631.42	193.81
631.627	221.81
631.833	213.81
632.039	213.81
632.245	209.81
632.451	210.81
632.657	199.81
632.863	206.81
633.069	208.81
633.275	196.81
633.481	199.81
633.688	195.81
633.893	190.81
634.099	208.81
634.305	215.81
634.511	203.81
634.717	196.81
634.923	200.81
635.129	196.81
635.335	202.81
635.541	198.81
635.747	176.81
635.952	196.81
636.158	176.81
636.364	204.81
636.57	216.81
636.775	195.81
636.981	183.81
637.187	181.81
637.392	180.81
637.598	181.81
637.804	192.81
638.009	199.81
638.215	196.81
638.421	195.81
638.626	187.81
638.832	191.81
639.037	180.81
639.243	191.81
639.448	193.81
639.654	192.81
639.859	168.81
640.065	176.81
640.27	194.81
640.475	197.81
640.681	180.81
640.886	186.81
641.091	204.81
641.297	195.81
641.502	182.81
641.707	201.81
641.913	195.81
642.118	191.81
642.323	180.81
642.528	185.81
642.733	188.81
642.939	181.81
643.144	180.81
643.349	188.81
643.554	190.81
643.759	184.81
643.964	157.81
644.169	185.81
644.374	188.81
644.579	184.81
644.784	187.81
644.989	185.81
645.194	187.81
645.399	183.81
645.604	181.81
645.809	168.81
646.014	179.81
646.219	173.81
646.423	197.81
646.628	199.81
646.833	185.81
647.038	184.81
647.243	171.81
647.447	190.81
647.652	177.81
647.857	183.81
648.062	179.81
648.266	188.81
648.471	166.81
648.676	179.81
648.88	175.81
649.085	181.81
649.289	171.81
649.494	190.81
649.698	210.81
649.903	203.81
650.107	201.81
650.312	164.81
650.516	164.81
650.721	167.81
650.925	160.81
651.13	163.81
651.334	152.81
651.539	173.81
651.743	172.81
651.947	163.81
652.152	165.81
652.356	160.81
652.56	157.81
652.764	152.81
652.969	148.81
653.173	144.81
653.377	148.81
653.581	146.81
653.785	132.81
653.99	151.81
654.194	144.81
654.398	136.81
654.602	148.81
654.806	133.81
655.01	145.81
655.214	152.81
655.418	151.81
655.622	136.81
655.826	138.81
656.03	152.81
656.234	131.81
656.438	150.81
656.642	145.81
656.846	137.81
657.049	148.81
657.253	147.81
657.457	126.81
657.661	118.81
657.865	129.81
658.068	104.81
658.272	106.81
658.476	115.81
658.68	107.81
658.883	110.81
659.087	118.81
659.291	90.81
659.494	117.81
659.698	107.81
659.901	110.81
660.105	99.81
660.309	89.81
660.512	83.81
660.716	78.81
660.919	95.81
661.123	104.81
661.326	88.81
661.53	85.81
661.733	96.81
661.936	92.81
662.14	88.81
662.343	93.81
662.546	96.81
662.75	88.81
662.953	89.81
663.156	88.81
663.36	88.81
663.563	72.81
663.766	94.81
663.969	90.81
664.173	83.81
664.376	96.81
664.579	102.81
664.782	88.81
664.985	87.81
665.188	73.81
665.391	86.81
665.594	90.81
665.797	89.81
666	88.81
666.203	92.81
666.406	73.81
666.609	86.81
666.812	87.81
667.015	92.81
667.218	96.81
667.421	78.81
667.624	83.81
667.827	82.81
668.03	85.81
668.232	95.81
668.435	70.81
668.638	82.81
668.841	82.81
669.043	84.81
669.246	96.81
669.449	96.81
669.651	93.81
669.854	94.81
670.057	91.81
670.259	79.81
670.462	90.81
670.665	64.81
670.867	89.81
671.07	90.81
671.272	96.81
671.475	101.81
671.677	97.81
671.88	89.81
672.082	85.81
672.284	91.81
672.487	78.81
672.689	79.81
672.892	80.81
