Data from 1979.PennyLincolnUp.Lamp.En5.5.200Scan.071719.P1_HRD10591_16-18-15-865.txt Node
Date: Thu Jul 18 16:18:15 EDT 2019
User: cochatt
Spectrometer: HR+D1059
Trigger mode: 1
Integration Time (sec): 1.000000E-1
Scans to average: 1
Electric dark correction enabled: true
Nonlinearity correction enabled: false
Boxcar width: 0
XAxis mode: Wavelengths
Number of Pixels in Spectrum: 2048
>>>>>Begin Spectral Data<<<<<
223.165	-9.62
223.4	-9.62
223.635	-9.62
223.869	-24.62
224.104	-8.62
224.338	-11.62
224.573	-10.62
224.808	-9.62
225.042	-10.62
225.277	-2.62
225.511	-1.62
225.746	7.38
225.98	-1.62
226.215	4.38
226.449	-0.62
226.683	16.38
226.918	29.38
227.152	34.38
227.387	29.38
227.621	30.38
227.856	40.38
228.09	60.38
228.324	54.38
228.559	46.38
228.793	55.38
229.027	89.38
229.262	82.38
229.496	100.38
229.73	119.38
229.964	139.38
230.199	114.38
230.433	110.38
230.667	126.38
230.901	121.38
231.136	111.38
231.37	95.38
231.604	107.38
231.838	106.38
232.072	117.38
232.306	106.38
232.541	109.38
232.775	111.38
233.009	123.38
233.243	102.38
233.477	106.38
233.711	110.38
233.945	113.38
234.179	119.38
234.413	102.38
234.647	110.38
234.881	103.38
235.115	101.38
235.349	113.38
235.583	110.38
235.817	108.38
236.051	113.38
236.285	124.38
236.519	122.38
236.753	146.38
236.987	140.38
237.221	164.38
237.455	188.38
237.689	143.38
237.922	132.38
238.156	133.38
238.39	115.38
238.624	131.38
238.858	125.38
239.091	121.38
239.325	118.38
239.559	111.38
239.793	113.38
240.027	139.38
240.26	136.38
240.494	160.38
240.728	128.38
240.961	133.38
241.195	135.38
241.429	139.38
241.662	112.38
241.896	125.38
242.13	138.38
242.363	137.38
242.597	142.38
242.83	127.38
243.064	129.38
243.298	126.38
243.531	132.38
243.765	135.38
243.998	127.38
244.232	148.38
244.465	123.38
244.699	124.38
244.932	132.38
245.166	135.38
245.399	141.38
245.633	123.38
245.866	139.38
246.099	132.38
246.333	158.38
246.566	145.38
246.8	153.38
247.033	159.38
247.266	144.38
247.5	153.38
247.733	161.38
247.966	168.38
248.2	155.38
248.433	163.38
248.666	156.38
248.899	167.38
249.133	168.38
249.366	185.38
249.599	174.38
249.832	162.38
250.066	167.38
250.299	171.38
250.532	174.38
250.765	177.38
250.998	208.38
251.231	191.38
251.465	187.38
251.698	190.38
251.931	181.38
252.164	191.38
252.397	204.38
252.63	191.38
252.863	186.38
253.096	203.38
253.329	225.38
253.562	201.38
253.795	194.38
254.028	204.38
254.261	214.38
254.494	199.38
254.727	238.38
254.96	230.38
255.193	228.38
255.426	216.38
255.659	193.38
255.892	184.38
256.124	204.38
256.357	207.38
256.59	182.38
256.823	188.38
257.056	183.38
257.289	182.38
257.521	193.38
257.754	194.38
257.987	176.38
258.22	195.38
258.452	186.38
258.685	191.38
258.918	202.38
259.151	187.38
259.383	209.38
259.616	183.38
259.849	205.38
260.081	211.38
260.314	218.38
260.547	216.38
260.779	212.38
261.012	204.38
261.244	189.38
261.477	217.38
261.71	193.38
261.942	218.38
262.175	207.38
262.407	221.38
262.64	200.38
262.872	212.38
263.105	215.38
263.337	205.38
263.57	211.38
263.802	201.38
264.035	197.38
264.267	188.38
264.499	206.38
264.732	199.38
264.964	195.38
265.197	189.38
265.429	203.38
265.661	183.38
265.894	191.38
266.126	184.38
266.358	218.38
266.591	177.38
266.823	201.38
267.055	206.38
267.287	210.38
267.52	219.38
267.752	200.38
267.984	199.38
268.216	198.38
268.448	207.38
268.681	210.38
268.913	216.38
269.145	251.38
269.377	259.38
269.609	236.38
269.841	236.38
270.073	244.38
270.306	238.38
270.538	265.38
270.77	272.38
271.002	281.38
271.234	255.38
271.466	272.38
271.698	253.38
271.93	255.38
272.162	291.38
272.394	271.38
272.626	255.38
272.858	259.38
273.09	259.38
273.322	252.38
273.553	229.38
273.785	228.38
274.017	231.38
274.249	249.38
274.481	233.38
274.713	248.38
274.945	256.38
275.176	245.38
275.408	249.38
275.64	240.38
275.872	234.38
276.104	247.38
276.335	251.38
276.567	235.38
276.799	257.38
277.031	273.38
277.262	285.38
277.494	281.38
277.726	265.38
277.957	259.38
278.189	263.38
278.421	249.38
278.652	236.38
278.884	243.38
279.115	232.38
279.347	237.38
279.579	255.38
279.81	243.38
280.042	240.38
280.273	232.38
280.505	235.38
280.736	257.38
280.968	239.38
281.199	239.38
281.431	246.38
281.662	255.38
281.894	233.38
282.125	251.38
282.356	272.38
282.588	274.38
282.819	289.38
283.051	251.38
283.282	245.38
283.513	251.38
283.745	251.38
283.976	259.38
284.207	279.38
284.439	274.38
284.67	248.38
284.901	264.38
285.132	252.38
285.364	261.38
285.595	238.38
285.826	255.38
286.057	244.38
286.288	262.38
286.52	262.38
286.751	260.38
286.982	270.38
287.213	267.38
287.444	271.38
287.675	274.38
287.906	269.38
288.138	283.38
288.369	271.38
288.6	275.38
288.831	277.38
289.062	275.38
289.293	264.38
289.524	285.38
289.755	271.38
289.986	260.38
290.217	282.38
290.448	277.38
290.679	268.38
290.91	279.38
291.141	279.38
291.371	267.38
291.602	257.38
291.833	249.38
292.064	274.38
292.295	278.38
292.526	273.38
292.757	291.38
292.987	275.38
293.218	278.38
293.449	292.38
293.68	282.38
293.91	275.38
294.141	270.38
294.372	277.38
294.603	275.38
294.833	278.38
295.064	279.38
295.295	281.38
295.525	291.38
295.756	296.38
295.987	293.38
296.217	327.38
296.448	305.38
296.679	285.38
296.909	283.38
297.14	282.38
297.37	292.38
297.601	296.38
297.831	280.38
298.062	300.38
298.292	303.38
298.523	297.38
298.753	301.38
298.984	287.38
299.214	285.38
299.445	291.38
299.675	295.38
299.905	308.38
300.136	294.38
300.366	300.38
300.597	300.38
300.827	310.38
301.057	307.38
301.288	307.38
301.518	308.38
301.748	300.38
301.979	310.38
302.209	325.38
302.439	303.38
302.669	311.38
302.9	312.38
303.13	315.38
303.36	310.38
303.59	334.38
303.82	328.38
304.051	324.38
304.281	312.38
304.511	330.38
304.741	307.38
304.971	309.38
305.201	316.38
305.431	305.38
305.661	303.38
305.891	314.38
306.121	315.38
306.352	313.38
306.582	305.38
306.812	327.38
307.042	304.38
307.272	307.38
307.502	311.38
307.731	301.38
307.961	315.38
308.191	307.38
308.421	312.38
308.651	313.38
308.881	307.38
309.111	317.38
309.341	345.38
309.571	332.38
309.8	326.38
310.03	346.38
310.26	354.38
310.49	353.38
310.72	337.38
310.949	372.38
311.179	343.38
311.409	358.38
311.639	336.38
311.868	333.38
312.098	360.38
312.328	348.38
312.557	376.38
312.787	373.38
313.017	363.38
313.246	354.38
313.476	337.38
313.706	360.38
313.935	364.38
314.165	381.38
314.394	377.38
314.624	364.38
314.853	361.38
315.083	357.38
315.312	351.38
315.542	374.38
315.771	345.38
316.001	354.38
316.23	337.38
316.46	358.38
316.689	356.38
316.919	355.38
317.148	350.38
317.377	363.38
317.607	364.38
317.836	341.38
318.065	358.38
318.295	348.38
318.524	337.38
318.753	355.38
318.983	375.38
319.212	365.38
319.441	355.38
319.67	345.38
319.9	356.38
320.129	360.38
320.358	360.38
320.587	378.38
320.816	381.38
321.046	377.38
321.275	384.38
321.504	372.38
321.733	382.38
321.962	387.38
322.191	380.38
322.42	392.38
322.649	397.38
322.878	421.38
323.108	416.38
323.337	429.38
323.566	458.38
323.795	467.38
324.024	488.38
324.253	572.38
324.482	793.38
324.71	1266.38
324.939	1868.38
325.168	1608.38
325.397	806.38
325.626	556.38
325.855	484.38
326.084	467.38
326.313	446.38
326.542	448.38
326.77	476.38
326.999	565.38
327.228	749.38
327.457	1127.38
327.686	1423.38
327.914	919.38
328.143	591.38
328.372	554.38
328.6	525.38
328.829	501.38
329.058	513.38
329.287	504.38
329.515	476.38
329.744	448.38
329.972	454.38
330.201	485.38
330.43	512.38
330.658	496.38
330.887	530.38
331.115	533.38
331.344	449.38
331.572	460.38
331.801	465.38
332.03	469.38
332.258	423.38
332.486	433.38
332.715	413.38
332.943	451.38
333.172	452.38
333.4	418.38
333.629	457.38
333.857	455.38
334.085	454.38
334.314	482.38
334.542	480.38
334.771	493.38
334.999	473.38
335.227	441.38
335.455	450.38
335.684	445.38
335.912	426.38
336.14	451.38
336.369	435.38
336.597	451.38
336.825	431.38
337.053	407.38
337.281	400.38
337.51	424.38
337.738	424.38
337.966	388.38
338.194	416.38
338.422	419.38
338.65	409.38
338.878	398.38
339.106	398.38
339.334	420.38
339.562	415.38
339.79	398.38
340.018	420.38
340.246	420.38
340.474	406.38
340.702	417.38
340.93	409.38
341.158	400.38
341.386	421.38
341.614	412.38
341.842	413.38
342.07	429.38
342.298	420.38
342.526	410.38
342.754	390.38
342.981	414.38
343.209	404.38
343.437	412.38
343.665	418.38
343.893	454.38
344.12	439.38
344.348	418.38
344.576	417.38
344.804	424.38
345.031	413.38
345.259	427.38
345.487	433.38
345.714	421.38
345.942	409.38
346.17	384.38
346.397	391.38
346.625	379.38
346.853	387.38
347.08	403.38
347.308	404.38
347.535	382.38
347.763	402.38
347.99	386.38
348.218	400.38
348.445	406.38
348.673	413.38
348.9	396.38
349.128	394.38
349.355	387.38
349.583	382.38
349.81	386.38
350.037	401.38
350.265	407.38
350.492	379.38
350.72	396.38
350.947	396.38
351.174	410.38
351.402	401.38
351.629	403.38
351.856	398.38
352.083	395.38
352.311	411.38
352.538	401.38
352.765	395.38
352.992	384.38
353.22	397.38
353.447	403.38
353.674	380.38
353.901	396.38
354.128	367.38
354.355	361.38
354.583	374.38
354.81	388.38
355.037	388.38
355.264	373.38
355.491	395.38
355.718	371.38
355.945	379.38
356.172	362.38
356.399	387.38
356.626	368.38
356.853	360.38
357.08	365.38
357.307	364.38
357.534	393.38
357.761	383.38
357.988	371.38
358.215	399.38
358.441	363.38
358.668	367.38
358.895	385.38
359.122	387.38
359.349	392.38
359.576	387.38
359.802	409.38
360.029	435.38
360.256	450.38
360.483	435.38
360.709	419.38
360.936	398.38
361.163	379.38
361.39	421.38
361.616	395.38
361.843	419.38
362.07	407.38
362.296	401.38
362.523	391.38
362.749	407.38
362.976	416.38
363.203	409.38
363.429	386.38
363.656	387.38
363.882	364.38
364.109	389.38
364.335	389.38
364.562	384.38
364.788	380.38
365.015	410.38
365.241	388.38
365.468	386.38
365.694	386.38
365.92	404.38
366.147	387.38
366.373	392.38
366.599	412.38
366.826	383.38
367.052	395.38
367.278	403.38
367.505	383.38
367.731	382.38
367.957	390.38
368.184	383.38
368.41	390.38
368.636	393.38
368.862	426.38
369.089	381.38
369.315	375.38
369.541	389.38
369.767	360.38
369.993	399.38
370.219	403.38
370.445	407.38
370.672	391.38
370.898	401.38
371.124	400.38
371.35	387.38
371.576	405.38
371.802	387.38
372.028	388.38
372.254	389.38
372.48	417.38
372.706	407.38
372.932	395.38
373.158	405.38
373.384	389.38
373.61	410.38
373.835	384.38
374.061	399.38
374.287	399.38
374.513	407.38
374.739	409.38
374.965	419.38
375.191	396.38
375.416	430.38
375.642	409.38
375.868	411.38
376.094	408.38
376.319	398.38
376.545	399.38
376.771	389.38
376.997	410.38
377.222	395.38
377.448	386.38
377.674	386.38
377.899	380.38
378.125	392.38
378.35	404.38
378.576	379.38
378.802	395.38
379.027	389.38
379.253	389.38
379.478	393.38
379.704	393.38
379.929	415.38
380.155	408.38
380.38	390.38
380.606	407.38
380.831	415.38
381.057	398.38
381.282	395.38
381.507	397.38
381.733	392.38
381.958	395.38
382.184	421.38
382.409	403.38
382.634	412.38
382.86	395.38
383.085	409.38
383.31	419.38
383.535	432.38
383.761	405.38
383.986	406.38
384.211	429.38
384.436	439.38
384.662	425.38
384.887	452.38
385.112	429.38
385.337	426.38
385.562	453.38
385.787	456.38
386.013	459.38
386.238	445.38
386.463	447.38
386.688	445.38
386.913	442.38
387.138	469.38
387.363	445.38
387.588	450.38
387.813	419.38
388.038	423.38
388.263	450.38
388.488	441.38
388.713	455.38
388.938	433.38
389.163	459.38
389.387	458.38
389.612	440.38
389.837	423.38
390.062	437.38
390.287	432.38
390.512	440.38
390.736	430.38
390.961	445.38
391.186	455.38
391.411	445.38
391.636	462.38
391.86	448.38
392.085	457.38
392.31	476.38
392.534	476.38
392.759	472.38
392.984	443.38
393.208	467.38
393.433	464.38
393.658	501.38
393.882	456.38
394.107	460.38
394.331	461.38
394.556	447.38
394.78	476.38
395.005	469.38
395.229	472.38
395.454	478.38
395.678	474.38
395.903	494.38
396.127	493.38
396.352	512.38
396.576	488.38
396.801	474.38
397.025	486.38
397.249	484.38
397.474	484.38
397.698	502.38
397.922	503.38
398.147	518.38
398.371	515.38
398.595	513.38
398.82	529.38
399.044	553.38
399.268	547.38
399.492	600.38
399.717	615.38
399.941	638.38
400.165	663.38
400.389	663.38
400.613	594.38
400.837	574.38
401.062	551.38
401.286	536.38
401.51	527.38
401.734	521.38
401.958	552.38
402.182	544.38
402.406	545.38
402.63	545.38
402.854	546.38
403.078	537.38
403.302	559.38
403.526	563.38
403.75	566.38
403.974	539.38
404.198	572.38
404.422	542.38
404.645	558.38
404.869	537.38
405.093	581.38
405.317	613.38
405.541	666.38
405.765	632.38
405.988	554.38
406.212	587.38
406.436	594.38
406.66	599.38
406.883	595.38
407.107	616.38
407.331	647.38
407.555	703.38
407.778	731.38
408.002	664.38
408.226	630.38
408.449	638.38
408.673	612.38
408.896	631.38
409.12	678.38
409.344	634.38
409.567	575.38
409.791	577.38
410.014	550.38
410.238	549.38
410.461	567.38
410.685	545.38
410.908	567.38
411.132	589.38
411.355	619.38
411.578	615.38
411.802	561.38
412.025	555.38
412.249	558.38
412.472	597.38
412.695	634.38
412.919	599.38
413.142	590.38
413.365	550.38
413.589	549.38
413.812	548.38
414.035	552.38
414.258	543.38
414.482	528.38
414.705	530.38
414.928	520.38
415.151	522.38
415.374	510.38
415.597	529.38
415.821	505.38
416.044	520.38
416.267	529.38
416.49	519.38
416.713	535.38
416.936	561.38
417.159	514.38
417.382	513.38
417.605	504.38
417.828	540.38
418.051	551.38
418.274	531.38
418.497	513.38
418.72	524.38
418.943	523.38
419.166	562.38
419.389	580.38
419.611	570.38
419.834	570.38
420.057	566.38
420.28	566.38
420.503	541.38
420.726	536.38
420.948	555.38
421.171	569.38
421.394	633.38
421.617	578.38
421.839	558.38
422.062	540.38
422.285	549.38
422.507	606.38
422.73	685.38
422.953	641.38
423.175	576.38
423.398	564.38
423.621	565.38
423.843	603.38
424.066	583.38
424.288	577.38
424.511	599.38
424.733	629.38
424.956	705.38
425.178	688.38
425.401	671.38
425.623	687.38
425.846	617.38
426.068	577.38
426.291	580.38
426.513	585.38
426.735	548.38
426.958	601.38
427.18	659.38
427.402	799.38
427.625	865.38
427.847	760.38
428.069	674.38
428.292	618.38
428.514	570.38
428.736	552.38
428.958	553.38
429.181	542.38
429.403	514.38
429.625	527.38
429.847	538.38
430.069	630.38
430.292	610.38
430.514	540.38
430.736	549.38
430.958	515.38
431.18	516.38
431.402	492.38
431.624	486.38
431.846	504.38
432.068	515.38
432.29	513.38
432.512	519.38
432.734	517.38
432.956	515.38
433.178	511.38
433.4	517.38
433.622	540.38
433.844	515.38
434.066	523.38
434.287	519.38
434.509	500.38
434.731	523.38
434.953	531.38
435.175	562.38
435.397	588.38
435.618	600.38
435.84	597.38
436.062	720.38
436.284	748.38
436.505	617.38
436.727	597.38
436.949	557.38
437.17	559.38
437.392	558.38
437.614	560.38
437.835	565.38
438.057	639.38
438.278	721.38
438.5	727.38
438.721	785.38
438.943	742.38
439.165	625.38
439.386	582.38
439.608	569.38
439.829	565.38
440.05	610.38
440.272	633.38
440.493	613.38
440.715	571.38
440.936	555.38
441.158	549.38
441.379	538.38
441.6	539.38
441.822	582.38
442.043	600.38
442.264	664.38
442.486	715.38
442.707	608.38
442.928	560.38
443.149	614.38
443.371	607.38
443.592	660.38
443.813	735.38
444.034	782.38
444.255	643.38
444.476	611.38
444.698	614.38
444.919	612.38
445.14	715.38
445.361	643.38
445.582	607.38
445.803	693.38
446.024	748.38
446.245	773.38
446.466	679.38
446.687	595.38
446.908	567.38
447.129	552.38
447.35	560.38
447.571	538.38
447.792	526.38
448.013	531.38
448.234	527.38
448.455	596.38
448.675	677.38
448.896	786.38
449.117	659.38
449.338	648.38
449.559	717.38
449.779	800.38
450	641.38
450.221	583.38
450.442	515.38
450.662	530.38
450.883	531.38
451.104	526.38
451.324	524.38
451.545	517.38
451.766	515.38
451.986	494.38
452.207	469.38
452.428	460.38
452.648	481.38
452.869	479.38
453.089	492.38
453.31	482.38
453.53	487.38
453.751	469.38
453.971	477.38
454.192	476.38
454.412	486.38
454.633	448.38
454.853	460.38
455.073	465.38
455.294	485.38
455.514	556.38
455.734	536.38
455.955	498.38
456.175	449.38
456.395	455.38
456.616	448.38
456.836	449.38
457.056	457.38
457.276	461.38
457.497	447.38
457.717	463.38
457.937	460.38
458.157	461.38
458.377	473.38
458.598	485.38
458.818	541.38
459.038	570.38
459.258	637.38
459.478	535.38
459.698	524.38
459.918	517.38
460.138	539.38
460.358	519.38
460.578	525.38
460.798	529.38
461.018	560.38
461.238	569.38
461.458	537.38
461.678	533.38
461.898	547.38
462.118	558.38
462.338	560.38
462.558	559.38
462.777	556.38
462.997	593.38
463.217	621.38
463.437	618.38
463.657	603.38
463.876	589.38
464.096	591.38
464.316	611.38
464.536	600.38
464.755	591.38
464.975	575.38
465.195	613.38
465.414	653.38
465.634	597.38
465.854	543.38
466.073	533.38
466.293	518.38
466.512	505.38
466.732	510.38
466.951	501.38
467.171	486.38
467.391	517.38
467.61	512.38
467.829	520.38
468.049	501.38
468.268	515.38
468.488	483.38
468.707	496.38
468.927	480.38
469.146	489.38
469.365	478.38
469.585	471.38
469.804	533.38
470.023	503.38
470.243	487.38
470.462	487.38
470.681	528.38
470.901	544.38
471.12	528.38
471.339	501.38
471.558	512.38
471.777	488.38
471.997	524.38
472.216	525.38
472.435	539.38
472.654	530.38
472.873	512.38
473.092	492.38
473.311	483.38
473.53	500.38
473.749	504.38
473.968	528.38
474.187	630.38
474.406	641.38
474.625	537.38
474.844	510.38
475.063	523.38
475.282	502.38
475.501	489.38
475.72	493.38
475.939	505.38
476.158	517.38
476.377	520.38
476.596	525.38
476.814	518.38
477.033	531.38
477.252	539.38
477.471	547.38
477.69	544.38
477.908	556.38
478.127	545.38
478.346	551.38
478.564	544.38
478.783	557.38
479.002	590.38
479.22	583.38
479.439	596.38
479.658	623.38
479.876	604.38
480.095	588.38
480.313	622.38
480.532	640.38
480.751	621.38
480.969	625.38
481.188	673.38
481.406	684.38
481.624	643.38
481.843	595.38
482.061	609.38
482.28	601.38
482.498	567.38
482.717	589.38
482.935	594.38
483.153	579.38
483.372	572.38
483.59	568.38
483.808	584.38
484.027	570.38
484.245	603.38
484.463	599.38
484.681	616.38
484.9	599.38
485.118	591.38
485.336	595.38
485.554	598.38
485.772	607.38
485.99	600.38
486.209	621.38
486.427	621.38
486.645	648.38
486.863	601.38
487.081	605.38
487.299	602.38
487.517	630.38
487.735	629.38
487.953	608.38
488.171	638.38
488.389	621.38
488.607	645.38
488.825	637.38
489.043	604.38
489.261	629.38
489.479	627.38
489.696	621.38
489.914	657.38
490.132	632.38
490.35	627.38
490.568	654.38
490.786	656.38
491.003	662.38
491.221	685.38
491.439	674.38
491.657	682.38
491.874	689.38
492.092	704.38
492.31	687.38
492.527	693.38
492.745	709.38
492.963	725.38
493.18	717.38
493.398	732.38
493.615	730.38
493.833	725.38
494.05	735.38
494.268	716.38
494.485	703.38
494.703	742.38
494.92	715.38
495.138	727.38
495.355	728.38
495.573	729.38
495.79	716.38
496.008	733.38
496.225	732.38
496.442	739.38
496.66	745.38
496.877	761.38
497.094	787.38
497.312	749.38
497.529	767.38
497.746	803.38
497.963	799.38
498.181	828.38
498.398	835.38
498.615	850.38
498.832	880.38
499.049	872.38
499.267	910.38
499.484	957.38
499.701	1005.38
499.918	1033.38
500.135	1106.38
500.352	1129.38
500.569	1166.38
500.786	1179.38
501.003	1171.38
501.22	1085.38
501.437	1052.38
501.654	1007.38
501.871	974.38
502.088	966.38
502.305	914.38
502.522	892.38
502.739	853.38
502.956	837.38
503.172	806.38
503.389	803.38
503.606	808.38
503.823	784.38
504.04	795.38
504.256	764.38
504.473	774.38
504.69	739.38
504.907	744.38
505.123	739.38
505.34	742.38
505.557	715.38
505.773	707.38
505.99	721.38
506.207	708.38
506.423	722.38
506.64	717.38
506.856	709.38
507.073	686.38
507.289	687.38
507.506	698.38
507.722	697.38
507.939	689.38
508.155	677.38
508.372	664.38
508.588	650.38
508.805	647.38
509.021	650.38
509.238	661.38
509.454	677.38
509.67	655.38
509.887	639.38
510.103	648.38
510.319	661.38
510.536	729.38
510.752	1163.38
510.968	947.38
511.184	653.38
511.401	645.38
511.617	636.38
511.833	638.38
512.049	605.38
512.265	629.38
512.481	629.38
512.698	624.38
512.914	615.38
513.13	623.38
513.346	591.38
513.562	605.38
513.778	647.38
513.994	631.38
514.21	635.38
514.426	629.38
514.642	682.38
514.858	712.38
515.074	723.38
515.29	825.38
515.506	1179.38
515.721	1035.38
515.937	708.38
516.153	684.38
516.369	689.38
516.585	677.38
516.801	663.38
517.016	651.38
517.232	656.38
517.448	681.38
517.664	688.38
517.879	667.38
518.095	672.38
518.311	699.38
518.527	657.38
518.742	662.38
518.958	685.38
519.173	632.38
519.389	643.38
519.605	601.38
519.82	659.38
520.036	670.38
520.251	684.38
520.467	685.38
520.682	665.38
520.898	665.38
521.113	650.38
521.329	699.38
521.544	760.38
521.76	943.38
521.975	1471.38
522.19	1488.38
522.406	850.38
522.621	693.38
522.836	613.38
523.052	598.38
523.267	615.38
523.482	580.38
523.698	577.38
523.913	601.38
524.128	593.38
524.343	559.38
524.559	556.38
524.774	573.38
524.989	548.38
525.204	553.38
525.419	574.38
525.634	523.38
525.849	539.38
526.064	541.38
526.28	542.38
526.495	535.38
526.71	518.38
526.925	528.38
527.14	534.38
527.355	536.38
527.57	529.38
527.785	526.38
527.999	495.38
528.214	514.38
528.429	560.38
528.644	529.38
528.859	520.38
529.074	516.38
529.289	530.38
529.503	600.38
529.718	576.38
529.933	554.38
530.148	514.38
530.363	528.38
530.577	523.38
530.792	527.38
531.007	527.38
531.221	525.38
531.436	537.38
531.651	515.38
531.865	502.38
532.08	511.38
532.295	513.38
532.509	502.38
532.724	502.38
532.938	504.38
533.153	502.38
533.367	519.38
533.582	505.38
533.796	509.38
534.011	512.38
534.225	487.38
534.44	509.38
534.654	519.38
534.868	521.38
535.083	504.38
535.297	513.38
535.511	502.38
535.726	500.38
535.94	509.38
536.154	500.38
536.369	486.38
536.583	501.38
536.797	492.38
537.011	484.38
537.225	488.38
537.44	476.38
537.654	490.38
537.868	487.38
538.082	470.38
538.296	500.38
538.51	492.38
538.724	493.38
538.938	493.38
539.153	478.38
539.367	515.38
539.581	504.38
539.795	476.38
540.009	491.38
540.222	480.38
540.436	478.38
540.65	483.38
540.864	479.38
541.078	503.38
541.292	471.38
541.506	493.38
541.72	489.38
541.934	482.38
542.147	475.38
542.361	489.38
542.575	465.38
542.789	457.38
543.002	484.38
543.216	485.38
543.43	480.38
543.644	477.38
543.857	484.38
544.071	488.38
544.285	504.38
544.498	486.38
544.712	464.38
544.925	474.38
545.139	463.38
545.352	471.38
545.566	457.38
545.779	478.38
545.993	463.38
546.206	509.38
546.42	474.38
546.633	474.38
546.847	475.38
547.06	473.38
547.274	471.38
547.487	487.38
547.7	474.38
547.914	464.38
548.127	472.38
548.34	471.38
548.554	468.38
548.767	440.38
548.98	465.38
549.193	477.38
549.407	471.38
549.62	487.38
549.833	485.38
550.046	479.38
550.259	480.38
550.473	467.38
550.686	451.38
550.899	455.38
551.112	459.38
551.325	467.38
551.538	469.38
551.751	485.38
551.964	479.38
552.177	458.38
552.39	449.38
552.603	474.38
552.816	476.38
553.029	459.38
553.242	476.38
553.455	464.38
553.667	485.38
553.88	477.38
554.093	483.38
554.306	468.38
554.519	470.38
554.732	477.38
554.944	476.38
555.157	484.38
555.37	455.38
555.583	445.38
555.795	461.38
556.008	454.38
556.221	446.38
556.433	436.38
556.646	427.38
556.859	437.38
557.071	429.38
557.284	420.38
557.496	407.38
557.709	427.38
557.921	398.38
558.134	421.38
558.346	419.38
558.559	397.38
558.771	415.38
558.984	421.38
559.196	417.38
559.409	423.38
559.621	428.38
559.833	417.38
560.046	423.38
560.258	435.38
560.47	426.38
560.683	428.38
560.895	416.38
561.107	409.38
561.32	409.38
561.532	414.38
561.744	412.38
561.956	420.38
562.168	408.38
562.381	414.38
562.593	426.38
562.805	417.38
563.017	409.38
563.229	425.38
563.441	407.38
563.653	408.38
563.865	439.38
564.077	434.38
564.289	405.38
564.501	420.38
564.713	443.38
564.925	456.38
565.137	451.38
565.349	450.38
565.561	477.38
565.773	454.38
565.985	469.38
566.197	476.38
566.408	525.38
566.62	540.38
566.832	518.38
567.044	539.38
567.255	551.38
567.467	540.38
567.679	549.38
567.891	576.38
568.102	554.38
568.314	566.38
568.526	538.38
568.737	514.38
568.949	493.38
569.161	479.38
569.372	468.38
569.584	439.38
569.795	439.38
570.007	443.38
570.218	468.38
570.43	447.38
570.641	417.38
570.853	444.38
571.064	426.38
571.276	402.38
571.487	408.38
571.698	423.38
571.91	383.38
572.121	366.38
572.333	395.38
572.544	383.38
572.755	368.38
572.966	385.38
573.178	363.38
573.389	385.38
573.6	359.38
573.811	377.38
574.023	361.38
574.234	361.38
574.445	361.38
574.656	382.38
574.867	337.38
575.078	375.38
575.289	371.38
575.501	350.38
575.712	345.38
575.923	359.38
576.134	362.38
576.345	343.38
576.556	380.38
576.767	364.38
576.978	356.38
577.188	341.38
577.399	355.38
577.61	334.38
577.821	341.38
578.032	357.38
578.243	392.38
578.454	565.38
578.665	419.38
578.875	360.38
579.086	343.38
579.297	339.38
579.508	340.38
579.718	344.38
579.929	346.38
580.14	335.38
580.35	337.38
580.561	343.38
580.772	329.38
580.982	340.38
581.193	320.38
581.403	322.38
581.614	347.38
581.825	335.38
582.035	315.38
582.246	324.38
582.456	326.38
582.667	331.38
582.877	334.38
583.087	336.38
583.298	318.38
583.508	309.38
583.719	320.38
583.929	329.38
584.139	329.38
584.35	315.38
584.56	311.38
584.77	333.38
584.981	331.38
585.191	310.38
585.401	283.38
585.611	320.38
585.821	315.38
586.032	314.38
586.242	303.38
586.452	329.38
586.662	312.38
586.872	301.38
587.082	317.38
587.292	317.38
587.502	333.38
587.713	330.38
587.923	319.38
588.133	321.38
588.343	309.38
588.553	323.38
588.762	314.38
588.972	328.38
589.182	345.38
589.392	362.38
589.602	312.38
589.812	357.38
590.022	334.38
590.232	304.38
590.441	329.38
590.651	313.38
590.861	312.38
591.071	328.38
591.281	334.38
591.49	319.38
591.7	312.38
591.91	316.38
592.119	298.38
592.329	326.38
592.539	315.38
592.748	338.38
592.958	331.38
593.167	337.38
593.377	341.38
593.587	344.38
593.796	341.38
594.006	349.38
594.215	346.38
594.424	347.38
594.634	336.38
594.843	331.38
595.053	319.38
595.262	333.38
595.472	314.38
595.681	318.38
595.89	304.38
596.1	311.38
596.309	307.38
596.518	303.38
596.727	303.38
596.937	323.38
597.146	282.38
597.355	301.38
597.564	303.38
597.774	317.38
597.983	280.38
598.192	295.38
598.401	268.38
598.61	294.38
598.819	295.38
599.028	282.38
599.237	281.38
599.446	276.38
599.655	287.38
599.864	276.38
600.073	287.38
600.282	287.38
600.491	283.38
600.7	272.38
600.909	272.38
601.118	278.38
601.327	273.38
601.536	275.38
601.745	284.38
601.953	266.38
602.162	261.38
602.371	285.38
602.58	275.38
602.789	260.38
602.997	271.38
603.206	266.38
603.415	257.38
603.623	286.38
603.832	269.38
604.041	263.38
604.249	255.38
604.458	251.38
604.666	252.38
604.875	275.38
605.084	253.38
605.292	259.38
605.501	245.38
605.709	287.38
605.918	268.38
606.126	270.38
606.334	263.38
606.543	254.38
606.751	244.38
606.96	263.38
607.168	261.38
607.376	249.38
607.585	258.38
607.793	246.38
608.001	235.38
608.21	252.38
608.418	270.38
608.626	262.38
608.834	258.38
609.043	234.38
609.251	250.38
609.459	245.38
609.667	243.38
609.875	251.38
610.083	261.38
610.291	258.38
610.499	255.38
610.707	261.38
610.916	252.38
611.124	252.38
611.332	268.38
611.54	260.38
611.748	273.38
611.955	241.38
612.163	240.38
612.371	248.38
612.579	235.38
612.787	242.38
612.995	234.38
613.203	244.38
613.411	240.38
613.618	240.38
613.826	256.38
614.034	260.38
614.242	248.38
614.449	252.38
614.657	256.38
614.865	247.38
615.072	248.38
615.28	261.38
615.488	243.38
615.695	251.38
615.903	255.38
616.111	257.38
616.318	258.38
616.526	268.38
616.733	245.38
616.941	261.38
617.148	240.38
617.356	237.38
617.563	242.38
617.771	259.38
617.978	259.38
618.185	265.38
618.393	254.38
618.6	239.38
618.807	250.38
619.015	245.38
619.222	241.38
619.429	221.38
619.637	251.38
619.844	243.38
620.051	247.38
620.258	238.38
620.466	246.38
620.673	231.38
620.88	242.38
621.087	219.38
621.294	235.38
621.501	223.38
621.708	223.38
621.915	237.38
622.122	218.38
622.329	222.38
622.536	223.38
622.743	236.38
622.95	225.38
623.157	227.38
623.364	205.38
623.571	238.38
623.778	234.38
623.985	199.38
624.192	216.38
624.399	223.38
624.606	222.38
624.812	225.38
625.019	219.38
625.226	231.38
625.433	237.38
625.639	206.38
625.846	237.38
626.053	218.38
626.259	219.38
626.466	222.38
626.673	222.38
626.879	223.38
627.086	232.38
627.293	210.38
627.499	208.38
627.706	230.38
627.912	234.38
628.119	207.38
628.325	221.38
628.532	199.38
628.738	200.38
628.945	205.38
629.151	194.38
629.357	201.38
629.564	218.38
629.77	219.38
629.976	201.38
630.183	216.38
630.389	204.38
630.595	221.38
630.802	193.38
631.008	207.38
631.214	213.38
631.42	207.38
631.627	217.38
631.833	180.38
632.039	211.38
632.245	207.38
632.451	205.38
632.657	208.38
632.863	197.38
633.069	176.38
633.275	208.38
633.481	208.38
633.688	190.38
633.893	203.38
634.099	205.38
634.305	192.38
634.511	174.38
634.717	195.38
634.923	185.38
635.129	183.38
635.335	197.38
635.541	185.38
635.747	182.38
635.952	202.38
636.158	195.38
636.364	180.38
636.57	196.38
636.775	190.38
636.981	181.38
637.187	190.38
637.392	188.38
637.598	201.38
637.804	188.38
638.009	185.38
638.215	202.38
638.421	179.38
638.626	173.38
638.832	171.38
639.037	191.38
639.243	167.38
639.448	176.38
639.654	190.38
639.859	193.38
640.065	182.38
640.27	188.38
640.475	187.38
640.681	177.38
640.886	168.38
641.091	185.38
641.297	174.38
641.502	176.38
641.707	185.38
641.913	195.38
642.118	173.38
642.323	168.38
642.528	165.38
642.733	169.38
642.939	179.38
643.144	187.38
643.349	184.38
643.554	174.38
643.759	167.38
643.964	154.38
644.169	184.38
644.374	186.38
644.579	158.38
644.784	167.38
644.989	164.38
645.194	188.38
645.399	181.38
645.604	171.38
645.809	163.38
646.014	168.38
646.219	167.38
646.423	168.38
646.628	161.38
646.833	172.38
647.038	175.38
647.243	181.38
647.447	173.38
647.652	169.38
647.857	166.38
648.062	175.38
648.266	171.38
648.471	174.38
648.676	178.38
648.88	183.38
649.085	173.38
649.289	170.38
649.494	166.38
649.698	197.38
649.903	195.38
650.107	178.38
650.312	159.38
650.516	136.38
650.721	167.38
650.925	165.38
651.13	169.38
651.334	169.38
651.539	164.38
651.743	141.38
651.947	157.38
652.152	153.38
652.356	149.38
652.56	132.38
652.764	153.38
652.969	139.38
653.173	154.38
653.377	158.38
653.581	132.38
653.785	140.38
653.99	142.38
654.194	166.38
654.398	137.38
654.602	146.38
654.806	131.38
655.01	141.38
655.214	159.38
655.418	154.38
655.622	160.38
655.826	152.38
656.03	141.38
656.234	138.38
656.438	139.38
656.642	145.38
656.846	143.38
657.049	131.38
657.253	122.38
657.457	129.38
657.661	137.38
657.865	122.38
658.068	121.38
658.272	111.38
658.476	97.38
658.68	88.38
658.883	92.38
659.087	104.38
659.291	102.38
659.494	92.38
659.698	110.38
659.901	93.38
660.105	109.38
660.309	96.38
660.512	97.38
660.716	91.38
660.919	99.38
661.123	96.38
661.326	91.38
661.53	103.38
661.733	93.38
661.936	90.38
662.14	100.38
662.343	93.38
662.546	99.38
662.75	76.38
662.953	95.38
663.156	79.38
663.36	91.38
663.563	96.38
663.766	79.38
663.969	79.38
664.173	98.38
664.376	85.38
664.579	89.38
664.782	91.38
664.985	87.38
665.188	90.38
665.391	72.38
665.594	94.38
665.797	79.38
666	86.38
666.203	97.38
666.406	87.38
666.609	75.38
666.812	76.38
667.015	88.38
667.218	83.38
667.421	88.38
667.624	88.38
667.827	89.38
668.03	79.38
668.232	88.38
668.435	84.38
668.638	86.38
668.841	86.38
669.043	90.38
669.246	91.38
669.449	96.38
669.651	76.38
669.854	76.38
670.057	98.38
670.259	85.38
670.462	91.38
670.665	95.38
670.867	80.38
671.07	79.38
671.272	87.38
671.475	98.38
671.677	82.38
671.88	84.38
672.082	84.38
672.284	91.38
672.487	87.38
672.689	72.38
672.892	70.38
