Data from 1979.PennyLincolnUp.Lamp.En5.5.200Scan.071719.P1_HRD10591_16-17-57-863.txt Node
Date: Thu Jul 18 16:17:57 EDT 2019
User: cochatt
Spectrometer: HR+D1059
Trigger mode: 1
Integration Time (sec): 1.000000E-1
Scans to average: 1
Electric dark correction enabled: true
Nonlinearity correction enabled: false
Boxcar width: 0
XAxis mode: Wavelengths
Number of Pixels in Spectrum: 2048
>>>>>Begin Spectral Data<<<<<
223.165	-15.31
223.4	-15.31
223.635	-15.31
223.869	-7.31
224.104	-20.31
224.338	-18.31
224.573	-18.31
224.808	-18.31
225.042	11.69
225.277	7.69
225.511	-16.31
225.746	-7.31
225.98	4.69
226.215	0.69
226.449	8.69
226.683	18.69
226.918	22.69
227.152	46.69
227.387	46.69
227.621	35.69
227.856	51.69
228.09	41.69
228.324	55.69
228.559	57.69
228.793	84.69
229.027	77.69
229.262	101.69
229.496	115.69
229.73	119.69
229.964	140.69
230.199	110.69
230.433	112.69
230.667	112.69
230.901	116.69
231.136	96.69
231.37	103.69
231.604	106.69
231.838	119.69
232.072	86.69
232.306	102.69
232.541	102.69
232.775	101.69
233.009	124.69
233.243	103.69
233.477	114.69
233.711	108.69
233.945	117.69
234.179	111.69
234.413	115.69
234.647	129.69
234.881	119.69
235.115	123.69
235.349	126.69
235.583	110.69
235.817	119.69
236.051	103.69
236.285	132.69
236.519	126.69
236.753	129.69
236.987	129.69
237.221	157.69
237.455	190.69
237.689	155.69
237.922	125.69
238.156	116.69
238.39	122.69
238.624	123.69
238.858	116.69
239.091	127.69
239.325	122.69
239.559	113.69
239.793	135.69
240.027	115.69
240.26	127.69
240.494	147.69
240.728	137.69
240.961	115.69
241.195	135.69
241.429	125.69
241.662	142.69
241.896	138.69
242.13	125.69
242.363	123.69
242.597	131.69
242.83	128.69
243.064	131.69
243.298	136.69
243.531	125.69
243.765	140.69
243.998	138.69
244.232	131.69
244.465	141.69
244.699	147.69
244.932	141.69
245.166	135.69
245.399	143.69
245.633	150.69
245.866	152.69
246.099	122.69
246.333	127.69
246.566	136.69
246.8	147.69
247.033	139.69
247.266	167.69
247.5	145.69
247.733	162.69
247.966	166.69
248.2	146.69
248.433	175.69
248.666	168.69
248.899	161.69
249.133	164.69
249.366	186.69
249.599	170.69
249.832	171.69
250.066	168.69
250.299	164.69
250.532	176.69
250.765	179.69
250.998	195.69
251.231	204.69
251.465	206.69
251.698	183.69
251.931	195.69
252.164	163.69
252.397	175.69
252.63	176.69
252.863	179.69
253.096	207.69
253.329	199.69
253.562	178.69
253.795	185.69
254.028	176.69
254.261	203.69
254.494	188.69
254.727	206.69
254.96	249.69
255.193	226.69
255.426	201.69
255.659	200.69
255.892	197.69
256.124	197.69
256.357	196.69
256.59	180.69
256.823	195.69
257.056	172.69
257.289	185.69
257.521	191.69
257.754	188.69
257.987	200.69
258.22	200.69
258.452	177.69
258.685	187.69
258.918	183.69
259.151	184.69
259.383	202.69
259.616	212.69
259.849	187.69
260.081	204.69
260.314	231.69
260.547	219.69
260.779	213.69
261.012	197.69
261.244	200.69
261.477	183.69
261.71	195.69
261.942	204.69
262.175	204.69
262.407	201.69
262.64	216.69
262.872	199.69
263.105	194.69
263.337	211.69
263.57	191.69
263.802	206.69
264.035	221.69
264.267	190.69
264.499	208.69
264.732	212.69
264.964	211.69
265.197	208.69
265.429	206.69
265.661	196.69
265.894	208.69
266.126	199.69
266.358	202.69
266.591	195.69
266.823	207.69
267.055	213.69
267.287	220.69
267.52	207.69
267.752	188.69
267.984	211.69
268.216	198.69
268.448	207.69
268.681	215.69
268.913	227.69
269.145	231.69
269.377	248.69
269.609	231.69
269.841	249.69
270.073	229.69
270.306	223.69
270.538	264.69
270.77	260.69
271.002	261.69
271.234	248.69
271.466	264.69
271.698	267.69
271.93	266.69
272.162	261.69
272.394	265.69
272.626	275.69
272.858	242.69
273.09	232.69
273.322	252.69
273.553	236.69
273.785	238.69
274.017	243.69
274.249	224.69
274.481	247.69
274.713	235.69
274.945	259.69
275.176	249.69
275.408	251.69
275.64	237.69
275.872	228.69
276.104	248.69
276.335	235.69
276.567	243.69
276.799	236.69
277.031	274.69
277.262	247.69
277.494	284.69
277.726	265.69
277.957	259.69
278.189	236.69
278.421	235.69
278.652	253.69
278.884	258.69
279.115	249.69
279.347	229.69
279.579	253.69
279.81	261.69
280.042	245.69
280.273	248.69
280.505	268.69
280.736	251.69
280.968	234.69
281.199	236.69
281.431	245.69
281.662	261.69
281.894	259.69
282.125	247.69
282.356	264.69
282.588	272.69
282.819	292.69
283.051	274.69
283.282	260.69
283.513	260.69
283.745	240.69
283.976	251.69
284.207	236.69
284.439	266.69
284.67	259.69
284.901	261.69
285.132	258.69
285.364	238.69
285.595	246.69
285.826	236.69
286.057	261.69
286.288	260.69
286.52	275.69
286.751	258.69
286.982	289.69
287.213	259.69
287.444	247.69
287.675	267.69
287.906	253.69
288.138	271.69
288.369	273.69
288.6	282.69
288.831	277.69
289.062	267.69
289.293	275.69
289.524	279.69
289.755	272.69
289.986	267.69
290.217	255.69
290.448	277.69
290.679	291.69
290.91	279.69
291.141	262.69
291.371	249.69
291.602	270.69
291.833	260.69
292.064	272.69
292.295	264.69
292.526	274.69
292.757	268.69
292.987	256.69
293.218	261.69
293.449	283.69
293.68	283.69
293.91	274.69
294.141	289.69
294.372	273.69
294.603	282.69
294.833	273.69
295.064	268.69
295.295	267.69
295.525	285.69
295.756	291.69
295.987	303.69
296.217	289.69
296.448	299.69
296.679	297.69
296.909	280.69
297.14	287.69
297.37	280.69
297.601	275.69
297.831	283.69
298.062	296.69
298.292	287.69
298.523	293.69
298.753	272.69
298.984	283.69
299.214	296.69
299.445	280.69
299.675	304.69
299.905	313.69
300.136	309.69
300.366	300.69
300.597	287.69
300.827	304.69
301.057	311.69
301.288	314.69
301.518	306.69
301.748	283.69
301.979	297.69
302.209	295.69
302.439	302.69
302.669	301.69
302.9	297.69
303.13	285.69
303.36	305.69
303.59	310.69
303.82	329.69
304.051	312.69
304.281	323.69
304.511	303.69
304.741	298.69
304.971	297.69
305.201	310.69
305.431	297.69
305.661	323.69
305.891	314.69
306.121	306.69
306.352	320.69
306.582	310.69
306.812	300.69
307.042	311.69
307.272	321.69
307.502	302.69
307.731	323.69
307.961	319.69
308.191	294.69
308.421	310.69
308.651	303.69
308.881	331.69
309.111	304.69
309.341	319.69
309.571	308.69
309.8	332.69
310.03	323.69
310.26	326.69
310.49	348.69
310.72	321.69
310.949	358.69
311.179	344.69
311.409	359.69
311.639	332.69
311.868	338.69
312.098	325.69
312.328	338.69
312.557	341.69
312.787	328.69
313.017	375.69
313.246	367.69
313.476	358.69
313.706	342.69
313.935	349.69
314.165	363.69
314.394	353.69
314.624	356.69
314.853	357.69
315.083	355.69
315.312	350.69
315.542	337.69
315.771	319.69
316.001	334.69
316.23	333.69
316.46	336.69
316.689	330.69
316.919	356.69
317.148	341.69
317.377	349.69
317.607	364.69
317.836	347.69
318.065	351.69
318.295	352.69
318.524	350.69
318.753	355.69
318.983	337.69
319.212	328.69
319.441	341.69
319.67	359.69
319.9	335.69
320.129	342.69
320.358	353.69
320.587	352.69
320.816	356.69
321.046	374.69
321.275	375.69
321.504	364.69
321.733	357.69
321.962	353.69
322.191	357.69
322.42	394.69
322.649	410.69
322.878	404.69
323.108	388.69
323.337	432.69
323.566	422.69
323.795	447.69
324.024	479.69
324.253	564.69
324.482	714.69
324.71	1195.69
324.939	1772.69
325.168	1489.69
325.397	746.69
325.626	539.69
325.855	433.69
326.084	439.69
326.313	435.69
326.542	456.69
326.77	464.69
326.999	536.69
327.228	709.69
327.457	1075.69
327.686	1335.69
327.914	851.69
328.143	588.69
328.372	530.69
328.6	489.69
328.829	488.69
329.058	490.69
329.287	481.69
329.515	477.69
329.744	450.69
329.972	451.69
330.201	457.69
330.43	464.69
330.658	502.69
330.887	499.69
331.115	505.69
331.344	457.69
331.572	432.69
331.801	424.69
332.03	452.69
332.258	430.69
332.486	419.69
332.715	436.69
332.943	416.69
333.172	430.69
333.4	437.69
333.629	449.69
333.857	452.69
334.085	464.69
334.314	462.69
334.542	505.69
334.771	506.69
334.999	467.69
335.227	447.69
335.455	432.69
335.684	441.69
335.912	429.69
336.14	426.69
336.369	421.69
336.597	417.69
336.825	418.69
337.053	425.69
337.281	406.69
337.51	415.69
337.738	417.69
337.966	418.69
338.194	409.69
338.422	412.69
338.65	409.69
338.878	406.69
339.106	375.69
339.334	421.69
339.562	389.69
339.79	390.69
340.018	399.69
340.246	401.69
340.474	408.69
340.702	393.69
340.93	394.69
341.158	397.69
341.386	419.69
341.614	423.69
341.842	396.69
342.07	388.69
342.298	388.69
342.526	403.69
342.754	397.69
342.981	392.69
343.209	403.69
343.437	407.69
343.665	414.69
343.893	449.69
344.12	440.69
344.348	397.69
344.576	419.69
344.804	409.69
345.031	432.69
345.259	418.69
345.487	398.69
345.714	413.69
345.942	409.69
346.17	396.69
346.397	382.69
346.625	398.69
346.853	404.69
347.08	405.69
347.308	396.69
347.535	403.69
347.763	405.69
347.99	400.69
348.218	424.69
348.445	406.69
348.673	401.69
348.9	406.69
349.128	396.69
349.355	378.69
349.583	376.69
349.81	399.69
350.037	377.69
350.265	374.69
350.492	381.69
350.72	384.69
350.947	357.69
351.174	399.69
351.402	396.69
351.629	384.69
351.856	385.69
352.083	384.69
352.311	398.69
352.538	395.69
352.765	417.69
352.992	406.69
353.22	409.69
353.447	386.69
353.674	392.69
353.901	376.69
354.128	384.69
354.355	377.69
354.583	400.69
354.81	391.69
355.037	359.69
355.264	387.69
355.491	376.69
355.718	376.69
355.945	380.69
356.172	368.69
356.399	369.69
356.626	381.69
356.853	391.69
357.08	371.69
357.307	389.69
357.534	372.69
357.761	374.69
357.988	387.69
358.215	376.69
358.441	367.69
358.668	385.69
358.895	383.69
359.122	391.69
359.349	390.69
359.576	394.69
359.802	378.69
360.029	428.69
360.256	444.69
360.483	420.69
360.709	417.69
360.936	399.69
361.163	379.69
361.39	408.69
361.616	383.69
361.843	387.69
362.07	392.69
362.296	398.69
362.523	394.69
362.749	376.69
362.976	387.69
363.203	382.69
363.429	397.69
363.656	377.69
363.882	393.69
364.109	390.69
364.335	373.69
364.562	375.69
364.788	383.69
365.015	395.69
365.241	387.69
365.468	391.69
365.694	405.69
365.92	388.69
366.147	382.69
366.373	377.69
366.599	385.69
366.826	364.69
367.052	389.69
367.278	384.69
367.505	391.69
367.731	397.69
367.957	389.69
368.184	388.69
368.41	389.69
368.636	377.69
368.862	413.69
369.089	408.69
369.315	396.69
369.541	420.69
369.767	392.69
369.993	382.69
370.219	395.69
370.445	401.69
370.672	392.69
370.898	382.69
371.124	402.69
371.35	394.69
371.576	399.69
371.802	399.69
372.028	410.69
372.254	397.69
372.48	386.69
372.706	410.69
372.932	402.69
373.158	401.69
373.384	407.69
373.61	389.69
373.835	400.69
374.061	398.69
374.287	398.69
374.513	395.69
374.739	395.69
374.965	412.69
375.191	427.69
375.416	397.69
375.642	405.69
375.868	419.69
376.094	409.69
376.319	400.69
376.545	388.69
376.771	384.69
376.997	394.69
377.222	400.69
377.448	403.69
377.674	387.69
377.899	396.69
378.125	390.69
378.35	398.69
378.576	398.69
378.802	380.69
379.027	387.69
379.253	397.69
379.478	382.69
379.704	396.69
379.929	400.69
380.155	399.69
380.38	409.69
380.606	413.69
380.831	413.69
381.057	419.69
381.282	399.69
381.507	399.69
381.733	406.69
381.958	405.69
382.184	410.69
382.409	393.69
382.634	394.69
382.86	423.69
383.085	408.69
383.31	415.69
383.535	417.69
383.761	412.69
383.986	430.69
384.211	434.69
384.436	423.69
384.662	438.69
384.887	423.69
385.112	436.69
385.337	438.69
385.562	432.69
385.787	425.69
386.013	432.69
386.238	441.69
386.463	439.69
386.688	431.69
386.913	453.69
387.138	448.69
387.363	447.69
387.588	431.69
387.813	441.69
388.038	420.69
388.263	449.69
388.488	466.69
388.713	458.69
388.938	435.69
389.163	432.69
389.387	440.69
389.612	447.69
389.837	455.69
390.062	445.69
390.287	432.69
390.512	447.69
390.736	443.69
390.961	454.69
391.186	449.69
391.411	445.69
391.636	464.69
391.86	453.69
392.085	478.69
392.31	485.69
392.534	467.69
392.759	473.69
392.984	469.69
393.208	441.69
393.433	484.69
393.658	495.69
393.882	462.69
394.107	427.69
394.331	458.69
394.556	457.69
394.78	464.69
395.005	473.69
395.229	467.69
395.454	472.69
395.678	470.69
395.903	496.69
396.127	505.69
396.352	510.69
396.576	503.69
396.801	469.69
397.025	501.69
397.249	494.69
397.474	475.69
397.698	506.69
397.922	506.69
398.147	520.69
398.371	517.69
398.595	515.69
398.82	515.69
399.044	522.69
399.268	565.69
399.492	569.69
399.717	630.69
399.941	649.69
400.165	640.69
400.389	647.69
400.613	573.69
400.837	583.69
401.062	543.69
401.286	547.69
401.51	536.69
401.734	525.69
401.958	558.69
402.182	539.69
402.406	547.69
402.63	537.69
402.854	552.69
403.078	564.69
403.302	538.69
403.526	556.69
403.75	536.69
403.974	566.69
404.198	575.69
404.422	563.69
404.645	574.69
404.869	580.69
405.093	593.69
405.317	639.69
405.541	648.69
405.765	599.69
405.988	574.69
406.212	581.69
406.436	610.69
406.66	611.69
406.883	593.69
407.107	630.69
407.331	624.69
407.555	703.69
407.778	712.69
408.002	640.69
408.226	615.69
408.449	605.69
408.673	627.69
408.896	621.69
409.12	675.69
409.344	616.69
409.567	577.69
409.791	580.69
410.014	570.69
410.238	541.69
410.461	559.69
410.685	569.69
410.908	577.69
411.132	613.69
411.355	630.69
411.578	607.69
411.802	581.69
412.025	581.69
412.249	554.69
412.472	584.69
412.695	607.69
412.919	600.69
413.142	555.69
413.365	552.69
413.589	549.69
413.812	544.69
414.035	539.69
414.258	544.69
414.482	519.69
414.705	535.69
414.928	542.69
415.151	536.69
415.374	536.69
415.597	530.69
415.821	496.69
416.044	526.69
416.267	565.69
416.49	524.69
416.713	508.69
416.936	515.69
417.159	509.69
417.382	522.69
417.605	519.69
417.828	520.69
418.051	542.69
418.274	533.69
418.497	531.69
418.72	549.69
418.943	535.69
419.166	550.69
419.389	577.69
419.611	570.69
419.834	548.69
420.057	551.69
420.28	537.69
420.503	536.69
420.726	556.69
420.948	565.69
421.171	585.69
421.394	613.69
421.617	572.69
421.839	560.69
422.062	538.69
422.285	547.69
422.507	598.69
422.73	648.69
422.953	642.69
423.175	584.69
423.398	574.69
423.621	565.69
423.843	568.69
424.066	567.69
424.288	563.69
424.511	608.69
424.733	633.69
424.956	699.69
425.178	662.69
425.401	661.69
425.623	678.69
425.846	598.69
426.068	573.69
426.291	552.69
426.513	551.69
426.735	576.69
426.958	588.69
427.18	666.69
427.402	788.69
427.625	847.69
427.847	741.69
428.069	647.69
428.292	590.69
428.514	554.69
428.736	553.69
428.958	540.69
429.181	519.69
429.403	519.69
429.625	516.69
429.847	555.69
430.069	611.69
430.292	604.69
430.514	534.69
430.736	521.69
430.958	533.69
431.18	505.69
431.402	519.69
431.624	491.69
431.846	496.69
432.068	521.69
432.29	503.69
432.512	518.69
432.734	540.69
432.956	527.69
433.178	518.69
433.4	525.69
433.622	512.69
433.844	496.69
434.066	501.69
434.287	501.69
434.509	505.69
434.731	509.69
434.953	532.69
435.175	531.69
435.397	577.69
435.618	570.69
435.84	603.69
436.062	692.69
436.284	727.69
436.505	643.69
436.727	581.69
436.949	543.69
437.17	535.69
437.392	536.69
437.614	566.69
437.835	547.69
438.057	656.69
438.278	707.69
438.5	719.69
438.721	785.69
438.943	748.69
439.165	620.69
439.386	572.69
439.608	572.69
439.829	556.69
440.05	591.69
440.272	624.69
440.493	619.69
440.715	558.69
440.936	547.69
441.158	540.69
441.379	556.69
441.6	571.69
441.822	573.69
442.043	593.69
442.264	678.69
442.486	712.69
442.707	623.69
442.928	581.69
443.149	601.69
443.371	611.69
443.592	614.69
443.813	723.69
444.034	780.69
444.255	683.69
444.476	591.69
444.698	581.69
444.919	614.69
445.14	731.69
445.361	655.69
445.582	617.69
445.803	668.69
446.024	735.69
446.245	773.69
446.466	673.69
446.687	593.69
446.908	573.69
447.129	544.69
447.35	540.69
447.571	518.69
447.792	513.69
448.013	536.69
448.234	524.69
448.455	567.69
448.675	658.69
448.896	791.69
449.117	644.69
449.338	639.69
449.559	699.69
449.779	800.69
450	640.69
450.221	548.69
450.442	513.69
450.662	504.69
450.883	520.69
451.104	520.69
451.324	508.69
451.545	511.69
451.766	469.69
451.986	465.69
452.207	478.69
452.428	486.69
452.648	454.69
452.869	467.69
453.089	473.69
453.31	467.69
453.53	463.69
453.751	472.69
453.971	482.69
454.192	478.69
454.412	469.69
454.633	462.69
454.853	469.69
455.073	462.69
455.294	499.69
455.514	527.69
455.734	536.69
455.955	460.69
456.175	479.69
456.395	437.69
456.616	446.69
456.836	479.69
457.056	455.69
457.276	458.69
457.497	455.69
457.717	475.69
457.937	425.69
458.157	478.69
458.377	471.69
458.598	477.69
458.818	530.69
459.038	600.69
459.258	626.69
459.478	527.69
459.698	511.69
459.918	528.69
460.138	520.69
460.358	535.69
460.578	538.69
460.798	541.69
461.018	554.69
461.238	542.69
461.458	544.69
461.678	542.69
461.898	556.69
462.118	557.69
462.338	544.69
462.558	579.69
462.777	584.69
462.997	582.69
463.217	615.69
463.437	611.69
463.657	591.69
463.876	573.69
464.096	587.69
464.316	552.69
464.536	587.69
464.755	567.69
464.975	576.69
465.195	611.69
465.414	639.69
465.634	590.69
465.854	543.69
466.073	512.69
466.293	531.69
466.512	500.69
466.732	494.69
466.951	517.69
467.171	499.69
467.391	498.69
467.61	524.69
467.829	503.69
468.049	499.69
468.268	479.69
468.488	507.69
468.707	484.69
468.927	477.69
469.146	476.69
469.365	481.69
469.585	485.69
469.804	492.69
470.023	494.69
470.243	489.69
470.462	500.69
470.681	522.69
470.901	521.69
471.12	512.69
471.339	526.69
471.558	494.69
471.777	482.69
471.997	496.69
472.216	517.69
472.435	517.69
472.654	510.69
472.873	481.69
473.092	480.69
473.311	496.69
473.53	513.69
473.749	494.69
473.968	504.69
474.187	616.69
474.406	591.69
474.625	548.69
474.844	519.69
475.063	505.69
475.282	518.69
475.501	497.69
475.72	516.69
475.939	515.69
476.158	502.69
476.377	523.69
476.596	507.69
476.814	548.69
477.033	530.69
477.252	520.69
477.471	521.69
477.69	548.69
477.908	547.69
478.127	563.69
478.346	558.69
478.564	578.69
478.783	565.69
479.002	582.69
479.22	596.69
479.439	584.69
479.658	595.69
479.876	602.69
480.095	617.69
480.313	617.69
480.532	632.69
480.751	629.69
480.969	630.69
481.188	653.69
481.406	699.69
481.624	613.69
481.843	592.69
482.061	618.69
482.28	588.69
482.498	593.69
482.717	587.69
482.935	544.69
483.153	593.69
483.372	581.69
483.59	586.69
483.808	593.69
484.027	558.69
484.245	579.69
484.463	592.69
484.681	582.69
484.9	596.69
485.118	611.69
485.336	603.69
485.554	599.69
485.772	627.69
485.99	611.69
486.209	597.69
486.427	603.69
486.645	625.69
486.863	636.69
487.081	628.69
487.299	647.69
487.517	618.69
487.735	595.69
487.953	600.69
488.171	634.69
488.389	652.69
488.607	619.69
488.825	619.69
489.043	651.69
489.261	639.69
489.479	626.69
489.696	658.69
489.914	612.69
490.132	631.69
490.35	656.69
490.568	659.69
490.786	651.69
491.003	671.69
491.221	677.69
491.439	697.69
491.657	689.69
491.874	679.69
492.092	669.69
492.31	685.69
492.527	699.69
492.745	712.69
492.963	719.69
493.18	715.69
493.398	720.69
493.615	693.69
493.833	724.69
494.05	700.69
494.268	705.69
494.485	720.69
494.703	697.69
494.92	709.69
495.138	702.69
495.355	733.69
495.573	736.69
495.79	723.69
496.008	732.69
496.225	722.69
496.442	723.69
496.66	737.69
496.877	742.69
497.094	743.69
497.312	738.69
497.529	744.69
497.746	781.69
497.963	786.69
498.181	786.69
498.398	836.69
498.615	857.69
498.832	828.69
499.049	889.69
499.267	907.69
499.484	961.69
499.701	988.69
499.918	1038.69
500.135	1093.69
500.352	1146.69
500.569	1181.69
500.786	1199.69
501.003	1165.69
501.22	1114.69
501.437	1093.69
501.654	1014.69
501.871	991.69
502.088	955.69
502.305	905.69
502.522	854.69
502.739	849.69
502.956	827.69
503.172	821.69
503.389	791.69
503.606	805.69
503.823	763.69
504.04	784.69
504.256	766.69
504.473	758.69
504.69	775.69
504.907	751.69
505.123	728.69
505.34	725.69
505.557	717.69
505.773	700.69
505.99	719.69
506.207	709.69
506.423	708.69
506.64	707.69
506.856	655.69
507.073	676.69
507.289	673.69
507.506	675.69
507.722	683.69
507.939	686.69
508.155	661.69
508.372	639.69
508.588	661.69
508.805	639.69
509.021	648.69
509.238	664.69
509.454	647.69
509.67	653.69
509.887	644.69
510.103	629.69
510.319	656.69
510.536	730.69
510.752	1116.69
510.968	907.69
511.184	635.69
511.401	633.69
511.617	631.69
511.833	622.69
512.049	619.69
512.265	601.69
512.481	597.69
512.698	636.69
512.914	597.69
513.13	593.69
513.346	625.69
513.562	603.69
513.778	640.69
513.994	598.69
514.21	629.69
514.426	635.69
514.642	657.69
514.858	694.69
515.074	714.69
515.29	807.69
515.506	1129.69
515.721	955.69
515.937	705.69
516.153	657.69
516.369	656.69
516.585	659.69
516.801	663.69
517.016	665.69
517.232	671.69
517.448	665.69
517.664	688.69
517.879	691.69
518.095	678.69
518.311	686.69
518.527	649.69
518.742	645.69
518.958	643.69
519.173	644.69
519.389	635.69
519.605	620.69
519.82	628.69
520.036	635.69
520.251	641.69
520.467	650.69
520.682	657.69
520.898	641.69
521.113	673.69
521.329	671.69
521.544	748.69
521.76	904.69
521.975	1379.69
522.19	1379.69
522.406	808.69
522.621	653.69
522.836	629.69
523.052	602.69
523.267	583.69
523.482	563.69
523.698	575.69
523.913	565.69
524.128	575.69
524.343	550.69
524.559	585.69
524.774	544.69
524.989	566.69
525.204	567.69
525.419	557.69
525.634	560.69
525.849	540.69
526.064	525.69
526.28	533.69
526.495	525.69
526.71	512.69
526.925	535.69
527.14	528.69
527.355	515.69
527.57	539.69
527.785	532.69
527.999	540.69
528.214	536.69
528.429	521.69
528.644	524.69
528.859	536.69
529.074	533.69
529.289	559.69
529.503	603.69
529.718	565.69
529.933	573.69
530.148	536.69
530.363	532.69
530.577	536.69
530.792	519.69
531.007	512.69
531.221	522.69
531.436	502.69
531.651	529.69
531.865	509.69
532.08	500.69
532.295	507.69
532.509	489.69
532.724	523.69
532.938	514.69
533.153	493.69
533.367	509.69
533.582	516.69
533.796	503.69
534.011	519.69
534.225	507.69
534.44	494.69
534.654	489.69
534.868	470.69
535.083	492.69
535.297	502.69
535.511	496.69
535.726	523.69
535.94	497.69
536.154	501.69
536.369	489.69
536.583	499.69
536.797	491.69
537.011	471.69
537.225	525.69
537.44	496.69
537.654	487.69
537.868	483.69
538.082	456.69
538.296	488.69
538.51	461.69
538.724	477.69
538.938	487.69
539.153	486.69
539.367	478.69
539.581	505.69
539.795	495.69
540.009	501.69
540.222	487.69
540.436	481.69
540.65	479.69
540.864	457.69
541.078	478.69
541.292	490.69
541.506	502.69
541.72	483.69
541.934	490.69
542.147	477.69
542.361	490.69
542.575	472.69
542.789	494.69
543.002	463.69
543.216	464.69
543.43	485.69
543.644	474.69
543.857	476.69
544.071	497.69
544.285	464.69
544.498	495.69
544.712	487.69
544.925	472.69
545.139	476.69
545.352	473.69
545.566	476.69
545.779	473.69
545.993	466.69
546.206	488.69
546.42	478.69
546.633	476.69
546.847	461.69
547.06	465.69
547.274	467.69
547.487	467.69
547.7	469.69
547.914	464.69
548.127	464.69
548.34	481.69
548.554	460.69
548.767	444.69
548.98	487.69
549.193	476.69
549.407	463.69
549.62	483.69
549.833	466.69
550.046	455.69
550.259	470.69
550.473	466.69
550.686	466.69
550.899	465.69
551.112	486.69
551.325	442.69
551.538	487.69
551.751	460.69
551.964	467.69
552.177	468.69
552.39	460.69
552.603	465.69
552.816	483.69
553.029	489.69
553.242	483.69
553.455	503.69
553.667	483.69
553.88	493.69
554.093	480.69
554.306	474.69
554.519	465.69
554.732	464.69
554.944	460.69
555.157	438.69
555.37	445.69
555.583	441.69
555.795	447.69
556.008	442.69
556.221	433.69
556.433	418.69
556.646	428.69
556.859	428.69
557.071	435.69
557.284	447.69
557.496	425.69
557.709	423.69
557.921	409.69
558.134	439.69
558.346	398.69
558.559	423.69
558.771	417.69
558.984	427.69
559.196	427.69
559.409	420.69
559.621	400.69
559.833	422.69
560.046	434.69
560.258	412.69
560.47	413.69
560.683	419.69
560.895	403.69
561.107	415.69
561.32	410.69
561.532	401.69
561.744	407.69
561.956	421.69
562.168	395.69
562.381	441.69
562.593	422.69
562.805	419.69
563.017	433.69
563.229	434.69
563.441	421.69
563.653	426.69
563.865	438.69
564.077	438.69
564.289	440.69
564.501	469.69
564.713	430.69
564.925	452.69
565.137	449.69
565.349	464.69
565.561	466.69
565.773	465.69
565.985	488.69
566.197	482.69
566.408	524.69
566.62	517.69
566.832	539.69
567.044	547.69
567.255	548.69
567.467	572.69
567.679	556.69
567.891	574.69
568.102	584.69
568.314	547.69
568.526	547.69
568.737	504.69
568.949	481.69
569.161	462.69
569.372	471.69
569.584	455.69
569.795	448.69
570.007	441.69
570.218	472.69
570.43	454.69
570.641	416.69
570.853	419.69
571.064	456.69
571.276	415.69
571.487	398.69
571.698	395.69
571.91	393.69
572.121	379.69
572.333	371.69
572.544	387.69
572.755	382.69
572.966	399.69
573.178	377.69
573.389	380.69
573.6	356.69
573.811	379.69
574.023	364.69
574.234	367.69
574.445	379.69
574.656	358.69
574.867	363.69
575.078	348.69
575.289	358.69
575.501	353.69
575.712	352.69
575.923	347.69
576.134	362.69
576.345	349.69
576.556	351.69
576.767	356.69
576.978	364.69
577.188	348.69
577.399	352.69
577.61	351.69
577.821	333.69
578.032	345.69
578.243	379.69
578.454	542.69
578.665	429.69
578.875	353.69
579.086	334.69
579.297	338.69
579.508	341.69
579.718	340.69
579.929	343.69
580.14	339.69
580.35	332.69
580.561	323.69
580.772	330.69
580.982	325.69
581.193	305.69
581.403	335.69
581.614	330.69
581.825	331.69
582.035	335.69
582.246	319.69
582.456	322.69
582.667	307.69
582.877	329.69
583.087	315.69
583.298	315.69
583.508	314.69
583.719	326.69
583.929	315.69
584.139	298.69
584.35	321.69
584.56	320.69
584.77	312.69
584.981	321.69
585.191	324.69
585.401	320.69
585.611	330.69
585.821	325.69
586.032	313.69
586.242	327.69
586.452	316.69
586.662	319.69
586.872	308.69
587.082	317.69
587.292	307.69
587.502	299.69
587.713	330.69
587.923	323.69
588.133	310.69
588.343	311.69
588.553	326.69
588.762	326.69
588.972	333.69
589.182	373.69
589.392	363.69
589.602	317.69
589.812	344.69
590.022	358.69
590.232	328.69
590.441	332.69
590.651	309.69
590.861	320.69
591.071	340.69
591.281	302.69
591.49	318.69
591.7	307.69
591.91	325.69
592.119	328.69
592.329	336.69
592.539	329.69
592.748	329.69
592.958	324.69
593.167	351.69
593.377	360.69
593.587	351.69
593.796	356.69
594.006	338.69
594.215	368.69
594.424	327.69
594.634	328.69
594.843	327.69
595.053	329.69
595.262	335.69
595.472	342.69
595.681	319.69
595.89	325.69
596.1	306.69
596.309	298.69
596.518	313.69
596.727	292.69
596.937	292.69
597.146	287.69
597.355	310.69
597.564	279.69
597.774	283.69
597.983	296.69
598.192	291.69
598.401	269.69
598.61	287.69
598.819	279.69
599.028	274.69
599.237	276.69
599.446	277.69
599.655	284.69
599.864	284.69
600.073	263.69
600.282	268.69
600.491	275.69
600.7	271.69
600.909	260.69
601.118	270.69
601.327	279.69
601.536	267.69
601.745	277.69
601.953	282.69
602.162	291.69
602.371	282.69
602.58	280.69
602.789	278.69
602.997	266.69
603.206	280.69
603.415	270.69
603.623	273.69
603.832	258.69
604.041	267.69
604.249	239.69
604.458	253.69
604.666	261.69
604.875	272.69
605.084	235.69
605.292	249.69
605.501	263.69
605.709	252.69
605.918	269.69
606.126	248.69
606.334	261.69
606.543	257.69
606.751	260.69
606.96	256.69
607.168	256.69
607.376	256.69
607.585	244.69
607.793	270.69
608.001	259.69
608.21	254.69
608.418	253.69
608.626	233.69
608.834	251.69
609.043	257.69
609.251	252.69
609.459	248.69
609.667	248.69
609.875	240.69
610.083	244.69
610.291	254.69
610.499	261.69
610.707	266.69
610.916	259.69
611.124	266.69
611.332	268.69
611.54	260.69
611.748	259.69
611.955	252.69
612.163	249.69
612.371	243.69
612.579	260.69
612.787	256.69
612.995	251.69
613.203	254.69
613.411	245.69
613.618	243.69
613.826	248.69
614.034	255.69
614.242	247.69
614.449	237.69
614.657	243.69
614.865	249.69
615.072	255.69
615.28	251.69
615.488	241.69
615.695	256.69
615.903	255.69
616.111	254.69
616.318	254.69
616.526	247.69
616.733	248.69
616.941	248.69
617.148	237.69
617.356	253.69
617.563	236.69
617.771	255.69
617.978	234.69
618.185	236.69
618.393	238.69
618.6	246.69
618.807	234.69
619.015	233.69
619.222	262.69
619.429	239.69
619.637	243.69
619.844	246.69
620.051	257.69
620.258	239.69
620.466	236.69
620.673	215.69
620.88	213.69
621.087	217.69
621.294	222.69
621.501	234.69
621.708	244.69
621.915	245.69
622.122	232.69
622.329	227.69
622.536	218.69
622.743	227.69
622.95	229.69
623.157	216.69
623.364	226.69
623.571	217.69
623.778	240.69
623.985	227.69
624.192	218.69
624.399	236.69
624.606	237.69
624.812	232.69
625.019	228.69
625.226	227.69
625.433	215.69
625.639	206.69
625.846	225.69
626.053	214.69
626.259	219.69
626.466	206.69
626.673	218.69
626.879	224.69
627.086	225.69
627.293	209.69
627.499	210.69
627.706	214.69
627.912	213.69
628.119	219.69
628.325	213.69
628.532	215.69
628.738	204.69
628.945	197.69
629.151	201.69
629.357	210.69
629.564	220.69
629.77	208.69
629.976	202.69
630.183	203.69
630.389	215.69
630.595	200.69
630.802	217.69
631.008	195.69
631.214	220.69
631.42	199.69
631.627	211.69
631.833	202.69
632.039	199.69
632.245	196.69
632.451	202.69
632.657	195.69
632.863	210.69
633.069	198.69
633.275	200.69
633.481	205.69
633.688	183.69
633.893	197.69
634.099	181.69
634.305	176.69
634.511	193.69
634.717	193.69
634.923	202.69
635.129	181.69
635.335	195.69
635.541	199.69
635.747	182.69
635.952	192.69
636.158	187.69
636.364	188.69
636.57	205.69
636.775	187.69
636.981	179.69
637.187	190.69
637.392	181.69
637.598	188.69
637.804	185.69
638.009	194.69
638.215	179.69
638.421	192.69
638.626	183.69
638.832	176.69
639.037	187.69
639.243	169.69
639.448	191.69
639.654	166.69
639.859	165.69
640.065	181.69
640.27	183.69
640.475	171.69
640.681	188.69
640.886	192.69
641.091	175.69
641.297	184.69
641.502	167.69
641.707	173.69
641.913	180.69
642.118	181.69
642.323	170.69
642.528	175.69
642.733	177.69
642.939	172.69
643.144	160.69
643.349	177.69
643.554	176.69
643.759	172.69
643.964	180.69
644.169	172.69
644.374	175.69
644.579	181.69
644.784	159.69
644.989	169.69
645.194	170.69
645.399	163.69
645.604	175.69
645.809	180.69
646.014	167.69
646.219	168.69
646.423	177.69
646.628	176.69
646.833	176.69
647.038	177.69
647.243	183.69
647.447	183.69
647.652	186.69
647.857	178.69
648.062	177.69
648.266	171.69
648.471	185.69
648.676	184.69
648.88	189.69
649.085	182.69
649.289	187.69
649.494	177.69
649.698	202.69
649.903	180.69
650.107	188.69
650.312	187.69
650.516	155.69
650.721	156.69
650.925	165.69
651.13	156.69
651.334	152.69
651.539	172.69
651.743	155.69
651.947	157.69
652.152	158.69
652.356	161.69
652.56	154.69
652.764	136.69
652.969	158.69
653.173	144.69
653.377	137.69
653.581	144.69
653.785	139.69
653.99	145.69
654.194	147.69
654.398	155.69
654.602	152.69
654.806	133.69
655.01	143.69
655.214	147.69
655.418	150.69
655.622	142.69
655.826	145.69
656.03	145.69
656.234	136.69
656.438	136.69
656.642	144.69
656.846	132.69
657.049	140.69
657.253	128.69
657.457	140.69
657.661	120.69
657.865	125.69
658.068	109.69
658.272	107.69
658.476	119.69
658.68	118.69
658.883	101.69
659.087	99.69
659.291	93.69
659.494	93.69
659.698	94.69
659.901	87.69
660.105	99.69
660.309	99.69
660.512	102.69
660.716	109.69
660.919	96.69
661.123	84.69
661.326	104.69
661.53	96.69
661.733	101.69
661.936	95.69
662.14	80.69
662.343	89.69
662.546	99.69
662.75	93.69
662.953	86.69
663.156	85.69
663.36	83.69
663.563	78.69
663.766	69.69
663.969	94.69
664.173	75.69
664.376	85.69
664.579	77.69
664.782	84.69
664.985	85.69
665.188	82.69
665.391	76.69
665.594	90.69
665.797	88.69
666	84.69
666.203	85.69
666.406	76.69
666.609	90.69
666.812	87.69
667.015	79.69
667.218	93.69
667.421	98.69
667.624	84.69
667.827	94.69
668.03	85.69
668.232	93.69
668.435	92.69
668.638	92.69
668.841	85.69
669.043	84.69
669.246	96.69
669.449	92.69
669.651	79.69
669.854	82.69
670.057	88.69
670.259	80.69
670.462	77.69
670.665	87.69
670.867	74.69
671.07	90.69
671.272	87.69
671.475	96.69
671.677	96.69
671.88	84.69
672.082	80.69
672.284	100.69
672.487	91.69
672.689	76.69
672.892	80.69
