Data from 1979.PennyLincolnUp.Lamp.En5.5.200Scan.071719.P1_HRD10591_16-19-00-863.txt Node
Date: Thu Jul 18 16:19:00 EDT 2019
User: cochatt
Spectrometer: HR+D1059
Trigger mode: 1
Integration Time (sec): 1.000000E-1
Scans to average: 1
Electric dark correction enabled: true
Nonlinearity correction enabled: false
Boxcar width: 0
XAxis mode: Wavelengths
Number of Pixels in Spectrum: 2048
>>>>>Begin Spectral Data<<<<<
223.165	-13.25
223.4	-13.25
223.635	-13.25
223.869	-20.25
224.104	-19.25
224.338	-22.25
224.573	-18.25
224.808	-24.25
225.042	-3.25
225.277	4.75
225.511	-9.25
225.746	4.75
225.98	1.75
226.215	15.75
226.449	10.75
226.683	34.75
226.918	20.75
227.152	36.75
227.387	36.75
227.621	29.75
227.856	40.75
228.09	40.75
228.324	56.75
228.559	57.75
228.793	66.75
229.027	105.75
229.262	98.75
229.496	83.75
229.73	117.75
229.964	138.75
230.199	104.75
230.433	117.75
230.667	98.75
230.901	99.75
231.136	103.75
231.37	88.75
231.604	97.75
231.838	101.75
232.072	108.75
232.306	93.75
232.541	103.75
232.775	118.75
233.009	106.75
233.243	110.75
233.477	113.75
233.711	103.75
233.945	105.75
234.179	123.75
234.413	114.75
234.647	99.75
234.881	108.75
235.115	103.75
235.349	117.75
235.583	112.75
235.817	122.75
236.051	126.75
236.285	122.75
236.519	110.75
236.753	134.75
236.987	137.75
237.221	161.75
237.455	214.75
237.689	168.75
237.922	133.75
238.156	124.75
238.39	100.75
238.624	128.75
238.858	117.75
239.091	118.75
239.325	113.75
239.559	114.75
239.793	126.75
240.027	128.75
240.26	133.75
240.494	154.75
240.728	141.75
240.961	148.75
241.195	136.75
241.429	130.75
241.662	129.75
241.896	137.75
242.13	120.75
242.363	136.75
242.597	131.75
242.83	122.75
243.064	142.75
243.298	147.75
243.531	139.75
243.765	141.75
243.998	136.75
244.232	124.75
244.465	139.75
244.699	133.75
244.932	135.75
245.166	140.75
245.399	147.75
245.633	138.75
245.866	136.75
246.099	154.75
246.333	144.75
246.566	149.75
246.8	136.75
247.033	149.75
247.266	152.75
247.5	154.75
247.733	141.75
247.966	167.75
248.2	156.75
248.433	168.75
248.666	170.75
248.899	170.75
249.133	181.75
249.366	208.75
249.599	190.75
249.832	162.75
250.066	177.75
250.299	167.75
250.532	169.75
250.765	190.75
250.998	202.75
251.231	204.75
251.465	197.75
251.698	193.75
251.931	186.75
252.164	192.75
252.397	185.75
252.63	193.75
252.863	187.75
253.096	187.75
253.329	215.75
253.562	204.75
253.795	212.75
254.028	189.75
254.261	198.75
254.494	200.75
254.727	220.75
254.96	228.75
255.193	234.75
255.426	236.75
255.659	208.75
255.892	209.75
256.124	208.75
256.357	202.75
256.59	209.75
256.823	206.75
257.056	206.75
257.289	188.75
257.521	199.75
257.754	183.75
257.987	200.75
258.22	198.75
258.452	183.75
258.685	194.75
258.918	196.75
259.151	185.75
259.383	186.75
259.616	186.75
259.849	220.75
260.081	214.75
260.314	232.75
260.547	242.75
260.779	227.75
261.012	214.75
261.244	214.75
261.477	213.75
261.71	189.75
261.942	205.75
262.175	228.75
262.407	226.75
262.64	191.75
262.872	192.75
263.105	206.75
263.337	209.75
263.57	210.75
263.802	195.75
264.035	219.75
264.267	186.75
264.499	205.75
264.732	193.75
264.964	205.75
265.197	198.75
265.429	209.75
265.661	194.75
265.894	191.75
266.126	211.75
266.358	177.75
266.591	189.75
266.823	187.75
267.055	221.75
267.287	202.75
267.52	202.75
267.752	200.75
267.984	205.75
268.216	221.75
268.448	216.75
268.681	220.75
268.913	228.75
269.145	234.75
269.377	250.75
269.609	253.75
269.841	260.75
270.073	235.75
270.306	270.75
270.538	282.75
270.77	279.75
271.002	253.75
271.234	266.75
271.466	260.75
271.698	285.75
271.93	284.75
272.162	284.75
272.394	295.75
272.626	276.75
272.858	276.75
273.09	258.75
273.322	242.75
273.553	221.75
273.785	239.75
274.017	228.75
274.249	253.75
274.481	247.75
274.713	246.75
274.945	247.75
275.176	234.75
275.408	237.75
275.64	244.75
275.872	233.75
276.104	264.75
276.335	265.75
276.567	261.75
276.799	256.75
277.031	282.75
277.262	289.75
277.494	286.75
277.726	280.75
277.957	262.75
278.189	245.75
278.421	276.75
278.652	268.75
278.884	268.75
279.115	260.75
279.347	267.75
279.579	256.75
279.81	253.75
280.042	247.75
280.273	261.75
280.505	266.75
280.736	269.75
280.968	257.75
281.199	260.75
281.431	245.75
281.662	255.75
281.894	256.75
282.125	266.75
282.356	264.75
282.588	277.75
282.819	292.75
283.051	254.75
283.282	262.75
283.513	249.75
283.745	266.75
283.976	267.75
284.207	267.75
284.439	270.75
284.67	271.75
284.901	269.75
285.132	268.75
285.364	264.75
285.595	261.75
285.826	264.75
286.057	264.75
286.288	264.75
286.52	278.75
286.751	261.75
286.982	266.75
287.213	266.75
287.444	267.75
287.675	270.75
287.906	270.75
288.138	284.75
288.369	281.75
288.6	290.75
288.831	316.75
289.062	280.75
289.293	279.75
289.524	275.75
289.755	276.75
289.986	282.75
290.217	266.75
290.448	301.75
290.679	290.75
290.91	272.75
291.141	278.75
291.371	282.75
291.602	284.75
291.833	265.75
292.064	285.75
292.295	281.75
292.526	281.75
292.757	272.75
292.987	273.75
293.218	296.75
293.449	290.75
293.68	288.75
293.91	296.75
294.141	287.75
294.372	272.75
294.603	284.75
294.833	271.75
295.064	290.75
295.295	279.75
295.525	272.75
295.756	288.75
295.987	285.75
296.217	308.75
296.448	314.75
296.679	290.75
296.909	288.75
297.14	292.75
297.37	274.75
297.601	286.75
297.831	291.75
298.062	280.75
298.292	283.75
298.523	294.75
298.753	293.75
298.984	298.75
299.214	291.75
299.445	300.75
299.675	292.75
299.905	301.75
300.136	308.75
300.366	295.75
300.597	318.75
300.827	304.75
301.057	297.75
301.288	308.75
301.518	324.75
301.748	319.75
301.979	319.75
302.209	307.75
302.439	324.75
302.669	322.75
302.9	309.75
303.13	297.75
303.36	307.75
303.59	327.75
303.82	336.75
304.051	338.75
304.281	305.75
304.511	307.75
304.741	314.75
304.971	322.75
305.201	315.75
305.431	299.75
305.661	312.75
305.891	324.75
306.121	324.75
306.352	334.75
306.582	327.75
306.812	308.75
307.042	348.75
307.272	317.75
307.502	320.75
307.731	333.75
307.961	322.75
308.191	323.75
308.421	317.75
308.651	323.75
308.881	306.75
309.111	322.75
309.341	325.75
309.571	331.75
309.8	344.75
310.03	345.75
310.26	364.75
310.49	341.75
310.72	364.75
310.949	363.75
311.179	371.75
311.409	377.75
311.639	360.75
311.868	352.75
312.098	351.75
312.328	350.75
312.557	370.75
312.787	380.75
313.017	376.75
313.246	363.75
313.476	352.75
313.706	353.75
313.935	354.75
314.165	377.75
314.394	368.75
314.624	373.75
314.853	373.75
315.083	363.75
315.312	350.75
315.542	356.75
315.771	354.75
316.001	353.75
316.23	368.75
316.46	374.75
316.689	362.75
316.919	358.75
317.148	382.75
317.377	376.75
317.607	353.75
317.836	382.75
318.065	372.75
318.295	355.75
318.524	343.75
318.753	354.75
318.983	371.75
319.212	367.75
319.441	377.75
319.67	356.75
319.9	377.75
320.129	382.75
320.358	374.75
320.587	382.75
320.816	379.75
321.046	385.75
321.275	382.75
321.504	365.75
321.733	356.75
321.962	386.75
322.191	394.75
322.42	395.75
322.649	400.75
322.878	434.75
323.108	452.75
323.337	434.75
323.566	441.75
323.795	477.75
324.024	537.75
324.253	601.75
324.482	869.75
324.71	1372.75
324.939	2012.75
325.168	1708.75
325.397	842.75
325.626	595.75
325.855	524.75
326.084	479.75
326.313	472.75
326.542	459.75
326.77	514.75
326.999	636.75
327.228	794.75
327.457	1244.75
327.686	1499.75
327.914	992.75
328.143	643.75
328.372	592.75
328.6	532.75
328.829	516.75
329.058	548.75
329.287	543.75
329.515	503.75
329.744	497.75
329.972	475.75
330.201	494.75
330.43	503.75
330.658	545.75
330.887	580.75
331.115	560.75
331.344	494.75
331.572	457.75
331.801	466.75
332.03	458.75
332.258	460.75
332.486	436.75
332.715	418.75
332.943	420.75
333.172	448.75
333.4	454.75
333.629	481.75
333.857	460.75
334.085	489.75
334.314	460.75
334.542	518.75
334.771	533.75
334.999	489.75
335.227	472.75
335.455	453.75
335.684	454.75
335.912	446.75
336.14	450.75
336.369	427.75
336.597	415.75
336.825	426.75
337.053	429.75
337.281	429.75
337.51	427.75
337.738	440.75
337.966	435.75
338.194	441.75
338.422	440.75
338.65	424.75
338.878	426.75
339.106	418.75
339.334	398.75
339.562	417.75
339.79	416.75
340.018	414.75
340.246	425.75
340.474	416.75
340.702	426.75
340.93	417.75
341.158	416.75
341.386	430.75
341.614	403.75
341.842	415.75
342.07	420.75
342.298	409.75
342.526	413.75
342.754	420.75
342.981	408.75
343.209	428.75
343.437	415.75
343.665	432.75
343.893	430.75
344.12	455.75
344.348	454.75
344.576	439.75
344.804	412.75
345.031	414.75
345.259	433.75
345.487	424.75
345.714	429.75
345.942	409.75
346.17	413.75
346.397	419.75
346.625	427.75
346.853	420.75
347.08	405.75
347.308	409.75
347.535	401.75
347.763	410.75
347.99	409.75
348.218	391.75
348.445	438.75
348.673	400.75
348.9	410.75
349.128	395.75
349.355	381.75
349.583	386.75
349.81	403.75
350.037	398.75
350.265	396.75
350.492	390.75
350.72	401.75
350.947	410.75
351.174	399.75
351.402	428.75
351.629	413.75
351.856	414.75
352.083	401.75
352.311	422.75
352.538	402.75
352.765	409.75
352.992	397.75
353.22	392.75
353.447	398.75
353.674	398.75
353.901	376.75
354.128	360.75
354.355	386.75
354.583	388.75
354.81	401.75
355.037	376.75
355.264	376.75
355.491	370.75
355.718	377.75
355.945	387.75
356.172	400.75
356.399	389.75
356.626	374.75
356.853	373.75
357.08	390.75
357.307	397.75
357.534	402.75
357.761	394.75
357.988	396.75
358.215	379.75
358.441	401.75
358.668	384.75
358.895	400.75
359.122	399.75
359.349	393.75
359.576	427.75
359.802	432.75
360.029	458.75
360.256	454.75
360.483	435.75
360.709	405.75
360.936	421.75
361.163	402.75
361.39	432.75
361.616	407.75
361.843	413.75
362.07	413.75
362.296	418.75
362.523	406.75
362.749	409.75
362.976	387.75
363.203	386.75
363.429	402.75
363.656	394.75
363.882	379.75
364.109	394.75
364.335	396.75
364.562	398.75
364.788	394.75
365.015	391.75
365.241	382.75
365.468	393.75
365.694	398.75
365.92	403.75
366.147	382.75
366.373	397.75
366.599	400.75
366.826	426.75
367.052	394.75
367.278	396.75
367.505	401.75
367.731	410.75
367.957	386.75
368.184	410.75
368.41	410.75
368.636	400.75
368.862	403.75
369.089	405.75
369.315	421.75
369.541	395.75
369.767	398.75
369.993	398.75
370.219	410.75
370.445	414.75
370.672	393.75
370.898	397.75
371.124	386.75
371.35	388.75
371.576	384.75
371.802	429.75
372.028	423.75
372.254	412.75
372.48	413.75
372.706	419.75
372.932	414.75
373.158	401.75
373.384	408.75
373.61	408.75
373.835	409.75
374.061	421.75
374.287	424.75
374.513	409.75
374.739	421.75
374.965	423.75
375.191	416.75
375.416	401.75
375.642	411.75
375.868	407.75
376.094	412.75
376.319	419.75
376.545	409.75
376.771	406.75
376.997	414.75
377.222	397.75
377.448	407.75
377.674	417.75
377.899	402.75
378.125	392.75
378.35	404.75
378.576	404.75
378.802	399.75
379.027	395.75
379.253	410.75
379.478	408.75
379.704	407.75
379.929	404.75
380.155	424.75
380.38	400.75
380.606	402.75
380.831	421.75
381.057	418.75
381.282	422.75
381.507	393.75
381.733	415.75
381.958	416.75
382.184	433.75
382.409	432.75
382.634	425.75
382.86	411.75
383.085	425.75
383.31	403.75
383.535	434.75
383.761	436.75
383.986	436.75
384.211	442.75
384.436	449.75
384.662	431.75
384.887	447.75
385.112	440.75
385.337	452.75
385.562	454.75
385.787	455.75
386.013	456.75
386.238	485.75
386.463	458.75
386.688	461.75
386.913	462.75
387.138	457.75
387.363	450.75
387.588	470.75
387.813	443.75
388.038	468.75
388.263	462.75
388.488	463.75
388.713	456.75
388.938	438.75
389.163	452.75
389.387	455.75
389.612	453.75
389.837	458.75
390.062	452.75
390.287	429.75
390.512	449.75
390.736	445.75
390.961	466.75
391.186	466.75
391.411	466.75
391.636	470.75
391.86	479.75
392.085	474.75
392.31	482.75
392.534	477.75
392.759	462.75
392.984	458.75
393.208	494.75
393.433	476.75
393.658	476.75
393.882	461.75
394.107	488.75
394.331	474.75
394.556	469.75
394.78	471.75
395.005	482.75
395.229	472.75
395.454	464.75
395.678	475.75
395.903	498.75
396.127	508.75
396.352	488.75
396.576	491.75
396.801	488.75
397.025	491.75
397.249	494.75
397.474	496.75
397.698	484.75
397.922	498.75
398.147	522.75
398.371	507.75
398.595	524.75
398.82	533.75
399.044	553.75
399.268	562.75
399.492	590.75
399.717	648.75
399.941	662.75
400.165	679.75
400.389	680.75
400.613	634.75
400.837	571.75
401.062	603.75
401.286	554.75
401.51	533.75
401.734	548.75
401.958	530.75
402.182	562.75
402.406	561.75
402.63	576.75
402.854	552.75
403.078	541.75
403.302	583.75
403.526	581.75
403.75	566.75
403.974	559.75
404.198	572.75
404.422	576.75
404.645	576.75
404.869	577.75
405.093	568.75
405.317	662.75
405.541	684.75
405.765	634.75
405.988	610.75
406.212	604.75
406.436	629.75
406.66	630.75
406.883	611.75
407.107	633.75
407.331	658.75
407.555	737.75
407.778	731.75
408.002	683.75
408.226	642.75
408.449	632.75
408.673	627.75
408.896	658.75
409.12	688.75
409.344	653.75
409.567	598.75
409.791	604.75
410.014	578.75
410.238	562.75
410.461	574.75
410.685	568.75
410.908	588.75
411.132	611.75
411.355	635.75
411.578	603.75
411.802	590.75
412.025	593.75
412.249	582.75
412.472	601.75
412.695	619.75
412.919	598.75
413.142	604.75
413.365	567.75
413.589	568.75
413.812	529.75
414.035	552.75
414.258	547.75
414.482	557.75
414.705	556.75
414.928	545.75
415.151	552.75
415.374	534.75
415.597	556.75
415.821	546.75
416.044	551.75
416.267	546.75
416.49	542.75
416.713	541.75
416.936	538.75
417.159	537.75
417.382	537.75
417.605	559.75
417.828	548.75
418.051	560.75
418.274	546.75
418.497	553.75
418.72	540.75
418.943	545.75
419.166	572.75
419.389	576.75
419.611	584.75
419.834	555.75
420.057	552.75
420.28	552.75
420.503	572.75
420.726	553.75
420.948	560.75
421.171	600.75
421.394	646.75
421.617	576.75
421.839	547.75
422.062	590.75
422.285	570.75
422.507	616.75
422.73	690.75
422.953	668.75
423.175	596.75
423.398	597.75
423.621	587.75
423.843	594.75
424.066	607.75
424.288	601.75
424.511	604.75
424.733	665.75
424.956	710.75
425.178	692.75
425.401	707.75
425.623	722.75
425.846	629.75
426.068	589.75
426.291	595.75
426.513	579.75
426.735	583.75
426.958	641.75
427.18	692.75
427.402	821.75
427.625	902.75
427.847	810.75
428.069	702.75
428.292	631.75
428.514	602.75
428.736	573.75
428.958	540.75
429.181	557.75
429.403	538.75
429.625	554.75
429.847	596.75
430.069	653.75
430.292	660.75
430.514	567.75
430.736	552.75
430.958	574.75
431.18	538.75
431.402	544.75
431.624	520.75
431.846	517.75
432.068	532.75
432.29	538.75
432.512	545.75
432.734	538.75
432.956	522.75
433.178	554.75
433.4	540.75
433.622	539.75
433.844	552.75
434.066	541.75
434.287	527.75
434.509	528.75
434.731	555.75
434.953	553.75
435.175	566.75
435.397	605.75
435.618	597.75
435.84	618.75
436.062	722.75
436.284	789.75
436.505	673.75
436.727	573.75
436.949	564.75
437.17	552.75
437.392	542.75
437.614	554.75
437.835	574.75
438.057	673.75
438.278	757.75
438.5	778.75
438.721	839.75
438.943	818.75
439.165	666.75
439.386	588.75
439.608	598.75
439.829	590.75
440.05	603.75
440.272	669.75
440.493	639.75
440.715	565.75
440.936	548.75
441.158	570.75
441.379	562.75
441.6	595.75
441.822	600.75
442.043	631.75
442.264	703.75
442.486	756.75
442.707	637.75
442.928	624.75
443.149	626.75
443.371	652.75
443.592	668.75
443.813	791.75
444.034	816.75
444.255	672.75
444.476	655.75
444.698	624.75
444.919	625.75
445.14	684.75
445.361	636.75
445.582	617.75
445.803	698.75
446.024	810.75
446.245	786.75
446.466	738.75
446.687	632.75
446.908	589.75
447.129	568.75
447.35	548.75
447.571	540.75
447.792	529.75
448.013	522.75
448.234	560.75
448.455	593.75
448.675	695.75
448.896	816.75
449.117	682.75
449.338	646.75
449.559	742.75
449.779	838.75
450	690.75
450.221	574.75
450.442	526.75
450.662	532.75
450.883	562.75
451.104	546.75
451.324	544.75
451.545	498.75
451.766	500.75
451.986	475.75
452.207	486.75
452.428	497.75
452.648	486.75
452.869	496.75
453.089	492.75
453.31	516.75
453.53	496.75
453.751	475.75
453.971	498.75
454.192	506.75
454.412	489.75
454.633	484.75
454.853	485.75
455.073	468.75
455.294	512.75
455.514	557.75
455.734	554.75
455.955	487.75
456.175	478.75
456.395	496.75
456.616	497.75
456.836	457.75
457.056	456.75
457.276	442.75
457.497	457.75
457.717	453.75
457.937	475.75
458.157	476.75
458.377	482.75
458.598	502.75
458.818	557.75
459.038	622.75
459.258	642.75
459.478	580.75
459.698	550.75
459.918	528.75
460.138	552.75
460.358	524.75
460.578	561.75
460.798	537.75
461.018	566.75
461.238	540.75
461.458	579.75
461.678	544.75
461.898	543.75
462.118	565.75
462.338	572.75
462.558	576.75
462.777	598.75
462.997	597.75
463.217	607.75
463.437	628.75
463.657	593.75
463.876	588.75
464.096	598.75
464.316	597.75
464.536	614.75
464.755	595.75
464.975	597.75
465.195	628.75
465.414	688.75
465.634	615.75
465.854	556.75
466.073	524.75
466.293	552.75
466.512	524.75
466.732	506.75
466.951	516.75
467.171	492.75
467.391	506.75
467.61	525.75
467.829	525.75
468.049	507.75
468.268	535.75
468.488	496.75
468.707	514.75
468.927	485.75
469.146	497.75
469.365	497.75
469.585	498.75
469.804	500.75
470.023	536.75
470.243	536.75
470.462	527.75
470.681	514.75
470.901	519.75
471.12	529.75
471.339	531.75
471.558	541.75
471.777	532.75
471.997	524.75
472.216	496.75
472.435	546.75
472.654	532.75
472.873	520.75
473.092	510.75
473.311	501.75
473.53	514.75
473.749	516.75
473.968	536.75
474.187	637.75
474.406	648.75
474.625	568.75
474.844	522.75
475.063	508.75
475.282	520.75
475.501	548.75
475.72	533.75
475.939	533.75
476.158	521.75
476.377	537.75
476.596	546.75
476.814	535.75
477.033	550.75
477.252	542.75
477.471	552.75
477.69	552.75
477.908	553.75
478.127	562.75
478.346	560.75
478.564	587.75
478.783	564.75
479.002	589.75
479.22	604.75
479.439	608.75
479.658	623.75
479.876	636.75
480.095	622.75
480.313	648.75
480.532	640.75
480.751	659.75
480.969	644.75
481.188	684.75
481.406	731.75
481.624	647.75
481.843	626.75
482.061	600.75
482.28	615.75
482.498	616.75
482.717	605.75
482.935	608.75
483.153	576.75
483.372	609.75
483.59	626.75
483.808	596.75
484.027	606.75
484.245	595.75
484.463	603.75
484.681	636.75
484.9	638.75
485.118	618.75
485.336	591.75
485.554	581.75
485.772	645.75
485.99	631.75
486.209	616.75
486.427	616.75
486.645	632.75
486.863	653.75
487.081	676.75
487.299	648.75
487.517	661.75
487.735	652.75
487.953	640.75
488.171	663.75
488.389	636.75
488.607	628.75
488.825	654.75
489.043	676.75
489.261	633.75
489.479	635.75
489.696	646.75
489.914	660.75
490.132	663.75
490.35	657.75
490.568	689.75
490.786	674.75
491.003	695.75
491.221	708.75
491.439	709.75
491.657	694.75
491.874	715.75
492.092	715.75
492.31	729.75
492.527	721.75
492.745	717.75
492.963	734.75
493.18	713.75
493.398	732.75
493.615	736.75
493.833	734.75
494.05	732.75
494.268	743.75
494.485	745.75
494.703	733.75
494.92	758.75
495.138	740.75
495.355	757.75
495.573	748.75
495.79	746.75
496.008	768.75
496.225	782.75
496.442	730.75
496.66	788.75
496.877	766.75
497.094	772.75
497.312	798.75
497.529	784.75
497.746	814.75
497.963	800.75
498.181	834.75
498.398	853.75
498.615	859.75
498.832	899.75
499.049	924.75
499.267	936.75
499.484	989.75
499.701	1029.75
499.918	1060.75
500.135	1112.75
500.352	1188.75
500.569	1172.75
500.786	1194.75
501.003	1156.75
501.22	1127.75
501.437	1098.75
501.654	1053.75
501.871	1032.75
502.088	981.75
502.305	931.75
502.522	902.75
502.739	868.75
502.956	820.75
503.172	812.75
503.389	824.75
503.606	803.75
503.823	816.75
504.04	816.75
504.256	785.75
504.473	788.75
504.69	772.75
504.907	796.75
505.123	744.75
505.34	738.75
505.557	753.75
505.773	730.75
505.99	730.75
506.207	716.75
506.423	720.75
506.64	688.75
506.856	710.75
507.073	700.75
507.289	731.75
507.506	685.75
507.722	699.75
507.939	724.75
508.155	681.75
508.372	682.75
508.588	673.75
508.805	668.75
509.021	672.75
509.238	688.75
509.454	677.75
509.67	658.75
509.887	658.75
510.103	657.75
510.319	676.75
510.536	767.75
510.752	1223.75
510.968	999.75
511.184	672.75
511.401	655.75
511.617	646.75
511.833	633.75
512.049	642.75
512.265	620.75
512.481	619.75
512.698	621.75
512.914	629.75
513.13	654.75
513.346	608.75
513.562	610.75
513.778	633.75
513.994	650.75
514.21	643.75
514.426	668.75
514.642	727.75
514.858	728.75
515.074	767.75
515.29	864.75
515.506	1245.75
515.721	1038.75
515.937	773.75
516.153	718.75
516.369	714.75
516.585	691.75
516.801	646.75
517.016	693.75
517.232	668.75
517.448	708.75
517.664	688.75
517.879	699.75
518.095	722.75
518.311	718.75
518.527	708.75
518.742	692.75
518.958	649.75
519.173	669.75
519.389	661.75
519.605	654.75
519.82	662.75
520.036	681.75
520.251	674.75
520.467	689.75
520.682	692.75
520.898	675.75
521.113	701.75
521.329	736.75
521.544	792.75
521.76	969.75
521.975	1605.75
522.19	1634.75
522.406	920.75
522.621	728.75
522.836	652.75
523.052	641.75
523.267	621.75
523.482	603.75
523.698	613.75
523.913	604.75
524.128	583.75
524.343	583.75
524.559	566.75
524.774	561.75
524.989	574.75
525.204	578.75
525.419	584.75
525.634	561.75
525.849	567.75
526.064	539.75
526.28	555.75
526.495	528.75
526.71	550.75
526.925	537.75
527.14	557.75
527.355	534.75
527.57	537.75
527.785	549.75
527.999	538.75
528.214	544.75
528.429	524.75
528.644	528.75
528.859	546.75
529.074	526.75
529.289	559.75
529.503	630.75
529.718	620.75
529.933	572.75
530.148	571.75
530.363	557.75
530.577	551.75
530.792	536.75
531.007	558.75
531.221	525.75
531.436	526.75
531.651	544.75
531.865	542.75
532.08	518.75
532.295	517.75
532.509	501.75
532.724	518.75
532.938	534.75
533.153	527.75
533.367	518.75
533.582	514.75
533.796	506.75
534.011	500.75
534.225	506.75
534.44	520.75
534.654	534.75
534.868	516.75
535.083	529.75
535.297	514.75
535.511	525.75
535.726	517.75
535.94	512.75
536.154	521.75
536.369	513.75
536.583	508.75
536.797	524.75
537.011	477.75
537.225	478.75
537.44	492.75
537.654	496.75
537.868	525.75
538.082	479.75
538.296	503.75
538.51	515.75
538.724	510.75
538.938	509.75
539.153	510.75
539.367	520.75
539.581	548.75
539.795	470.75
540.009	480.75
540.222	498.75
540.436	488.75
540.65	510.75
540.864	478.75
541.078	496.75
541.292	478.75
541.506	499.75
541.72	482.75
541.934	496.75
542.147	494.75
542.361	500.75
542.575	478.75
542.789	498.75
543.002	508.75
543.216	497.75
543.43	481.75
543.644	514.75
543.857	493.75
544.071	499.75
544.285	508.75
544.498	514.75
544.712	502.75
544.925	490.75
545.139	490.75
545.352	475.75
545.566	472.75
545.779	484.75
545.993	481.75
546.206	512.75
546.42	504.75
546.633	480.75
546.847	472.75
547.06	501.75
547.274	496.75
547.487	508.75
547.7	490.75
547.914	482.75
548.127	461.75
548.34	487.75
548.554	474.75
548.767	477.75
548.98	468.75
549.193	483.75
549.407	462.75
549.62	490.75
549.833	473.75
550.046	482.75
550.259	472.75
550.473	493.75
550.686	488.75
550.899	468.75
551.112	478.75
551.325	471.75
551.538	486.75
551.751	470.75
551.964	483.75
552.177	481.75
552.39	465.75
552.603	489.75
552.816	490.75
553.029	486.75
553.242	503.75
553.455	514.75
553.667	500.75
553.88	511.75
554.093	496.75
554.306	480.75
554.519	493.75
554.732	441.75
554.944	469.75
555.157	470.75
555.37	445.75
555.583	455.75
555.795	468.75
556.008	457.75
556.221	454.75
556.433	430.75
556.646	441.75
556.859	424.75
557.071	459.75
557.284	411.75
557.496	425.75
557.709	436.75
557.921	402.75
558.134	415.75
558.346	424.75
558.559	432.75
558.771	427.75
558.984	414.75
559.196	424.75
559.409	437.75
559.621	424.75
559.833	430.75
560.046	429.75
560.258	419.75
560.47	422.75
560.683	416.75
560.895	416.75
561.107	410.75
561.32	432.75
561.532	411.75
561.744	413.75
561.956	411.75
562.168	409.75
562.381	446.75
562.593	441.75
562.805	433.75
563.017	410.75
563.229	433.75
563.441	420.75
563.653	422.75
563.865	442.75
564.077	448.75
564.289	436.75
564.501	428.75
564.713	450.75
564.925	454.75
565.137	457.75
565.349	459.75
565.561	464.75
565.773	486.75
565.985	484.75
566.197	501.75
566.408	513.75
566.62	533.75
566.832	563.75
567.044	537.75
567.255	554.75
567.467	544.75
567.679	568.75
567.891	590.75
568.102	606.75
568.314	565.75
568.526	550.75
568.737	519.75
568.949	488.75
569.161	483.75
569.372	478.75
569.584	471.75
569.795	438.75
570.007	439.75
570.218	485.75
570.43	457.75
570.641	434.75
570.853	434.75
571.064	423.75
571.276	417.75
571.487	397.75
571.698	398.75
571.91	396.75
572.121	402.75
572.333	378.75
572.544	394.75
572.755	391.75
572.966	394.75
573.178	372.75
573.389	368.75
573.6	381.75
573.811	382.75
574.023	378.75
574.234	374.75
574.445	379.75
574.656	369.75
574.867	379.75
575.078	364.75
575.289	374.75
575.501	373.75
575.712	376.75
575.923	384.75
576.134	365.75
576.345	346.75
576.556	357.75
576.767	367.75
576.978	350.75
577.188	359.75
577.399	348.75
577.61	361.75
577.821	357.75
578.032	357.75
578.243	401.75
578.454	588.75
578.665	458.75
578.875	375.75
579.086	356.75
579.297	353.75
579.508	347.75
579.718	338.75
579.929	334.75
580.14	362.75
580.35	332.75
580.561	337.75
580.772	330.75
580.982	326.75
581.193	334.75
581.403	334.75
581.614	339.75
581.825	337.75
582.035	307.75
582.246	335.75
582.456	330.75
582.667	337.75
582.877	338.75
583.087	324.75
583.298	337.75
583.508	338.75
583.719	325.75
583.929	351.75
584.139	330.75
584.35	340.75
584.56	320.75
584.77	333.75
584.981	312.75
585.191	320.75
585.401	321.75
585.611	333.75
585.821	323.75
586.032	328.75
586.242	305.75
586.452	320.75
586.662	321.75
586.872	310.75
587.082	311.75
587.292	299.75
587.502	338.75
587.713	314.75
587.923	314.75
588.133	312.75
588.343	321.75
588.553	304.75
588.762	299.75
588.972	316.75
589.182	358.75
589.392	347.75
589.602	341.75
589.812	328.75
590.022	320.75
590.232	320.75
590.441	327.75
590.651	318.75
590.861	317.75
591.071	334.75
591.281	331.75
591.49	334.75
591.7	320.75
591.91	347.75
592.119	339.75
592.329	332.75
592.539	345.75
592.748	334.75
592.958	332.75
593.167	345.75
593.377	347.75
593.587	344.75
593.796	347.75
594.006	354.75
594.215	349.75
594.424	352.75
594.634	338.75
594.843	323.75
595.053	338.75
595.262	330.75
595.472	339.75
595.681	322.75
595.89	325.75
596.1	332.75
596.309	317.75
596.518	319.75
596.727	318.75
596.937	286.75
597.146	313.75
597.355	300.75
597.564	288.75
597.774	284.75
597.983	295.75
598.192	284.75
598.401	295.75
598.61	290.75
598.819	288.75
599.028	306.75
599.237	288.75
599.446	294.75
599.655	291.75
599.864	276.75
600.073	293.75
600.282	284.75
600.491	276.75
600.7	267.75
600.909	278.75
601.118	277.75
601.327	287.75
601.536	284.75
601.745	265.75
601.953	275.75
602.162	261.75
602.371	269.75
602.58	273.75
602.789	276.75
602.997	273.75
603.206	293.75
603.415	265.75
603.623	276.75
603.832	258.75
604.041	272.75
604.249	273.75
604.458	276.75
604.666	280.75
604.875	268.75
605.084	270.75
605.292	249.75
605.501	273.75
605.709	259.75
605.918	258.75
606.126	258.75
606.334	264.75
606.543	268.75
606.751	246.75
606.96	246.75
607.168	258.75
607.376	249.75
607.585	254.75
607.793	258.75
608.001	254.75
608.21	252.75
608.418	273.75
608.626	254.75
608.834	254.75
609.043	249.75
609.251	264.75
609.459	256.75
609.667	257.75
609.875	251.75
610.083	241.75
610.291	262.75
610.499	245.75
610.707	269.75
610.916	242.75
611.124	263.75
611.332	272.75
611.54	272.75
611.748	252.75
611.955	266.75
612.163	250.75
612.371	247.75
612.579	262.75
612.787	252.75
612.995	264.75
613.203	265.75
613.411	266.75
613.618	249.75
613.826	245.75
614.034	250.75
614.242	246.75
614.449	241.75
614.657	240.75
614.865	260.75
615.072	250.75
615.28	233.75
615.488	248.75
615.695	245.75
615.903	242.75
616.111	267.75
616.318	247.75
616.526	259.75
616.733	246.75
616.941	233.75
617.148	247.75
617.356	236.75
617.563	251.75
617.771	244.75
617.978	252.75
618.185	236.75
618.393	254.75
618.6	224.75
618.807	243.75
619.015	245.75
619.222	237.75
619.429	229.75
619.637	241.75
619.844	226.75
620.051	232.75
620.258	241.75
620.466	240.75
620.673	217.75
620.88	227.75
621.087	238.75
621.294	230.75
621.501	229.75
621.708	230.75
621.915	236.75
622.122	242.75
622.329	242.75
622.536	220.75
622.743	218.75
622.95	224.75
623.157	210.75
623.364	224.75
623.571	221.75
623.778	217.75
623.985	225.75
624.192	211.75
624.399	227.75
624.606	204.75
624.812	205.75
625.019	206.75
625.226	206.75
625.433	225.75
625.639	228.75
625.846	225.75
626.053	231.75
626.259	220.75
626.466	220.75
626.673	221.75
626.879	182.75
627.086	224.75
627.293	218.75
627.499	206.75
627.706	221.75
627.912	206.75
628.119	206.75
628.325	216.75
628.532	191.75
628.738	212.75
628.945	200.75
629.151	211.75
629.357	201.75
629.564	205.75
629.77	208.75
629.976	221.75
630.183	214.75
630.389	205.75
630.595	210.75
630.802	210.75
631.008	200.75
631.214	212.75
631.42	202.75
631.627	197.75
631.833	196.75
632.039	196.75
632.245	187.75
632.451	193.75
632.657	192.75
632.863	193.75
633.069	196.75
633.275	192.75
633.481	203.75
633.688	210.75
633.893	208.75
634.099	181.75
634.305	184.75
634.511	190.75
634.717	210.75
634.923	190.75
635.129	195.75
635.335	192.75
635.541	193.75
635.747	191.75
635.952	183.75
636.158	197.75
636.364	177.75
636.57	184.75
636.775	191.75
636.981	185.75
637.187	201.75
637.392	192.75
637.598	191.75
637.804	184.75
638.009	197.75
638.215	197.75
638.421	188.75
638.626	190.75
638.832	181.75
639.037	178.75
639.243	187.75
639.448	185.75
639.654	176.75
639.859	190.75
640.065	170.75
640.27	190.75
640.475	174.75
640.681	186.75
640.886	172.75
641.091	178.75
641.297	179.75
641.502	163.75
641.707	169.75
641.913	182.75
642.118	174.75
642.323	172.75
642.528	173.75
642.733	160.75
642.939	169.75
643.144	174.75
643.349	172.75
643.554	168.75
643.759	184.75
643.964	180.75
644.169	186.75
644.374	171.75
644.579	178.75
644.784	174.75
644.989	166.75
645.194	156.75
645.399	160.75
645.604	174.75
645.809	170.75
646.014	167.75
646.219	179.75
646.423	171.75
646.628	176.75
646.833	176.75
647.038	168.75
647.243	184.75
647.447	179.75
647.652	181.75
647.857	194.75
648.062	169.75
648.266	174.75
648.471	157.75
648.676	184.75
648.88	178.75
649.085	192.75
649.289	189.75
649.494	178.75
649.698	190.75
649.903	190.75
650.107	176.75
650.312	171.75
650.516	171.75
650.721	174.75
650.925	163.75
651.13	148.75
651.334	151.75
651.539	150.75
651.743	148.75
651.947	141.75
652.152	153.75
652.356	150.75
652.56	151.75
652.764	147.75
652.969	137.75
653.173	126.75
653.377	142.75
653.581	138.75
653.785	156.75
653.99	140.75
654.194	141.75
654.398	145.75
654.602	144.75
654.806	143.75
655.01	155.75
655.214	147.75
655.418	135.75
655.622	137.75
655.826	143.75
656.03	145.75
656.234	131.75
656.438	144.75
656.642	154.75
656.846	146.75
657.049	130.75
657.253	117.75
657.457	112.75
657.661	126.75
657.865	114.75
658.068	126.75
658.272	114.75
658.476	114.75
658.68	107.75
658.883	110.75
659.087	96.75
659.291	94.75
659.494	103.75
659.698	94.75
659.901	92.75
660.105	93.75
660.309	98.75
660.512	90.75
660.716	106.75
660.919	93.75
661.123	90.75
661.326	100.75
661.53	96.75
661.733	81.75
661.936	77.75
662.14	84.75
662.343	96.75
662.546	97.75
662.75	89.75
662.953	85.75
663.156	69.75
663.36	70.75
663.563	85.75
663.766	84.75
663.969	76.75
664.173	88.75
664.376	88.75
664.579	84.75
664.782	82.75
664.985	76.75
665.188	80.75
665.391	80.75
665.594	81.75
665.797	73.75
666	93.75
666.203	90.75
666.406	92.75
666.609	90.75
666.812	78.75
667.015	80.75
667.218	77.75
667.421	97.75
667.624	85.75
667.827	82.75
668.03	77.75
668.232	78.75
668.435	72.75
668.638	88.75
668.841	83.75
669.043	86.75
669.246	67.75
669.449	76.75
669.651	84.75
669.854	86.75
670.057	77.75
670.259	74.75
670.462	77.75
670.665	91.75
670.867	97.75
671.07	80.75
671.272	102.75
671.475	95.75
671.677	75.75
671.88	76.75
672.082	79.75
672.284	83.75
672.487	84.75
672.689	74.75
672.892	74.75
