Data from 1979.PennyLincolnUp.Lamp.En5.5.200Scan.071719.P1_HRD10591_16-20-16-863.txt Node
Date: Thu Jul 18 16:20:16 EDT 2019
User: cochatt
Spectrometer: HR+D1059
Trigger mode: 1
Integration Time (sec): 1.000000E-1
Scans to average: 1
Electric dark correction enabled: true
Nonlinearity correction enabled: false
Boxcar width: 0
XAxis mode: Wavelengths
Number of Pixels in Spectrum: 2048
>>>>>Begin Spectral Data<<<<<
223.165	-22.25
223.4	-22.25
223.635	-22.25
223.869	-3.25
224.104	-24.25
224.338	-25.25
224.573	-8.25
224.808	-16.25
225.042	-1.25
225.277	-3.25
225.511	-13.25
225.746	4.75
225.98	17.75
226.215	4.75
226.449	0.75
226.683	24.75
226.918	32.75
227.152	31.75
227.387	25.75
227.621	55.75
227.856	36.75
228.09	43.75
228.324	38.75
228.559	57.75
228.793	57.75
229.027	99.75
229.262	94.75
229.496	104.75
229.73	122.75
229.964	157.75
230.199	117.75
230.433	111.75
230.667	117.75
230.901	107.75
231.136	108.75
231.37	97.75
231.604	111.75
231.838	106.75
232.072	110.75
232.306	128.75
232.541	122.75
232.775	110.75
233.009	109.75
233.243	117.75
233.477	115.75
233.711	128.75
233.945	125.75
234.179	118.75
234.413	135.75
234.647	120.75
234.881	133.75
235.115	116.75
235.349	107.75
235.583	115.75
235.817	123.75
236.051	124.75
236.285	133.75
236.519	115.75
236.753	121.75
236.987	133.75
237.221	181.75
237.455	225.75
237.689	177.75
237.922	144.75
238.156	133.75
238.39	127.75
238.624	125.75
238.858	140.75
239.091	117.75
239.325	111.75
239.559	123.75
239.793	130.75
240.027	140.75
240.26	145.75
240.494	154.75
240.728	145.75
240.961	146.75
241.195	144.75
241.429	138.75
241.662	126.75
241.896	133.75
242.13	133.75
242.363	126.75
242.597	147.75
242.83	146.75
243.064	127.75
243.298	123.75
243.531	151.75
243.765	137.75
243.998	142.75
244.232	136.75
244.465	143.75
244.699	132.75
244.932	139.75
245.166	160.75
245.399	149.75
245.633	145.75
245.866	152.75
246.099	149.75
246.333	140.75
246.566	145.75
246.8	144.75
247.033	151.75
247.266	157.75
247.5	160.75
247.733	163.75
247.966	176.75
248.2	177.75
248.433	169.75
248.666	174.75
248.899	167.75
249.133	190.75
249.366	207.75
249.599	191.75
249.832	200.75
250.066	177.75
250.299	175.75
250.532	192.75
250.765	201.75
250.998	202.75
251.231	218.75
251.465	215.75
251.698	200.75
251.931	191.75
252.164	184.75
252.397	209.75
252.63	196.75
252.863	194.75
253.096	206.75
253.329	199.75
253.562	212.75
253.795	206.75
254.028	203.75
254.261	198.75
254.494	201.75
254.727	245.75
254.96	259.75
255.193	272.75
255.426	228.75
255.659	220.75
255.892	208.75
256.124	219.75
256.357	225.75
256.59	223.75
256.823	205.75
257.056	230.75
257.289	216.75
257.521	215.75
257.754	202.75
257.987	211.75
258.22	213.75
258.452	214.75
258.685	193.75
258.918	215.75
259.151	196.75
259.383	198.75
259.616	206.75
259.849	216.75
260.081	216.75
260.314	258.75
260.547	253.75
260.779	228.75
261.012	219.75
261.244	226.75
261.477	226.75
261.71	233.75
261.942	232.75
262.175	244.75
262.407	231.75
262.64	205.75
262.872	223.75
263.105	215.75
263.337	224.75
263.57	213.75
263.802	213.75
264.035	221.75
264.267	224.75
264.499	216.75
264.732	211.75
264.964	207.75
265.197	189.75
265.429	216.75
265.661	208.75
265.894	216.75
266.126	210.75
266.358	213.75
266.591	230.75
266.823	212.75
267.055	211.75
267.287	221.75
267.52	212.75
267.752	216.75
267.984	235.75
268.216	231.75
268.448	236.75
268.681	236.75
268.913	231.75
269.145	254.75
269.377	265.75
269.609	249.75
269.841	253.75
270.073	267.75
270.306	269.75
270.538	271.75
270.77	281.75
271.002	289.75
271.234	298.75
271.466	289.75
271.698	280.75
271.93	308.75
272.162	296.75
272.394	284.75
272.626	297.75
272.858	262.75
273.09	259.75
273.322	252.75
273.553	237.75
273.785	237.75
274.017	262.75
274.249	239.75
274.481	229.75
274.713	248.75
274.945	275.75
275.176	259.75
275.408	265.75
275.64	268.75
275.872	249.75
276.104	263.75
276.335	261.75
276.567	263.75
276.799	276.75
277.031	282.75
277.262	292.75
277.494	307.75
277.726	276.75
277.957	271.75
278.189	264.75
278.421	266.75
278.652	256.75
278.884	277.75
279.115	286.75
279.347	275.75
279.579	260.75
279.81	260.75
280.042	263.75
280.273	267.75
280.505	273.75
280.736	260.75
280.968	254.75
281.199	259.75
281.431	256.75
281.662	261.75
281.894	266.75
282.125	258.75
282.356	254.75
282.588	294.75
282.819	301.75
283.051	278.75
283.282	267.75
283.513	267.75
283.745	256.75
283.976	272.75
284.207	281.75
284.439	275.75
284.67	279.75
284.901	283.75
285.132	284.75
285.364	269.75
285.595	260.75
285.826	279.75
286.057	283.75
286.288	268.75
286.52	269.75
286.751	287.75
286.982	296.75
287.213	256.75
287.444	268.75
287.675	281.75
287.906	272.75
288.138	283.75
288.369	281.75
288.6	292.75
288.831	284.75
289.062	282.75
289.293	280.75
289.524	278.75
289.755	284.75
289.986	293.75
290.217	287.75
290.448	288.75
290.679	293.75
290.91	292.75
291.141	281.75
291.371	291.75
291.602	280.75
291.833	280.75
292.064	295.75
292.295	300.75
292.526	303.75
292.757	293.75
292.987	299.75
293.218	285.75
293.449	275.75
293.68	296.75
293.91	281.75
294.141	277.75
294.372	288.75
294.603	295.75
294.833	319.75
295.064	302.75
295.295	291.75
295.525	275.75
295.756	296.75
295.987	313.75
296.217	313.75
296.448	326.75
296.679	311.75
296.909	300.75
297.14	309.75
297.37	308.75
297.601	306.75
297.831	296.75
298.062	289.75
298.292	318.75
298.523	318.75
298.753	310.75
298.984	295.75
299.214	319.75
299.445	298.75
299.675	303.75
299.905	309.75
300.136	299.75
300.366	314.75
300.597	315.75
300.827	323.75
301.057	317.75
301.288	331.75
301.518	320.75
301.748	331.75
301.979	331.75
302.209	319.75
302.439	332.75
302.669	315.75
302.9	319.75
303.13	311.75
303.36	327.75
303.59	330.75
303.82	344.75
304.051	331.75
304.281	315.75
304.511	336.75
304.741	334.75
304.971	323.75
305.201	331.75
305.431	332.75
305.661	320.75
305.891	320.75
306.121	318.75
306.352	321.75
306.582	328.75
306.812	328.75
307.042	323.75
307.272	317.75
307.502	313.75
307.731	320.75
307.961	324.75
308.191	324.75
308.421	320.75
308.651	313.75
308.881	335.75
309.111	330.75
309.341	335.75
309.571	350.75
309.8	359.75
310.03	369.75
310.26	350.75
310.49	358.75
310.72	364.75
310.949	366.75
311.179	394.75
311.409	352.75
311.639	371.75
311.868	381.75
312.098	374.75
312.328	355.75
312.557	383.75
312.787	379.75
313.017	392.75
313.246	373.75
313.476	382.75
313.706	377.75
313.935	362.75
314.165	385.75
314.394	401.75
314.624	394.75
314.853	396.75
315.083	388.75
315.312	366.75
315.542	365.75
315.771	355.75
316.001	346.75
316.23	380.75
316.46	368.75
316.689	365.75
316.919	368.75
317.148	384.75
317.377	373.75
317.607	403.75
317.836	389.75
318.065	380.75
318.295	374.75
318.524	366.75
318.753	368.75
318.983	379.75
319.212	359.75
319.441	387.75
319.67	387.75
319.9	376.75
320.129	362.75
320.358	379.75
320.587	387.75
320.816	380.75
321.046	409.75
321.275	389.75
321.504	394.75
321.733	407.75
321.962	402.75
322.191	391.75
322.42	421.75
322.649	420.75
322.878	446.75
323.108	423.75
323.337	471.75
323.566	478.75
323.795	489.75
324.024	548.75
324.253	639.75
324.482	927.75
324.71	1477.75
324.939	2148.75
325.168	1867.75
325.397	931.75
325.626	599.75
325.855	528.75
326.084	471.75
326.313	502.75
326.542	498.75
326.77	532.75
326.999	624.75
327.228	833.75
327.457	1325.75
327.686	1648.75
327.914	1038.75
328.143	674.75
328.372	581.75
328.6	577.75
328.829	543.75
329.058	555.75
329.287	550.75
329.515	537.75
329.744	502.75
329.972	492.75
330.201	498.75
330.43	549.75
330.658	540.75
330.887	593.75
331.115	577.75
331.344	519.75
331.572	499.75
331.801	495.75
332.03	494.75
332.258	476.75
332.486	456.75
332.715	455.75
332.943	472.75
333.172	466.75
333.4	467.75
333.629	467.75
333.857	486.75
334.085	496.75
334.314	495.75
334.542	540.75
334.771	576.75
334.999	504.75
335.227	490.75
335.455	483.75
335.684	477.75
335.912	467.75
336.14	445.75
336.369	444.75
336.597	469.75
336.825	471.75
337.053	463.75
337.281	453.75
337.51	435.75
337.738	445.75
337.966	447.75
338.194	456.75
338.422	454.75
338.65	445.75
338.878	424.75
339.106	435.75
339.334	439.75
339.562	410.75
339.79	431.75
340.018	447.75
340.246	431.75
340.474	441.75
340.702	432.75
340.93	442.75
341.158	436.75
341.386	432.75
341.614	442.75
341.842	433.75
342.07	427.75
342.298	441.75
342.526	424.75
342.754	408.75
342.981	422.75
343.209	409.75
343.437	422.75
343.665	422.75
343.893	448.75
344.12	441.75
344.348	462.75
344.576	443.75
344.804	437.75
345.031	470.75
345.259	446.75
345.487	457.75
345.714	430.75
345.942	411.75
346.17	405.75
346.397	425.75
346.625	398.75
346.853	412.75
347.08	407.75
347.308	416.75
347.535	407.75
347.763	440.75
347.99	446.75
348.218	432.75
348.445	448.75
348.673	447.75
348.9	427.75
349.128	413.75
349.355	413.75
349.583	400.75
349.81	392.75
350.037	401.75
350.265	403.75
350.492	416.75
350.72	411.75
350.947	421.75
351.174	403.75
351.402	415.75
351.629	430.75
351.856	429.75
352.083	448.75
352.311	419.75
352.538	430.75
352.765	440.75
352.992	422.75
353.22	403.75
353.447	422.75
353.674	405.75
353.901	381.75
354.128	432.75
354.355	398.75
354.583	399.75
354.81	411.75
355.037	409.75
355.264	379.75
355.491	392.75
355.718	385.75
355.945	396.75
356.172	379.75
356.399	388.75
356.626	371.75
356.853	381.75
357.08	391.75
357.307	387.75
357.534	392.75
357.761	373.75
357.988	401.75
358.215	390.75
358.441	382.75
358.668	386.75
358.895	390.75
359.122	421.75
359.349	397.75
359.576	420.75
359.802	449.75
360.029	438.75
360.256	483.75
360.483	477.75
360.709	444.75
360.936	420.75
361.163	407.75
361.39	438.75
361.616	429.75
361.843	424.75
362.07	419.75
362.296	414.75
362.523	429.75
362.749	420.75
362.976	421.75
363.203	396.75
363.429	411.75
363.656	405.75
363.882	407.75
364.109	417.75
364.335	407.75
364.562	400.75
364.788	398.75
365.015	390.75
365.241	387.75
365.468	423.75
365.694	412.75
365.92	429.75
366.147	402.75
366.373	403.75
366.599	425.75
366.826	407.75
367.052	412.75
367.278	397.75
367.505	382.75
367.731	399.75
367.957	405.75
368.184	397.75
368.41	413.75
368.636	445.75
368.862	444.75
369.089	413.75
369.315	405.75
369.541	419.75
369.767	402.75
369.993	408.75
370.219	419.75
370.445	421.75
370.672	408.75
370.898	401.75
371.124	407.75
371.35	409.75
371.576	389.75
371.802	416.75
372.028	445.75
372.254	414.75
372.48	428.75
372.706	428.75
372.932	423.75
373.158	418.75
373.384	437.75
373.61	421.75
373.835	418.75
374.061	413.75
374.287	431.75
374.513	425.75
374.739	427.75
374.965	412.75
375.191	413.75
375.416	427.75
375.642	419.75
375.868	407.75
376.094	416.75
376.319	428.75
376.545	412.75
376.771	433.75
376.997	408.75
377.222	401.75
377.448	416.75
377.674	411.75
377.899	417.75
378.125	419.75
378.35	412.75
378.576	410.75
378.802	412.75
379.027	394.75
379.253	419.75
379.478	431.75
379.704	417.75
379.929	416.75
380.155	418.75
380.38	417.75
380.606	423.75
380.831	428.75
381.057	424.75
381.282	422.75
381.507	411.75
381.733	414.75
381.958	425.75
382.184	419.75
382.409	427.75
382.634	428.75
382.86	445.75
383.085	433.75
383.31	439.75
383.535	443.75
383.761	415.75
383.986	431.75
384.211	449.75
384.436	438.75
384.662	448.75
384.887	463.75
385.112	452.75
385.337	463.75
385.562	453.75
385.787	441.75
386.013	460.75
386.238	447.75
386.463	484.75
386.688	475.75
386.913	459.75
387.138	466.75
387.363	472.75
387.588	455.75
387.813	456.75
388.038	476.75
388.263	469.75
388.488	473.75
388.713	464.75
388.938	470.75
389.163	464.75
389.387	464.75
389.612	456.75
389.837	473.75
390.062	445.75
390.287	459.75
390.512	449.75
390.736	472.75
390.961	457.75
391.186	455.75
391.411	482.75
391.636	477.75
391.86	487.75
392.085	493.75
392.31	474.75
392.534	475.75
392.759	487.75
392.984	461.75
393.208	470.75
393.433	469.75
393.658	479.75
393.882	472.75
394.107	483.75
394.331	483.75
394.556	474.75
394.78	489.75
395.005	488.75
395.229	476.75
395.454	479.75
395.678	488.75
395.903	508.75
396.127	492.75
396.352	534.75
396.576	509.75
396.801	474.75
397.025	478.75
397.249	493.75
397.474	495.75
397.698	523.75
397.922	547.75
398.147	528.75
398.371	533.75
398.595	550.75
398.82	542.75
399.044	562.75
399.268	576.75
399.492	613.75
399.717	669.75
399.941	659.75
400.165	656.75
400.389	693.75
400.613	617.75
400.837	607.75
401.062	562.75
401.286	555.75
401.51	567.75
401.734	557.75
401.958	564.75
402.182	571.75
402.406	572.75
402.63	593.75
402.854	568.75
403.078	571.75
403.302	581.75
403.526	588.75
403.75	589.75
403.974	591.75
404.198	561.75
404.422	618.75
404.645	594.75
404.869	581.75
405.093	630.75
405.317	665.75
405.541	687.75
405.765	638.75
405.988	609.75
406.212	616.75
406.436	638.75
406.66	673.75
406.883	639.75
407.107	644.75
407.331	694.75
407.555	743.75
407.778	782.75
408.002	702.75
408.226	651.75
408.449	645.75
408.673	631.75
408.896	657.75
409.12	715.75
409.344	649.75
409.567	592.75
409.791	589.75
410.014	591.75
410.238	573.75
410.461	595.75
410.685	573.75
410.908	600.75
411.132	639.75
411.355	666.75
411.578	637.75
411.802	587.75
412.025	559.75
412.249	608.75
412.472	624.75
412.695	633.75
412.919	620.75
413.142	611.75
413.365	550.75
413.589	565.75
413.812	567.75
414.035	566.75
414.258	548.75
414.482	550.75
414.705	554.75
414.928	573.75
415.151	557.75
415.374	533.75
415.597	549.75
415.821	539.75
416.044	556.75
416.267	545.75
416.49	536.75
416.713	564.75
416.936	548.75
417.159	551.75
417.382	555.75
417.605	543.75
417.828	556.75
418.051	582.75
418.274	567.75
418.497	555.75
418.72	569.75
418.943	539.75
419.166	585.75
419.389	579.75
419.611	607.75
419.834	608.75
420.057	589.75
420.28	596.75
420.503	585.75
420.726	570.75
420.948	597.75
421.171	617.75
421.394	663.75
421.617	592.75
421.839	575.75
422.062	579.75
422.285	584.75
422.507	660.75
422.73	718.75
422.953	666.75
423.175	615.75
423.398	594.75
423.621	594.75
423.843	611.75
424.066	604.75
424.288	592.75
424.511	622.75
424.733	680.75
424.956	755.75
425.178	716.75
425.401	701.75
425.623	742.75
425.846	659.75
426.068	626.75
426.291	593.75
426.513	599.75
426.735	613.75
426.958	642.75
427.18	735.75
427.402	896.75
427.625	952.75
427.847	813.75
428.069	731.75
428.292	636.75
428.514	597.75
428.736	581.75
428.958	581.75
429.181	558.75
429.403	545.75
429.625	564.75
429.847	595.75
430.069	666.75
430.292	664.75
430.514	595.75
430.736	584.75
430.958	547.75
431.18	539.75
431.402	550.75
431.624	535.75
431.846	515.75
432.068	527.75
432.29	532.75
432.512	521.75
432.734	559.75
432.956	559.75
433.178	533.75
433.4	557.75
433.622	535.75
433.844	526.75
434.066	540.75
434.287	554.75
434.509	564.75
434.731	568.75
434.953	544.75
435.175	594.75
435.397	603.75
435.618	604.75
435.84	648.75
436.062	714.75
436.284	793.75
436.505	688.75
436.727	629.75
436.949	574.75
437.17	547.75
437.392	550.75
437.614	580.75
437.835	602.75
438.057	682.75
438.278	786.75
438.5	783.75
438.721	848.75
438.943	854.75
439.165	674.75
439.386	615.75
439.608	608.75
439.829	619.75
440.05	651.75
440.272	672.75
440.493	639.75
440.715	596.75
440.936	566.75
441.158	560.75
441.379	582.75
441.6	580.75
441.822	596.75
442.043	672.75
442.264	738.75
442.486	755.75
442.707	651.75
442.928	615.75
443.149	620.75
443.371	671.75
443.592	703.75
443.813	804.75
444.034	825.75
444.255	705.75
444.476	636.75
444.698	595.75
444.919	614.75
445.14	700.75
445.361	670.75
445.582	661.75
445.803	689.75
446.024	805.75
446.245	829.75
446.466	773.75
446.687	643.75
446.908	597.75
447.129	552.75
447.35	560.75
447.571	554.75
447.792	551.75
448.013	562.75
448.234	565.75
448.455	605.75
448.675	725.75
448.896	817.75
449.117	699.75
449.338	693.75
449.559	805.75
449.779	899.75
450	707.75
450.221	613.75
450.442	572.75
450.662	536.75
450.883	539.75
451.104	569.75
451.324	556.75
451.545	528.75
451.766	524.75
451.986	507.75
452.207	488.75
452.428	501.75
452.648	513.75
452.869	502.75
453.089	521.75
453.31	518.75
453.53	506.75
453.751	495.75
453.971	494.75
454.192	525.75
454.412	506.75
454.633	485.75
454.853	500.75
455.073	505.75
455.294	520.75
455.514	558.75
455.734	552.75
455.955	511.75
456.175	488.75
456.395	477.75
456.616	478.75
456.836	484.75
457.056	497.75
457.276	475.75
457.497	488.75
457.717	480.75
457.937	482.75
458.157	491.75
458.377	485.75
458.598	518.75
458.818	565.75
459.038	658.75
459.258	655.75
459.478	581.75
459.698	555.75
459.918	535.75
460.138	545.75
460.358	555.75
460.578	535.75
460.798	574.75
461.018	587.75
461.238	579.75
461.458	564.75
461.678	551.75
461.898	569.75
462.118	551.75
462.338	560.75
462.558	585.75
462.777	604.75
462.997	608.75
463.217	632.75
463.437	633.75
463.657	607.75
463.876	603.75
464.096	616.75
464.316	592.75
464.536	593.75
464.755	627.75
464.975	609.75
465.195	640.75
465.414	694.75
465.634	621.75
465.854	587.75
466.073	560.75
466.293	543.75
466.512	523.75
466.732	523.75
466.951	528.75
467.171	515.75
467.391	543.75
467.61	558.75
467.829	542.75
468.049	542.75
468.268	530.75
468.488	519.75
468.707	507.75
468.927	520.75
469.146	500.75
469.365	511.75
469.585	501.75
469.804	514.75
470.023	543.75
470.243	521.75
470.462	529.75
470.681	558.75
470.901	559.75
471.12	536.75
471.339	523.75
471.558	546.75
471.777	509.75
471.997	513.75
472.216	522.75
472.435	555.75
472.654	573.75
472.873	541.75
473.092	517.75
473.311	522.75
473.53	519.75
473.749	535.75
473.968	566.75
474.187	667.75
474.406	706.75
474.625	582.75
474.844	552.75
475.063	537.75
475.282	542.75
475.501	508.75
475.72	541.75
475.939	555.75
476.158	537.75
476.377	529.75
476.596	546.75
476.814	559.75
477.033	575.75
477.252	547.75
477.471	530.75
477.69	579.75
477.908	571.75
478.127	576.75
478.346	585.75
478.564	603.75
478.783	589.75
479.002	595.75
479.22	618.75
479.439	622.75
479.658	633.75
479.876	627.75
480.095	650.75
480.313	658.75
480.532	654.75
480.751	670.75
480.969	647.75
481.188	700.75
481.406	747.75
481.624	683.75
481.843	637.75
482.061	616.75
482.28	624.75
482.498	592.75
482.717	613.75
482.935	611.75
483.153	618.75
483.372	576.75
483.59	620.75
483.808	620.75
484.027	604.75
484.245	619.75
484.463	625.75
484.681	630.75
484.9	637.75
485.118	615.75
485.336	626.75
485.554	647.75
485.772	665.75
485.99	630.75
486.209	611.75
486.427	609.75
486.645	653.75
486.863	661.75
487.081	656.75
487.299	657.75
487.517	653.75
487.735	663.75
487.953	676.75
488.171	653.75
488.389	653.75
488.607	651.75
488.825	639.75
489.043	663.75
489.261	684.75
489.479	680.75
489.696	645.75
489.914	655.75
490.132	695.75
490.35	679.75
490.568	709.75
490.786	696.75
491.003	691.75
491.221	731.75
491.439	739.75
491.657	732.75
491.874	748.75
492.092	740.75
492.31	782.75
492.527	743.75
492.745	763.75
492.963	739.75
493.18	753.75
493.398	794.75
493.615	787.75
493.833	764.75
494.05	752.75
494.268	746.75
494.485	749.75
494.703	766.75
494.92	752.75
495.138	760.75
495.355	756.75
495.573	793.75
495.79	795.75
496.008	803.75
496.225	789.75
496.442	791.75
496.66	750.75
496.877	775.75
497.094	811.75
497.312	812.75
497.529	783.75
497.746	826.75
497.963	815.75
498.181	890.75
498.398	855.75
498.615	885.75
498.832	910.75
499.049	943.75
499.267	957.75
499.484	985.75
499.701	1029.75
499.918	1068.75
500.135	1124.75
500.352	1194.75
500.569	1219.75
500.786	1224.75
501.003	1185.75
501.22	1133.75
501.437	1093.75
501.654	1061.75
501.871	1037.75
502.088	995.75
502.305	961.75
502.522	936.75
502.739	907.75
502.956	879.75
503.172	860.75
503.389	844.75
503.606	814.75
503.823	839.75
504.04	815.75
504.256	810.75
504.473	769.75
504.69	810.75
504.907	800.75
505.123	777.75
505.34	789.75
505.557	761.75
505.773	781.75
505.99	734.75
506.207	717.75
506.423	771.75
506.64	750.75
506.856	726.75
507.073	716.75
507.289	725.75
507.506	710.75
507.722	710.75
507.939	714.75
508.155	724.75
508.372	689.75
508.588	684.75
508.805	695.75
509.021	680.75
509.238	703.75
509.454	713.75
509.67	673.75
509.887	663.75
510.103	694.75
510.319	668.75
510.536	790.75
510.752	1269.75
510.968	1081.75
511.184	723.75
511.401	703.75
511.617	677.75
511.833	669.75
512.049	643.75
512.265	677.75
512.481	658.75
512.698	650.75
512.914	651.75
513.13	675.75
513.346	663.75
513.562	629.75
513.778	642.75
513.994	647.75
514.21	661.75
514.426	706.75
514.642	709.75
514.858	741.75
515.074	806.75
515.29	916.75
515.506	1333.75
515.721	1116.75
515.937	815.75
516.153	727.75
516.369	712.75
516.585	717.75
516.801	715.75
517.016	700.75
517.232	710.75
517.448	725.75
517.664	726.75
517.879	732.75
518.095	707.75
518.311	694.75
518.527	685.75
518.742	681.75
518.958	675.75
519.173	660.75
519.389	656.75
519.605	662.75
519.82	687.75
520.036	672.75
520.251	698.75
520.467	728.75
520.682	696.75
520.898	709.75
521.113	747.75
521.329	767.75
521.544	866.75
521.76	1039.75
521.975	1693.75
522.19	1694.75
522.406	927.75
522.621	739.75
522.836	672.75
523.052	656.75
523.267	643.75
523.482	606.75
523.698	614.75
523.913	635.75
524.128	613.75
524.343	596.75
524.559	579.75
524.774	571.75
524.989	587.75
525.204	577.75
525.419	589.75
525.634	559.75
525.849	565.75
526.064	587.75
526.28	544.75
526.495	557.75
526.71	567.75
526.925	563.75
527.14	560.75
527.355	547.75
527.57	556.75
527.785	557.75
527.999	537.75
528.214	555.75
528.429	549.75
528.644	557.75
528.859	547.75
529.074	555.75
529.289	577.75
529.503	665.75
529.718	629.75
529.933	598.75
530.148	567.75
530.363	572.75
530.577	538.75
530.792	548.75
531.007	537.75
531.221	553.75
531.436	523.75
531.651	541.75
531.865	555.75
532.08	530.75
532.295	545.75
532.509	529.75
532.724	505.75
532.938	515.75
533.153	520.75
533.367	534.75
533.582	523.75
533.796	525.75
534.011	541.75
534.225	515.75
534.44	533.75
534.654	526.75
534.868	527.75
535.083	500.75
535.297	509.75
535.511	502.75
535.726	523.75
535.94	525.75
536.154	556.75
536.369	519.75
536.583	512.75
536.797	504.75
537.011	513.75
537.225	539.75
537.44	523.75
537.654	509.75
537.868	493.75
538.082	522.75
538.296	500.75
538.51	515.75
538.724	521.75
538.938	521.75
539.153	504.75
539.367	523.75
539.581	536.75
539.795	529.75
540.009	495.75
540.222	495.75
540.436	502.75
540.65	505.75
540.864	491.75
541.078	543.75
541.292	495.75
541.506	519.75
541.72	495.75
541.934	501.75
542.147	501.75
542.361	495.75
542.575	482.75
542.789	497.75
543.002	503.75
543.216	508.75
543.43	504.75
543.644	491.75
543.857	457.75
544.071	494.75
544.285	507.75
544.498	499.75
544.712	522.75
544.925	525.75
545.139	501.75
545.352	475.75
545.566	478.75
545.779	493.75
545.993	479.75
546.206	499.75
546.42	514.75
546.633	488.75
546.847	494.75
547.06	475.75
547.274	503.75
547.487	473.75
547.7	485.75
547.914	479.75
548.127	495.75
548.34	482.75
548.554	477.75
548.767	497.75
548.98	494.75
549.193	499.75
549.407	477.75
549.62	490.75
549.833	503.75
550.046	486.75
550.259	483.75
550.473	480.75
550.686	484.75
550.899	478.75
551.112	497.75
551.325	504.75
551.538	485.75
551.751	472.75
551.964	488.75
552.177	493.75
552.39	488.75
552.603	485.75
552.816	496.75
553.029	488.75
553.242	496.75
553.455	501.75
553.667	516.75
553.88	516.75
554.093	523.75
554.306	496.75
554.519	495.75
554.732	469.75
554.944	457.75
555.157	490.75
555.37	469.75
555.583	471.75
555.795	461.75
556.008	456.75
556.221	471.75
556.433	439.75
556.646	428.75
556.859	444.75
557.071	449.75
557.284	443.75
557.496	435.75
557.709	432.75
557.921	440.75
558.134	446.75
558.346	443.75
558.559	463.75
558.771	435.75
558.984	441.75
559.196	439.75
559.409	439.75
559.621	455.75
559.833	430.75
560.046	430.75
560.258	425.75
560.47	436.75
560.683	449.75
560.895	415.75
561.107	438.75
561.32	429.75
561.532	429.75
561.744	433.75
561.956	413.75
562.168	430.75
562.381	432.75
562.593	427.75
562.805	432.75
563.017	423.75
563.229	403.75
563.441	424.75
563.653	451.75
563.865	442.75
564.077	461.75
564.289	460.75
564.501	462.75
564.713	454.75
564.925	464.75
565.137	477.75
565.349	485.75
565.561	481.75
565.773	479.75
565.985	488.75
566.197	483.75
566.408	517.75
566.62	528.75
566.832	544.75
567.044	571.75
567.255	553.75
567.467	559.75
567.679	573.75
567.891	603.75
568.102	593.75
568.314	574.75
568.526	557.75
568.737	544.75
568.949	511.75
569.161	480.75
569.372	470.75
569.584	466.75
569.795	485.75
570.007	452.75
570.218	473.75
570.43	457.75
570.641	440.75
570.853	432.75
571.064	417.75
571.276	399.75
571.487	415.75
571.698	418.75
571.91	425.75
572.121	396.75
572.333	400.75
572.544	388.75
572.755	391.75
572.966	383.75
573.178	376.75
573.389	379.75
573.6	374.75
573.811	383.75
574.023	380.75
574.234	366.75
574.445	380.75
574.656	399.75
574.867	368.75
575.078	367.75
575.289	371.75
575.501	358.75
575.712	353.75
575.923	361.75
576.134	379.75
576.345	362.75
576.556	352.75
576.767	360.75
576.978	363.75
577.188	346.75
577.399	336.75
577.61	363.75
577.821	336.75
578.032	362.75
578.243	403.75
578.454	593.75
578.665	435.75
578.875	377.75
579.086	356.75
579.297	344.75
579.508	341.75
579.718	329.75
579.929	358.75
580.14	343.75
580.35	350.75
580.561	334.75
580.772	347.75
580.982	311.75
581.193	337.75
581.403	344.75
581.614	328.75
581.825	336.75
582.035	339.75
582.246	339.75
582.456	334.75
582.667	346.75
582.877	353.75
583.087	331.75
583.298	316.75
583.508	325.75
583.719	314.75
583.929	347.75
584.139	320.75
584.35	313.75
584.56	342.75
584.77	332.75
584.981	337.75
585.191	341.75
585.401	336.75
585.611	331.75
585.821	327.75
586.032	333.75
586.242	322.75
586.452	332.75
586.662	322.75
586.872	338.75
587.082	325.75
587.292	329.75
587.502	319.75
587.713	337.75
587.923	334.75
588.133	333.75
588.343	342.75
588.553	316.75
588.762	331.75
588.972	332.75
589.182	334.75
589.392	330.75
589.602	330.75
589.812	329.75
590.022	347.75
590.232	321.75
590.441	304.75
590.651	311.75
590.861	325.75
591.071	332.75
591.281	352.75
591.49	335.75
591.7	328.75
591.91	328.75
592.119	337.75
592.329	346.75
592.539	352.75
592.748	352.75
592.958	331.75
593.167	348.75
593.377	357.75
593.587	353.75
593.796	352.75
594.006	353.75
594.215	357.75
594.424	359.75
594.634	350.75
594.843	342.75
595.053	338.75
595.262	335.75
595.472	327.75
595.681	327.75
595.89	344.75
596.1	310.75
596.309	318.75
596.518	294.75
596.727	320.75
596.937	293.75
597.146	314.75
597.355	292.75
597.564	298.75
597.774	294.75
597.983	292.75
598.192	312.75
598.401	312.75
598.61	295.75
598.819	298.75
599.028	301.75
599.237	314.75
599.446	303.75
599.655	289.75
599.864	297.75
600.073	284.75
600.282	280.75
600.491	292.75
600.7	273.75
600.909	295.75
601.118	281.75
601.327	279.75
601.536	301.75
601.745	294.75
601.953	297.75
602.162	276.75
602.371	272.75
602.58	249.75
602.789	264.75
602.997	291.75
603.206	286.75
603.415	293.75
603.623	282.75
603.832	276.75
604.041	287.75
604.249	279.75
604.458	282.75
604.666	261.75
604.875	244.75
605.084	288.75
605.292	280.75
605.501	282.75
605.709	266.75
605.918	278.75
606.126	269.75
606.334	276.75
606.543	267.75
606.751	264.75
606.96	275.75
607.168	258.75
607.376	269.75
607.585	252.75
607.793	256.75
608.001	271.75
608.21	270.75
608.418	252.75
608.626	262.75
608.834	267.75
609.043	246.75
609.251	267.75
609.459	254.75
609.667	265.75
609.875	250.75
610.083	254.75
610.291	248.75
610.499	270.75
610.707	271.75
610.916	276.75
611.124	272.75
611.332	278.75
611.54	292.75
611.748	262.75
611.955	258.75
612.163	267.75
612.371	262.75
612.579	245.75
612.787	250.75
612.995	270.75
613.203	265.75
613.411	270.75
613.618	251.75
613.826	248.75
614.034	275.75
614.242	268.75
614.449	252.75
614.657	263.75
614.865	261.75
615.072	253.75
615.28	240.75
615.488	275.75
615.695	252.75
615.903	266.75
616.111	251.75
616.318	266.75
616.526	263.75
616.733	261.75
616.941	252.75
617.148	244.75
617.356	258.75
617.563	255.75
617.771	265.75
617.978	262.75
618.185	260.75
618.393	254.75
618.6	236.75
618.807	265.75
619.015	255.75
619.222	262.75
619.429	243.75
619.637	233.75
619.844	246.75
620.051	253.75
620.258	252.75
620.466	229.75
620.673	244.75
620.88	256.75
621.087	231.75
621.294	248.75
621.501	246.75
621.708	246.75
621.915	231.75
622.122	250.75
622.329	242.75
622.536	238.75
622.743	231.75
622.95	208.75
623.157	226.75
623.364	248.75
623.571	238.75
623.778	259.75
623.985	248.75
624.192	232.75
624.399	224.75
624.606	230.75
624.812	232.75
625.019	232.75
625.226	229.75
625.433	231.75
625.639	222.75
625.846	218.75
626.053	227.75
626.259	221.75
626.466	209.75
626.673	239.75
626.879	228.75
627.086	207.75
627.293	220.75
627.499	201.75
627.706	218.75
627.912	225.75
628.119	216.75
628.325	241.75
628.532	209.75
628.738	213.75
628.945	215.75
629.151	213.75
629.357	221.75
629.564	192.75
629.77	227.75
629.976	208.75
630.183	216.75
630.389	206.75
630.595	208.75
630.802	216.75
631.008	195.75
631.214	195.75
631.42	194.75
631.627	207.75
631.833	220.75
632.039	203.75
632.245	182.75
632.451	204.75
632.657	188.75
632.863	209.75
633.069	207.75
633.275	201.75
633.481	205.75
633.688	205.75
633.893	217.75
634.099	208.75
634.305	199.75
634.511	190.75
634.717	203.75
634.923	188.75
635.129	202.75
635.335	190.75
635.541	192.75
635.747	210.75
635.952	201.75
636.158	208.75
636.364	201.75
636.57	217.75
636.775	197.75
636.981	197.75
637.187	182.75
637.392	200.75
637.598	187.75
637.804	195.75
638.009	195.75
638.215	174.75
638.421	171.75
638.626	170.75
638.832	168.75
639.037	176.75
639.243	200.75
639.448	185.75
639.654	189.75
639.859	177.75
640.065	176.75
640.27	184.75
640.475	185.75
640.681	181.75
640.886	197.75
641.091	184.75
641.297	188.75
641.502	185.75
641.707	175.75
641.913	169.75
642.118	168.75
642.323	171.75
642.528	180.75
642.733	182.75
642.939	173.75
643.144	181.75
643.349	191.75
643.554	167.75
643.759	179.75
643.964	168.75
644.169	174.75
644.374	187.75
644.579	173.75
644.784	192.75
644.989	172.75
645.194	170.75
645.399	168.75
645.604	187.75
645.809	179.75
646.014	182.75
646.219	188.75
646.423	181.75
646.628	188.75
646.833	187.75
647.038	189.75
647.243	170.75
647.447	165.75
647.652	151.75
647.857	172.75
648.062	187.75
648.266	180.75
648.471	189.75
648.676	168.75
648.88	183.75
649.085	186.75
649.289	195.75
649.494	180.75
649.698	204.75
649.903	195.75
650.107	191.75
650.312	198.75
650.516	181.75
650.721	163.75
650.925	160.75
651.13	162.75
651.334	160.75
651.539	166.75
651.743	160.75
651.947	153.75
652.152	171.75
652.356	159.75
652.56	153.75
652.764	152.75
652.969	163.75
653.173	158.75
653.377	158.75
653.581	135.75
653.785	131.75
653.99	141.75
654.194	159.75
654.398	138.75
654.602	139.75
654.806	132.75
655.01	136.75
655.214	161.75
655.418	139.75
655.622	139.75
655.826	138.75
656.03	144.75
656.234	138.75
656.438	145.75
656.642	152.75
656.846	146.75
657.049	132.75
657.253	127.75
657.457	125.75
657.661	131.75
657.865	126.75
658.068	119.75
658.272	127.75
658.476	100.75
658.68	108.75
658.883	118.75
659.087	109.75
659.291	109.75
659.494	100.75
659.698	107.75
659.901	89.75
660.105	101.75
660.309	104.75
660.512	96.75
660.716	105.75
660.919	89.75
661.123	111.75
661.326	111.75
661.53	92.75
661.733	77.75
661.936	94.75
662.14	93.75
662.343	89.75
662.546	83.75
662.75	106.75
662.953	97.75
663.156	102.75
663.36	98.75
663.563	89.75
663.766	95.75
663.969	88.75
664.173	96.75
664.376	98.75
664.579	84.75
664.782	87.75
664.985	78.75
665.188	86.75
665.391	81.75
665.594	93.75
665.797	89.75
666	86.75
666.203	83.75
666.406	91.75
666.609	83.75
666.812	93.75
667.015	92.75
667.218	84.75
667.421	77.75
667.624	92.75
667.827	105.75
668.03	85.75
668.232	80.75
668.435	85.75
668.638	79.75
668.841	89.75
669.043	85.75
669.246	89.75
669.449	80.75
669.651	92.75
669.854	75.75
670.057	79.75
670.259	90.75
670.462	96.75
670.665	79.75
670.867	95.75
671.07	81.75
671.272	87.75
671.475	88.75
671.677	92.75
671.88	88.75
672.082	63.75
672.284	83.75
672.487	88.75
672.689	90.75
672.892	84.75
