Data from 1979.PennyLincolnUp.Lamp.En5.5.200Scan.071719.P1_HRD10591_16-19-58-863.txt Node
Date: Thu Jul 18 16:19:58 EDT 2019
User: cochatt
Spectrometer: HR+D1059
Trigger mode: 1
Integration Time (sec): 1.000000E-1
Scans to average: 1
Electric dark correction enabled: true
Nonlinearity correction enabled: false
Boxcar width: 0
XAxis mode: Wavelengths
Number of Pixels in Spectrum: 2048
>>>>>Begin Spectral Data<<<<<
223.165	-9.12
223.4	-9.12
223.635	-9.12
223.869	-16.12
224.104	-21.12
224.338	-9.12
224.573	-16.12
224.808	-16.12
225.042	-3.12
225.277	-0.12
225.511	-3.12
225.746	-7.12
225.98	0.88
226.215	11.88
226.449	15.88
226.683	20.88
226.918	27.88
227.152	23.88
227.387	27.88
227.621	35.88
227.856	30.88
228.09	47.88
228.324	55.88
228.559	56.88
228.793	63.88
229.027	104.88
229.262	93.88
229.496	111.88
229.73	125.88
229.964	139.88
230.199	122.88
230.433	111.88
230.667	119.88
230.901	104.88
231.136	111.88
231.37	108.88
231.604	96.88
231.838	114.88
232.072	110.88
232.306	110.88
232.541	104.88
232.775	109.88
233.009	106.88
233.243	138.88
233.477	125.88
233.711	116.88
233.945	118.88
234.179	110.88
234.413	121.88
234.647	114.88
234.881	111.88
235.115	107.88
235.349	111.88
235.583	127.88
235.817	118.88
236.051	138.88
236.285	144.88
236.519	133.88
236.753	136.88
236.987	138.88
237.221	170.88
237.455	230.88
237.689	169.88
237.922	135.88
238.156	127.88
238.39	144.88
238.624	132.88
238.858	120.88
239.091	133.88
239.325	125.88
239.559	121.88
239.793	126.88
240.027	143.88
240.26	149.88
240.494	155.88
240.728	151.88
240.961	136.88
241.195	151.88
241.429	154.88
241.662	122.88
241.896	140.88
242.13	135.88
242.363	127.88
242.597	137.88
242.83	137.88
243.064	141.88
243.298	136.88
243.531	127.88
243.765	147.88
243.998	155.88
244.232	126.88
244.465	149.88
244.699	144.88
244.932	155.88
245.166	135.88
245.399	146.88
245.633	139.88
245.866	136.88
246.099	139.88
246.333	133.88
246.566	153.88
246.8	164.88
247.033	157.88
247.266	152.88
247.5	156.88
247.733	173.88
247.966	166.88
248.2	165.88
248.433	169.88
248.666	180.88
248.899	157.88
249.133	181.88
249.366	189.88
249.599	199.88
249.832	185.88
250.066	171.88
250.299	179.88
250.532	195.88
250.765	189.88
250.998	219.88
251.231	215.88
251.465	213.88
251.698	188.88
251.931	195.88
252.164	188.88
252.397	189.88
252.63	198.88
252.863	201.88
253.096	209.88
253.329	220.88
253.562	201.88
253.795	186.88
254.028	206.88
254.261	217.88
254.494	224.88
254.727	247.88
254.96	272.88
255.193	236.88
255.426	222.88
255.659	231.88
255.892	217.88
256.124	218.88
256.357	213.88
256.59	215.88
256.823	187.88
257.056	191.88
257.289	193.88
257.521	216.88
257.754	212.88
257.987	204.88
258.22	208.88
258.452	192.88
258.685	194.88
258.918	203.88
259.151	198.88
259.383	207.88
259.616	213.88
259.849	215.88
260.081	217.88
260.314	224.88
260.547	240.88
260.779	231.88
261.012	228.88
261.244	220.88
261.477	205.88
261.71	207.88
261.942	233.88
262.175	236.88
262.407	219.88
262.64	228.88
262.872	203.88
263.105	214.88
263.337	191.88
263.57	206.88
263.802	199.88
264.035	202.88
264.267	221.88
264.499	204.88
264.732	207.88
264.964	186.88
265.197	208.88
265.429	190.88
265.661	210.88
265.894	213.88
266.126	225.88
266.358	211.88
266.591	216.88
266.823	217.88
267.055	218.88
267.287	223.88
267.52	227.88
267.752	225.88
267.984	226.88
268.216	216.88
268.448	223.88
268.681	231.88
268.913	233.88
269.145	259.88
269.377	240.88
269.609	263.88
269.841	254.88
270.073	270.88
270.306	269.88
270.538	290.88
270.77	283.88
271.002	267.88
271.234	273.88
271.466	281.88
271.698	297.88
271.93	300.88
272.162	272.88
272.394	296.88
272.626	297.88
272.858	275.88
273.09	267.88
273.322	259.88
273.553	264.88
273.785	247.88
274.017	259.88
274.249	230.88
274.481	269.88
274.713	249.88
274.945	263.88
275.176	249.88
275.408	237.88
275.64	255.88
275.872	247.88
276.104	250.88
276.335	256.88
276.567	260.88
276.799	257.88
277.031	283.88
277.262	299.88
277.494	289.88
277.726	291.88
277.957	270.88
278.189	260.88
278.421	250.88
278.652	258.88
278.884	280.88
279.115	259.88
279.347	274.88
279.579	270.88
279.81	259.88
280.042	250.88
280.273	261.88
280.505	259.88
280.736	262.88
280.968	260.88
281.199	263.88
281.431	261.88
281.662	257.88
281.894	249.88
282.125	240.88
282.356	283.88
282.588	286.88
282.819	304.88
283.051	279.88
283.282	264.88
283.513	252.88
283.745	262.88
283.976	270.88
284.207	267.88
284.439	272.88
284.67	266.88
284.901	262.88
285.132	282.88
285.364	253.88
285.595	285.88
285.826	273.88
286.057	265.88
286.288	266.88
286.52	272.88
286.751	271.88
286.982	279.88
287.213	283.88
287.444	289.88
287.675	265.88
287.906	298.88
288.138	280.88
288.369	288.88
288.6	293.88
288.831	279.88
289.062	287.88
289.293	291.88
289.524	301.88
289.755	287.88
289.986	284.88
290.217	288.88
290.448	301.88
290.679	295.88
290.91	307.88
291.141	293.88
291.371	300.88
291.602	263.88
291.833	269.88
292.064	283.88
292.295	279.88
292.526	281.88
292.757	284.88
292.987	296.88
293.218	278.88
293.449	294.88
293.68	277.88
293.91	300.88
294.141	277.88
294.372	289.88
294.603	300.88
294.833	285.88
295.064	284.88
295.295	291.88
295.525	299.88
295.756	296.88
295.987	318.88
296.217	318.88
296.448	335.88
296.679	293.88
296.909	297.88
297.14	280.88
297.37	310.88
297.601	293.88
297.831	311.88
298.062	301.88
298.292	297.88
298.523	303.88
298.753	326.88
298.984	312.88
299.214	312.88
299.445	296.88
299.675	320.88
299.905	320.88
300.136	304.88
300.366	320.88
300.597	325.88
300.827	315.88
301.057	331.88
301.288	334.88
301.518	329.88
301.748	328.88
301.979	319.88
302.209	304.88
302.439	326.88
302.669	330.88
302.9	320.88
303.13	319.88
303.36	341.88
303.59	329.88
303.82	331.88
304.051	335.88
304.281	336.88
304.511	340.88
304.741	334.88
304.971	320.88
305.201	327.88
305.431	343.88
305.661	339.88
305.891	344.88
306.121	307.88
306.352	325.88
306.582	326.88
306.812	315.88
307.042	335.88
307.272	338.88
307.502	329.88
307.731	334.88
307.961	346.88
308.191	317.88
308.421	329.88
308.651	319.88
308.881	334.88
309.111	350.88
309.341	347.88
309.571	356.88
309.8	347.88
310.03	344.88
310.26	352.88
310.49	339.88
310.72	379.88
310.949	367.88
311.179	384.88
311.409	372.88
311.639	363.88
311.868	365.88
312.098	361.88
312.328	379.88
312.557	384.88
312.787	388.88
313.017	397.88
313.246	360.88
313.476	366.88
313.706	357.88
313.935	379.88
314.165	377.88
314.394	396.88
314.624	381.88
314.853	373.88
315.083	389.88
315.312	361.88
315.542	365.88
315.771	363.88
316.001	351.88
316.23	350.88
316.46	347.88
316.689	381.88
316.919	388.88
317.148	383.88
317.377	373.88
317.607	381.88
317.836	367.88
318.065	369.88
318.295	356.88
318.524	357.88
318.753	381.88
318.983	367.88
319.212	377.88
319.441	383.88
319.67	384.88
319.9	380.88
320.129	381.88
320.358	363.88
320.587	371.88
320.816	396.88
321.046	398.88
321.275	401.88
321.504	395.88
321.733	407.88
321.962	387.88
322.191	418.88
322.42	420.88
322.649	428.88
322.878	430.88
323.108	433.88
323.337	473.88
323.566	464.88
323.795	493.88
324.024	542.88
324.253	650.88
324.482	905.88
324.71	1383.88
324.939	2125.88
325.168	1777.88
325.397	884.88
325.626	619.88
325.855	504.88
326.084	468.88
326.313	472.88
326.542	478.88
326.77	525.88
326.999	585.88
327.228	823.88
327.457	1283.88
327.686	1605.88
327.914	1031.88
328.143	693.88
328.372	580.88
328.6	549.88
328.829	548.88
329.058	542.88
329.287	547.88
329.515	532.88
329.744	478.88
329.972	484.88
330.201	501.88
330.43	552.88
330.658	542.88
330.887	581.88
331.115	575.88
331.344	509.88
331.572	480.88
331.801	478.88
332.03	485.88
332.258	474.88
332.486	433.88
332.715	440.88
332.943	461.88
333.172	435.88
333.4	462.88
333.629	469.88
333.857	507.88
334.085	492.88
334.314	510.88
334.542	536.88
334.771	543.88
334.999	495.88
335.227	474.88
335.455	464.88
335.684	458.88
335.912	447.88
336.14	460.88
336.369	460.88
336.597	450.88
336.825	469.88
337.053	453.88
337.281	447.88
337.51	446.88
337.738	441.88
337.966	445.88
338.194	448.88
338.422	429.88
338.65	435.88
338.878	424.88
339.106	419.88
339.334	435.88
339.562	424.88
339.79	419.88
340.018	421.88
340.246	403.88
340.474	424.88
340.702	414.88
340.93	426.88
341.158	432.88
341.386	432.88
341.614	444.88
341.842	440.88
342.07	421.88
342.298	433.88
342.526	431.88
342.754	428.88
342.981	417.88
343.209	410.88
343.437	445.88
343.665	432.88
343.893	449.88
344.12	451.88
344.348	467.88
344.576	460.88
344.804	461.88
345.031	451.88
345.259	446.88
345.487	437.88
345.714	429.88
345.942	427.88
346.17	416.88
346.397	415.88
346.625	422.88
346.853	415.88
347.08	430.88
347.308	410.88
347.535	423.88
347.763	448.88
347.99	401.88
348.218	418.88
348.445	427.88
348.673	435.88
348.9	437.88
349.128	415.88
349.355	403.88
349.583	404.88
349.81	417.88
350.037	405.88
350.265	421.88
350.492	409.88
350.72	397.88
350.947	404.88
351.174	437.88
351.402	429.88
351.629	429.88
351.856	416.88
352.083	426.88
352.311	445.88
352.538	428.88
352.765	453.88
352.992	426.88
353.22	409.88
353.447	427.88
353.674	434.88
353.901	426.88
354.128	411.88
354.355	390.88
354.583	383.88
354.81	409.88
355.037	391.88
355.264	401.88
355.491	384.88
355.718	393.88
355.945	375.88
356.172	407.88
356.399	387.88
356.626	406.88
356.853	393.88
357.08	400.88
357.307	394.88
357.534	388.88
357.761	390.88
357.988	402.88
358.215	400.88
358.441	407.88
358.668	397.88
358.895	419.88
359.122	392.88
359.349	423.88
359.576	422.88
359.802	443.88
360.029	455.88
360.256	477.88
360.483	446.88
360.709	423.88
360.936	419.88
361.163	424.88
361.39	425.88
361.616	415.88
361.843	419.88
362.07	419.88
362.296	412.88
362.523	439.88
362.749	410.88
362.976	402.88
363.203	412.88
363.429	400.88
363.656	411.88
363.882	409.88
364.109	430.88
364.335	405.88
364.562	391.88
364.788	410.88
365.015	415.88
365.241	418.88
365.468	409.88
365.694	431.88
365.92	410.88
366.147	396.88
366.373	412.88
366.599	409.88
366.826	408.88
367.052	409.88
367.278	396.88
367.505	413.88
367.731	422.88
367.957	419.88
368.184	412.88
368.41	402.88
368.636	446.88
368.862	439.88
369.089	411.88
369.315	409.88
369.541	414.88
369.767	417.88
369.993	422.88
370.219	420.88
370.445	424.88
370.672	437.88
370.898	419.88
371.124	418.88
371.35	402.88
371.576	420.88
371.802	418.88
372.028	411.88
372.254	423.88
372.48	418.88
372.706	431.88
372.932	424.88
373.158	436.88
373.384	435.88
373.61	443.88
373.835	401.88
374.061	411.88
374.287	427.88
374.513	431.88
374.739	409.88
374.965	424.88
375.191	428.88
375.416	429.88
375.642	432.88
375.868	415.88
376.094	424.88
376.319	424.88
376.545	406.88
376.771	393.88
376.997	413.88
377.222	414.88
377.448	442.88
377.674	420.88
377.899	409.88
378.125	416.88
378.35	419.88
378.576	434.88
378.802	437.88
379.027	432.88
379.253	430.88
379.478	407.88
379.704	405.88
379.929	399.88
380.155	409.88
380.38	428.88
380.606	422.88
380.831	429.88
381.057	430.88
381.282	417.88
381.507	433.88
381.733	428.88
381.958	414.88
382.184	437.88
382.409	401.88
382.634	421.88
382.86	439.88
383.085	416.88
383.31	432.88
383.535	441.88
383.761	439.88
383.986	431.88
384.211	446.88
384.436	440.88
384.662	436.88
384.887	466.88
385.112	453.88
385.337	459.88
385.562	456.88
385.787	468.88
386.013	471.88
386.238	480.88
386.463	489.88
386.688	472.88
386.913	444.88
387.138	471.88
387.363	464.88
387.588	464.88
387.813	461.88
388.038	479.88
388.263	454.88
388.488	464.88
388.713	463.88
388.938	460.88
389.163	471.88
389.387	462.88
389.612	458.88
389.837	476.88
390.062	472.88
390.287	482.88
390.512	464.88
390.736	463.88
390.961	454.88
391.186	467.88
391.411	474.88
391.636	468.88
391.86	490.88
392.085	488.88
392.31	501.88
392.534	494.88
392.759	484.88
392.984	470.88
393.208	465.88
393.433	486.88
393.658	483.88
393.882	488.88
394.107	493.88
394.331	489.88
394.556	472.88
394.78	489.88
395.005	496.88
395.229	496.88
395.454	508.88
395.678	504.88
395.903	515.88
396.127	506.88
396.352	519.88
396.576	505.88
396.801	521.88
397.025	499.88
397.249	504.88
397.474	501.88
397.698	522.88
397.922	547.88
398.147	515.88
398.371	542.88
398.595	537.88
398.82	559.88
399.044	571.88
399.268	587.88
399.492	637.88
399.717	670.88
399.941	680.88
400.165	699.88
400.389	671.88
400.613	641.88
400.837	608.88
401.062	567.88
401.286	540.88
401.51	573.88
401.734	575.88
401.958	553.88
402.182	578.88
402.406	570.88
402.63	557.88
402.854	584.88
403.078	584.88
403.302	563.88
403.526	584.88
403.75	583.88
403.974	601.88
404.198	577.88
404.422	596.88
404.645	570.88
404.869	620.88
405.093	614.88
405.317	663.88
405.541	693.88
405.765	644.88
405.988	607.88
406.212	611.88
406.436	616.88
406.66	647.88
406.883	630.88
407.107	655.88
407.331	689.88
407.555	767.88
407.778	766.88
408.002	700.88
408.226	661.88
408.449	659.88
408.673	640.88
408.896	689.88
409.12	725.88
409.344	657.88
409.567	616.88
409.791	583.88
410.014	585.88
410.238	579.88
410.461	616.88
410.685	622.88
410.908	616.88
411.132	630.88
411.355	644.88
411.578	646.88
411.802	598.88
412.025	585.88
412.249	594.88
412.472	607.88
412.695	649.88
412.919	635.88
413.142	598.88
413.365	565.88
413.589	572.88
413.812	560.88
414.035	542.88
414.258	555.88
414.482	543.88
414.705	555.88
414.928	555.88
415.151	554.88
415.374	570.88
415.597	568.88
415.821	547.88
416.044	552.88
416.267	558.88
416.49	545.88
416.713	553.88
416.936	559.88
417.159	571.88
417.382	563.88
417.605	566.88
417.828	574.88
418.051	609.88
418.274	553.88
418.497	541.88
418.72	562.88
418.943	563.88
419.166	578.88
419.389	610.88
419.611	590.88
419.834	597.88
420.057	575.88
420.28	593.88
420.503	576.88
420.726	580.88
420.948	583.88
421.171	627.88
421.394	639.88
421.617	591.88
421.839	598.88
422.062	581.88
422.285	572.88
422.507	637.88
422.73	732.88
422.953	686.88
423.175	615.88
423.398	574.88
423.621	601.88
423.843	616.88
424.066	607.88
424.288	624.88
424.511	608.88
424.733	651.88
424.956	740.88
425.178	739.88
425.401	694.88
425.623	771.88
425.846	643.88
426.068	637.88
426.291	634.88
426.513	575.88
426.735	611.88
426.958	670.88
427.18	727.88
427.402	851.88
427.625	928.88
427.847	813.88
428.069	727.88
428.292	667.88
428.514	601.88
428.736	606.88
428.958	575.88
429.181	543.88
429.403	540.88
429.625	578.88
429.847	605.88
430.069	636.88
430.292	668.88
430.514	580.88
430.736	566.88
430.958	560.88
431.18	554.88
431.402	519.88
431.624	563.88
431.846	523.88
432.068	531.88
432.29	551.88
432.512	524.88
432.734	560.88
432.956	553.88
433.178	567.88
433.4	560.88
433.622	547.88
433.844	510.88
434.066	533.88
434.287	544.88
434.509	569.88
434.731	567.88
434.953	561.88
435.175	587.88
435.397	615.88
435.618	601.88
435.84	655.88
436.062	734.88
436.284	803.88
436.505	658.88
436.727	634.88
436.949	576.88
437.17	548.88
437.392	588.88
437.614	558.88
437.835	600.88
438.057	696.88
438.278	800.88
438.5	784.88
438.721	886.88
438.943	844.88
439.165	651.88
439.386	612.88
439.608	596.88
439.829	607.88
440.05	622.88
440.272	676.88
440.493	653.88
440.715	589.88
440.936	563.88
441.158	556.88
441.379	577.88
441.6	597.88
441.822	608.88
442.043	641.88
442.264	747.88
442.486	778.88
442.707	649.88
442.928	616.88
443.149	645.88
443.371	645.88
443.592	711.88
443.813	760.88
444.034	824.88
444.255	678.88
444.476	657.88
444.698	632.88
444.919	625.88
445.14	709.88
445.361	698.88
445.582	632.88
445.803	727.88
446.024	808.88
446.245	806.88
446.466	737.88
446.687	623.88
446.908	603.88
447.129	580.88
447.35	587.88
447.571	563.88
447.792	558.88
448.013	552.88
448.234	578.88
448.455	599.88
448.675	693.88
448.896	843.88
449.117	707.88
449.338	689.88
449.559	774.88
449.779	899.88
450	699.88
450.221	585.88
450.442	564.88
450.662	528.88
450.883	541.88
451.104	559.88
451.324	538.88
451.545	537.88
451.766	513.88
451.986	481.88
452.207	503.88
452.428	505.88
452.648	502.88
452.869	516.88
453.089	510.88
453.31	533.88
453.53	515.88
453.751	494.88
453.971	513.88
454.192	531.88
454.412	525.88
454.633	499.88
454.853	499.88
455.073	480.88
455.294	516.88
455.514	588.88
455.734	567.88
455.955	493.88
456.175	480.88
456.395	490.88
456.616	475.88
456.836	487.88
457.056	475.88
457.276	458.88
457.497	476.88
457.717	466.88
457.937	487.88
458.157	502.88
458.377	487.88
458.598	516.88
458.818	572.88
459.038	623.88
459.258	678.88
459.478	573.88
459.698	543.88
459.918	544.88
460.138	565.88
460.358	545.88
460.578	557.88
460.798	551.88
461.018	565.88
461.238	579.88
461.458	546.88
461.678	571.88
461.898	550.88
462.118	577.88
462.338	561.88
462.558	605.88
462.777	599.88
462.997	635.88
463.217	617.88
463.437	649.88
463.657	630.88
463.876	604.88
464.096	624.88
464.316	606.88
464.536	616.88
464.755	604.88
464.975	598.88
465.195	637.88
465.414	695.88
465.634	637.88
465.854	579.88
466.073	566.88
466.293	553.88
466.512	540.88
466.732	516.88
466.951	524.88
467.171	532.88
467.391	537.88
467.61	534.88
467.829	543.88
468.049	540.88
468.268	537.88
468.488	528.88
468.707	504.88
468.927	503.88
469.146	502.88
469.365	503.88
469.585	506.88
469.804	515.88
470.023	527.88
470.243	524.88
470.462	542.88
470.681	547.88
470.901	557.88
471.12	536.88
471.339	533.88
471.558	540.88
471.777	518.88
471.997	514.88
472.216	538.88
472.435	549.88
472.654	547.88
472.873	533.88
473.092	522.88
473.311	517.88
473.53	521.88
473.749	533.88
473.968	576.88
474.187	638.88
474.406	672.88
474.625	580.88
474.844	551.88
475.063	533.88
475.282	533.88
475.501	519.88
475.72	572.88
475.939	529.88
476.158	523.88
476.377	550.88
476.596	547.88
476.814	549.88
477.033	566.88
477.252	574.88
477.471	585.88
477.69	563.88
477.908	572.88
478.127	579.88
478.346	557.88
478.564	589.88
478.783	588.88
479.002	604.88
479.22	599.88
479.439	616.88
479.658	628.88
479.876	636.88
480.095	631.88
480.313	659.88
480.532	659.88
480.751	656.88
480.969	656.88
481.188	705.88
481.406	763.88
481.624	671.88
481.843	617.88
482.061	618.88
482.28	622.88
482.498	607.88
482.717	623.88
482.935	598.88
483.153	612.88
483.372	598.88
483.59	611.88
483.808	639.88
484.027	606.88
484.245	622.88
484.463	615.88
484.681	633.88
484.9	606.88
485.118	639.88
485.336	634.88
485.554	634.88
485.772	625.88
485.99	631.88
486.209	652.88
486.427	649.88
486.645	663.88
486.863	662.88
487.081	668.88
487.299	645.88
487.517	649.88
487.735	669.88
487.953	673.88
488.171	664.88
488.389	657.88
488.607	663.88
488.825	651.88
489.043	658.88
489.261	663.88
489.479	661.88
489.696	676.88
489.914	660.88
490.132	692.88
490.35	697.88
490.568	678.88
490.786	695.88
491.003	691.88
491.221	716.88
491.439	718.88
491.657	733.88
491.874	730.88
492.092	750.88
492.31	745.88
492.527	724.88
492.745	749.88
492.963	741.88
493.18	755.88
493.398	762.88
493.615	767.88
493.833	789.88
494.05	760.88
494.268	756.88
494.485	774.88
494.703	741.88
494.92	759.88
495.138	754.88
495.355	773.88
495.573	785.88
495.79	775.88
496.008	802.88
496.225	779.88
496.442	783.88
496.66	767.88
496.877	770.88
497.094	791.88
497.312	804.88
497.529	811.88
497.746	836.88
497.963	815.88
498.181	842.88
498.398	883.88
498.615	891.88
498.832	940.88
499.049	919.88
499.267	965.88
499.484	1011.88
499.701	1044.88
499.918	1112.88
500.135	1171.88
500.352	1219.88
500.569	1245.88
500.786	1237.88
501.003	1238.88
501.22	1179.88
501.437	1123.88
501.654	1076.88
501.871	1054.88
502.088	1018.88
502.305	983.88
502.522	919.88
502.739	908.88
502.956	898.88
503.172	851.88
503.389	838.88
503.606	823.88
503.823	841.88
504.04	831.88
504.256	821.88
504.473	821.88
504.69	813.88
504.907	824.88
505.123	801.88
505.34	786.88
505.557	744.88
505.773	760.88
505.99	769.88
506.207	753.88
506.423	749.88
506.64	730.88
506.856	723.88
507.073	677.88
507.289	722.88
507.506	725.88
507.722	731.88
507.939	723.88
508.155	731.88
508.372	713.88
508.588	677.88
508.805	683.88
509.021	689.88
509.238	699.88
509.454	672.88
509.67	685.88
509.887	686.88
510.103	668.88
510.319	670.88
510.536	785.88
510.752	1271.88
510.968	1032.88
511.184	683.88
511.401	692.88
511.617	679.88
511.833	643.88
512.049	685.88
512.265	654.88
512.481	679.88
512.698	662.88
512.914	677.88
513.13	655.88
513.346	652.88
513.562	645.88
513.778	645.88
513.994	656.88
514.21	646.88
514.426	670.88
514.642	739.88
514.858	735.88
515.074	795.88
515.29	918.88
515.506	1266.88
515.721	1087.88
515.937	779.88
516.153	694.88
516.369	709.88
516.585	713.88
516.801	706.88
517.016	709.88
517.232	711.88
517.448	704.88
517.664	717.88
517.879	709.88
518.095	710.88
518.311	705.88
518.527	689.88
518.742	706.88
518.958	700.88
519.173	699.88
519.389	683.88
519.605	667.88
519.82	660.88
520.036	683.88
520.251	696.88
520.467	725.88
520.682	725.88
520.898	700.88
521.113	711.88
521.329	744.88
521.544	804.88
521.76	1004.88
521.975	1612.88
522.19	1667.88
522.406	946.88
522.621	719.88
522.836	666.88
523.052	657.88
523.267	609.88
523.482	608.88
523.698	593.88
523.913	612.88
524.128	623.88
524.343	601.88
524.559	577.88
524.774	592.88
524.989	590.88
525.204	595.88
525.419	595.88
525.634	577.88
525.849	575.88
526.064	557.88
526.28	552.88
526.495	547.88
526.71	577.88
526.925	555.88
527.14	557.88
527.355	566.88
527.57	557.88
527.785	535.88
527.999	553.88
528.214	546.88
528.429	548.88
528.644	567.88
528.859	534.88
529.074	565.88
529.289	592.88
529.503	641.88
529.718	624.88
529.933	609.88
530.148	567.88
530.363	567.88
530.577	563.88
530.792	540.88
531.007	548.88
531.221	545.88
531.436	537.88
531.651	537.88
531.865	548.88
532.08	529.88
532.295	531.88
532.509	507.88
532.724	543.88
532.938	530.88
533.153	532.88
533.367	518.88
533.582	529.88
533.796	526.88
534.011	549.88
534.225	536.88
534.44	501.88
534.654	512.88
534.868	523.88
535.083	535.88
535.297	539.88
535.511	522.88
535.726	508.88
535.94	536.88
536.154	545.88
536.369	522.88
536.583	532.88
536.797	528.88
537.011	507.88
537.225	516.88
537.44	516.88
537.654	508.88
537.868	525.88
538.082	517.88
538.296	520.88
538.51	524.88
538.724	520.88
538.938	507.88
539.153	527.88
539.367	520.88
539.581	524.88
539.795	518.88
540.009	499.88
540.222	515.88
540.436	518.88
540.65	496.88
540.864	524.88
541.078	503.88
541.292	506.88
541.506	501.88
541.72	508.88
541.934	503.88
542.147	476.88
542.361	476.88
542.575	510.88
542.789	483.88
543.002	505.88
543.216	488.88
543.43	499.88
543.644	521.88
543.857	505.88
544.071	483.88
544.285	522.88
544.498	522.88
544.712	510.88
544.925	500.88
545.139	511.88
545.352	517.88
545.566	491.88
545.779	491.88
545.993	501.88
546.206	507.88
546.42	512.88
546.633	489.88
546.847	481.88
547.06	496.88
547.274	502.88
547.487	471.88
547.7	494.88
547.914	481.88
548.127	497.88
548.34	489.88
548.554	486.88
548.767	486.88
548.98	488.88
549.193	473.88
549.407	501.88
549.62	478.88
549.833	495.88
550.046	492.88
550.259	472.88
550.473	487.88
550.686	477.88
550.899	499.88
551.112	493.88
551.325	479.88
551.538	488.88
551.751	489.88
551.964	488.88
552.177	504.88
552.39	489.88
552.603	514.88
552.816	506.88
553.029	504.88
553.242	500.88
553.455	519.88
553.667	524.88
553.88	517.88
554.093	511.88
554.306	500.88
554.519	472.88
554.732	459.88
554.944	471.88
555.157	487.88
555.37	472.88
555.583	461.88
555.795	467.88
556.008	467.88
556.221	468.88
556.433	428.88
556.646	431.88
556.859	467.88
557.071	463.88
557.284	459.88
557.496	456.88
557.709	443.88
557.921	436.88
558.134	470.88
558.346	436.88
558.559	447.88
558.771	444.88
558.984	443.88
559.196	437.88
559.409	452.88
559.621	439.88
559.833	431.88
560.046	432.88
560.258	417.88
560.47	425.88
560.683	431.88
560.895	432.88
561.107	439.88
561.32	428.88
561.532	439.88
561.744	431.88
561.956	447.88
562.168	438.88
562.381	454.88
562.593	425.88
562.805	427.88
563.017	436.88
563.229	435.88
563.441	423.88
563.653	446.88
563.865	439.88
564.077	451.88
564.289	454.88
564.501	429.88
564.713	457.88
564.925	475.88
565.137	451.88
565.349	478.88
565.561	481.88
565.773	488.88
565.985	490.88
566.197	499.88
566.408	535.88
566.62	528.88
566.832	548.88
567.044	546.88
567.255	576.88
567.467	581.88
567.679	579.88
567.891	594.88
568.102	603.88
568.314	576.88
568.526	545.88
568.737	528.88
568.949	528.88
569.161	510.88
569.372	472.88
569.584	465.88
569.795	455.88
570.007	465.88
570.218	480.88
570.43	461.88
570.641	430.88
570.853	445.88
571.064	409.88
571.276	424.88
571.487	435.88
571.698	425.88
571.91	400.88
572.121	406.88
572.333	396.88
572.544	394.88
572.755	392.88
572.966	383.88
573.178	382.88
573.389	384.88
573.6	374.88
573.811	369.88
574.023	391.88
574.234	408.88
574.445	368.88
574.656	367.88
574.867	355.88
575.078	376.88
575.289	359.88
575.501	362.88
575.712	374.88
575.923	383.88
576.134	360.88
576.345	347.88
576.556	355.88
576.767	378.88
576.978	371.88
577.188	364.88
577.399	343.88
577.61	344.88
577.821	367.88
578.032	362.88
578.243	396.88
578.454	599.88
578.665	467.88
578.875	374.88
579.086	359.88
579.297	370.88
579.508	358.88
579.718	352.88
579.929	353.88
580.14	329.88
580.35	342.88
580.561	340.88
580.772	330.88
580.982	331.88
581.193	349.88
581.403	346.88
581.614	356.88
581.825	350.88
582.035	336.88
582.246	330.88
582.456	327.88
582.667	334.88
582.877	342.88
583.087	330.88
583.298	329.88
583.508	328.88
583.719	320.88
583.929	324.88
584.139	333.88
584.35	345.88
584.56	325.88
584.77	337.88
584.981	330.88
585.191	329.88
585.401	335.88
585.611	338.88
585.821	313.88
586.032	332.88
586.242	314.88
586.452	326.88
586.662	319.88
586.872	311.88
587.082	336.88
587.292	333.88
587.502	331.88
587.713	320.88
587.923	340.88
588.133	299.88
588.343	319.88
588.553	308.88
588.762	326.88
588.972	332.88
589.182	340.88
589.392	331.88
589.602	317.88
589.812	330.88
590.022	321.88
590.232	332.88
590.441	328.88
590.651	332.88
590.861	330.88
591.071	326.88
591.281	325.88
591.49	336.88
591.7	340.88
591.91	335.88
592.119	334.88
592.329	337.88
592.539	361.88
592.748	353.88
592.958	341.88
593.167	334.88
593.377	361.88
593.587	372.88
593.796	354.88
594.006	341.88
594.215	340.88
594.424	371.88
594.634	357.88
594.843	340.88
595.053	337.88
595.262	332.88
595.472	316.88
595.681	313.88
595.89	327.88
596.1	321.88
596.309	326.88
596.518	284.88
596.727	312.88
596.937	307.88
597.146	313.88
597.355	315.88
597.564	307.88
597.774	299.88
597.983	317.88
598.192	301.88
598.401	301.88
598.61	300.88
598.819	277.88
599.028	291.88
599.237	305.88
599.446	295.88
599.655	297.88
599.864	291.88
600.073	288.88
600.282	297.88
600.491	271.88
600.7	271.88
600.909	282.88
601.118	293.88
601.327	268.88
601.536	284.88
601.745	297.88
601.953	278.88
602.162	281.88
602.371	284.88
602.58	277.88
602.789	272.88
602.997	272.88
603.206	280.88
603.415	273.88
603.623	263.88
603.832	273.88
604.041	284.88
604.249	267.88
604.458	265.88
604.666	255.88
604.875	260.88
605.084	263.88
605.292	269.88
605.501	248.88
605.709	253.88
605.918	268.88
606.126	255.88
606.334	273.88
606.543	286.88
606.751	270.88
606.96	277.88
607.168	278.88
607.376	253.88
607.585	262.88
607.793	295.88
608.001	260.88
608.21	263.88
608.418	262.88
608.626	267.88
608.834	260.88
609.043	259.88
609.251	258.88
609.459	259.88
609.667	238.88
609.875	251.88
610.083	276.88
610.291	275.88
610.499	272.88
610.707	269.88
610.916	265.88
611.124	245.88
611.332	253.88
611.54	262.88
611.748	252.88
611.955	259.88
612.163	264.88
612.371	258.88
612.579	250.88
612.787	257.88
612.995	270.88
613.203	269.88
613.411	255.88
613.618	245.88
613.826	245.88
614.034	266.88
614.242	268.88
614.449	253.88
614.657	259.88
614.865	255.88
615.072	251.88
615.28	259.88
615.488	264.88
615.695	270.88
615.903	262.88
616.111	274.88
616.318	273.88
616.526	262.88
616.733	259.88
616.941	237.88
617.148	263.88
617.356	256.88
617.563	247.88
617.771	229.88
617.978	240.88
618.185	259.88
618.393	249.88
618.6	261.88
618.807	250.88
619.015	234.88
619.222	238.88
619.429	232.88
619.637	271.88
619.844	248.88
620.051	255.88
620.258	234.88
620.466	234.88
620.673	234.88
620.88	233.88
621.087	223.88
621.294	227.88
621.501	245.88
621.708	239.88
621.915	239.88
622.122	239.88
622.329	249.88
622.536	233.88
622.743	241.88
622.95	232.88
623.157	237.88
623.364	245.88
623.571	236.88
623.778	234.88
623.985	228.88
624.192	229.88
624.399	259.88
624.606	234.88
624.812	245.88
625.019	208.88
625.226	230.88
625.433	245.88
625.639	227.88
625.846	219.88
626.053	223.88
626.259	225.88
626.466	209.88
626.673	230.88
626.879	213.88
627.086	218.88
627.293	224.88
627.499	219.88
627.706	227.88
627.912	214.88
628.119	201.88
628.325	213.88
628.532	229.88
628.738	204.88
628.945	221.88
629.151	213.88
629.357	233.88
629.564	216.88
629.77	215.88
629.976	212.88
630.183	226.88
630.389	209.88
630.595	212.88
630.802	222.88
631.008	206.88
631.214	204.88
631.42	202.88
631.627	211.88
631.833	195.88
632.039	203.88
632.245	201.88
632.451	210.88
632.657	203.88
632.863	215.88
633.069	217.88
633.275	195.88
633.481	182.88
633.688	202.88
633.893	211.88
634.099	199.88
634.305	188.88
634.511	177.88
634.717	200.88
634.923	201.88
635.129	204.88
635.335	201.88
635.541	192.88
635.747	208.88
635.952	181.88
636.158	190.88
636.364	197.88
636.57	200.88
636.775	174.88
636.981	203.88
637.187	187.88
637.392	201.88
637.598	204.88
637.804	206.88
638.009	195.88
638.215	177.88
638.421	195.88
638.626	190.88
638.832	194.88
639.037	189.88
639.243	201.88
639.448	181.88
639.654	181.88
639.859	181.88
640.065	179.88
640.27	192.88
640.475	198.88
640.681	188.88
640.886	186.88
641.091	193.88
641.297	186.88
641.502	181.88
641.707	165.88
641.913	179.88
642.118	177.88
642.323	192.88
642.528	185.88
642.733	175.88
642.939	187.88
643.144	184.88
643.349	188.88
643.554	184.88
643.759	195.88
643.964	181.88
644.169	191.88
644.374	169.88
644.579	169.88
644.784	177.88
644.989	188.88
645.194	196.88
645.399	177.88
645.604	182.88
645.809	177.88
646.014	185.88
646.219	186.88
646.423	186.88
646.628	174.88
646.833	182.88
647.038	185.88
647.243	173.88
647.447	192.88
647.652	181.88
647.857	187.88
648.062	185.88
648.266	173.88
648.471	172.88
648.676	182.88
648.88	181.88
649.085	177.88
649.289	185.88
649.494	191.88
649.698	204.88
649.903	189.88
650.107	175.88
650.312	161.88
650.516	187.88
650.721	167.88
650.925	171.88
651.13	156.88
651.334	170.88
651.539	175.88
651.743	157.88
651.947	174.88
652.152	157.88
652.356	158.88
652.56	156.88
652.764	167.88
652.969	151.88
653.173	165.88
653.377	144.88
653.581	153.88
653.785	142.88
653.99	132.88
654.194	141.88
654.398	141.88
654.602	134.88
654.806	140.88
655.01	136.88
655.214	152.88
655.418	127.88
655.622	142.88
655.826	131.88
656.03	138.88
656.234	144.88
656.438	143.88
656.642	137.88
656.846	136.88
657.049	138.88
657.253	128.88
657.457	134.88
657.661	117.88
657.865	117.88
658.068	110.88
658.272	111.88
658.476	107.88
658.68	112.88
658.883	120.88
659.087	104.88
659.291	113.88
659.494	107.88
659.698	101.88
659.901	94.88
660.105	95.88
660.309	77.88
660.512	94.88
660.716	98.88
660.919	97.88
661.123	88.88
661.326	100.88
661.53	90.88
661.733	96.88
661.936	87.88
662.14	75.88
662.343	88.88
662.546	75.88
662.75	76.88
662.953	94.88
663.156	93.88
663.36	78.88
663.563	93.88
663.766	91.88
663.969	80.88
664.173	84.88
664.376	83.88
664.579	81.88
664.782	89.88
664.985	71.88
665.188	78.88
665.391	93.88
665.594	94.88
665.797	89.88
666	81.88
666.203	88.88
666.406	77.88
666.609	83.88
666.812	83.88
667.015	86.88
667.218	87.88
667.421	85.88
667.624	72.88
667.827	88.88
668.03	77.88
668.232	77.88
668.435	91.88
668.638	65.88
668.841	90.88
669.043	98.88
669.246	84.88
669.449	82.88
669.651	83.88
669.854	84.88
670.057	80.88
670.259	88.88
670.462	92.88
670.665	91.88
670.867	90.88
671.07	81.88
671.272	96.88
671.475	85.88
671.677	82.88
671.88	75.88
672.082	84.88
672.284	85.88
672.487	86.88
672.689	84.88
672.892	78.88
