Data from 1979.PennyLincolnUp.Lamp.En5.5.200Scan.071719.P1_HRD10591_16-20-35-863.txt Node
Date: Thu Jul 18 16:20:35 EDT 2019
User: cochatt
Spectrometer: HR+D1059
Trigger mode: 1
Integration Time (sec): 1.000000E-1
Scans to average: 1
Electric dark correction enabled: true
Nonlinearity correction enabled: false
Boxcar width: 0
XAxis mode: Wavelengths
Number of Pixels in Spectrum: 2048
>>>>>Begin Spectral Data<<<<<
223.165	-13.62
223.4	-13.62
223.635	-13.62
223.869	-11.62
224.104	-9.62
224.338	-20.62
224.573	-19.62
224.808	-10.62
225.042	-2.62
225.277	-14.62
225.511	3.38
225.746	-4.62
225.98	14.38
226.215	18.38
226.449	18.38
226.683	11.38
226.918	13.38
227.152	28.38
227.387	35.38
227.621	27.38
227.856	36.38
228.09	37.38
228.324	41.38
228.559	48.38
228.793	56.38
229.027	104.38
229.262	115.38
229.496	123.38
229.73	123.38
229.964	132.38
230.199	129.38
230.433	100.38
230.667	109.38
230.901	106.38
231.136	115.38
231.37	104.38
231.604	127.38
231.838	113.38
232.072	116.38
232.306	111.38
232.541	116.38
232.775	106.38
233.009	102.38
233.243	130.38
233.477	120.38
233.711	122.38
233.945	108.38
234.179	97.38
234.413	115.38
234.647	116.38
234.881	107.38
235.115	119.38
235.349	117.38
235.583	119.38
235.817	122.38
236.051	122.38
236.285	132.38
236.519	114.38
236.753	145.38
236.987	135.38
237.221	177.38
237.455	207.38
237.689	182.38
237.922	127.38
238.156	120.38
238.39	125.38
238.624	131.38
238.858	128.38
239.091	125.38
239.325	119.38
239.559	114.38
239.793	131.38
240.027	141.38
240.26	130.38
240.494	164.38
240.728	137.38
240.961	141.38
241.195	154.38
241.429	146.38
241.662	130.38
241.896	131.38
242.13	138.38
242.363	124.38
242.597	132.38
242.83	150.38
243.064	145.38
243.298	140.38
243.531	123.38
243.765	137.38
243.998	135.38
244.232	137.38
244.465	137.38
244.699	139.38
244.932	156.38
245.166	160.38
245.399	154.38
245.633	144.38
245.866	149.38
246.099	148.38
246.333	174.38
246.566	133.38
246.8	151.38
247.033	157.38
247.266	148.38
247.5	159.38
247.733	159.38
247.966	176.38
248.2	165.38
248.433	171.38
248.666	154.38
248.899	169.38
249.133	191.38
249.366	194.38
249.599	198.38
249.832	167.38
250.066	177.38
250.299	171.38
250.532	187.38
250.765	207.38
250.998	207.38
251.231	222.38
251.465	208.38
251.698	203.38
251.931	192.38
252.164	188.38
252.397	203.38
252.63	212.38
252.863	210.38
253.096	211.38
253.329	212.38
253.562	211.38
253.795	208.38
254.028	201.38
254.261	212.38
254.494	223.38
254.727	236.38
254.96	261.38
255.193	259.38
255.426	218.38
255.659	224.38
255.892	223.38
256.124	217.38
256.357	210.38
256.59	213.38
256.823	201.38
257.056	210.38
257.289	198.38
257.521	206.38
257.754	205.38
257.987	185.38
258.22	208.38
258.452	211.38
258.685	200.38
258.918	204.38
259.151	192.38
259.383	204.38
259.616	192.38
259.849	215.38
260.081	220.38
260.314	232.38
260.547	244.38
260.779	245.38
261.012	226.38
261.244	217.38
261.477	219.38
261.71	215.38
261.942	222.38
262.175	225.38
262.407	229.38
262.64	200.38
262.872	205.38
263.105	193.38
263.337	196.38
263.57	202.38
263.802	213.38
264.035	198.38
264.267	209.38
264.499	208.38
264.732	211.38
264.964	204.38
265.197	217.38
265.429	179.38
265.661	211.38
265.894	214.38
266.126	202.38
266.358	219.38
266.591	204.38
266.823	225.38
267.055	210.38
267.287	220.38
267.52	236.38
267.752	229.38
267.984	225.38
268.216	221.38
268.448	228.38
268.681	239.38
268.913	207.38
269.145	244.38
269.377	251.38
269.609	242.38
269.841	249.38
270.073	259.38
270.306	279.38
270.538	282.38
270.77	301.38
271.002	271.38
271.234	281.38
271.466	293.38
271.698	288.38
271.93	301.38
272.162	301.38
272.394	298.38
272.626	267.38
272.858	267.38
273.09	272.38
273.322	257.38
273.553	254.38
273.785	274.38
274.017	265.38
274.249	256.38
274.481	259.38
274.713	266.38
274.945	258.38
275.176	262.38
275.408	260.38
275.64	253.38
275.872	255.38
276.104	259.38
276.335	247.38
276.567	260.38
276.799	275.38
277.031	312.38
277.262	322.38
277.494	298.38
277.726	293.38
277.957	287.38
278.189	267.38
278.421	265.38
278.652	282.38
278.884	268.38
279.115	255.38
279.347	269.38
279.579	271.38
279.81	272.38
280.042	268.38
280.273	265.38
280.505	272.38
280.736	257.38
280.968	263.38
281.199	256.38
281.431	256.38
281.662	252.38
281.894	247.38
282.125	263.38
282.356	284.38
282.588	305.38
282.819	303.38
283.051	269.38
283.282	273.38
283.513	267.38
283.745	296.38
283.976	268.38
284.207	280.38
284.439	279.38
284.67	291.38
284.901	260.38
285.132	273.38
285.364	282.38
285.595	273.38
285.826	261.38
286.057	274.38
286.288	291.38
286.52	273.38
286.751	283.38
286.982	280.38
287.213	281.38
287.444	295.38
287.675	261.38
287.906	296.38
288.138	291.38
288.369	296.38
288.6	299.38
288.831	293.38
289.062	295.38
289.293	288.38
289.524	289.38
289.755	288.38
289.986	276.38
290.217	277.38
290.448	291.38
290.679	276.38
290.91	263.38
291.141	267.38
291.371	289.38
291.602	269.38
291.833	280.38
292.064	275.38
292.295	277.38
292.526	300.38
292.757	279.38
292.987	291.38
293.218	305.38
293.449	268.38
293.68	297.38
293.91	273.38
294.141	289.38
294.372	287.38
294.603	300.38
294.833	281.38
295.064	292.38
295.295	296.38
295.525	293.38
295.756	285.38
295.987	300.38
296.217	325.38
296.448	321.38
296.679	314.38
296.909	293.38
297.14	316.38
297.37	299.38
297.601	305.38
297.831	313.38
298.062	320.38
298.292	313.38
298.523	305.38
298.753	307.38
298.984	314.38
299.214	303.38
299.445	319.38
299.675	301.38
299.905	290.38
300.136	317.38
300.366	308.38
300.597	312.38
300.827	337.38
301.057	326.38
301.288	337.38
301.518	325.38
301.748	328.38
301.979	339.38
302.209	342.38
302.439	314.38
302.669	335.38
302.9	335.38
303.13	324.38
303.36	333.38
303.59	337.38
303.82	346.38
304.051	348.38
304.281	319.38
304.511	303.38
304.741	319.38
304.971	309.38
305.201	330.38
305.431	335.38
305.661	334.38
305.891	330.38
306.121	304.38
306.352	332.38
306.582	347.38
306.812	327.38
307.042	316.38
307.272	318.38
307.502	311.38
307.731	315.38
307.961	338.38
308.191	330.38
308.421	337.38
308.651	324.38
308.881	321.38
309.111	324.38
309.341	338.38
309.571	346.38
309.8	337.38
310.03	349.38
310.26	344.38
310.49	361.38
310.72	364.38
310.949	370.38
311.179	371.38
311.409	372.38
311.639	360.38
311.868	354.38
312.098	375.38
312.328	381.38
312.557	380.38
312.787	394.38
313.017	389.38
313.246	384.38
313.476	387.38
313.706	364.38
313.935	375.38
314.165	375.38
314.394	400.38
314.624	381.38
314.853	401.38
315.083	387.38
315.312	374.38
315.542	380.38
315.771	365.38
316.001	371.38
316.23	377.38
316.46	377.38
316.689	359.38
316.919	375.38
317.148	391.38
317.377	395.38
317.607	393.38
317.836	389.38
318.065	385.38
318.295	375.38
318.524	371.38
318.753	367.38
318.983	387.38
319.212	381.38
319.441	407.38
319.67	390.38
319.9	385.38
320.129	382.38
320.358	390.38
320.587	373.38
320.816	389.38
321.046	396.38
321.275	401.38
321.504	400.38
321.733	378.38
321.962	412.38
322.191	403.38
322.42	403.38
322.649	443.38
322.878	451.38
323.108	434.38
323.337	458.38
323.566	477.38
323.795	493.38
324.024	567.38
324.253	647.38
324.482	921.38
324.71	1438.38
324.939	2156.38
325.168	1864.38
325.397	940.38
325.626	608.38
325.855	538.38
326.084	483.38
326.313	479.38
326.542	501.38
326.77	521.38
326.999	623.38
327.228	849.38
327.457	1316.38
327.686	1646.38
327.914	1041.38
328.143	710.38
328.372	595.38
328.6	556.38
328.829	534.38
329.058	555.38
329.287	548.38
329.515	523.38
329.744	507.38
329.972	503.38
330.201	516.38
330.43	550.38
330.658	578.38
330.887	589.38
331.115	578.38
331.344	508.38
331.572	481.38
331.801	472.38
332.03	491.38
332.258	489.38
332.486	460.38
332.715	455.38
332.943	468.38
333.172	456.38
333.4	480.38
333.629	480.38
333.857	502.38
334.085	501.38
334.314	513.38
334.542	534.38
334.771	548.38
334.999	496.38
335.227	475.38
335.455	467.38
335.684	488.38
335.912	470.38
336.14	465.38
336.369	445.38
336.597	450.38
336.825	451.38
337.053	456.38
337.281	448.38
337.51	453.38
337.738	464.38
337.966	446.38
338.194	451.38
338.422	448.38
338.65	455.38
338.878	436.38
339.106	448.38
339.334	435.38
339.562	440.38
339.79	437.38
340.018	443.38
340.246	425.38
340.474	455.38
340.702	441.38
340.93	426.38
341.158	443.38
341.386	435.38
341.614	435.38
341.842	437.38
342.07	403.38
342.298	421.38
342.526	419.38
342.754	420.38
342.981	444.38
343.209	420.38
343.437	434.38
343.665	455.38
343.893	449.38
344.12	459.38
344.348	459.38
344.576	436.38
344.804	436.38
345.031	455.38
345.259	455.38
345.487	440.38
345.714	436.38
345.942	423.38
346.17	409.38
346.397	432.38
346.625	441.38
346.853	425.38
347.08	414.38
347.308	421.38
347.535	435.38
347.763	441.38
347.99	433.38
348.218	423.38
348.445	451.38
348.673	415.38
348.9	440.38
349.128	416.38
349.355	403.38
349.583	394.38
349.81	405.38
350.037	395.38
350.265	414.38
350.492	413.38
350.72	419.38
350.947	423.38
351.174	432.38
351.402	428.38
351.629	413.38
351.856	426.38
352.083	438.38
352.311	435.38
352.538	447.38
352.765	451.38
352.992	441.38
353.22	412.38
353.447	427.38
353.674	423.38
353.901	403.38
354.128	397.38
354.355	393.38
354.583	412.38
354.81	397.38
355.037	392.38
355.264	395.38
355.491	391.38
355.718	401.38
355.945	405.38
356.172	398.38
356.399	402.38
356.626	385.38
356.853	372.38
357.08	389.38
357.307	388.38
357.534	398.38
357.761	384.38
357.988	415.38
358.215	385.38
358.441	383.38
358.668	400.38
358.895	418.38
359.122	393.38
359.349	411.38
359.576	429.38
359.802	428.38
360.029	468.38
360.256	473.38
360.483	467.38
360.709	450.38
360.936	428.38
361.163	438.38
361.39	421.38
361.616	435.38
361.843	430.38
362.07	439.38
362.296	416.38
362.523	423.38
362.749	423.38
362.976	434.38
363.203	443.38
363.429	401.38
363.656	420.38
363.882	402.38
364.109	412.38
364.335	421.38
364.562	409.38
364.788	401.38
365.015	422.38
365.241	421.38
365.468	419.38
365.694	429.38
365.92	418.38
366.147	413.38
366.373	407.38
366.599	400.38
366.826	419.38
367.052	409.38
367.278	405.38
367.505	396.38
367.731	401.38
367.957	393.38
368.184	405.38
368.41	431.38
368.636	423.38
368.862	449.38
369.089	458.38
369.315	413.38
369.541	404.38
369.767	425.38
369.993	413.38
370.219	412.38
370.445	437.38
370.672	416.38
370.898	402.38
371.124	419.38
371.35	398.38
371.576	431.38
371.802	415.38
372.028	423.38
372.254	410.38
372.48	407.38
372.706	420.38
372.932	450.38
373.158	424.38
373.384	434.38
373.61	422.38
373.835	411.38
374.061	425.38
374.287	419.38
374.513	419.38
374.739	409.38
374.965	453.38
375.191	418.38
375.416	435.38
375.642	440.38
375.868	428.38
376.094	428.38
376.319	440.38
376.545	429.38
376.771	415.38
376.997	404.38
377.222	403.38
377.448	428.38
377.674	418.38
377.899	408.38
378.125	434.38
378.35	412.38
378.576	409.38
378.802	412.38
379.027	420.38
379.253	423.38
379.478	434.38
379.704	406.38
379.929	418.38
380.155	417.38
380.38	420.38
380.606	438.38
380.831	426.38
381.057	415.38
381.282	423.38
381.507	415.38
381.733	400.38
381.958	422.38
382.184	442.38
382.409	442.38
382.634	447.38
382.86	444.38
383.085	405.38
383.31	444.38
383.535	445.38
383.761	463.38
383.986	450.38
384.211	475.38
384.436	457.38
384.662	441.38
384.887	455.38
385.112	458.38
385.337	469.38
385.562	457.38
385.787	476.38
386.013	488.38
386.238	488.38
386.463	474.38
386.688	472.38
386.913	479.38
387.138	451.38
387.363	455.38
387.588	465.38
387.813	480.38
388.038	453.38
388.263	456.38
388.488	476.38
388.713	474.38
388.938	456.38
389.163	432.38
389.387	466.38
389.612	473.38
389.837	468.38
390.062	460.38
390.287	466.38
390.512	453.38
390.736	457.38
390.961	476.38
391.186	456.38
391.411	478.38
391.636	500.38
391.86	509.38
392.085	503.38
392.31	490.38
392.534	491.38
392.759	476.38
392.984	485.38
393.208	480.38
393.433	490.38
393.658	488.38
393.882	486.38
394.107	481.38
394.331	472.38
394.556	471.38
394.78	482.38
395.005	521.38
395.229	495.38
395.454	492.38
395.678	526.38
395.903	488.38
396.127	527.38
396.352	555.38
396.576	504.38
396.801	513.38
397.025	519.38
397.249	497.38
397.474	502.38
397.698	519.38
397.922	554.38
398.147	538.38
398.371	556.38
398.595	515.38
398.82	519.38
399.044	555.38
399.268	589.38
399.492	617.38
399.717	652.38
399.941	668.38
400.165	714.38
400.389	698.38
400.613	625.38
400.837	596.38
401.062	574.38
401.286	574.38
401.51	563.38
401.734	552.38
401.958	571.38
402.182	567.38
402.406	580.38
402.63	586.38
402.854	580.38
403.078	573.38
403.302	586.38
403.526	582.38
403.75	574.38
403.974	589.38
404.198	558.38
404.422	600.38
404.645	611.38
404.869	612.38
405.093	612.38
405.317	663.38
405.541	705.38
405.765	643.38
405.988	627.38
406.212	625.38
406.436	655.38
406.66	637.38
406.883	633.38
407.107	682.38
407.331	717.38
407.555	753.38
407.778	763.38
408.002	737.38
408.226	677.38
408.449	663.38
408.673	643.38
408.896	675.38
409.12	730.38
409.344	675.38
409.567	621.38
409.791	606.38
410.014	599.38
410.238	586.38
410.461	579.38
410.685	603.38
410.908	646.38
411.132	654.38
411.355	654.38
411.578	640.38
411.802	603.38
412.025	591.38
412.249	596.38
412.472	617.38
412.695	669.38
412.919	680.38
413.142	572.38
413.365	590.38
413.589	586.38
413.812	563.38
414.035	562.38
414.258	583.38
414.482	550.38
414.705	568.38
414.928	535.38
415.151	569.38
415.374	552.38
415.597	569.38
415.821	559.38
416.044	559.38
416.267	542.38
416.49	563.38
416.713	556.38
416.936	563.38
417.159	552.38
417.382	556.38
417.605	582.38
417.828	571.38
418.051	590.38
418.274	581.38
418.497	566.38
418.72	572.38
418.943	551.38
419.166	605.38
419.389	629.38
419.611	603.38
419.834	588.38
420.057	578.38
420.28	585.38
420.503	590.38
420.726	583.38
420.948	597.38
421.171	631.38
421.394	653.38
421.617	605.38
421.839	571.38
422.062	591.38
422.285	609.38
422.507	645.38
422.73	736.38
422.953	709.38
423.175	645.38
423.398	601.38
423.621	608.38
423.843	623.38
424.066	621.38
424.288	617.38
424.511	632.38
424.733	694.38
424.956	766.38
425.178	732.38
425.401	753.38
425.623	761.38
425.846	667.38
426.068	613.38
426.291	620.38
426.513	623.38
426.735	615.38
426.958	642.38
427.18	739.38
427.402	872.38
427.625	993.38
427.847	838.38
428.069	730.38
428.292	660.38
428.514	609.38
428.736	599.38
428.958	597.38
429.181	584.38
429.403	585.38
429.625	578.38
429.847	615.38
430.069	683.38
430.292	687.38
430.514	582.38
430.736	574.38
430.958	559.38
431.18	548.38
431.402	559.38
431.624	549.38
431.846	544.38
432.068	552.38
432.29	545.38
432.512	541.38
432.734	557.38
432.956	531.38
433.178	572.38
433.4	555.38
433.622	570.38
433.844	536.38
434.066	555.38
434.287	518.38
434.509	545.38
434.731	547.38
434.953	578.38
435.175	582.38
435.397	619.38
435.618	614.38
435.84	652.38
436.062	735.38
436.284	824.38
436.505	689.38
436.727	636.38
436.949	566.38
437.17	579.38
437.392	555.38
437.614	570.38
437.835	620.38
438.057	709.38
438.278	771.38
438.5	798.38
438.721	860.38
438.943	850.38
439.165	673.38
439.386	620.38
439.608	616.38
439.829	639.38
440.05	635.38
440.272	681.38
440.493	643.38
440.715	632.38
440.936	565.38
441.158	580.38
441.379	588.38
441.6	583.38
441.822	614.38
442.043	651.38
442.264	724.38
442.486	777.38
442.707	665.38
442.928	633.38
443.149	640.38
443.371	669.38
443.592	694.38
443.813	804.38
444.034	856.38
444.255	728.38
444.476	645.38
444.698	639.38
444.919	655.38
445.14	740.38
445.361	677.38
445.582	673.38
445.803	740.38
446.024	829.38
446.245	802.38
446.466	756.38
446.687	647.38
446.908	591.38
447.129	581.38
447.35	578.38
447.571	563.38
447.792	563.38
448.013	583.38
448.234	572.38
448.455	637.38
448.675	747.38
448.896	856.38
449.117	740.38
449.338	687.38
449.559	808.38
449.779	915.38
450	716.38
450.221	603.38
450.442	561.38
450.662	554.38
450.883	535.38
451.104	578.38
451.324	553.38
451.545	550.38
451.766	523.38
451.986	520.38
452.207	511.38
452.428	523.38
452.648	516.38
452.869	495.38
453.089	503.38
453.31	532.38
453.53	511.38
453.751	479.38
453.971	512.38
454.192	541.38
454.412	519.38
454.633	488.38
454.853	493.38
455.073	509.38
455.294	537.38
455.514	589.38
455.734	581.38
455.955	483.38
456.175	498.38
456.395	473.38
456.616	483.38
456.836	476.38
457.056	486.38
457.276	458.38
457.497	489.38
457.717	473.38
457.937	487.38
458.157	506.38
458.377	495.38
458.598	518.38
458.818	596.38
459.038	659.38
459.258	677.38
459.478	599.38
459.698	566.38
459.918	539.38
460.138	545.38
460.358	576.38
460.578	573.38
460.798	575.38
461.018	569.38
461.238	591.38
461.458	598.38
461.678	556.38
461.898	585.38
462.118	566.38
462.338	588.38
462.558	587.38
462.777	604.38
462.997	637.38
463.217	627.38
463.437	660.38
463.657	614.38
463.876	621.38
464.096	625.38
464.316	623.38
464.536	620.38
464.755	604.38
464.975	631.38
465.195	653.38
465.414	706.38
465.634	631.38
465.854	581.38
466.073	556.38
466.293	564.38
466.512	531.38
466.732	540.38
466.951	513.38
467.171	521.38
467.391	527.38
467.61	556.38
467.829	546.38
468.049	545.38
468.268	535.38
468.488	552.38
468.707	514.38
468.927	517.38
469.146	487.38
469.365	529.38
469.585	532.38
469.804	531.38
470.023	555.38
470.243	526.38
470.462	537.38
470.681	566.38
470.901	535.38
471.12	528.38
471.339	536.38
471.558	543.38
471.777	540.38
471.997	525.38
472.216	529.38
472.435	564.38
472.654	548.38
472.873	518.38
473.092	521.38
473.311	511.38
473.53	525.38
473.749	527.38
473.968	587.38
474.187	676.38
474.406	681.38
474.625	585.38
474.844	563.38
475.063	544.38
475.282	529.38
475.501	537.38
475.72	564.38
475.939	538.38
476.158	550.38
476.377	550.38
476.596	560.38
476.814	568.38
477.033	541.38
477.252	553.38
477.471	574.38
477.69	580.38
477.908	581.38
478.127	583.38
478.346	602.38
478.564	594.38
478.783	594.38
479.002	595.38
479.22	627.38
479.439	628.38
479.658	637.38
479.876	642.38
480.095	650.38
480.313	675.38
480.532	670.38
480.751	676.38
480.969	660.38
481.188	716.38
481.406	785.38
481.624	701.38
481.843	658.38
482.061	631.38
482.28	629.38
482.498	601.38
482.717	619.38
482.935	644.38
483.153	626.38
483.372	625.38
483.59	635.38
483.808	649.38
484.027	652.38
484.245	623.38
484.463	633.38
484.681	628.38
484.9	648.38
485.118	629.38
485.336	633.38
485.554	640.38
485.772	653.38
485.99	649.38
486.209	626.38
486.427	657.38
486.645	665.38
486.863	692.38
487.081	684.38
487.299	663.38
487.517	639.38
487.735	654.38
487.953	660.38
488.171	681.38
488.389	665.38
488.607	657.38
488.825	673.38
489.043	660.38
489.261	655.38
489.479	649.38
489.696	671.38
489.914	676.38
490.132	682.38
490.35	707.38
490.568	701.38
490.786	713.38
491.003	710.38
491.221	707.38
491.439	739.38
491.657	755.38
491.874	777.38
492.092	749.38
492.31	753.38
492.527	773.38
492.745	742.38
492.963	778.38
493.18	761.38
493.398	795.38
493.615	763.38
493.833	781.38
494.05	788.38
494.268	785.38
494.485	783.38
494.703	772.38
494.92	771.38
495.138	785.38
495.355	808.38
495.573	786.38
495.79	797.38
496.008	801.38
496.225	792.38
496.442	773.38
496.66	776.38
496.877	793.38
497.094	823.38
497.312	825.38
497.529	821.38
497.746	825.38
497.963	835.38
498.181	888.38
498.398	901.38
498.615	908.38
498.832	909.38
499.049	959.38
499.267	978.38
499.484	1014.38
499.701	1061.38
499.918	1107.38
500.135	1155.38
500.352	1220.38
500.569	1242.38
500.786	1252.38
501.003	1207.38
501.22	1160.38
501.437	1125.38
501.654	1084.38
501.871	1061.38
502.088	997.38
502.305	955.38
502.522	931.38
502.739	927.38
502.956	901.38
503.172	889.38
503.389	851.38
503.606	862.38
503.823	837.38
504.04	825.38
504.256	834.38
504.473	837.38
504.69	807.38
504.907	806.38
505.123	782.38
505.34	768.38
505.557	782.38
505.773	755.38
505.99	757.38
506.207	736.38
506.423	754.38
506.64	761.38
506.856	746.38
507.073	756.38
507.289	738.38
507.506	710.38
507.722	746.38
507.939	728.38
508.155	729.38
508.372	717.38
508.588	682.38
508.805	701.38
509.021	694.38
509.238	709.38
509.454	757.38
509.67	717.38
509.887	687.38
510.103	687.38
510.319	701.38
510.536	784.38
510.752	1283.38
510.968	1064.38
511.184	719.38
511.401	693.38
511.617	664.38
511.833	689.38
512.049	678.38
512.265	672.38
512.481	657.38
512.698	672.38
512.914	671.38
513.13	647.38
513.346	661.38
513.562	650.38
513.778	673.38
513.994	676.38
514.21	672.38
514.426	692.38
514.642	752.38
514.858	774.38
515.074	805.38
515.29	933.38
515.506	1347.38
515.721	1151.38
515.937	794.38
516.153	740.38
516.369	733.38
516.585	685.38
516.801	710.38
517.016	714.38
517.232	708.38
517.448	705.38
517.664	731.38
517.879	755.38
518.095	738.38
518.311	726.38
518.527	706.38
518.742	703.38
518.958	706.38
519.173	704.38
519.389	675.38
519.605	683.38
519.82	680.38
520.036	691.38
520.251	697.38
520.467	734.38
520.682	744.38
520.898	724.38
521.113	723.38
521.329	771.38
521.544	853.38
521.76	1061.38
521.975	1675.38
522.19	1683.38
522.406	977.38
522.621	755.38
522.836	671.38
523.052	664.38
523.267	657.38
523.482	622.38
523.698	602.38
523.913	629.38
524.128	625.38
524.343	632.38
524.559	602.38
524.774	594.38
524.989	596.38
525.204	606.38
525.419	593.38
525.634	580.38
525.849	580.38
526.064	587.38
526.28	582.38
526.495	569.38
526.71	551.38
526.925	563.38
527.14	581.38
527.355	592.38
527.57	572.38
527.785	555.38
527.999	547.38
528.214	562.38
528.429	555.38
528.644	552.38
528.859	538.38
529.074	558.38
529.289	579.38
529.503	664.38
529.718	637.38
529.933	589.38
530.148	580.38
530.363	567.38
530.577	540.38
530.792	574.38
531.007	567.38
531.221	545.38
531.436	538.38
531.651	529.38
531.865	541.38
532.08	554.38
532.295	537.38
532.509	545.38
532.724	529.38
532.938	536.38
533.153	540.38
533.367	535.38
533.582	531.38
533.796	513.38
534.011	529.38
534.225	533.38
534.44	514.38
534.654	523.38
534.868	531.38
535.083	509.38
535.297	537.38
535.511	523.38
535.726	529.38
535.94	567.38
536.154	546.38
536.369	515.38
536.583	523.38
536.797	521.38
537.011	510.38
537.225	527.38
537.44	506.38
537.654	521.38
537.868	518.38
538.082	519.38
538.296	520.38
538.51	505.38
538.724	527.38
538.938	516.38
539.153	509.38
539.367	549.38
539.581	519.38
539.795	527.38
540.009	507.38
540.222	524.38
540.436	510.38
540.65	509.38
540.864	522.38
541.078	519.38
541.292	513.38
541.506	513.38
541.72	507.38
541.934	506.38
542.147	503.38
542.361	504.38
542.575	506.38
542.789	491.38
543.002	502.38
543.216	539.38
543.43	515.38
543.644	499.38
543.857	505.38
544.071	520.38
544.285	517.38
544.498	511.38
544.712	522.38
544.925	517.38
545.139	519.38
545.352	490.38
545.566	489.38
545.779	525.38
545.993	490.38
546.206	514.38
546.42	514.38
546.633	490.38
546.847	492.38
547.06	491.38
547.274	493.38
547.487	477.38
547.7	489.38
547.914	501.38
548.127	495.38
548.34	513.38
548.554	507.38
548.767	490.38
548.98	499.38
549.193	497.38
549.407	499.38
549.62	494.38
549.833	483.38
550.046	484.38
550.259	457.38
550.473	484.38
550.686	472.38
550.899	487.38
551.112	480.38
551.325	501.38
551.538	517.38
551.751	478.38
551.964	487.38
552.177	480.38
552.39	497.38
552.603	489.38
552.816	510.38
553.029	488.38
553.242	513.38
553.455	516.38
553.667	526.38
553.88	520.38
554.093	517.38
554.306	516.38
554.519	498.38
554.732	481.38
554.944	463.38
555.157	487.38
555.37	475.38
555.583	453.38
555.795	472.38
556.008	452.38
556.221	481.38
556.433	463.38
556.646	457.38
556.859	476.38
557.071	432.38
557.284	424.38
557.496	431.38
557.709	437.38
557.921	449.38
558.134	448.38
558.346	452.38
558.559	450.38
558.771	445.38
558.984	451.38
559.196	435.38
559.409	415.38
559.621	433.38
559.833	417.38
560.046	427.38
560.258	450.38
560.47	437.38
560.683	431.38
560.895	423.38
561.107	428.38
561.32	436.38
561.532	440.38
561.744	447.38
561.956	452.38
562.168	459.38
562.381	459.38
562.593	442.38
562.805	436.38
563.017	433.38
563.229	435.38
563.441	424.38
563.653	451.38
563.865	438.38
564.077	457.38
564.289	453.38
564.501	447.38
564.713	452.38
564.925	464.38
565.137	464.38
565.349	483.38
565.561	480.38
565.773	504.38
565.985	504.38
566.197	504.38
566.408	515.38
566.62	553.38
566.832	568.38
567.044	560.38
567.255	566.38
567.467	563.38
567.679	588.38
567.891	601.38
568.102	599.38
568.314	583.38
568.526	560.38
568.737	517.38
568.949	505.38
569.161	479.38
569.372	481.38
569.584	485.38
569.795	470.38
570.007	459.38
570.218	484.38
570.43	499.38
570.641	437.38
570.853	444.38
571.064	441.38
571.276	421.38
571.487	423.38
571.698	418.38
571.91	408.38
572.121	419.38
572.333	411.38
572.544	402.38
572.755	393.38
572.966	409.38
573.178	402.38
573.389	379.38
573.6	369.38
573.811	368.38
574.023	374.38
574.234	373.38
574.445	371.38
574.656	377.38
574.867	389.38
575.078	364.38
575.289	367.38
575.501	370.38
575.712	381.38
575.923	387.38
576.134	361.38
576.345	370.38
576.556	360.38
576.767	362.38
576.978	351.38
577.188	348.38
577.399	381.38
577.61	362.38
577.821	356.38
578.032	366.38
578.243	401.38
578.454	601.38
578.665	464.38
578.875	373.38
579.086	375.38
579.297	355.38
579.508	361.38
579.718	355.38
579.929	340.38
580.14	335.38
580.35	349.38
580.561	353.38
580.772	353.38
580.982	327.38
581.193	330.38
581.403	348.38
581.614	352.38
581.825	340.38
582.035	337.38
582.246	337.38
582.456	341.38
582.667	334.38
582.877	355.38
583.087	333.38
583.298	320.38
583.508	325.38
583.719	337.38
583.929	326.38
584.139	348.38
584.35	333.38
584.56	329.38
584.77	331.38
584.981	326.38
585.191	333.38
585.401	310.38
585.611	325.38
585.821	329.38
586.032	343.38
586.242	308.38
586.452	321.38
586.662	325.38
586.872	320.38
587.082	326.38
587.292	338.38
587.502	331.38
587.713	344.38
587.923	316.38
588.133	320.38
588.343	321.38
588.553	326.38
588.762	331.38
588.972	327.38
589.182	328.38
589.392	327.38
589.602	325.38
589.812	339.38
590.022	332.38
590.232	323.38
590.441	327.38
590.651	315.38
590.861	317.38
591.071	342.38
591.281	323.38
591.49	319.38
591.7	317.38
591.91	333.38
592.119	331.38
592.329	348.38
592.539	355.38
592.748	341.38
592.958	349.38
593.167	339.38
593.377	352.38
593.587	358.38
593.796	354.38
594.006	351.38
594.215	344.38
594.424	335.38
594.634	346.38
594.843	334.38
595.053	341.38
595.262	337.38
595.472	338.38
595.681	324.38
595.89	310.38
596.1	324.38
596.309	319.38
596.518	307.38
596.727	308.38
596.937	296.38
597.146	307.38
597.355	307.38
597.564	281.38
597.774	284.38
597.983	291.38
598.192	288.38
598.401	303.38
598.61	281.38
598.819	293.38
599.028	300.38
599.237	283.38
599.446	296.38
599.655	273.38
599.864	291.38
600.073	300.38
600.282	290.38
600.491	283.38
600.7	281.38
600.909	289.38
601.118	292.38
601.327	278.38
601.536	278.38
601.745	289.38
601.953	283.38
602.162	279.38
602.371	272.38
602.58	263.38
602.789	283.38
602.997	269.38
603.206	281.38
603.415	269.38
603.623	267.38
603.832	278.38
604.041	291.38
604.249	264.38
604.458	250.38
604.666	267.38
604.875	273.38
605.084	264.38
605.292	273.38
605.501	263.38
605.709	273.38
605.918	263.38
606.126	258.38
606.334	267.38
606.543	263.38
606.751	255.38
606.96	260.38
607.168	259.38
607.376	260.38
607.585	279.38
607.793	263.38
608.001	278.38
608.21	263.38
608.418	269.38
608.626	250.38
608.834	267.38
609.043	252.38
609.251	268.38
609.459	235.38
609.667	265.38
609.875	260.38
610.083	244.38
610.291	250.38
610.499	262.38
610.707	260.38
610.916	248.38
611.124	260.38
611.332	280.38
611.54	269.38
611.748	255.38
611.955	261.38
612.163	245.38
612.371	276.38
612.579	259.38
612.787	261.38
612.995	264.38
613.203	265.38
613.411	260.38
613.618	255.38
613.826	256.38
614.034	269.38
614.242	263.38
614.449	242.38
614.657	244.38
614.865	258.38
615.072	259.38
615.28	244.38
615.488	267.38
615.695	274.38
615.903	275.38
616.111	251.38
616.318	261.38
616.526	272.38
616.733	261.38
616.941	263.38
617.148	251.38
617.356	251.38
617.563	244.38
617.771	241.38
617.978	248.38
618.185	252.38
618.393	261.38
618.6	268.38
618.807	250.38
619.015	249.38
619.222	245.38
619.429	220.38
619.637	252.38
619.844	243.38
620.051	243.38
620.258	241.38
620.466	239.38
620.673	233.38
620.88	231.38
621.087	241.38
621.294	246.38
621.501	233.38
621.708	259.38
621.915	230.38
622.122	239.38
622.329	241.38
622.536	244.38
622.743	234.38
622.95	230.38
623.157	256.38
623.364	239.38
623.571	231.38
623.778	225.38
623.985	230.38
624.192	246.38
624.399	218.38
624.606	230.38
624.812	212.38
625.019	204.38
625.226	239.38
625.433	217.38
625.639	221.38
625.846	216.38
626.053	220.38
626.259	239.38
626.466	250.38
626.673	226.38
626.879	223.38
627.086	220.38
627.293	215.38
627.499	214.38
627.706	229.38
627.912	230.38
628.119	214.38
628.325	221.38
628.532	219.38
628.738	215.38
628.945	206.38
629.151	210.38
629.357	219.38
629.564	199.38
629.77	199.38
629.976	211.38
630.183	210.38
630.389	196.38
630.595	195.38
630.802	211.38
631.008	204.38
631.214	201.38
631.42	213.38
631.627	212.38
631.833	205.38
632.039	202.38
632.245	205.38
632.451	207.38
632.657	206.38
632.863	193.38
633.069	193.38
633.275	198.38
633.481	196.38
633.688	197.38
633.893	191.38
634.099	200.38
634.305	188.38
634.511	195.38
634.717	199.38
634.923	190.38
635.129	182.38
635.335	200.38
635.541	190.38
635.747	200.38
635.952	197.38
636.158	187.38
636.364	190.38
636.57	201.38
636.775	201.38
636.981	197.38
637.187	190.38
637.392	187.38
637.598	195.38
637.804	180.38
638.009	193.38
638.215	187.38
638.421	193.38
638.626	184.38
638.832	185.38
639.037	187.38
639.243	185.38
639.448	187.38
639.654	192.38
639.859	192.38
640.065	176.38
640.27	200.38
640.475	169.38
640.681	188.38
640.886	183.38
641.091	186.38
641.297	183.38
641.502	175.38
641.707	183.38
641.913	177.38
642.118	183.38
642.323	172.38
642.528	181.38
642.733	189.38
642.939	187.38
643.144	179.38
643.349	177.38
643.554	175.38
643.759	177.38
643.964	169.38
644.169	170.38
644.374	172.38
644.579	170.38
644.784	179.38
644.989	171.38
645.194	171.38
645.399	182.38
645.604	183.38
645.809	176.38
646.014	160.38
646.219	177.38
646.423	173.38
646.628	157.38
646.833	167.38
647.038	176.38
647.243	168.38
647.447	171.38
647.652	164.38
647.857	177.38
648.062	187.38
648.266	161.38
648.471	189.38
648.676	177.38
648.88	178.38
649.085	194.38
649.289	184.38
649.494	167.38
649.698	203.38
649.903	170.38
650.107	188.38
650.312	163.38
650.516	180.38
650.721	151.38
650.925	163.38
651.13	165.38
651.334	150.38
651.539	153.38
651.743	157.38
651.947	158.38
652.152	145.38
652.356	156.38
652.56	162.38
652.764	164.38
652.969	152.38
653.173	130.38
653.377	139.38
653.581	141.38
653.785	155.38
653.99	157.38
654.194	136.38
654.398	155.38
654.602	146.38
654.806	140.38
655.01	141.38
655.214	140.38
655.418	133.38
655.622	135.38
655.826	140.38
656.03	131.38
656.234	137.38
656.438	129.38
656.642	146.38
656.846	143.38
657.049	129.38
657.253	128.38
657.457	141.38
657.661	138.38
657.865	103.38
658.068	114.38
658.272	119.38
658.476	116.38
658.68	100.38
658.883	107.38
659.087	107.38
659.291	85.38
659.494	95.38
659.698	105.38
659.901	92.38
660.105	100.38
660.309	86.38
660.512	100.38
660.716	87.38
660.919	72.38
661.123	97.38
661.326	91.38
661.53	81.38
661.733	99.38
661.936	95.38
662.14	81.38
662.343	86.38
662.546	100.38
662.75	113.38
662.953	77.38
663.156	85.38
663.36	84.38
663.563	63.38
663.766	83.38
663.969	77.38
664.173	85.38
664.376	92.38
664.579	85.38
664.782	87.38
664.985	91.38
665.188	74.38
665.391	93.38
665.594	84.38
665.797	84.38
666	80.38
666.203	81.38
666.406	84.38
666.609	90.38
666.812	76.38
667.015	73.38
667.218	72.38
667.421	73.38
667.624	97.38
667.827	79.38
668.03	91.38
668.232	92.38
668.435	80.38
668.638	77.38
668.841	65.38
669.043	75.38
669.246	81.38
669.449	77.38
669.651	76.38
669.854	68.38
670.057	77.38
670.259	77.38
670.462	87.38
670.665	100.38
670.867	91.38
671.07	71.38
671.272	77.38
671.475	71.38
671.677	78.38
671.88	73.38
672.082	65.38
672.284	95.38
672.487	77.38
672.689	85.38
672.892	83.38
