Data from 1979.PennyLincolnUp.Lamp.En5.5.200Scan.071719.P1_HRD10591_16-19-32-863.txt Node
Date: Thu Jul 18 16:19:32 EDT 2019
User: cochatt
Spectrometer: HR+D1059
Trigger mode: 1
Integration Time (sec): 1.000000E-1
Scans to average: 1
Electric dark correction enabled: true
Nonlinearity correction enabled: false
Boxcar width: 0
XAxis mode: Wavelengths
Number of Pixels in Spectrum: 2048
>>>>>Begin Spectral Data<<<<<
223.165	2.88
223.4	2.88
223.635	2.88
223.869	-33.12
224.104	-4.12
224.338	-5.12
224.573	-11.12
224.808	-9.12
225.042	-0.12
225.277	-13.12
225.511	-8.12
225.746	-8.12
225.98	7.88
226.215	14.88
226.449	19.88
226.683	11.88
226.918	14.88
227.152	19.88
227.387	29.88
227.621	35.88
227.856	32.88
228.09	47.88
228.324	53.88
228.559	60.88
228.793	65.88
229.027	101.88
229.262	96.88
229.496	120.88
229.73	121.88
229.964	126.88
230.199	115.88
230.433	109.88
230.667	102.88
230.901	95.88
231.136	111.88
231.37	115.88
231.604	105.88
231.838	103.88
232.072	117.88
232.306	119.88
232.541	104.88
232.775	101.88
233.009	120.88
233.243	101.88
233.477	111.88
233.711	110.88
233.945	116.88
234.179	114.88
234.413	118.88
234.647	110.88
234.881	116.88
235.115	105.88
235.349	133.88
235.583	121.88
235.817	112.88
236.051	119.88
236.285	123.88
236.519	125.88
236.753	125.88
236.987	148.88
237.221	165.88
237.455	206.88
237.689	185.88
237.922	137.88
238.156	124.88
238.39	124.88
238.624	131.88
238.858	132.88
239.091	115.88
239.325	127.88
239.559	123.88
239.793	127.88
240.027	119.88
240.26	140.88
240.494	138.88
240.728	137.88
240.961	113.88
241.195	148.88
241.429	130.88
241.662	117.88
241.896	127.88
242.13	127.88
242.363	137.88
242.597	108.88
242.83	140.88
243.064	141.88
243.298	127.88
243.531	149.88
243.765	141.88
243.998	130.88
244.232	138.88
244.465	136.88
244.699	137.88
244.932	157.88
245.166	122.88
245.399	135.88
245.633	144.88
245.866	136.88
246.099	129.88
246.333	148.88
246.566	139.88
246.8	138.88
247.033	163.88
247.266	152.88
247.5	153.88
247.733	173.88
247.966	158.88
248.2	151.88
248.433	160.88
248.666	164.88
248.899	181.88
249.133	192.88
249.366	182.88
249.599	177.88
249.832	169.88
250.066	164.88
250.299	171.88
250.532	189.88
250.765	170.88
250.998	205.88
251.231	218.88
251.465	195.88
251.698	196.88
251.931	179.88
252.164	188.88
252.397	193.88
252.63	182.88
252.863	170.88
253.096	187.88
253.329	224.88
253.562	209.88
253.795	200.88
254.028	185.88
254.261	185.88
254.494	205.88
254.727	219.88
254.96	242.88
255.193	247.88
255.426	224.88
255.659	213.88
255.892	200.88
256.124	211.88
256.357	199.88
256.59	219.88
256.823	201.88
257.056	205.88
257.289	203.88
257.521	198.88
257.754	195.88
257.987	192.88
258.22	178.88
258.452	192.88
258.685	202.88
258.918	184.88
259.151	199.88
259.383	215.88
259.616	204.88
259.849	211.88
260.081	210.88
260.314	223.88
260.547	227.88
260.779	224.88
261.012	215.88
261.244	220.88
261.477	203.88
261.71	208.88
261.942	222.88
262.175	229.88
262.407	214.88
262.64	203.88
262.872	187.88
263.105	192.88
263.337	200.88
263.57	215.88
263.802	203.88
264.035	191.88
264.267	196.88
264.499	198.88
264.732	210.88
264.964	203.88
265.197	200.88
265.429	195.88
265.661	196.88
265.894	200.88
266.126	210.88
266.358	198.88
266.591	208.88
266.823	206.88
267.055	195.88
267.287	215.88
267.52	217.88
267.752	207.88
267.984	205.88
268.216	223.88
268.448	230.88
268.681	224.88
268.913	231.88
269.145	238.88
269.377	248.88
269.609	266.88
269.841	252.88
270.073	249.88
270.306	263.88
270.538	280.88
270.77	288.88
271.002	279.88
271.234	259.88
271.466	265.88
271.698	279.88
271.93	270.88
272.162	270.88
272.394	287.88
272.626	285.88
272.858	276.88
273.09	251.88
273.322	239.88
273.553	259.88
273.785	253.88
274.017	251.88
274.249	243.88
274.481	225.88
274.713	255.88
274.945	255.88
275.176	239.88
275.408	245.88
275.64	243.88
275.872	253.88
276.104	245.88
276.335	241.88
276.567	230.88
276.799	263.88
277.031	275.88
277.262	284.88
277.494	295.88
277.726	274.88
277.957	264.88
278.189	251.88
278.421	263.88
278.652	261.88
278.884	260.88
279.115	257.88
279.347	245.88
279.579	275.88
279.81	250.88
280.042	249.88
280.273	274.88
280.505	248.88
280.736	255.88
280.968	249.88
281.199	253.88
281.431	246.88
281.662	267.88
281.894	250.88
282.125	273.88
282.356	289.88
282.588	291.88
282.819	301.88
283.051	272.88
283.282	260.88
283.513	273.88
283.745	267.88
283.976	257.88
284.207	269.88
284.439	264.88
284.67	269.88
284.901	268.88
285.132	280.88
285.364	264.88
285.595	277.88
285.826	265.88
286.057	277.88
286.288	258.88
286.52	261.88
286.751	264.88
286.982	257.88
287.213	269.88
287.444	272.88
287.675	292.88
287.906	284.88
288.138	284.88
288.369	292.88
288.6	289.88
288.831	275.88
289.062	294.88
289.293	288.88
289.524	295.88
289.755	277.88
289.986	273.88
290.217	275.88
290.448	249.88
290.679	259.88
290.91	271.88
291.141	275.88
291.371	274.88
291.602	291.88
291.833	283.88
292.064	285.88
292.295	275.88
292.526	290.88
292.757	269.88
292.987	282.88
293.218	263.88
293.449	263.88
293.68	266.88
293.91	287.88
294.141	281.88
294.372	273.88
294.603	274.88
294.833	280.88
295.064	300.88
295.295	286.88
295.525	283.88
295.756	280.88
295.987	300.88
296.217	294.88
296.448	324.88
296.679	315.88
296.909	297.88
297.14	278.88
297.37	307.88
297.601	304.88
297.831	303.88
298.062	293.88
298.292	275.88
298.523	307.88
298.753	297.88
298.984	303.88
299.214	310.88
299.445	305.88
299.675	299.88
299.905	310.88
300.136	292.88
300.366	291.88
300.597	303.88
300.827	300.88
301.057	301.88
301.288	304.88
301.518	325.88
301.748	312.88
301.979	330.88
302.209	307.88
302.439	309.88
302.669	339.88
302.9	322.88
303.13	321.88
303.36	322.88
303.59	327.88
303.82	337.88
304.051	319.88
304.281	299.88
304.511	300.88
304.741	318.88
304.971	317.88
305.201	307.88
305.431	317.88
305.661	326.88
305.891	304.88
306.121	346.88
306.352	337.88
306.582	339.88
306.812	319.88
307.042	320.88
307.272	329.88
307.502	319.88
307.731	317.88
307.961	331.88
308.191	304.88
308.421	331.88
308.651	328.88
308.881	347.88
309.111	339.88
309.341	340.88
309.571	349.88
309.8	346.88
310.03	354.88
310.26	358.88
310.49	361.88
310.72	348.88
310.949	370.88
311.179	376.88
311.409	354.88
311.639	358.88
311.868	363.88
312.098	370.88
312.328	376.88
312.557	377.88
312.787	390.88
313.017	379.88
313.246	378.88
313.476	365.88
313.706	365.88
313.935	367.88
314.165	369.88
314.394	392.88
314.624	364.88
314.853	358.88
315.083	377.88
315.312	377.88
315.542	345.88
315.771	379.88
316.001	373.88
316.23	371.88
316.46	356.88
316.689	364.88
316.919	357.88
317.148	391.88
317.377	379.88
317.607	371.88
317.836	394.88
318.065	362.88
318.295	347.88
318.524	352.88
318.753	368.88
318.983	362.88
319.212	358.88
319.441	362.88
319.67	397.88
319.9	375.88
320.129	364.88
320.358	365.88
320.587	387.88
320.816	357.88
321.046	390.88
321.275	386.88
321.504	380.88
321.733	403.88
321.962	404.88
322.191	397.88
322.42	401.88
322.649	409.88
322.878	433.88
323.108	425.88
323.337	451.88
323.566	477.88
323.795	496.88
324.024	523.88
324.253	607.88
324.482	869.88
324.71	1319.88
324.939	1987.88
325.168	1755.88
325.397	877.88
325.626	607.88
325.855	528.88
326.084	476.88
326.313	469.88
326.542	466.88
326.77	520.88
326.999	594.88
327.228	803.88
327.457	1244.88
327.686	1567.88
327.914	995.88
328.143	653.88
328.372	568.88
328.6	531.88
328.829	536.88
329.058	517.88
329.287	539.88
329.515	532.88
329.744	471.88
329.972	482.88
330.201	495.88
330.43	536.88
330.658	572.88
330.887	545.88
331.115	555.88
331.344	465.88
331.572	457.88
331.801	488.88
332.03	471.88
332.258	478.88
332.486	432.88
332.715	440.88
332.943	446.88
333.172	447.88
333.4	451.88
333.629	455.88
333.857	484.88
334.085	512.88
334.314	495.88
334.542	517.88
334.771	526.88
334.999	498.88
335.227	475.88
335.455	466.88
335.684	454.88
335.912	458.88
336.14	429.88
336.369	450.88
336.597	452.88
336.825	427.88
337.053	422.88
337.281	415.88
337.51	433.88
337.738	441.88
337.966	452.88
338.194	445.88
338.422	452.88
338.65	429.88
338.878	425.88
339.106	433.88
339.334	393.88
339.562	417.88
339.79	405.88
340.018	419.88
340.246	409.88
340.474	437.88
340.702	407.88
340.93	415.88
341.158	423.88
341.386	420.88
341.614	433.88
341.842	439.88
342.07	400.88
342.298	434.88
342.526	407.88
342.754	396.88
342.981	415.88
343.209	420.88
343.437	413.88
343.665	433.88
343.893	437.88
344.12	457.88
344.348	455.88
344.576	438.88
344.804	448.88
345.031	453.88
345.259	435.88
345.487	439.88
345.714	439.88
345.942	414.88
346.17	431.88
346.397	405.88
346.625	401.88
346.853	398.88
347.08	414.88
347.308	415.88
347.535	403.88
347.763	424.88
347.99	419.88
348.218	413.88
348.445	433.88
348.673	434.88
348.9	399.88
349.128	410.88
349.355	393.88
349.583	401.88
349.81	386.88
350.037	402.88
350.265	415.88
350.492	393.88
350.72	397.88
350.947	402.88
351.174	407.88
351.402	429.88
351.629	418.88
351.856	406.88
352.083	431.88
352.311	459.88
352.538	424.88
352.765	426.88
352.992	423.88
353.22	406.88
353.447	401.88
353.674	407.88
353.901	401.88
354.128	394.88
354.355	378.88
354.583	398.88
354.81	390.88
355.037	380.88
355.264	390.88
355.491	387.88
355.718	391.88
355.945	375.88
356.172	377.88
356.399	395.88
356.626	394.88
356.853	365.88
357.08	391.88
357.307	395.88
357.534	407.88
357.761	396.88
357.988	391.88
358.215	402.88
358.441	399.88
358.668	385.88
358.895	379.88
359.122	409.88
359.349	402.88
359.576	423.88
359.802	422.88
360.029	469.88
360.256	468.88
360.483	458.88
360.709	417.88
360.936	407.88
361.163	420.88
361.39	417.88
361.616	424.88
361.843	424.88
362.07	405.88
362.296	430.88
362.523	408.88
362.749	406.88
362.976	422.88
363.203	417.88
363.429	397.88
363.656	393.88
363.882	403.88
364.109	393.88
364.335	408.88
364.562	395.88
364.788	396.88
365.015	389.88
365.241	394.88
365.468	402.88
365.694	403.88
365.92	417.88
366.147	405.88
366.373	405.88
366.599	394.88
366.826	403.88
367.052	376.88
367.278	397.88
367.505	395.88
367.731	407.88
367.957	383.88
368.184	399.88
368.41	423.88
368.636	410.88
368.862	409.88
369.089	427.88
369.315	412.88
369.541	406.88
369.767	408.88
369.993	422.88
370.219	417.88
370.445	400.88
370.672	404.88
370.898	409.88
371.124	405.88
371.35	388.88
371.576	408.88
371.802	408.88
372.028	405.88
372.254	414.88
372.48	400.88
372.706	400.88
372.932	378.88
373.158	423.88
373.384	415.88
373.61	420.88
373.835	420.88
374.061	401.88
374.287	413.88
374.513	436.88
374.739	429.88
374.965	425.88
375.191	436.88
375.416	399.88
375.642	413.88
375.868	409.88
376.094	411.88
376.319	404.88
376.545	412.88
376.771	409.88
376.997	411.88
377.222	424.88
377.448	425.88
377.674	412.88
377.899	403.88
378.125	396.88
378.35	402.88
378.576	404.88
378.802	417.88
379.027	390.88
379.253	408.88
379.478	390.88
379.704	405.88
379.929	407.88
380.155	392.88
380.38	420.88
380.606	431.88
380.831	412.88
381.057	423.88
381.282	409.88
381.507	411.88
381.733	449.88
381.958	428.88
382.184	436.88
382.409	431.88
382.634	419.88
382.86	451.88
383.085	426.88
383.31	410.88
383.535	419.88
383.761	445.88
383.986	428.88
384.211	448.88
384.436	437.88
384.662	424.88
384.887	458.88
385.112	443.88
385.337	473.88
385.562	445.88
385.787	445.88
386.013	480.88
386.238	467.88
386.463	485.88
386.688	469.88
386.913	460.88
387.138	460.88
387.363	458.88
387.588	456.88
387.813	456.88
388.038	450.88
388.263	473.88
388.488	472.88
388.713	469.88
388.938	452.88
389.163	475.88
389.387	466.88
389.612	449.88
389.837	468.88
390.062	447.88
390.287	444.88
390.512	460.88
390.736	486.88
390.961	482.88
391.186	485.88
391.411	475.88
391.636	483.88
391.86	496.88
392.085	492.88
392.31	494.88
392.534	473.88
392.759	483.88
392.984	466.88
393.208	460.88
393.433	487.88
393.658	473.88
393.882	461.88
394.107	473.88
394.331	476.88
394.556	486.88
394.78	474.88
395.005	474.88
395.229	481.88
395.454	507.88
395.678	511.88
395.903	520.88
396.127	534.88
396.352	513.88
396.576	483.88
396.801	474.88
397.025	491.88
397.249	486.88
397.474	497.88
397.698	485.88
397.922	511.88
398.147	526.88
398.371	508.88
398.595	506.88
398.82	519.88
399.044	548.88
399.268	581.88
399.492	625.88
399.717	643.88
399.941	657.88
400.165	687.88
400.389	678.88
400.613	637.88
400.837	589.88
401.062	557.88
401.286	558.88
401.51	541.88
401.734	535.88
401.958	553.88
402.182	551.88
402.406	564.88
402.63	559.88
402.854	574.88
403.078	570.88
403.302	580.88
403.526	574.88
403.75	553.88
403.974	563.88
404.198	579.88
404.422	584.88
404.645	585.88
404.869	579.88
405.093	606.88
405.317	640.88
405.541	665.88
405.765	629.88
405.988	597.88
406.212	630.88
406.436	609.88
406.66	629.88
406.883	618.88
407.107	633.88
407.331	665.88
407.555	758.88
407.778	743.88
408.002	670.88
408.226	667.88
408.449	641.88
408.673	620.88
408.896	662.88
409.12	695.88
409.344	643.88
409.567	599.88
409.791	577.88
410.014	581.88
410.238	579.88
410.461	579.88
410.685	583.88
410.908	597.88
411.132	619.88
411.355	663.88
411.578	620.88
411.802	619.88
412.025	570.88
412.249	560.88
412.472	608.88
412.695	632.88
412.919	616.88
413.142	592.88
413.365	548.88
413.589	571.88
413.812	556.88
414.035	556.88
414.258	547.88
414.482	533.88
414.705	544.88
414.928	519.88
415.151	515.88
415.374	532.88
415.597	549.88
415.821	534.88
416.044	525.88
416.267	557.88
416.49	526.88
416.713	531.88
416.936	542.88
417.159	539.88
417.382	549.88
417.605	555.88
417.828	562.88
418.051	595.88
418.274	557.88
418.497	536.88
418.72	541.88
418.943	544.88
419.166	563.88
419.389	583.88
419.611	566.88
419.834	580.88
420.057	548.88
420.28	575.88
420.503	583.88
420.726	567.88
420.948	579.88
421.171	604.88
421.394	632.88
421.617	615.88
421.839	550.88
422.062	540.88
422.285	572.88
422.507	628.88
422.73	699.88
422.953	673.88
423.175	609.88
423.398	580.88
423.621	576.88
423.843	590.88
424.066	616.88
424.288	586.88
424.511	592.88
424.733	651.88
424.956	752.88
425.178	703.88
425.401	717.88
425.623	731.88
425.846	642.88
426.068	623.88
426.291	609.88
426.513	608.88
426.735	607.88
426.958	603.88
427.18	696.88
427.402	823.88
427.625	934.88
427.847	821.88
428.069	709.88
428.292	618.88
428.514	591.88
428.736	570.88
428.958	575.88
429.181	560.88
429.403	541.88
429.625	554.88
429.847	579.88
430.069	648.88
430.292	632.88
430.514	568.88
430.736	550.88
430.958	550.88
431.18	520.88
431.402	513.88
431.624	501.88
431.846	514.88
432.068	521.88
432.29	539.88
432.512	522.88
432.734	534.88
432.956	524.88
433.178	556.88
433.4	550.88
433.622	548.88
433.844	538.88
434.066	535.88
434.287	539.88
434.509	529.88
434.731	529.88
434.953	541.88
435.175	570.88
435.397	587.88
435.618	575.88
435.84	638.88
436.062	719.88
436.284	793.88
436.505	703.88
436.727	580.88
436.949	571.88
437.17	545.88
437.392	536.88
437.614	575.88
437.835	593.88
438.057	656.88
438.278	779.88
438.5	768.88
438.721	845.88
438.943	817.88
439.165	661.88
439.386	588.88
439.608	611.88
439.829	610.88
440.05	609.88
440.272	671.88
440.493	627.88
440.715	588.88
440.936	565.88
441.158	561.88
441.379	551.88
441.6	580.88
441.822	603.88
442.043	614.88
442.264	686.88
442.486	735.88
442.707	650.88
442.928	595.88
443.149	620.88
443.371	631.88
443.592	661.88
443.813	780.88
444.034	817.88
444.255	685.88
444.476	632.88
444.698	599.88
444.919	629.88
445.14	713.88
445.361	639.88
445.582	633.88
445.803	673.88
446.024	795.88
446.245	788.88
446.466	756.88
446.687	642.88
446.908	601.88
447.129	579.88
447.35	540.88
447.571	539.88
447.792	556.88
448.013	553.88
448.234	553.88
448.455	591.88
448.675	711.88
448.896	821.88
449.117	704.88
449.338	660.88
449.559	770.88
449.779	863.88
450	675.88
450.221	600.88
450.442	542.88
450.662	528.88
450.883	540.88
451.104	534.88
451.324	521.88
451.545	505.88
451.766	504.88
451.986	488.88
452.207	496.88
452.428	493.88
452.648	524.88
452.869	511.88
453.089	500.88
453.31	517.88
453.53	501.88
453.751	470.88
453.971	481.88
454.192	487.88
454.412	498.88
454.633	477.88
454.853	495.88
455.073	480.88
455.294	509.88
455.514	551.88
455.734	554.88
455.955	495.88
456.175	487.88
456.395	441.88
456.616	452.88
456.836	460.88
457.056	463.88
457.276	453.88
457.497	466.88
457.717	457.88
457.937	496.88
458.157	479.88
458.377	482.88
458.598	497.88
458.818	550.88
459.038	616.88
459.258	635.88
459.478	582.88
459.698	530.88
459.918	540.88
460.138	551.88
460.358	543.88
460.578	550.88
460.798	566.88
461.018	581.88
461.238	543.88
461.458	545.88
461.678	540.88
461.898	538.88
462.118	551.88
462.338	571.88
462.558	575.88
462.777	588.88
462.997	620.88
463.217	637.88
463.437	615.88
463.657	620.88
463.876	608.88
464.096	610.88
464.316	577.88
464.536	599.88
464.755	596.88
464.975	585.88
465.195	619.88
465.414	674.88
465.634	644.88
465.854	584.88
466.073	576.88
466.293	523.88
466.512	553.88
466.732	523.88
466.951	521.88
467.171	512.88
467.391	533.88
467.61	523.88
467.829	527.88
468.049	516.88
468.268	525.88
468.488	523.88
468.707	518.88
468.927	536.88
469.146	512.88
469.365	494.88
469.585	493.88
469.804	515.88
470.023	539.88
470.243	503.88
470.462	538.88
470.681	554.88
470.901	557.88
471.12	513.88
471.339	508.88
471.558	521.88
471.777	507.88
471.997	506.88
472.216	524.88
472.435	572.88
472.654	532.88
472.873	505.88
473.092	496.88
473.311	545.88
473.53	514.88
473.749	505.88
473.968	559.88
474.187	633.88
474.406	661.88
474.625	575.88
474.844	534.88
475.063	517.88
475.282	512.88
475.501	511.88
475.72	540.88
475.939	501.88
476.158	533.88
476.377	537.88
476.596	533.88
476.814	541.88
477.033	545.88
477.252	553.88
477.471	564.88
477.69	540.88
477.908	562.88
478.127	578.88
478.346	563.88
478.564	559.88
478.783	582.88
479.002	602.88
479.22	595.88
479.439	617.88
479.658	616.88
479.876	633.88
480.095	623.88
480.313	668.88
480.532	651.88
480.751	657.88
480.969	626.88
481.188	711.88
481.406	719.88
481.624	655.88
481.843	627.88
482.061	631.88
482.28	612.88
482.498	597.88
482.717	570.88
482.935	634.88
483.153	602.88
483.372	630.88
483.59	609.88
483.808	605.88
484.027	609.88
484.245	605.88
484.463	632.88
484.681	625.88
484.9	600.88
485.118	619.88
485.336	616.88
485.554	618.88
485.772	629.88
485.99	631.88
486.209	618.88
486.427	630.88
486.645	662.88
486.863	643.88
487.081	647.88
487.299	636.88
487.517	665.88
487.735	635.88
487.953	647.88
488.171	655.88
488.389	671.88
488.607	647.88
488.825	645.88
489.043	643.88
489.261	652.88
489.479	661.88
489.696	632.88
489.914	649.88
490.132	656.88
490.35	679.88
490.568	657.88
490.786	697.88
491.003	711.88
491.221	706.88
491.439	729.88
491.657	744.88
491.874	719.88
492.092	751.88
492.31	717.88
492.527	739.88
492.745	730.88
492.963	765.88
493.18	737.88
493.398	742.88
493.615	746.88
493.833	725.88
494.05	767.88
494.268	754.88
494.485	732.88
494.703	732.88
494.92	728.88
495.138	737.88
495.355	765.88
495.573	781.88
495.79	755.88
496.008	768.88
496.225	753.88
496.442	773.88
496.66	792.88
496.877	779.88
497.094	777.88
497.312	798.88
497.529	772.88
497.746	794.88
497.963	809.88
498.181	835.88
498.398	854.88
498.615	840.88
498.832	914.88
499.049	919.88
499.267	963.88
499.484	978.88
499.701	1050.88
499.918	1059.88
500.135	1132.88
500.352	1176.88
500.569	1212.88
500.786	1205.88
501.003	1177.88
501.22	1148.88
501.437	1100.88
501.654	1060.88
501.871	1033.88
502.088	966.88
502.305	931.88
502.522	900.88
502.739	870.88
502.956	849.88
503.172	833.88
503.389	800.88
503.606	815.88
503.823	801.88
504.04	774.88
504.256	771.88
504.473	763.88
504.69	773.88
504.907	790.88
505.123	792.88
505.34	732.88
505.557	771.88
505.773	730.88
505.99	740.88
506.207	708.88
506.423	751.88
506.64	699.88
506.856	709.88
507.073	721.88
507.289	692.88
507.506	709.88
507.722	696.88
507.939	740.88
508.155	729.88
508.372	697.88
508.588	661.88
508.805	648.88
509.021	690.88
509.238	712.88
509.454	690.88
509.67	695.88
509.887	675.88
510.103	667.88
510.319	685.88
510.536	769.88
510.752	1221.88
510.968	1033.88
511.184	723.88
511.401	666.88
511.617	668.88
511.833	662.88
512.049	641.88
512.265	657.88
512.481	653.88
512.698	643.88
512.914	632.88
513.13	650.88
513.346	643.88
513.562	652.88
513.778	653.88
513.994	648.88
514.21	664.88
514.426	658.88
514.642	713.88
514.858	753.88
515.074	766.88
515.29	875.88
515.506	1294.88
515.721	1061.88
515.937	742.88
516.153	692.88
516.369	716.88
516.585	708.88
516.801	691.88
517.016	695.88
517.232	707.88
517.448	701.88
517.664	693.88
517.879	690.88
518.095	709.88
518.311	695.88
518.527	678.88
518.742	664.88
518.958	674.88
519.173	647.88
519.389	678.88
519.605	673.88
519.82	637.88
520.036	671.88
520.251	668.88
520.467	693.88
520.682	702.88
520.898	673.88
521.113	716.88
521.329	728.88
521.544	831.88
521.76	987.88
521.975	1614.88
522.19	1607.88
522.406	923.88
522.621	732.88
522.836	666.88
523.052	634.88
523.267	609.88
523.482	595.88
523.698	596.88
523.913	588.88
524.128	592.88
524.343	582.88
524.559	583.88
524.774	580.88
524.989	551.88
525.204	569.88
525.419	578.88
525.634	588.88
525.849	566.88
526.064	571.88
526.28	555.88
526.495	559.88
526.71	534.88
526.925	553.88
527.14	543.88
527.355	556.88
527.57	548.88
527.785	543.88
527.999	538.88
528.214	526.88
528.429	585.88
528.644	525.88
528.859	540.88
529.074	554.88
529.289	556.88
529.503	642.88
529.718	624.88
529.933	561.88
530.148	544.88
530.363	563.88
530.577	542.88
530.792	553.88
531.007	551.88
531.221	526.88
531.436	540.88
531.651	544.88
531.865	537.88
532.08	567.88
532.295	530.88
532.509	523.88
532.724	532.88
532.938	508.88
533.153	539.88
533.367	530.88
533.582	504.88
533.796	497.88
534.011	544.88
534.225	504.88
534.44	508.88
534.654	516.88
534.868	497.88
535.083	522.88
535.297	509.88
535.511	514.88
535.726	543.88
535.94	527.88
536.154	529.88
536.369	522.88
536.583	508.88
536.797	514.88
537.011	516.88
537.225	522.88
537.44	491.88
537.654	476.88
537.868	504.88
538.082	492.88
538.296	509.88
538.51	516.88
538.724	481.88
538.938	492.88
539.153	496.88
539.367	533.88
539.581	511.88
539.795	514.88
540.009	504.88
540.222	479.88
540.436	503.88
540.65	502.88
540.864	504.88
541.078	507.88
541.292	495.88
541.506	513.88
541.72	490.88
541.934	503.88
542.147	497.88
542.361	481.88
542.575	489.88
542.789	498.88
543.002	488.88
543.216	498.88
543.43	482.88
543.644	506.88
543.857	488.88
544.071	495.88
544.285	492.88
544.498	485.88
544.712	482.88
544.925	479.88
545.139	482.88
545.352	495.88
545.566	521.88
545.779	506.88
545.993	469.88
546.206	500.88
546.42	500.88
546.633	506.88
546.847	476.88
547.06	475.88
547.274	504.88
547.487	492.88
547.7	484.88
547.914	476.88
548.127	479.88
548.34	469.88
548.554	488.88
548.767	491.88
548.98	457.88
549.193	461.88
549.407	484.88
549.62	465.88
549.833	492.88
550.046	487.88
550.259	472.88
550.473	481.88
550.686	483.88
550.899	486.88
551.112	472.88
551.325	453.88
551.538	470.88
551.751	469.88
551.964	481.88
552.177	488.88
552.39	485.88
552.603	503.88
552.816	492.88
553.029	472.88
553.242	484.88
553.455	504.88
553.667	506.88
553.88	523.88
554.093	501.88
554.306	484.88
554.519	502.88
554.732	483.88
554.944	477.88
555.157	456.88
555.37	484.88
555.583	477.88
555.795	444.88
556.008	436.88
556.221	460.88
556.433	457.88
556.646	429.88
556.859	428.88
557.071	440.88
557.284	453.88
557.496	428.88
557.709	439.88
557.921	427.88
558.134	427.88
558.346	442.88
558.559	438.88
558.771	429.88
558.984	435.88
559.196	424.88
559.409	433.88
559.621	435.88
559.833	427.88
560.046	423.88
560.258	395.88
560.47	444.88
560.683	428.88
560.895	419.88
561.107	437.88
561.32	428.88
561.532	424.88
561.744	424.88
561.956	401.88
562.168	427.88
562.381	440.88
562.593	428.88
562.805	447.88
563.017	431.88
563.229	426.88
563.441	441.88
563.653	451.88
563.865	428.88
564.077	435.88
564.289	436.88
564.501	460.88
564.713	457.88
564.925	472.88
565.137	464.88
565.349	451.88
565.561	458.88
565.773	474.88
565.985	487.88
566.197	515.88
566.408	523.88
566.62	531.88
566.832	564.88
567.044	552.88
567.255	541.88
567.467	552.88
567.679	563.88
567.891	595.88
568.102	608.88
568.314	551.88
568.526	541.88
568.737	527.88
568.949	480.88
569.161	486.88
569.372	459.88
569.584	478.88
569.795	429.88
570.007	463.88
570.218	480.88
570.43	473.88
570.641	445.88
570.853	444.88
571.064	426.88
571.276	413.88
571.487	411.88
571.698	422.88
571.91	412.88
572.121	416.88
572.333	397.88
572.544	378.88
572.755	403.88
572.966	373.88
573.178	380.88
573.389	368.88
573.6	390.88
573.811	368.88
574.023	362.88
574.234	356.88
574.445	378.88
574.656	366.88
574.867	357.88
575.078	369.88
575.289	368.88
575.501	394.88
575.712	377.88
575.923	355.88
576.134	355.88
576.345	351.88
576.556	368.88
576.767	355.88
576.978	353.88
577.188	353.88
577.399	350.88
577.61	369.88
577.821	343.88
578.032	350.88
578.243	389.88
578.454	569.88
578.665	443.88
578.875	359.88
579.086	357.88
579.297	358.88
579.508	364.88
579.718	351.88
579.929	340.88
580.14	335.88
580.35	344.88
580.561	345.88
580.772	336.88
580.982	334.88
581.193	347.88
581.403	332.88
581.614	333.88
581.825	339.88
582.035	339.88
582.246	321.88
582.456	323.88
582.667	344.88
582.877	329.88
583.087	317.88
583.298	317.88
583.508	324.88
583.719	323.88
583.929	333.88
584.139	326.88
584.35	330.88
584.56	312.88
584.77	313.88
584.981	326.88
585.191	319.88
585.401	345.88
585.611	320.88
585.821	332.88
586.032	325.88
586.242	338.88
586.452	304.88
586.662	320.88
586.872	326.88
587.082	301.88
587.292	314.88
587.502	308.88
587.713	332.88
587.923	331.88
588.133	329.88
588.343	308.88
588.553	328.88
588.762	304.88
588.972	332.88
589.182	333.88
589.392	341.88
589.602	313.88
589.812	323.88
590.022	328.88
590.232	317.88
590.441	311.88
590.651	317.88
590.861	307.88
591.071	323.88
591.281	320.88
591.49	317.88
591.7	332.88
591.91	329.88
592.119	318.88
592.329	352.88
592.539	348.88
592.748	320.88
592.958	343.88
593.167	340.88
593.377	346.88
593.587	340.88
593.796	343.88
594.006	345.88
594.215	349.88
594.424	362.88
594.634	346.88
594.843	344.88
595.053	323.88
595.262	345.88
595.472	310.88
595.681	316.88
595.89	313.88
596.1	321.88
596.309	326.88
596.518	305.88
596.727	304.88
596.937	311.88
597.146	328.88
597.355	301.88
597.564	285.88
597.774	294.88
597.983	290.88
598.192	292.88
598.401	300.88
598.61	282.88
598.819	292.88
599.028	282.88
599.237	277.88
599.446	293.88
599.655	290.88
599.864	290.88
600.073	289.88
600.282	289.88
600.491	295.88
600.7	282.88
600.909	273.88
601.118	279.88
601.327	291.88
601.536	280.88
601.745	279.88
601.953	294.88
602.162	291.88
602.371	276.88
602.58	281.88
602.789	251.88
602.997	260.88
603.206	271.88
603.415	273.88
603.623	271.88
603.832	269.88
604.041	264.88
604.249	268.88
604.458	266.88
604.666	256.88
604.875	278.88
605.084	280.88
605.292	250.88
605.501	275.88
605.709	257.88
605.918	259.88
606.126	257.88
606.334	275.88
606.543	272.88
606.751	256.88
606.96	279.88
607.168	276.88
607.376	260.88
607.585	254.88
607.793	242.88
608.001	265.88
608.21	263.88
608.418	256.88
608.626	250.88
608.834	256.88
609.043	251.88
609.251	252.88
609.459	245.88
609.667	279.88
609.875	267.88
610.083	255.88
610.291	260.88
610.499	250.88
610.707	271.88
610.916	252.88
611.124	250.88
611.332	276.88
611.54	265.88
611.748	255.88
611.955	272.88
612.163	251.88
612.371	253.88
612.579	252.88
612.787	256.88
612.995	251.88
613.203	261.88
613.411	263.88
613.618	247.88
613.826	259.88
614.034	259.88
614.242	249.88
614.449	257.88
614.657	269.88
614.865	251.88
615.072	259.88
615.28	258.88
615.488	249.88
615.695	251.88
615.903	255.88
616.111	261.88
616.318	264.88
616.526	253.88
616.733	250.88
616.941	263.88
617.148	254.88
617.356	244.88
617.563	233.88
617.771	265.88
617.978	260.88
618.185	244.88
618.393	232.88
618.6	251.88
618.807	249.88
619.015	256.88
619.222	239.88
619.429	257.88
619.637	245.88
619.844	234.88
620.051	242.88
620.258	231.88
620.466	236.88
620.673	227.88
620.88	234.88
621.087	233.88
621.294	233.88
621.501	242.88
621.708	239.88
621.915	231.88
622.122	244.88
622.329	242.88
622.536	229.88
622.743	235.88
622.95	223.88
623.157	230.88
623.364	215.88
623.571	221.88
623.778	228.88
623.985	229.88
624.192	236.88
624.399	214.88
624.606	204.88
624.812	216.88
625.019	221.88
625.226	228.88
625.433	229.88
625.639	214.88
625.846	223.88
626.053	227.88
626.259	232.88
626.466	211.88
626.673	205.88
626.879	216.88
627.086	237.88
627.293	227.88
627.499	219.88
627.706	216.88
627.912	200.88
628.119	209.88
628.325	211.88
628.532	201.88
628.738	218.88
628.945	198.88
629.151	206.88
629.357	206.88
629.564	209.88
629.77	203.88
629.976	215.88
630.183	208.88
630.389	207.88
630.595	202.88
630.802	203.88
631.008	193.88
631.214	212.88
631.42	189.88
631.627	219.88
631.833	207.88
632.039	192.88
632.245	199.88
632.451	199.88
632.657	200.88
632.863	202.88
633.069	192.88
633.275	200.88
633.481	216.88
633.688	189.88
633.893	200.88
634.099	198.88
634.305	192.88
634.511	201.88
634.717	190.88
634.923	197.88
635.129	195.88
635.335	187.88
635.541	195.88
635.747	198.88
635.952	177.88
636.158	185.88
636.364	196.88
636.57	196.88
636.775	198.88
636.981	193.88
637.187	186.88
637.392	170.88
637.598	185.88
637.804	199.88
638.009	194.88
638.215	194.88
638.421	170.88
638.626	175.88
638.832	181.88
639.037	189.88
639.243	188.88
639.448	189.88
639.654	204.88
639.859	182.88
640.065	185.88
640.27	193.88
640.475	185.88
640.681	166.88
640.886	189.88
641.091	177.88
641.297	192.88
641.502	179.88
641.707	189.88
641.913	196.88
642.118	177.88
642.323	185.88
642.528	180.88
642.733	170.88
642.939	187.88
643.144	191.88
643.349	161.88
643.554	164.88
643.759	178.88
643.964	163.88
644.169	165.88
644.374	168.88
644.579	180.88
644.784	177.88
644.989	179.88
645.194	184.88
645.399	175.88
645.604	172.88
645.809	174.88
646.014	171.88
646.219	164.88
646.423	164.88
646.628	178.88
646.833	185.88
647.038	196.88
647.243	170.88
647.447	173.88
647.652	179.88
647.857	179.88
648.062	187.88
648.266	168.88
648.471	189.88
648.676	176.88
648.88	172.88
649.085	180.88
649.289	179.88
649.494	165.88
649.698	211.88
649.903	184.88
650.107	179.88
650.312	174.88
650.516	176.88
650.721	176.88
650.925	156.88
651.13	159.88
651.334	163.88
651.539	170.88
651.743	154.88
651.947	151.88
652.152	152.88
652.356	164.88
652.56	123.88
652.764	148.88
652.969	154.88
653.173	149.88
653.377	130.88
653.581	129.88
653.785	153.88
653.99	141.88
654.194	139.88
654.398	143.88
654.602	131.88
654.806	127.88
655.01	135.88
655.214	133.88
655.418	133.88
655.622	135.88
655.826	133.88
656.03	130.88
656.234	128.88
656.438	134.88
656.642	132.88
656.846	136.88
657.049	136.88
657.253	139.88
657.457	126.88
657.661	116.88
657.865	105.88
658.068	114.88
658.272	107.88
658.476	109.88
658.68	102.88
658.883	108.88
659.087	102.88
659.291	106.88
659.494	100.88
659.698	80.88
659.901	108.88
660.105	105.88
660.309	88.88
660.512	99.88
660.716	82.88
660.919	92.88
661.123	108.88
661.326	108.88
661.53	89.88
661.733	82.88
661.936	81.88
662.14	88.88
662.343	93.88
662.546	76.88
662.75	96.88
662.953	101.88
663.156	89.88
663.36	94.88
663.563	89.88
663.766	78.88
663.969	80.88
664.173	75.88
664.376	97.88
664.579	76.88
664.782	83.88
664.985	83.88
665.188	74.88
665.391	92.88
665.594	93.88
665.797	81.88
666	86.88
666.203	85.88
666.406	86.88
666.609	78.88
666.812	78.88
667.015	83.88
667.218	85.88
667.421	89.88
667.624	81.88
667.827	80.88
668.03	95.88
668.232	71.88
668.435	95.88
668.638	77.88
668.841	76.88
669.043	86.88
669.246	75.88
669.449	70.88
669.651	67.88
669.854	74.88
670.057	92.88
670.259	69.88
670.462	75.88
670.665	77.88
670.867	87.88
671.07	91.88
671.272	90.88
671.475	106.88
671.677	88.88
671.88	90.88
672.082	88.88
672.284	86.88
672.487	76.88
672.689	96.88
672.892	95.88
