Data from 1979.PennyLincolnUp.Lamp.En5.5.200Scan.071719.P1_HRD10591_16-19-26-863.txt Node
Date: Thu Jul 18 16:19:26 EDT 2019
User: cochatt
Spectrometer: HR+D1059
Trigger mode: 1
Integration Time (sec): 1.000000E-1
Scans to average: 1
Electric dark correction enabled: true
Nonlinearity correction enabled: false
Boxcar width: 0
XAxis mode: Wavelengths
Number of Pixels in Spectrum: 2048
>>>>>Begin Spectral Data<<<<<
223.165	-0.19
223.4	-0.19
223.635	-0.19
223.869	-17.19
224.104	-11.19
224.338	-12.19
224.573	-22.19
224.808	-19.19
225.042	-8.19
225.277	4.81
225.511	-1.19
225.746	14.81
225.98	3.81
226.215	-1.19
226.449	13.81
226.683	16.81
226.918	18.81
227.152	19.81
227.387	25.81
227.621	25.81
227.856	42.81
228.09	39.81
228.324	39.81
228.559	59.81
228.793	68.81
229.027	99.81
229.262	98.81
229.496	105.81
229.73	121.81
229.964	146.81
230.199	133.81
230.433	112.81
230.667	107.81
230.901	108.81
231.136	95.81
231.37	107.81
231.604	107.81
231.838	89.81
232.072	119.81
232.306	89.81
232.541	105.81
232.775	103.81
233.009	99.81
233.243	111.81
233.477	99.81
233.711	102.81
233.945	114.81
234.179	116.81
234.413	106.81
234.647	100.81
234.881	110.81
235.115	126.81
235.349	126.81
235.583	115.81
235.817	124.81
236.051	121.81
236.285	100.81
236.519	117.81
236.753	123.81
236.987	130.81
237.221	179.81
237.455	215.81
237.689	161.81
237.922	149.81
238.156	120.81
238.39	124.81
238.624	121.81
238.858	111.81
239.091	111.81
239.325	121.81
239.559	122.81
239.793	106.81
240.027	132.81
240.26	130.81
240.494	152.81
240.728	140.81
240.961	142.81
241.195	130.81
241.429	121.81
241.662	132.81
241.896	126.81
242.13	130.81
242.363	130.81
242.597	134.81
242.83	144.81
243.064	150.81
243.298	128.81
243.531	116.81
243.765	140.81
243.998	160.81
244.232	157.81
244.465	135.81
244.699	129.81
244.932	137.81
245.166	156.81
245.399	159.81
245.633	128.81
245.866	125.81
246.099	146.81
246.333	150.81
246.566	142.81
246.8	144.81
247.033	143.81
247.266	151.81
247.5	152.81
247.733	150.81
247.966	162.81
248.2	160.81
248.433	147.81
248.666	161.81
248.899	175.81
249.133	180.81
249.366	187.81
249.599	176.81
249.832	165.81
250.066	163.81
250.299	175.81
250.532	158.81
250.765	208.81
250.998	212.81
251.231	195.81
251.465	199.81
251.698	176.81
251.931	172.81
252.164	184.81
252.397	188.81
252.63	156.81
252.863	199.81
253.096	201.81
253.329	198.81
253.562	207.81
253.795	195.81
254.028	197.81
254.261	200.81
254.494	216.81
254.727	235.81
254.96	235.81
255.193	227.81
255.426	248.81
255.659	220.81
255.892	216.81
256.124	219.81
256.357	224.81
256.59	199.81
256.823	204.81
257.056	191.81
257.289	181.81
257.521	206.81
257.754	205.81
257.987	199.81
258.22	193.81
258.452	197.81
258.685	199.81
258.918	189.81
259.151	198.81
259.383	196.81
259.616	219.81
259.849	199.81
260.081	220.81
260.314	218.81
260.547	226.81
260.779	231.81
261.012	203.81
261.244	207.81
261.477	206.81
261.71	202.81
261.942	203.81
262.175	222.81
262.407	189.81
262.64	207.81
262.872	206.81
263.105	198.81
263.337	197.81
263.57	203.81
263.802	204.81
264.035	196.81
264.267	200.81
264.499	208.81
264.732	206.81
264.964	196.81
265.197	200.81
265.429	182.81
265.661	208.81
265.894	178.81
266.126	204.81
266.358	219.81
266.591	202.81
266.823	215.81
267.055	189.81
267.287	208.81
267.52	217.81
267.752	216.81
267.984	215.81
268.216	204.81
268.448	213.81
268.681	217.81
268.913	230.81
269.145	234.81
269.377	231.81
269.609	242.81
269.841	233.81
270.073	252.81
270.306	274.81
270.538	270.81
270.77	265.81
271.002	272.81
271.234	264.81
271.466	274.81
271.698	284.81
271.93	299.81
272.162	292.81
272.394	274.81
272.626	267.81
272.858	256.81
273.09	257.81
273.322	266.81
273.553	259.81
273.785	232.81
274.017	229.81
274.249	249.81
274.481	260.81
274.713	256.81
274.945	248.81
275.176	251.81
275.408	239.81
275.64	242.81
275.872	252.81
276.104	238.81
276.335	248.81
276.567	254.81
276.799	279.81
277.031	294.81
277.262	290.81
277.494	298.81
277.726	263.81
277.957	260.81
278.189	263.81
278.421	268.81
278.652	256.81
278.884	267.81
279.115	257.81
279.347	244.81
279.579	257.81
279.81	242.81
280.042	255.81
280.273	250.81
280.505	246.81
280.736	256.81
280.968	262.81
281.199	244.81
281.431	247.81
281.662	242.81
281.894	235.81
282.125	243.81
282.356	297.81
282.588	279.81
282.819	273.81
283.051	258.81
283.282	273.81
283.513	267.81
283.745	254.81
283.976	274.81
284.207	272.81
284.439	282.81
284.67	259.81
284.901	272.81
285.132	248.81
285.364	260.81
285.595	254.81
285.826	276.81
286.057	259.81
286.288	266.81
286.52	268.81
286.751	261.81
286.982	266.81
287.213	258.81
287.444	274.81
287.675	276.81
287.906	279.81
288.138	301.81
288.369	278.81
288.6	286.81
288.831	286.81
289.062	294.81
289.293	251.81
289.524	274.81
289.755	254.81
289.986	276.81
290.217	271.81
290.448	269.81
290.679	277.81
290.91	295.81
291.141	278.81
291.371	279.81
291.602	278.81
291.833	279.81
292.064	278.81
292.295	273.81
292.526	274.81
292.757	283.81
292.987	270.81
293.218	279.81
293.449	275.81
293.68	290.81
293.91	287.81
294.141	266.81
294.372	276.81
294.603	283.81
294.833	299.81
295.064	284.81
295.295	282.81
295.525	290.81
295.756	284.81
295.987	288.81
296.217	308.81
296.448	327.81
296.679	295.81
296.909	277.81
297.14	278.81
297.37	286.81
297.601	282.81
297.831	304.81
298.062	304.81
298.292	295.81
298.523	298.81
298.753	295.81
298.984	298.81
299.214	306.81
299.445	292.81
299.675	295.81
299.905	294.81
300.136	316.81
300.366	294.81
300.597	304.81
300.827	317.81
301.057	302.81
301.288	312.81
301.518	319.81
301.748	314.81
301.979	293.81
302.209	325.81
302.439	311.81
302.669	321.81
302.9	318.81
303.13	308.81
303.36	311.81
303.59	324.81
303.82	334.81
304.051	331.81
304.281	320.81
304.511	312.81
304.741	323.81
304.971	293.81
305.201	318.81
305.431	326.81
305.661	320.81
305.891	308.81
306.121	335.81
306.352	324.81
306.582	322.81
306.812	316.81
307.042	326.81
307.272	342.81
307.502	323.81
307.731	327.81
307.961	310.81
308.191	321.81
308.421	310.81
308.651	314.81
308.881	340.81
309.111	335.81
309.341	327.81
309.571	335.81
309.8	331.81
310.03	346.81
310.26	371.81
310.49	358.81
310.72	357.81
310.949	380.81
311.179	376.81
311.409	360.81
311.639	361.81
311.868	364.81
312.098	358.81
312.328	363.81
312.557	371.81
312.787	392.81
313.017	392.81
313.246	375.81
313.476	357.81
313.706	370.81
313.935	363.81
314.165	382.81
314.394	369.81
314.624	377.81
314.853	358.81
315.083	375.81
315.312	356.81
315.542	379.81
315.771	373.81
316.001	362.81
316.23	358.81
316.46	354.81
316.689	360.81
316.919	360.81
317.148	360.81
317.377	354.81
317.607	359.81
317.836	368.81
318.065	364.81
318.295	366.81
318.524	376.81
318.753	346.81
318.983	376.81
319.212	354.81
319.441	368.81
319.67	356.81
319.9	360.81
320.129	352.81
320.358	361.81
320.587	368.81
320.816	387.81
321.046	379.81
321.275	393.81
321.504	396.81
321.733	391.81
321.962	382.81
322.191	393.81
322.42	409.81
322.649	428.81
322.878	406.81
323.108	445.81
323.337	444.81
323.566	456.81
323.795	488.81
324.024	531.81
324.253	624.81
324.482	876.81
324.71	1340.81
324.939	2008.81
325.168	1695.81
325.397	839.81
325.626	582.81
325.855	514.81
326.084	477.81
326.313	472.81
326.542	480.81
326.77	490.81
326.999	580.81
327.228	772.81
327.457	1226.81
327.686	1508.81
327.914	988.81
328.143	645.81
328.372	554.81
328.6	535.81
328.829	516.81
329.058	531.81
329.287	523.81
329.515	514.81
329.744	449.81
329.972	470.81
330.201	487.81
330.43	524.81
330.658	540.81
330.887	550.81
331.115	560.81
331.344	485.81
331.572	456.81
331.801	443.81
332.03	452.81
332.258	454.81
332.486	466.81
332.715	437.81
332.943	444.81
333.172	450.81
333.4	454.81
333.629	471.81
333.857	446.81
334.085	490.81
334.314	487.81
334.542	512.81
334.771	523.81
334.999	497.81
335.227	467.81
335.455	468.81
335.684	453.81
335.912	434.81
336.14	426.81
336.369	444.81
336.597	455.81
336.825	461.81
337.053	428.81
337.281	439.81
337.51	433.81
337.738	428.81
337.966	448.81
338.194	461.81
338.422	430.81
338.65	421.81
338.878	437.81
339.106	424.81
339.334	414.81
339.562	423.81
339.79	416.81
340.018	418.81
340.246	419.81
340.474	422.81
340.702	439.81
340.93	427.81
341.158	419.81
341.386	412.81
341.614	434.81
341.842	436.81
342.07	422.81
342.298	418.81
342.526	415.81
342.754	404.81
342.981	398.81
343.209	414.81
343.437	415.81
343.665	437.81
343.893	427.81
344.12	448.81
344.348	438.81
344.576	447.81
344.804	448.81
345.031	442.81
345.259	453.81
345.487	423.81
345.714	424.81
345.942	435.81
346.17	415.81
346.397	410.81
346.625	415.81
346.853	404.81
347.08	420.81
347.308	402.81
347.535	413.81
347.763	430.81
347.99	403.81
348.218	426.81
348.445	396.81
348.673	413.81
348.9	426.81
349.128	399.81
349.355	408.81
349.583	417.81
349.81	411.81
350.037	385.81
350.265	379.81
350.492	406.81
350.72	385.81
350.947	383.81
351.174	395.81
351.402	422.81
351.629	426.81
351.856	415.81
352.083	435.81
352.311	438.81
352.538	450.81
352.765	424.81
352.992	404.81
353.22	390.81
353.447	407.81
353.674	388.81
353.901	409.81
354.128	402.81
354.355	391.81
354.583	383.81
354.81	387.81
355.037	383.81
355.264	392.81
355.491	389.81
355.718	388.81
355.945	385.81
356.172	373.81
356.399	382.81
356.626	388.81
356.853	377.81
357.08	378.81
357.307	401.81
357.534	400.81
357.761	406.81
357.988	398.81
358.215	385.81
358.441	394.81
358.668	403.81
358.895	387.81
359.122	395.81
359.349	402.81
359.576	436.81
359.802	435.81
360.029	446.81
360.256	447.81
360.483	449.81
360.709	432.81
360.936	410.81
361.163	414.81
361.39	447.81
361.616	415.81
361.843	384.81
362.07	416.81
362.296	396.81
362.523	412.81
362.749	411.81
362.976	435.81
363.203	403.81
363.429	392.81
363.656	397.81
363.882	409.81
364.109	377.81
364.335	412.81
364.562	389.81
364.788	403.81
365.015	399.81
365.241	407.81
365.468	404.81
365.694	412.81
365.92	428.81
366.147	427.81
366.373	386.81
366.599	406.81
366.826	398.81
367.052	393.81
367.278	393.81
367.505	393.81
367.731	400.81
367.957	392.81
368.184	399.81
368.41	409.81
368.636	403.81
368.862	417.81
369.089	396.81
369.315	408.81
369.541	396.81
369.767	407.81
369.993	406.81
370.219	392.81
370.445	419.81
370.672	408.81
370.898	388.81
371.124	395.81
371.35	411.81
371.576	389.81
371.802	412.81
372.028	393.81
372.254	405.81
372.48	407.81
372.706	399.81
372.932	427.81
373.158	412.81
373.384	408.81
373.61	424.81
373.835	412.81
374.061	418.81
374.287	418.81
374.513	416.81
374.739	435.81
374.965	417.81
375.191	428.81
375.416	415.81
375.642	438.81
375.868	415.81
376.094	414.81
376.319	411.81
376.545	413.81
376.771	408.81
376.997	402.81
377.222	410.81
377.448	404.81
377.674	414.81
377.899	398.81
378.125	409.81
378.35	413.81
378.576	394.81
378.802	383.81
379.027	404.81
379.253	413.81
379.478	416.81
379.704	380.81
379.929	408.81
380.155	417.81
380.38	413.81
380.606	421.81
380.831	397.81
381.057	425.81
381.282	407.81
381.507	405.81
381.733	409.81
381.958	426.81
382.184	412.81
382.409	420.81
382.634	425.81
382.86	411.81
383.085	419.81
383.31	420.81
383.535	435.81
383.761	445.81
383.986	435.81
384.211	446.81
384.436	442.81
384.662	454.81
384.887	457.81
385.112	446.81
385.337	433.81
385.562	467.81
385.787	447.81
386.013	494.81
386.238	466.81
386.463	463.81
386.688	454.81
386.913	451.81
387.138	472.81
387.363	457.81
387.588	466.81
387.813	463.81
388.038	465.81
388.263	464.81
388.488	433.81
388.713	456.81
388.938	439.81
389.163	461.81
389.387	448.81
389.612	444.81
389.837	467.81
390.062	459.81
390.287	443.81
390.512	452.81
390.736	460.81
390.961	472.81
391.186	453.81
391.411	452.81
391.636	472.81
391.86	483.81
392.085	485.81
392.31	486.81
392.534	492.81
392.759	473.81
392.984	474.81
393.208	486.81
393.433	468.81
393.658	469.81
393.882	467.81
394.107	474.81
394.331	480.81
394.556	463.81
394.78	468.81
395.005	483.81
395.229	485.81
395.454	472.81
395.678	492.81
395.903	527.81
396.127	481.81
396.352	520.81
396.576	507.81
396.801	474.81
397.025	517.81
397.249	501.81
397.474	497.81
397.698	506.81
397.922	530.81
398.147	531.81
398.371	532.81
398.595	513.81
398.82	553.81
399.044	578.81
399.268	596.81
399.492	609.81
399.717	650.81
399.941	702.81
400.165	662.81
400.389	677.81
400.613	619.81
400.837	601.81
401.062	561.81
401.286	559.81
401.51	555.81
401.734	544.81
401.958	550.81
402.182	547.81
402.406	561.81
402.63	564.81
402.854	567.81
403.078	550.81
403.302	560.81
403.526	582.81
403.75	598.81
403.974	579.81
404.198	563.81
404.422	595.81
404.645	590.81
404.869	585.81
405.093	580.81
405.317	633.81
405.541	682.81
405.765	642.81
405.988	609.81
406.212	595.81
406.436	616.81
406.66	630.81
406.883	632.81
407.107	637.81
407.331	703.81
407.555	761.81
407.778	742.81
408.002	711.81
408.226	662.81
408.449	629.81
408.673	613.81
408.896	658.81
409.12	706.81
409.344	659.81
409.567	612.81
409.791	601.81
410.014	581.81
410.238	592.81
410.461	578.81
410.685	572.81
410.908	611.81
411.132	618.81
411.355	648.81
411.578	635.81
411.802	588.81
412.025	592.81
412.249	568.81
412.472	610.81
412.695	640.81
412.919	617.81
413.142	590.81
413.365	579.81
413.589	537.81
413.812	558.81
414.035	566.81
414.258	556.81
414.482	546.81
414.705	552.81
414.928	538.81
415.151	559.81
415.374	574.81
415.597	534.81
415.821	546.81
416.044	526.81
416.267	537.81
416.49	527.81
416.713	538.81
416.936	534.81
417.159	531.81
417.382	544.81
417.605	525.81
417.828	564.81
418.051	580.81
418.274	546.81
418.497	558.81
418.72	531.81
418.943	530.81
419.166	594.81
419.389	617.81
419.611	569.81
419.834	555.81
420.057	582.81
420.28	582.81
420.503	555.81
420.726	552.81
420.948	575.81
421.171	616.81
421.394	635.81
421.617	581.81
421.839	568.81
422.062	572.81
422.285	583.81
422.507	616.81
422.73	700.81
422.953	690.81
423.175	613.81
423.398	587.81
423.621	579.81
423.843	577.81
424.066	614.81
424.288	586.81
424.511	604.81
424.733	671.81
424.956	731.81
425.178	726.81
425.401	676.81
425.623	727.81
425.846	631.81
426.068	592.81
426.291	597.81
426.513	593.81
426.735	601.81
426.958	605.81
427.18	716.81
427.402	838.81
427.625	919.81
427.847	825.81
428.069	729.81
428.292	632.81
428.514	600.81
428.736	575.81
428.958	564.81
429.181	548.81
429.403	544.81
429.625	575.81
429.847	575.81
430.069	649.81
430.292	646.81
430.514	576.81
430.736	556.81
430.958	543.81
431.18	538.81
431.402	532.81
431.624	519.81
431.846	542.81
432.068	529.81
432.29	531.81
432.512	542.81
432.734	540.81
432.956	542.81
433.178	559.81
433.4	547.81
433.622	526.81
433.844	528.81
434.066	533.81
434.287	536.81
434.509	520.81
434.731	540.81
434.953	549.81
435.175	583.81
435.397	586.81
435.618	586.81
435.84	624.81
436.062	714.81
436.284	792.81
436.505	656.81
436.727	586.81
436.949	549.81
437.17	540.81
437.392	565.81
437.614	580.81
437.835	605.81
438.057	694.81
438.278	765.81
438.5	780.81
438.721	835.81
438.943	805.81
439.165	660.81
439.386	617.81
439.608	592.81
439.829	580.81
440.05	622.81
440.272	678.81
440.493	643.81
440.715	578.81
440.936	555.81
441.158	550.81
441.379	572.81
441.6	585.81
441.822	597.81
442.043	654.81
442.264	706.81
442.486	750.81
442.707	648.81
442.928	612.81
443.149	602.81
443.371	660.81
443.592	648.81
443.813	774.81
444.034	832.81
444.255	714.81
444.476	638.81
444.698	645.81
444.919	608.81
445.14	713.81
445.361	664.81
445.582	658.81
445.803	670.81
446.024	799.81
446.245	786.81
446.466	712.81
446.687	628.81
446.908	599.81
447.129	562.81
447.35	553.81
447.571	553.81
447.792	532.81
448.013	530.81
448.234	546.81
448.455	612.81
448.675	719.81
448.896	816.81
449.117	718.81
449.338	673.81
449.559	763.81
449.779	886.81
450	706.81
450.221	594.81
450.442	562.81
450.662	530.81
450.883	525.81
451.104	544.81
451.324	519.81
451.545	510.81
451.766	493.81
451.986	502.81
452.207	516.81
452.428	463.81
452.648	499.81
452.869	490.81
453.089	492.81
453.31	490.81
453.53	474.81
453.751	512.81
453.971	483.81
454.192	497.81
454.412	499.81
454.633	491.81
454.853	490.81
455.073	499.81
455.294	520.81
455.514	577.81
455.734	529.81
455.955	483.81
456.175	468.81
456.395	460.81
456.616	477.81
456.836	474.81
457.056	479.81
457.276	459.81
457.497	472.81
457.717	479.81
457.937	469.81
458.157	471.81
458.377	492.81
458.598	499.81
458.818	579.81
459.038	616.81
459.258	638.81
459.478	565.81
459.698	543.81
459.918	518.81
460.138	546.81
460.358	560.81
460.578	540.81
460.798	569.81
461.018	560.81
461.238	562.81
461.458	579.81
461.678	553.81
461.898	558.81
462.118	562.81
462.338	585.81
462.558	598.81
462.777	579.81
462.997	600.81
463.217	619.81
463.437	634.81
463.657	626.81
463.876	578.81
464.096	601.81
464.316	596.81
464.536	630.81
464.755	596.81
464.975	594.81
465.195	637.81
465.414	662.81
465.634	601.81
465.854	563.81
466.073	551.81
466.293	535.81
466.512	528.81
466.732	513.81
466.951	508.81
467.171	540.81
467.391	519.81
467.61	510.81
467.829	528.81
468.049	508.81
468.268	514.81
468.488	503.81
468.707	501.81
468.927	508.81
469.146	533.81
469.365	497.81
469.585	492.81
469.804	497.81
470.023	538.81
470.243	508.81
470.462	535.81
470.681	525.81
470.901	545.81
471.12	527.81
471.339	498.81
471.558	511.81
471.777	526.81
471.997	531.81
472.216	531.81
472.435	551.81
472.654	551.81
472.873	537.81
473.092	508.81
473.311	495.81
473.53	522.81
473.749	531.81
473.968	543.81
474.187	647.81
474.406	681.81
474.625	570.81
474.844	526.81
475.063	528.81
475.282	530.81
475.501	526.81
475.72	514.81
475.939	529.81
476.158	530.81
476.377	541.81
476.596	543.81
476.814	541.81
477.033	535.81
477.252	540.81
477.471	553.81
477.69	560.81
477.908	576.81
478.127	548.81
478.346	570.81
478.564	582.81
478.783	579.81
479.002	587.81
479.22	577.81
479.439	615.81
479.658	624.81
479.876	644.81
480.095	615.81
480.313	669.81
480.532	640.81
480.751	636.81
480.969	640.81
481.188	720.81
481.406	726.81
481.624	656.81
481.843	638.81
482.061	630.81
482.28	602.81
482.498	611.81
482.717	600.81
482.935	621.81
483.153	612.81
483.372	590.81
483.59	616.81
483.808	608.81
484.027	609.81
484.245	628.81
484.463	599.81
484.681	598.81
484.9	635.81
485.118	615.81
485.336	627.81
485.554	625.81
485.772	622.81
485.99	631.81
486.209	647.81
486.427	648.81
486.645	664.81
486.863	633.81
487.081	670.81
487.299	667.81
487.517	647.81
487.735	652.81
487.953	663.81
488.171	645.81
488.389	644.81
488.607	617.81
488.825	613.81
489.043	647.81
489.261	670.81
489.479	665.81
489.696	659.81
489.914	655.81
490.132	672.81
490.35	666.81
490.568	676.81
490.786	699.81
491.003	686.81
491.221	710.81
491.439	731.81
491.657	715.81
491.874	740.81
492.092	740.81
492.31	712.81
492.527	727.81
492.745	732.81
492.963	740.81
493.18	716.81
493.398	752.81
493.615	763.81
493.833	765.81
494.05	762.81
494.268	764.81
494.485	737.81
494.703	736.81
494.92	782.81
495.138	754.81
495.355	765.81
495.573	772.81
495.79	747.81
496.008	778.81
496.225	762.81
496.442	770.81
496.66	774.81
496.877	788.81
497.094	790.81
497.312	802.81
497.529	785.81
497.746	822.81
497.963	802.81
498.181	842.81
498.398	843.81
498.615	857.81
498.832	907.81
499.049	920.81
499.267	956.81
499.484	983.81
499.701	1032.81
499.918	1098.81
500.135	1109.81
500.352	1193.81
500.569	1206.81
500.786	1222.81
501.003	1175.81
501.22	1152.81
501.437	1073.81
501.654	1073.81
501.871	992.81
502.088	988.81
502.305	935.81
502.522	917.81
502.739	896.81
502.956	863.81
503.172	867.81
503.389	827.81
503.606	806.81
503.823	805.81
504.04	801.81
504.256	784.81
504.473	781.81
504.69	794.81
504.907	776.81
505.123	779.81
505.34	728.81
505.557	757.81
505.773	741.81
505.99	735.81
506.207	717.81
506.423	738.81
506.64	739.81
506.856	715.81
507.073	704.81
507.289	691.81
507.506	723.81
507.722	723.81
507.939	724.81
508.155	705.81
508.372	673.81
508.588	681.81
508.805	687.81
509.021	690.81
509.238	692.81
509.454	671.81
509.67	707.81
509.887	674.81
510.103	663.81
510.319	681.81
510.536	778.81
510.752	1224.81
510.968	1003.81
511.184	692.81
511.401	662.81
511.617	656.81
511.833	630.81
512.049	660.81
512.265	649.81
512.481	659.81
512.698	635.81
512.914	645.81
513.13	666.81
513.346	625.81
513.562	656.81
513.778	636.81
513.994	652.81
514.21	667.81
514.426	664.81
514.642	717.81
514.858	736.81
515.074	758.81
515.29	880.81
515.506	1249.81
515.721	1074.81
515.937	738.81
516.153	716.81
516.369	714.81
516.585	691.81
516.801	666.81
517.016	696.81
517.232	671.81
517.448	712.81
517.664	714.81
517.879	697.81
518.095	697.81
518.311	682.81
518.527	681.81
518.742	703.81
518.958	683.81
519.173	665.81
519.389	655.81
519.605	670.81
519.82	666.81
520.036	688.81
520.251	674.81
520.467	695.81
520.682	684.81
520.898	698.81
521.113	731.81
521.329	736.81
521.544	820.81
521.76	991.81
521.975	1620.81
522.19	1584.81
522.406	887.81
522.621	695.81
522.836	643.81
523.052	640.81
523.267	617.81
523.482	612.81
523.698	608.81
523.913	626.81
524.128	580.81
524.343	587.81
524.559	566.81
524.774	583.81
524.989	575.81
525.204	602.81
525.419	588.81
525.634	580.81
525.849	554.81
526.064	550.81
526.28	569.81
526.495	537.81
526.71	536.81
526.925	560.81
527.14	545.81
527.355	526.81
527.57	560.81
527.785	544.81
527.999	542.81
528.214	569.81
528.429	548.81
528.644	544.81
528.859	545.81
529.074	539.81
529.289	572.81
529.503	636.81
529.718	586.81
529.933	558.81
530.148	542.81
530.363	559.81
530.577	549.81
530.792	540.81
531.007	544.81
531.221	560.81
531.436	528.81
531.651	533.81
531.865	539.81
532.08	537.81
532.295	518.81
532.509	538.81
532.724	524.81
532.938	536.81
533.153	523.81
533.367	523.81
533.582	516.81
533.796	520.81
534.011	528.81
534.225	528.81
534.44	525.81
534.654	515.81
534.868	489.81
535.083	522.81
535.297	517.81
535.511	492.81
535.726	488.81
535.94	530.81
536.154	534.81
536.369	521.81
536.583	514.81
536.797	528.81
537.011	489.81
537.225	512.81
537.44	498.81
537.654	494.81
537.868	489.81
538.082	485.81
538.296	491.81
538.51	486.81
538.724	498.81
538.938	484.81
539.153	508.81
539.367	513.81
539.581	506.81
539.795	490.81
540.009	499.81
540.222	485.81
540.436	487.81
540.65	486.81
540.864	499.81
541.078	500.81
541.292	522.81
541.506	509.81
541.72	510.81
541.934	501.81
542.147	495.81
542.361	482.81
542.575	479.81
542.789	501.81
543.002	486.81
543.216	508.81
543.43	484.81
543.644	490.81
543.857	490.81
544.071	490.81
544.285	511.81
544.498	490.81
544.712	512.81
544.925	512.81
545.139	484.81
545.352	481.81
545.566	486.81
545.779	515.81
545.993	514.81
546.206	489.81
546.42	503.81
546.633	488.81
546.847	497.81
547.06	473.81
547.274	486.81
547.487	489.81
547.7	497.81
547.914	473.81
548.127	496.81
548.34	484.81
548.554	477.81
548.767	480.81
548.98	484.81
549.193	458.81
549.407	459.81
549.62	490.81
549.833	480.81
550.046	496.81
550.259	477.81
550.473	463.81
550.686	490.81
550.899	496.81
551.112	489.81
551.325	460.81
551.538	480.81
551.751	460.81
551.964	461.81
552.177	489.81
552.39	484.81
552.603	479.81
552.816	491.81
553.029	488.81
553.242	475.81
553.455	489.81
553.667	498.81
553.88	500.81
554.093	507.81
554.306	489.81
554.519	490.81
554.732	480.81
554.944	459.81
555.157	462.81
555.37	474.81
555.583	443.81
555.795	473.81
556.008	457.81
556.221	449.81
556.433	429.81
556.646	440.81
556.859	444.81
557.071	441.81
557.284	448.81
557.496	435.81
557.709	442.81
557.921	423.81
558.134	410.81
558.346	431.81
558.559	434.81
558.771	434.81
558.984	435.81
559.196	422.81
559.409	444.81
559.621	427.81
559.833	421.81
560.046	422.81
560.258	435.81
560.47	440.81
560.683	415.81
560.895	408.81
561.107	431.81
561.32	412.81
561.532	428.81
561.744	427.81
561.956	415.81
562.168	433.81
562.381	413.81
562.593	438.81
562.805	429.81
563.017	434.81
563.229	414.81
563.441	432.81
563.653	441.81
563.865	426.81
564.077	431.81
564.289	441.81
564.501	452.81
564.713	446.81
564.925	454.81
565.137	457.81
565.349	468.81
565.561	473.81
565.773	456.81
565.985	453.81
566.197	506.81
566.408	544.81
566.62	525.81
566.832	561.81
567.044	543.81
567.255	542.81
567.467	586.81
567.679	562.81
567.891	588.81
568.102	603.81
568.314	594.81
568.526	537.81
568.737	528.81
568.949	485.81
569.161	498.81
569.372	463.81
569.584	448.81
569.795	450.81
570.007	443.81
570.218	472.81
570.43	465.81
570.641	426.81
570.853	446.81
571.064	428.81
571.276	410.81
571.487	429.81
571.698	411.81
571.91	404.81
572.121	392.81
572.333	387.81
572.544	412.81
572.755	389.81
572.966	388.81
573.178	357.81
573.389	365.81
573.6	380.81
573.811	388.81
574.023	381.81
574.234	390.81
574.445	357.81
574.656	377.81
574.867	366.81
575.078	361.81
575.289	370.81
575.501	363.81
575.712	368.81
575.923	359.81
576.134	356.81
576.345	344.81
576.556	366.81
576.767	347.81
576.978	347.81
577.188	364.81
577.399	368.81
577.61	359.81
577.821	359.81
578.032	355.81
578.243	393.81
578.454	570.81
578.665	446.81
578.875	359.81
579.086	343.81
579.297	353.81
579.508	336.81
579.718	343.81
579.929	343.81
580.14	328.81
580.35	342.81
580.561	343.81
580.772	335.81
580.982	331.81
581.193	326.81
581.403	325.81
581.614	344.81
581.825	341.81
582.035	323.81
582.246	331.81
582.456	328.81
582.667	337.81
582.877	336.81
583.087	350.81
583.298	320.81
583.508	336.81
583.719	330.81
583.929	326.81
584.139	326.81
584.35	328.81
584.56	334.81
584.77	333.81
584.981	340.81
585.191	332.81
585.401	336.81
585.611	322.81
585.821	325.81
586.032	329.81
586.242	325.81
586.452	329.81
586.662	305.81
586.872	324.81
587.082	327.81
587.292	309.81
587.502	329.81
587.713	315.81
587.923	321.81
588.133	319.81
588.343	314.81
588.553	329.81
588.762	316.81
588.972	339.81
589.182	355.81
589.392	338.81
589.602	331.81
589.812	342.81
590.022	325.81
590.232	313.81
590.441	344.81
590.651	310.81
590.861	330.81
591.071	327.81
591.281	308.81
591.49	322.81
591.7	336.81
591.91	334.81
592.119	323.81
592.329	343.81
592.539	348.81
592.748	340.81
592.958	343.81
593.167	323.81
593.377	334.81
593.587	347.81
593.796	338.81
594.006	342.81
594.215	364.81
594.424	344.81
594.634	345.81
594.843	324.81
595.053	344.81
595.262	329.81
595.472	327.81
595.681	309.81
595.89	323.81
596.1	302.81
596.309	346.81
596.518	296.81
596.727	321.81
596.937	310.81
597.146	314.81
597.355	294.81
597.564	299.81
597.774	299.81
597.983	314.81
598.192	292.81
598.401	297.81
598.61	296.81
598.819	300.81
599.028	279.81
599.237	283.81
599.446	287.81
599.655	288.81
599.864	273.81
600.073	283.81
600.282	279.81
600.491	272.81
600.7	285.81
600.909	274.81
601.118	280.81
601.327	272.81
601.536	277.81
601.745	263.81
601.953	274.81
602.162	284.81
602.371	290.81
602.58	266.81
602.789	279.81
602.997	264.81
603.206	270.81
603.415	272.81
603.623	280.81
603.832	281.81
604.041	274.81
604.249	268.81
604.458	264.81
604.666	271.81
604.875	252.81
605.084	252.81
605.292	255.81
605.501	278.81
605.709	250.81
605.918	277.81
606.126	272.81
606.334	267.81
606.543	275.81
606.751	253.81
606.96	258.81
607.168	262.81
607.376	265.81
607.585	256.81
607.793	258.81
608.001	266.81
608.21	250.81
608.418	251.81
608.626	250.81
608.834	240.81
609.043	246.81
609.251	241.81
609.459	236.81
609.667	252.81
609.875	272.81
610.083	268.81
610.291	258.81
610.499	246.81
610.707	259.81
610.916	242.81
611.124	259.81
611.332	279.81
611.54	263.81
611.748	275.81
611.955	266.81
612.163	233.81
612.371	258.81
612.579	256.81
612.787	259.81
612.995	242.81
613.203	266.81
613.411	252.81
613.618	250.81
613.826	249.81
614.034	237.81
614.242	258.81
614.449	243.81
614.657	242.81
614.865	251.81
615.072	258.81
615.28	248.81
615.488	256.81
615.695	250.81
615.903	245.81
616.111	257.81
616.318	251.81
616.526	246.81
616.733	240.81
616.941	249.81
617.148	251.81
617.356	261.81
617.563	242.81
617.771	253.81
617.978	243.81
618.185	243.81
618.393	235.81
618.6	242.81
618.807	242.81
619.015	251.81
619.222	252.81
619.429	232.81
619.637	251.81
619.844	231.81
620.051	238.81
620.258	242.81
620.466	231.81
620.673	228.81
620.88	226.81
621.087	238.81
621.294	214.81
621.501	234.81
621.708	259.81
621.915	245.81
622.122	240.81
622.329	230.81
622.536	235.81
622.743	234.81
622.95	238.81
623.157	223.81
623.364	222.81
623.571	224.81
623.778	223.81
623.985	234.81
624.192	227.81
624.399	214.81
624.606	225.81
624.812	226.81
625.019	227.81
625.226	214.81
625.433	208.81
625.639	218.81
625.846	208.81
626.053	203.81
626.259	231.81
626.466	227.81
626.673	223.81
626.879	214.81
627.086	211.81
627.293	216.81
627.499	193.81
627.706	216.81
627.912	215.81
628.119	228.81
628.325	202.81
628.532	222.81
628.738	207.81
628.945	216.81
629.151	213.81
629.357	213.81
629.564	227.81
629.77	203.81
629.976	217.81
630.183	200.81
630.389	219.81
630.595	213.81
630.802	211.81
631.008	199.81
631.214	204.81
631.42	196.81
631.627	210.81
631.833	193.81
632.039	195.81
632.245	209.81
632.451	200.81
632.657	190.81
632.863	201.81
633.069	178.81
633.275	178.81
633.481	196.81
633.688	185.81
633.893	206.81
634.099	201.81
634.305	176.81
634.511	183.81
634.717	196.81
634.923	193.81
635.129	187.81
635.335	183.81
635.541	194.81
635.747	185.81
635.952	197.81
636.158	188.81
636.364	188.81
636.57	199.81
636.775	184.81
636.981	191.81
637.187	202.81
637.392	196.81
637.598	163.81
637.804	193.81
638.009	176.81
638.215	183.81
638.421	197.81
638.626	195.81
638.832	175.81
639.037	187.81
639.243	171.81
639.448	174.81
639.654	182.81
639.859	182.81
640.065	176.81
640.27	195.81
640.475	178.81
640.681	180.81
640.886	190.81
641.091	174.81
641.297	168.81
641.502	171.81
641.707	182.81
641.913	176.81
642.118	174.81
642.323	180.81
642.528	175.81
642.733	177.81
642.939	176.81
643.144	168.81
643.349	170.81
643.554	168.81
643.759	171.81
643.964	180.81
644.169	177.81
644.374	158.81
644.579	167.81
644.784	176.81
644.989	168.81
645.194	167.81
645.399	178.81
645.604	186.81
645.809	191.81
646.014	155.81
646.219	176.81
646.423	175.81
646.628	186.81
646.833	188.81
647.038	159.81
647.243	178.81
647.447	174.81
647.652	171.81
647.857	182.81
648.062	169.81
648.266	192.81
648.471	159.81
648.676	180.81
648.88	180.81
649.085	179.81
649.289	155.81
649.494	163.81
649.698	170.81
649.903	181.81
650.107	168.81
650.312	170.81
650.516	151.81
650.721	153.81
650.925	159.81
651.13	157.81
651.334	163.81
651.539	158.81
651.743	148.81
651.947	159.81
652.152	155.81
652.356	138.81
652.56	146.81
652.764	151.81
652.969	137.81
653.173	137.81
653.377	143.81
653.581	147.81
653.785	151.81
653.99	165.81
654.194	146.81
654.398	124.81
654.602	134.81
654.806	147.81
655.01	140.81
655.214	138.81
655.418	132.81
655.622	155.81
655.826	120.81
656.03	128.81
656.234	140.81
656.438	138.81
656.642	146.81
656.846	144.81
657.049	126.81
657.253	112.81
657.457	115.81
657.661	116.81
657.865	116.81
658.068	107.81
658.272	114.81
658.476	115.81
658.68	113.81
658.883	100.81
659.087	99.81
659.291	97.81
659.494	86.81
659.698	103.81
659.901	80.81
660.105	103.81
660.309	83.81
660.512	75.81
660.716	98.81
660.919	100.81
661.123	98.81
661.326	95.81
661.53	86.81
661.733	88.81
661.936	83.81
662.14	78.81
662.343	76.81
662.546	75.81
662.75	86.81
662.953	71.81
663.156	64.81
663.36	92.81
663.563	65.81
663.766	76.81
663.969	75.81
664.173	76.81
664.376	80.81
664.579	79.81
664.782	82.81
664.985	77.81
665.188	69.81
665.391	78.81
665.594	73.81
665.797	70.81
666	62.81
666.203	72.81
666.406	79.81
666.609	72.81
666.812	79.81
667.015	73.81
667.218	73.81
667.421	90.81
667.624	76.81
667.827	84.81
668.03	87.81
668.232	83.81
668.435	85.81
668.638	82.81
668.841	87.81
669.043	95.81
669.246	84.81
669.449	83.81
669.651	84.81
669.854	72.81
670.057	80.81
670.259	94.81
670.462	80.81
670.665	84.81
670.867	89.81
671.07	82.81
671.272	86.81
671.475	80.81
671.677	65.81
671.88	80.81
672.082	57.81
672.284	73.81
672.487	87.81
672.689	76.81
672.892	91.81
