Data from 1979.PennyLincolnUp.Lamp.En5.5.200Scan.071719.P1_HRD10591_16-18-27-863.txt Node
Date: Thu Jul 18 16:18:27 EDT 2019
User: cochatt
Spectrometer: HR+D1059
Trigger mode: 1
Integration Time (sec): 1.000000E-1
Scans to average: 1
Electric dark correction enabled: true
Nonlinearity correction enabled: false
Boxcar width: 0
XAxis mode: Wavelengths
Number of Pixels in Spectrum: 2048
>>>>>Begin Spectral Data<<<<<
223.165	-19.12
223.4	-19.12
223.635	-19.12
223.869	-15.12
224.104	-17.12
224.338	-34.12
224.573	0.88
224.808	-7.12
225.042	-13.12
225.277	-2.12
225.511	2.88
225.746	-1.12
225.98	9.88
226.215	11.88
226.449	5.88
226.683	25.88
226.918	19.88
227.152	31.88
227.387	18.88
227.621	23.88
227.856	46.88
228.09	41.88
228.324	41.88
228.559	51.88
228.793	67.88
229.027	95.88
229.262	91.88
229.496	98.88
229.73	114.88
229.964	134.88
230.199	116.88
230.433	96.88
230.667	107.88
230.901	111.88
231.136	106.88
231.37	98.88
231.604	101.88
231.838	117.88
232.072	101.88
232.306	97.88
232.541	105.88
232.775	110.88
233.009	104.88
233.243	104.88
233.477	112.88
233.711	113.88
233.945	112.88
234.179	117.88
234.413	103.88
234.647	113.88
234.881	112.88
235.115	95.88
235.349	125.88
235.583	115.88
235.817	114.88
236.051	124.88
236.285	115.88
236.519	112.88
236.753	126.88
236.987	132.88
237.221	146.88
237.455	197.88
237.689	152.88
237.922	134.88
238.156	132.88
238.39	121.88
238.624	129.88
238.858	110.88
239.091	125.88
239.325	122.88
239.559	133.88
239.793	126.88
240.027	136.88
240.26	124.88
240.494	140.88
240.728	133.88
240.961	132.88
241.195	141.88
241.429	126.88
241.662	127.88
241.896	130.88
242.13	127.88
242.363	120.88
242.597	128.88
242.83	143.88
243.064	126.88
243.298	124.88
243.531	136.88
243.765	130.88
243.998	130.88
244.232	121.88
244.465	130.88
244.699	126.88
244.932	150.88
245.166	134.88
245.399	132.88
245.633	134.88
245.866	136.88
246.099	142.88
246.333	144.88
246.566	144.88
246.8	147.88
247.033	140.88
247.266	146.88
247.5	156.88
247.733	151.88
247.966	152.88
248.2	168.88
248.433	155.88
248.666	170.88
248.899	162.88
249.133	179.88
249.366	178.88
249.599	187.88
249.832	154.88
250.066	154.88
250.299	165.88
250.532	176.88
250.765	193.88
250.998	206.88
251.231	200.88
251.465	188.88
251.698	162.88
251.931	180.88
252.164	186.88
252.397	182.88
252.63	167.88
252.863	182.88
253.096	190.88
253.329	183.88
253.562	195.88
253.795	193.88
254.028	201.88
254.261	180.88
254.494	200.88
254.727	211.88
254.96	229.88
255.193	215.88
255.426	220.88
255.659	216.88
255.892	209.88
256.124	203.88
256.357	204.88
256.59	198.88
256.823	191.88
257.056	202.88
257.289	204.88
257.521	190.88
257.754	188.88
257.987	193.88
258.22	199.88
258.452	186.88
258.685	199.88
258.918	189.88
259.151	190.88
259.383	201.88
259.616	194.88
259.849	209.88
260.081	199.88
260.314	214.88
260.547	238.88
260.779	201.88
261.012	206.88
261.244	204.88
261.477	203.88
261.71	221.88
261.942	210.88
262.175	214.88
262.407	199.88
262.64	190.88
262.872	207.88
263.105	195.88
263.337	181.88
263.57	199.88
263.802	182.88
264.035	196.88
264.267	191.88
264.499	203.88
264.732	201.88
264.964	193.88
265.197	207.88
265.429	197.88
265.661	192.88
265.894	197.88
266.126	215.88
266.358	202.88
266.591	205.88
266.823	190.88
267.055	207.88
267.287	195.88
267.52	212.88
267.752	201.88
267.984	207.88
268.216	204.88
268.448	198.88
268.681	215.88
268.913	228.88
269.145	213.88
269.377	255.88
269.609	250.88
269.841	235.88
270.073	240.88
270.306	250.88
270.538	259.88
270.77	240.88
271.002	238.88
271.234	242.88
271.466	231.88
271.698	260.88
271.93	262.88
272.162	255.88
272.394	271.88
272.626	253.88
272.858	252.88
273.09	240.88
273.322	232.88
273.553	225.88
273.785	220.88
274.017	224.88
274.249	239.88
274.481	242.88
274.713	234.88
274.945	232.88
275.176	255.88
275.408	245.88
275.64	232.88
275.872	242.88
276.104	248.88
276.335	216.88
276.567	234.88
276.799	245.88
277.031	270.88
277.262	283.88
277.494	284.88
277.726	274.88
277.957	233.88
278.189	249.88
278.421	246.88
278.652	242.88
278.884	250.88
279.115	231.88
279.347	259.88
279.579	242.88
279.81	243.88
280.042	246.88
280.273	250.88
280.505	246.88
280.736	235.88
280.968	254.88
281.199	238.88
281.431	263.88
281.662	240.88
281.894	245.88
282.125	252.88
282.356	272.88
282.588	281.88
282.819	263.88
283.051	267.88
283.282	255.88
283.513	240.88
283.745	255.88
283.976	242.88
284.207	252.88
284.439	266.88
284.67	273.88
284.901	255.88
285.132	257.88
285.364	270.88
285.595	260.88
285.826	252.88
286.057	258.88
286.288	239.88
286.52	258.88
286.751	262.88
286.982	259.88
287.213	253.88
287.444	257.88
287.675	248.88
287.906	283.88
288.138	285.88
288.369	274.88
288.6	281.88
288.831	275.88
289.062	284.88
289.293	267.88
289.524	268.88
289.755	272.88
289.986	251.88
290.217	266.88
290.448	262.88
290.679	274.88
290.91	269.88
291.141	260.88
291.371	275.88
291.602	265.88
291.833	249.88
292.064	267.88
292.295	254.88
292.526	265.88
292.757	279.88
292.987	251.88
293.218	265.88
293.449	273.88
293.68	279.88
293.91	278.88
294.141	259.88
294.372	267.88
294.603	282.88
294.833	272.88
295.064	274.88
295.295	269.88
295.525	284.88
295.756	270.88
295.987	286.88
296.217	328.88
296.448	323.88
296.679	282.88
296.909	274.88
297.14	277.88
297.37	276.88
297.601	288.88
297.831	293.88
298.062	286.88
298.292	285.88
298.523	294.88
298.753	291.88
298.984	301.88
299.214	284.88
299.445	269.88
299.675	283.88
299.905	285.88
300.136	302.88
300.366	286.88
300.597	300.88
300.827	294.88
301.057	315.88
301.288	310.88
301.518	305.88
301.748	300.88
301.979	312.88
302.209	311.88
302.439	291.88
302.669	311.88
302.9	298.88
303.13	310.88
303.36	308.88
303.59	303.88
303.82	326.88
304.051	328.88
304.281	299.88
304.511	320.88
304.741	310.88
304.971	306.88
305.201	300.88
305.431	302.88
305.661	310.88
305.891	309.88
306.121	314.88
306.352	313.88
306.582	329.88
306.812	311.88
307.042	316.88
307.272	322.88
307.502	297.88
307.731	289.88
307.961	313.88
308.191	303.88
308.421	315.88
308.651	311.88
308.881	320.88
309.111	308.88
309.341	323.88
309.571	306.88
309.8	327.88
310.03	336.88
310.26	340.88
310.49	343.88
310.72	337.88
310.949	355.88
311.179	359.88
311.409	339.88
311.639	340.88
311.868	343.88
312.098	328.88
312.328	343.88
312.557	352.88
312.787	372.88
313.017	366.88
313.246	360.88
313.476	369.88
313.706	338.88
313.935	347.88
314.165	368.88
314.394	382.88
314.624	356.88
314.853	354.88
315.083	369.88
315.312	355.88
315.542	333.88
315.771	370.88
316.001	337.88
316.23	344.88
316.46	336.88
316.689	350.88
316.919	347.88
317.148	350.88
317.377	364.88
317.607	343.88
317.836	343.88
318.065	353.88
318.295	361.88
318.524	335.88
318.753	327.88
318.983	356.88
319.212	348.88
319.441	363.88
319.67	366.88
319.9	346.88
320.129	354.88
320.358	358.88
320.587	339.88
320.816	351.88
321.046	363.88
321.275	373.88
321.504	386.88
321.733	376.88
321.962	355.88
322.191	375.88
322.42	389.88
322.649	402.88
322.878	416.88
323.108	397.88
323.337	416.88
323.566	427.88
323.795	465.88
324.024	458.88
324.253	572.88
324.482	789.88
324.71	1244.88
324.939	1831.88
325.168	1588.88
325.397	819.88
325.626	558.88
325.855	470.88
326.084	448.88
326.313	452.88
326.542	452.88
326.77	488.88
326.999	569.88
327.228	742.88
327.457	1129.88
327.686	1402.88
327.914	886.88
328.143	596.88
328.372	536.88
328.6	527.88
328.829	482.88
329.058	490.88
329.287	503.88
329.515	477.88
329.744	448.88
329.972	446.88
330.201	459.88
330.43	484.88
330.658	488.88
330.887	545.88
331.115	510.88
331.344	444.88
331.572	439.88
331.801	444.88
332.03	442.88
332.258	426.88
332.486	431.88
332.715	428.88
332.943	432.88
333.172	434.88
333.4	447.88
333.629	436.88
333.857	473.88
334.085	471.88
334.314	458.88
334.542	479.88
334.771	506.88
334.999	472.88
335.227	452.88
335.455	452.88
335.684	423.88
335.912	422.88
336.14	417.88
336.369	417.88
336.597	439.88
336.825	410.88
337.053	418.88
337.281	433.88
337.51	422.88
337.738	429.88
337.966	421.88
338.194	433.88
338.422	402.88
338.65	405.88
338.878	418.88
339.106	423.88
339.334	416.88
339.562	411.88
339.79	419.88
340.018	399.88
340.246	392.88
340.474	403.88
340.702	415.88
340.93	399.88
341.158	415.88
341.386	421.88
341.614	410.88
341.842	408.88
342.07	391.88
342.298	379.88
342.526	387.88
342.754	396.88
342.981	409.88
343.209	395.88
343.437	414.88
343.665	398.88
343.893	412.88
344.12	427.88
344.348	427.88
344.576	418.88
344.804	434.88
345.031	419.88
345.259	419.88
345.487	414.88
345.714	405.88
345.942	406.88
346.17	406.88
346.397	384.88
346.625	378.88
346.853	373.88
347.08	396.88
347.308	386.88
347.535	416.88
347.763	401.88
347.99	398.88
348.218	370.88
348.445	396.88
348.673	387.88
348.9	411.88
349.128	405.88
349.355	398.88
349.583	385.88
349.81	379.88
350.037	383.88
350.265	389.88
350.492	384.88
350.72	396.88
350.947	380.88
351.174	391.88
351.402	394.88
351.629	387.88
351.856	392.88
352.083	399.88
352.311	390.88
352.538	407.88
352.765	418.88
352.992	402.88
353.22	399.88
353.447	395.88
353.674	393.88
353.901	384.88
354.128	380.88
354.355	370.88
354.583	368.88
354.81	360.88
355.037	380.88
355.264	382.88
355.491	385.88
355.718	382.88
355.945	378.88
356.172	370.88
356.399	386.88
356.626	359.88
356.853	378.88
357.08	370.88
357.307	357.88
357.534	372.88
357.761	374.88
357.988	377.88
358.215	370.88
358.441	371.88
358.668	384.88
358.895	400.88
359.122	386.88
359.349	375.88
359.576	391.88
359.802	413.88
360.029	423.88
360.256	430.88
360.483	426.88
360.709	396.88
360.936	400.88
361.163	380.88
361.39	402.88
361.616	399.88
361.843	398.88
362.07	397.88
362.296	394.88
362.523	409.88
362.749	399.88
362.976	379.88
363.203	389.88
363.429	380.88
363.656	398.88
363.882	394.88
364.109	397.88
364.335	380.88
364.562	397.88
364.788	392.88
365.015	388.88
365.241	375.88
365.468	394.88
365.694	392.88
365.92	390.88
366.147	378.88
366.373	402.88
366.599	402.88
366.826	374.88
367.052	394.88
367.278	386.88
367.505	391.88
367.731	399.88
367.957	388.88
368.184	394.88
368.41	367.88
368.636	394.88
368.862	390.88
369.089	400.88
369.315	369.88
369.541	390.88
369.767	370.88
369.993	400.88
370.219	403.88
370.445	390.88
370.672	390.88
370.898	398.88
371.124	409.88
371.35	384.88
371.576	405.88
371.802	407.88
372.028	397.88
372.254	381.88
372.48	415.88
372.706	409.88
372.932	395.88
373.158	402.88
373.384	410.88
373.61	390.88
373.835	386.88
374.061	412.88
374.287	404.88
374.513	401.88
374.739	412.88
374.965	417.88
375.191	420.88
375.416	406.88
375.642	408.88
375.868	416.88
376.094	400.88
376.319	414.88
376.545	409.88
376.771	396.88
376.997	400.88
377.222	396.88
377.448	408.88
377.674	404.88
377.899	404.88
378.125	403.88
378.35	391.88
378.576	408.88
378.802	396.88
379.027	401.88
379.253	404.88
379.478	377.88
379.704	386.88
379.929	396.88
380.155	409.88
380.38	399.88
380.606	403.88
380.831	406.88
381.057	394.88
381.282	376.88
381.507	380.88
381.733	383.88
381.958	428.88
382.184	411.88
382.409	406.88
382.634	425.88
382.86	416.88
383.085	402.88
383.31	408.88
383.535	418.88
383.761	411.88
383.986	411.88
384.211	433.88
384.436	418.88
384.662	432.88
384.887	422.88
385.112	430.88
385.337	418.88
385.562	419.88
385.787	450.88
386.013	466.88
386.238	456.88
386.463	442.88
386.688	461.88
386.913	454.88
387.138	462.88
387.363	444.88
387.588	433.88
387.813	433.88
388.038	452.88
388.263	446.88
388.488	460.88
388.713	440.88
388.938	458.88
389.163	460.88
389.387	420.88
389.612	455.88
389.837	460.88
390.062	449.88
390.287	450.88
390.512	422.88
390.736	441.88
390.961	457.88
391.186	460.88
391.411	463.88
391.636	459.88
391.86	462.88
392.085	475.88
392.31	471.88
392.534	483.88
392.759	446.88
392.984	443.88
393.208	475.88
393.433	472.88
393.658	484.88
393.882	481.88
394.107	473.88
394.331	437.88
394.556	446.88
394.78	458.88
395.005	476.88
395.229	451.88
395.454	452.88
395.678	482.88
395.903	478.88
396.127	491.88
396.352	506.88
396.576	472.88
396.801	472.88
397.025	474.88
397.249	490.88
397.474	486.88
397.698	486.88
397.922	510.88
398.147	503.88
398.371	496.88
398.595	517.88
398.82	508.88
399.044	528.88
399.268	543.88
399.492	571.88
399.717	638.88
399.941	626.88
400.165	616.88
400.389	662.88
400.613	586.88
400.837	550.88
401.062	545.88
401.286	542.88
401.51	529.88
401.734	539.88
401.958	555.88
402.182	544.88
402.406	560.88
402.63	559.88
402.854	531.88
403.078	557.88
403.302	586.88
403.526	559.88
403.75	548.88
403.974	552.88
404.198	560.88
404.422	527.88
404.645	575.88
404.869	570.88
405.093	598.88
405.317	634.88
405.541	641.88
405.765	614.88
405.988	583.88
406.212	578.88
406.436	608.88
406.66	624.88
406.883	598.88
407.107	641.88
407.331	655.88
407.555	737.88
407.778	717.88
408.002	641.88
408.226	636.88
408.449	632.88
408.673	628.88
408.896	622.88
409.12	669.88
409.344	635.88
409.567	615.88
409.791	580.88
410.014	561.88
410.238	574.88
410.461	574.88
410.685	580.88
410.908	579.88
411.132	590.88
411.355	642.88
411.578	600.88
411.802	554.88
412.025	544.88
412.249	579.88
412.472	598.88
412.695	610.88
412.919	610.88
413.142	579.88
413.365	571.88
413.589	546.88
413.812	522.88
414.035	524.88
414.258	544.88
414.482	540.88
414.705	531.88
414.928	523.88
415.151	524.88
415.374	542.88
415.597	531.88
415.821	539.88
416.044	532.88
416.267	516.88
416.49	522.88
416.713	538.88
416.936	524.88
417.159	517.88
417.382	512.88
417.605	523.88
417.828	525.88
418.051	524.88
418.274	542.88
418.497	542.88
418.72	554.88
418.943	530.88
419.166	546.88
419.389	572.88
419.611	587.88
419.834	570.88
420.057	558.88
420.28	555.88
420.503	545.88
420.726	547.88
420.948	549.88
421.171	598.88
421.394	602.88
421.617	552.88
421.839	554.88
422.062	539.88
422.285	548.88
422.507	612.88
422.73	683.88
422.953	656.88
423.175	592.88
423.398	560.88
423.621	575.88
423.843	591.88
424.066	588.88
424.288	558.88
424.511	596.88
424.733	644.88
424.956	710.88
425.178	681.88
425.401	686.88
425.623	686.88
425.846	612.88
426.068	585.88
426.291	564.88
426.513	547.88
426.735	573.88
426.958	607.88
427.18	675.88
427.402	818.88
427.625	872.88
427.847	764.88
428.069	675.88
428.292	603.88
428.514	586.88
428.736	566.88
428.958	570.88
429.181	520.88
429.403	525.88
429.625	560.88
429.847	567.88
430.069	615.88
430.292	611.88
430.514	554.88
430.736	545.88
430.958	523.88
431.18	521.88
431.402	497.88
431.624	512.88
431.846	511.88
432.068	529.88
432.29	515.88
432.512	508.88
432.734	523.88
432.956	515.88
433.178	526.88
433.4	537.88
433.622	514.88
433.844	518.88
434.066	500.88
434.287	517.88
434.509	551.88
434.731	542.88
434.953	553.88
435.175	559.88
435.397	577.88
435.618	556.88
435.84	615.88
436.062	695.88
436.284	738.88
436.505	631.88
436.727	566.88
436.949	548.88
437.17	545.88
437.392	516.88
437.614	554.88
437.835	566.88
438.057	630.88
438.278	746.88
438.5	732.88
438.721	795.88
438.943	757.88
439.165	628.88
439.386	571.88
439.608	589.88
439.829	586.88
440.05	607.88
440.272	630.88
440.493	597.88
440.715	586.88
440.936	550.88
441.158	545.88
441.379	544.88
441.6	555.88
441.822	567.88
442.043	609.88
442.264	671.88
442.486	719.88
442.707	624.88
442.928	586.88
443.149	589.88
443.371	618.88
443.592	655.88
443.813	703.88
444.034	795.88
444.255	653.88
444.476	606.88
444.698	597.88
444.919	594.88
445.14	716.88
445.361	640.88
445.582	620.88
445.803	693.88
446.024	762.88
446.245	747.88
446.466	694.88
446.687	609.88
446.908	570.88
447.129	547.88
447.35	525.88
447.571	530.88
447.792	519.88
448.013	522.88
448.234	531.88
448.455	583.88
448.675	666.88
448.896	802.88
449.117	683.88
449.338	626.88
449.559	718.88
449.779	821.88
450	681.88
450.221	570.88
450.442	520.88
450.662	516.88
450.883	527.88
451.104	512.88
451.324	522.88
451.545	508.88
451.766	487.88
451.986	487.88
452.207	474.88
452.428	464.88
452.648	475.88
452.869	475.88
453.089	472.88
453.31	499.88
453.53	471.88
453.751	472.88
453.971	477.88
454.192	502.88
454.412	507.88
454.633	481.88
454.853	466.88
455.073	476.88
455.294	501.88
455.514	559.88
455.734	528.88
455.955	485.88
456.175	473.88
456.395	460.88
456.616	476.88
456.836	459.88
457.056	452.88
457.276	460.88
457.497	472.88
457.717	451.88
457.937	464.88
458.157	449.88
458.377	480.88
458.598	484.88
458.818	555.88
459.038	600.88
459.258	604.88
459.478	559.88
459.698	538.88
459.918	542.88
460.138	514.88
460.358	527.88
460.578	534.88
460.798	531.88
461.018	543.88
461.238	538.88
461.458	528.88
461.678	523.88
461.898	539.88
462.118	555.88
462.338	570.88
462.558	558.88
462.777	569.88
462.997	571.88
463.217	600.88
463.437	600.88
463.657	600.88
463.876	593.88
464.096	616.88
464.316	585.88
464.536	569.88
464.755	587.88
464.975	576.88
465.195	604.88
465.414	650.88
465.634	598.88
465.854	571.88
466.073	540.88
466.293	519.88
466.512	504.88
466.732	523.88
466.951	500.88
467.171	498.88
467.391	508.88
467.61	508.88
467.829	499.88
468.049	496.88
468.268	500.88
468.488	487.88
468.707	465.88
468.927	490.88
469.146	490.88
469.365	470.88
469.585	481.88
469.804	499.88
470.023	487.88
470.243	490.88
470.462	504.88
470.681	526.88
470.901	502.88
471.12	512.88
471.339	500.88
471.558	479.88
471.777	462.88
471.997	475.88
472.216	512.88
472.435	523.88
472.654	495.88
472.873	505.88
473.092	500.88
473.311	484.88
473.53	514.88
473.749	516.88
473.968	539.88
474.187	619.88
474.406	643.88
474.625	542.88
474.844	508.88
475.063	531.88
475.282	496.88
475.501	490.88
475.72	520.88
475.939	525.88
476.158	520.88
476.377	530.88
476.596	527.88
476.814	535.88
477.033	540.88
477.252	546.88
477.471	554.88
477.69	555.88
477.908	570.88
478.127	516.88
478.346	550.88
478.564	555.88
478.783	574.88
479.002	562.88
479.22	588.88
479.439	593.88
479.658	597.88
479.876	609.88
480.095	603.88
480.313	638.88
480.532	607.88
480.751	626.88
480.969	618.88
481.188	683.88
481.406	726.88
481.624	650.88
481.843	605.88
482.061	601.88
482.28	581.88
482.498	600.88
482.717	598.88
482.935	594.88
483.153	587.88
483.372	566.88
483.59	586.88
483.808	586.88
484.027	603.88
484.245	587.88
484.463	611.88
484.681	578.88
484.9	586.88
485.118	591.88
485.336	611.88
485.554	584.88
485.772	615.88
485.99	579.88
486.209	606.88
486.427	618.88
486.645	618.88
486.863	639.88
487.081	632.88
487.299	640.88
487.517	613.88
487.735	626.88
487.953	619.88
488.171	609.88
488.389	623.88
488.607	649.88
488.825	605.88
489.043	616.88
489.261	629.88
489.479	619.88
489.696	630.88
489.914	616.88
490.132	647.88
490.35	658.88
490.568	646.88
490.786	664.88
491.003	670.88
491.221	663.88
491.439	690.88
491.657	687.88
491.874	694.88
492.092	697.88
492.31	700.88
492.527	708.88
492.745	710.88
492.963	715.88
493.18	736.88
493.398	739.88
493.615	720.88
493.833	724.88
494.05	707.88
494.268	732.88
494.485	720.88
494.703	710.88
494.92	728.88
495.138	715.88
495.355	736.88
495.573	722.88
495.79	736.88
496.008	734.88
496.225	736.88
496.442	748.88
496.66	733.88
496.877	725.88
497.094	755.88
497.312	754.88
497.529	764.88
497.746	765.88
497.963	820.88
498.181	792.88
498.398	842.88
498.615	860.88
498.832	847.88
499.049	894.88
499.267	936.88
499.484	962.88
499.701	987.88
499.918	1023.88
500.135	1087.88
500.352	1150.88
500.569	1172.88
500.786	1195.88
501.003	1150.88
501.22	1117.88
501.437	1090.88
501.654	1008.88
501.871	977.88
502.088	937.88
502.305	920.88
502.522	894.88
502.739	876.88
502.956	845.88
503.172	817.88
503.389	819.88
503.606	786.88
503.823	769.88
504.04	783.88
504.256	756.88
504.473	777.88
504.69	755.88
504.907	755.88
505.123	740.88
505.34	742.88
505.557	733.88
505.773	733.88
505.99	724.88
506.207	709.88
506.423	694.88
506.64	693.88
506.856	708.88
507.073	697.88
507.289	676.88
507.506	688.88
507.722	664.88
507.939	677.88
508.155	674.88
508.372	659.88
508.588	659.88
508.805	638.88
509.021	644.88
509.238	650.88
509.454	651.88
509.67	644.88
509.887	660.88
510.103	649.88
510.319	631.88
510.536	740.88
510.752	1154.88
510.968	953.88
511.184	680.88
511.401	613.88
511.617	632.88
511.833	627.88
512.049	624.88
512.265	633.88
512.481	631.88
512.698	636.88
512.914	600.88
513.13	631.88
513.346	613.88
513.562	615.88
513.778	640.88
513.994	635.88
514.21	644.88
514.426	661.88
514.642	688.88
514.858	711.88
515.074	751.88
515.29	814.88
515.506	1139.88
515.721	1028.88
515.937	738.88
516.153	675.88
516.369	673.88
516.585	677.88
516.801	662.88
517.016	649.88
517.232	693.88
517.448	668.88
517.664	719.88
517.879	697.88
518.095	667.88
518.311	658.88
518.527	683.88
518.742	668.88
518.958	660.88
519.173	631.88
519.389	650.88
519.605	653.88
519.82	634.88
520.036	638.88
520.251	655.88
520.467	651.88
520.682	670.88
520.898	668.88
521.113	695.88
521.329	698.88
521.544	769.88
521.76	902.88
521.975	1450.88
522.19	1490.88
522.406	867.88
522.621	685.88
522.836	622.88
523.052	612.88
523.267	586.88
523.482	576.88
523.698	583.88
523.913	565.88
524.128	564.88
524.343	567.88
524.559	551.88
524.774	551.88
524.989	527.88
525.204	562.88
525.419	552.88
525.634	541.88
525.849	542.88
526.064	534.88
526.28	522.88
526.495	536.88
526.71	526.88
526.925	528.88
527.14	513.88
527.355	532.88
527.57	518.88
527.785	519.88
527.999	524.88
528.214	537.88
528.429	528.88
528.644	542.88
528.859	554.88
529.074	513.88
529.289	536.88
529.503	597.88
529.718	587.88
529.933	536.88
530.148	520.88
530.363	540.88
530.577	512.88
530.792	480.88
531.007	519.88
531.221	514.88
531.436	507.88
531.651	523.88
531.865	521.88
532.08	513.88
532.295	497.88
532.509	501.88
532.724	513.88
532.938	508.88
533.153	486.88
533.367	509.88
533.582	530.88
533.796	491.88
534.011	503.88
534.225	496.88
534.44	502.88
534.654	475.88
534.868	470.88
535.083	490.88
535.297	486.88
535.511	497.88
535.726	500.88
535.94	517.88
536.154	483.88
536.369	488.88
536.583	500.88
536.797	495.88
537.011	473.88
537.225	485.88
537.44	490.88
537.654	466.88
537.868	503.88
538.082	466.88
538.296	483.88
538.51	482.88
538.724	489.88
538.938	462.88
539.153	508.88
539.367	502.88
539.581	519.88
539.795	486.88
540.009	495.88
540.222	483.88
540.436	473.88
540.65	484.88
540.864	483.88
541.078	473.88
541.292	485.88
541.506	485.88
541.72	480.88
541.934	462.88
542.147	475.88
542.361	479.88
542.575	460.88
542.789	467.88
543.002	485.88
543.216	477.88
543.43	479.88
543.644	488.88
543.857	489.88
544.071	483.88
544.285	487.88
544.498	477.88
544.712	499.88
544.925	491.88
545.139	468.88
545.352	483.88
545.566	491.88
545.779	472.88
545.993	475.88
546.206	485.88
546.42	498.88
546.633	490.88
546.847	470.88
547.06	471.88
547.274	465.88
547.487	446.88
547.7	452.88
547.914	460.88
548.127	479.88
548.34	482.88
548.554	482.88
548.767	488.88
548.98	452.88
549.193	461.88
549.407	481.88
549.62	475.88
549.833	489.88
550.046	478.88
550.259	456.88
550.473	466.88
550.686	458.88
550.899	463.88
551.112	477.88
551.325	455.88
551.538	471.88
551.751	456.88
551.964	466.88
552.177	495.88
552.39	470.88
552.603	470.88
552.816	457.88
553.029	462.88
553.242	478.88
553.455	496.88
553.667	501.88
553.88	481.88
554.093	479.88
554.306	474.88
554.519	488.88
554.732	473.88
554.944	464.88
555.157	472.88
555.37	439.88
555.583	426.88
555.795	437.88
556.008	428.88
556.221	441.88
556.433	434.88
556.646	451.88
556.859	438.88
557.071	434.88
557.284	424.88
557.496	426.88
557.709	425.88
557.921	424.88
558.134	415.88
558.346	420.88
558.559	433.88
558.771	425.88
558.984	431.88
559.196	425.88
559.409	404.88
559.621	427.88
559.833	408.88
560.046	411.88
560.258	432.88
560.47	414.88
560.683	418.88
560.895	405.88
561.107	400.88
561.32	380.88
561.532	423.88
561.744	395.88
561.956	410.88
562.168	411.88
562.381	393.88
562.593	430.88
562.805	412.88
563.017	403.88
563.229	408.88
563.441	405.88
563.653	422.88
563.865	421.88
564.077	443.88
564.289	434.88
564.501	417.88
564.713	436.88
564.925	455.88
565.137	459.88
565.349	460.88
565.561	454.88
565.773	466.88
565.985	490.88
566.197	484.88
566.408	488.88
566.62	523.88
566.832	513.88
567.044	542.88
567.255	540.88
567.467	543.88
567.679	577.88
567.891	573.88
568.102	567.88
568.314	564.88
568.526	550.88
568.737	502.88
568.949	481.88
569.161	465.88
569.372	453.88
569.584	451.88
569.795	447.88
570.007	438.88
570.218	460.88
570.43	465.88
570.641	422.88
570.853	404.88
571.064	405.88
571.276	402.88
571.487	391.88
571.698	411.88
571.91	400.88
572.121	398.88
572.333	392.88
572.544	377.88
572.755	382.88
572.966	372.88
573.178	354.88
573.389	369.88
573.6	356.88
573.811	347.88
574.023	345.88
574.234	377.88
574.445	359.88
574.656	363.88
574.867	364.88
575.078	366.88
575.289	364.88
575.501	361.88
575.712	359.88
575.923	369.88
576.134	348.88
576.345	342.88
576.556	347.88
576.767	347.88
576.978	356.88
577.188	346.88
577.399	338.88
577.61	358.88
577.821	351.88
578.032	350.88
578.243	380.88
578.454	556.88
578.665	438.88
578.875	334.88
579.086	348.88
579.297	334.88
579.508	332.88
579.718	329.88
579.929	335.88
580.14	339.88
580.35	325.88
580.561	300.88
580.772	327.88
580.982	302.88
581.193	336.88
581.403	318.88
581.614	312.88
581.825	328.88
582.035	310.88
582.246	322.88
582.456	320.88
582.667	333.88
582.877	337.88
583.087	326.88
583.298	315.88
583.508	314.88
583.719	331.88
583.929	323.88
584.139	320.88
584.35	331.88
584.56	312.88
584.77	327.88
584.981	323.88
585.191	331.88
585.401	327.88
585.611	313.88
585.821	317.88
586.032	314.88
586.242	323.88
586.452	330.88
586.662	314.88
586.872	323.88
587.082	303.88
587.292	323.88
587.502	320.88
587.713	312.88
587.923	304.88
588.133	332.88
588.343	308.88
588.553	305.88
588.762	314.88
588.972	313.88
589.182	350.88
589.392	351.88
589.602	328.88
589.812	360.88
590.022	340.88
590.232	331.88
590.441	331.88
590.651	321.88
590.861	318.88
591.071	335.88
591.281	313.88
591.49	312.88
591.7	323.88
591.91	318.88
592.119	332.88
592.329	318.88
592.539	321.88
592.748	342.88
592.958	318.88
593.167	335.88
593.377	320.88
593.587	350.88
593.796	332.88
594.006	346.88
594.215	341.88
594.424	344.88
594.634	348.88
594.843	313.88
595.053	314.88
595.262	321.88
595.472	313.88
595.681	315.88
595.89	334.88
596.1	308.88
596.309	283.88
596.518	302.88
596.727	308.88
596.937	295.88
597.146	300.88
597.355	298.88
597.564	291.88
597.774	297.88
597.983	284.88
598.192	288.88
598.401	289.88
598.61	277.88
598.819	278.88
599.028	278.88
599.237	298.88
599.446	279.88
599.655	273.88
599.864	265.88
600.073	290.88
600.282	275.88
600.491	256.88
600.7	278.88
600.909	272.88
601.118	286.88
601.327	272.88
601.536	260.88
601.745	275.88
601.953	278.88
602.162	274.88
602.371	277.88
602.58	276.88
602.789	275.88
602.997	255.88
603.206	283.88
603.415	283.88
603.623	263.88
603.832	248.88
604.041	277.88
604.249	263.88
604.458	241.88
604.666	248.88
604.875	257.88
605.084	243.88
605.292	246.88
605.501	260.88
605.709	249.88
605.918	246.88
606.126	266.88
606.334	248.88
606.543	243.88
606.751	255.88
606.96	258.88
607.168	247.88
607.376	251.88
607.585	273.88
607.793	263.88
608.001	258.88
608.21	254.88
608.418	241.88
608.626	269.88
608.834	239.88
609.043	254.88
609.251	234.88
609.459	227.88
609.667	259.88
609.875	251.88
610.083	259.88
610.291	243.88
610.499	250.88
610.707	235.88
610.916	238.88
611.124	268.88
611.332	275.88
611.54	265.88
611.748	263.88
611.955	260.88
612.163	231.88
612.371	250.88
612.579	230.88
612.787	242.88
612.995	254.88
613.203	260.88
613.411	257.88
613.618	243.88
613.826	241.88
614.034	240.88
614.242	255.88
614.449	228.88
614.657	235.88
614.865	251.88
615.072	242.88
615.28	239.88
615.488	232.88
615.695	241.88
615.903	236.88
616.111	260.88
616.318	259.88
616.526	249.88
616.733	233.88
616.941	215.88
617.148	230.88
617.356	248.88
617.563	250.88
617.771	221.88
617.978	219.88
618.185	258.88
618.393	236.88
618.6	224.88
618.807	244.88
619.015	241.88
619.222	234.88
619.429	254.88
619.637	225.88
619.844	242.88
620.051	225.88
620.258	238.88
620.466	232.88
620.673	217.88
620.88	233.88
621.087	232.88
621.294	220.88
621.501	228.88
621.708	250.88
621.915	212.88
622.122	237.88
622.329	232.88
622.536	228.88
622.743	235.88
622.95	221.88
623.157	223.88
623.364	215.88
623.571	219.88
623.778	213.88
623.985	233.88
624.192	217.88
624.399	224.88
624.606	223.88
624.812	198.88
625.019	211.88
625.226	227.88
625.433	239.88
625.639	214.88
625.846	204.88
626.053	221.88
626.259	206.88
626.466	212.88
626.673	213.88
626.879	219.88
627.086	227.88
627.293	204.88
627.499	211.88
627.706	212.88
627.912	204.88
628.119	209.88
628.325	196.88
628.532	204.88
628.738	207.88
628.945	216.88
629.151	193.88
629.357	194.88
629.564	203.88
629.77	206.88
629.976	210.88
630.183	216.88
630.389	202.88
630.595	198.88
630.802	192.88
631.008	221.88
631.214	196.88
631.42	189.88
631.627	193.88
631.833	191.88
632.039	203.88
632.245	188.88
632.451	176.88
632.657	180.88
632.863	174.88
633.069	196.88
633.275	194.88
633.481	188.88
633.688	181.88
633.893	192.88
634.099	184.88
634.305	178.88
634.511	190.88
634.717	182.88
634.923	183.88
635.129	181.88
635.335	183.88
635.541	187.88
635.747	192.88
635.952	186.88
636.158	178.88
636.364	196.88
636.57	168.88
636.775	196.88
636.981	183.88
637.187	182.88
637.392	180.88
637.598	186.88
637.804	190.88
638.009	180.88
638.215	185.88
638.421	162.88
638.626	174.88
638.832	174.88
639.037	178.88
639.243	186.88
639.448	185.88
639.654	171.88
639.859	181.88
640.065	159.88
640.27	178.88
640.475	167.88
640.681	164.88
640.886	178.88
641.091	179.88
641.297	188.88
641.502	171.88
641.707	182.88
641.913	179.88
642.118	161.88
642.323	164.88
642.528	163.88
642.733	159.88
642.939	173.88
643.144	172.88
643.349	168.88
643.554	175.88
643.759	183.88
643.964	163.88
644.169	180.88
644.374	161.88
644.579	160.88
644.784	169.88
644.989	176.88
645.194	159.88
645.399	171.88
645.604	170.88
645.809	164.88
646.014	174.88
646.219	167.88
646.423	188.88
646.628	149.88
646.833	164.88
647.038	167.88
647.243	177.88
647.447	185.88
647.652	160.88
647.857	154.88
648.062	164.88
648.266	168.88
648.471	163.88
648.676	166.88
648.88	174.88
649.085	182.88
649.289	167.88
649.494	174.88
649.698	176.88
649.903	180.88
650.107	176.88
650.312	161.88
650.516	176.88
650.721	154.88
650.925	166.88
651.13	161.88
651.334	154.88
651.539	167.88
651.743	152.88
651.947	146.88
652.152	162.88
652.356	131.88
652.56	150.88
652.764	154.88
652.969	130.88
653.173	139.88
653.377	126.88
653.581	136.88
653.785	143.88
653.99	139.88
654.194	136.88
654.398	144.88
654.602	126.88
654.806	147.88
655.01	156.88
655.214	160.88
655.418	124.88
655.622	135.88
655.826	140.88
656.03	132.88
656.234	132.88
656.438	131.88
656.642	131.88
656.846	128.88
657.049	133.88
657.253	129.88
657.457	121.88
657.661	123.88
657.865	125.88
658.068	101.88
658.272	113.88
658.476	114.88
658.68	100.88
658.883	101.88
659.087	90.88
659.291	106.88
659.494	123.88
659.698	96.88
659.901	98.88
660.105	85.88
660.309	82.88
660.512	97.88
660.716	92.88
660.919	101.88
661.123	85.88
661.326	84.88
661.53	77.88
661.733	103.88
661.936	95.88
662.14	95.88
662.343	82.88
662.546	72.88
662.75	87.88
662.953	76.88
663.156	89.88
663.36	75.88
663.563	64.88
663.766	78.88
663.969	93.88
664.173	75.88
664.376	83.88
664.579	84.88
664.782	92.88
664.985	75.88
665.188	81.88
665.391	88.88
665.594	81.88
665.797	79.88
666	83.88
666.203	86.88
666.406	74.88
666.609	85.88
666.812	91.88
667.015	79.88
667.218	84.88
667.421	89.88
667.624	86.88
667.827	76.88
668.03	85.88
668.232	74.88
668.435	88.88
668.638	74.88
668.841	77.88
669.043	85.88
669.246	86.88
669.449	78.88
669.651	87.88
669.854	78.88
670.057	92.88
670.259	82.88
670.462	78.88
670.665	74.88
670.867	79.88
671.07	88.88
671.272	84.88
671.475	78.88
671.677	71.88
671.88	96.88
672.082	77.88
672.284	95.88
672.487	75.88
672.689	74.88
672.892	91.88
