Data from 1979.PennyLincolnUp.Lamp.En5.5.200Scan.071719.P1_HRD10591_16-19-28-863.txt Node
Date: Thu Jul 18 16:19:28 EDT 2019
User: cochatt
Spectrometer: HR+D1059
Trigger mode: 1
Integration Time (sec): 1.000000E-1
Scans to average: 1
Electric dark correction enabled: true
Nonlinearity correction enabled: false
Boxcar width: 0
XAxis mode: Wavelengths
Number of Pixels in Spectrum: 2048
>>>>>Begin Spectral Data<<<<<
223.165	-24.94
223.4	-24.94
223.635	-24.94
223.869	-15.94
224.104	-2.94
224.338	-21.94
224.573	-10.94
224.808	-11.94
225.042	1.06
225.277	-0.94
225.511	-14.94
225.746	3.06
225.98	2.06
226.215	7.06
226.449	15.06
226.683	28.06
226.918	16.06
227.152	32.06
227.387	49.06
227.621	45.06
227.856	41.06
228.09	55.06
228.324	48.06
228.559	56.06
228.793	67.06
229.027	105.06
229.262	120.06
229.496	118.06
229.73	129.06
229.964	166.06
230.199	132.06
230.433	123.06
230.667	105.06
230.901	111.06
231.136	107.06
231.37	122.06
231.604	107.06
231.838	121.06
232.072	120.06
232.306	125.06
232.541	122.06
232.775	118.06
233.009	128.06
233.243	118.06
233.477	118.06
233.711	127.06
233.945	113.06
234.179	120.06
234.413	126.06
234.647	116.06
234.881	113.06
235.115	118.06
235.349	111.06
235.583	121.06
235.817	128.06
236.051	126.06
236.285	130.06
236.519	129.06
236.753	130.06
236.987	145.06
237.221	175.06
237.455	226.06
237.689	177.06
237.922	134.06
238.156	125.06
238.39	128.06
238.624	120.06
238.858	126.06
239.091	121.06
239.325	126.06
239.559	128.06
239.793	128.06
240.027	135.06
240.26	146.06
240.494	149.06
240.728	138.06
240.961	154.06
241.195	154.06
241.429	146.06
241.662	137.06
241.896	132.06
242.13	130.06
242.363	133.06
242.597	158.06
242.83	139.06
243.064	154.06
243.298	138.06
243.531	157.06
243.765	150.06
243.998	137.06
244.232	152.06
244.465	151.06
244.699	142.06
244.932	141.06
245.166	139.06
245.399	150.06
245.633	130.06
245.866	145.06
246.099	152.06
246.333	143.06
246.566	161.06
246.8	152.06
247.033	171.06
247.266	160.06
247.5	165.06
247.733	167.06
247.966	170.06
248.2	166.06
248.433	165.06
248.666	170.06
248.899	168.06
249.133	202.06
249.366	208.06
249.599	186.06
249.832	180.06
250.066	198.06
250.299	182.06
250.532	178.06
250.765	188.06
250.998	218.06
251.231	214.06
251.465	187.06
251.698	193.06
251.931	194.06
252.164	188.06
252.397	173.06
252.63	192.06
252.863	201.06
253.096	208.06
253.329	211.06
253.562	219.06
253.795	214.06
254.028	213.06
254.261	200.06
254.494	214.06
254.727	231.06
254.96	251.06
255.193	244.06
255.426	208.06
255.659	208.06
255.892	228.06
256.124	225.06
256.357	216.06
256.59	218.06
256.823	205.06
257.056	190.06
257.289	187.06
257.521	207.06
257.754	215.06
257.987	231.06
258.22	191.06
258.452	205.06
258.685	223.06
258.918	196.06
259.151	209.06
259.383	213.06
259.616	202.06
259.849	207.06
260.081	204.06
260.314	253.06
260.547	244.06
260.779	237.06
261.012	235.06
261.244	215.06
261.477	226.06
261.71	215.06
261.942	225.06
262.175	230.06
262.407	221.06
262.64	221.06
262.872	191.06
263.105	200.06
263.337	212.06
263.57	202.06
263.802	208.06
264.035	212.06
264.267	214.06
264.499	207.06
264.732	215.06
264.964	197.06
265.197	228.06
265.429	220.06
265.661	210.06
265.894	217.06
266.126	207.06
266.358	219.06
266.591	196.06
266.823	205.06
267.055	212.06
267.287	222.06
267.52	220.06
267.752	221.06
267.984	234.06
268.216	223.06
268.448	237.06
268.681	226.06
268.913	230.06
269.145	260.06
269.377	253.06
269.609	260.06
269.841	252.06
270.073	234.06
270.306	281.06
270.538	289.06
270.77	268.06
271.002	266.06
271.234	278.06
271.466	278.06
271.698	283.06
271.93	311.06
272.162	305.06
272.394	301.06
272.626	287.06
272.858	254.06
273.09	253.06
273.322	261.06
273.553	260.06
273.785	246.06
274.017	240.06
274.249	247.06
274.481	249.06
274.713	256.06
274.945	264.06
275.176	242.06
275.408	260.06
275.64	256.06
275.872	256.06
276.104	248.06
276.335	261.06
276.567	267.06
276.799	282.06
277.031	286.06
277.262	316.06
277.494	289.06
277.726	292.06
277.957	261.06
278.189	272.06
278.421	261.06
278.652	262.06
278.884	254.06
279.115	265.06
279.347	252.06
279.579	284.06
279.81	256.06
280.042	273.06
280.273	247.06
280.505	264.06
280.736	254.06
280.968	272.06
281.199	273.06
281.431	249.06
281.662	260.06
281.894	270.06
282.125	276.06
282.356	303.06
282.588	298.06
282.819	304.06
283.051	278.06
283.282	282.06
283.513	256.06
283.745	269.06
283.976	253.06
284.207	281.06
284.439	270.06
284.67	274.06
284.901	280.06
285.132	257.06
285.364	283.06
285.595	268.06
285.826	279.06
286.057	285.06
286.288	267.06
286.52	284.06
286.751	294.06
286.982	287.06
287.213	291.06
287.444	292.06
287.675	297.06
287.906	305.06
288.138	309.06
288.369	296.06
288.6	293.06
288.831	291.06
289.062	280.06
289.293	282.06
289.524	286.06
289.755	299.06
289.986	291.06
290.217	273.06
290.448	266.06
290.679	288.06
290.91	284.06
291.141	286.06
291.371	296.06
291.602	286.06
291.833	304.06
292.064	282.06
292.295	308.06
292.526	303.06
292.757	280.06
292.987	278.06
293.218	295.06
293.449	294.06
293.68	294.06
293.91	299.06
294.141	275.06
294.372	286.06
294.603	296.06
294.833	281.06
295.064	288.06
295.295	299.06
295.525	281.06
295.756	308.06
295.987	304.06
296.217	316.06
296.448	348.06
296.679	314.06
296.909	308.06
297.14	296.06
297.37	314.06
297.601	309.06
297.831	292.06
298.062	308.06
298.292	303.06
298.523	294.06
298.753	300.06
298.984	322.06
299.214	298.06
299.445	309.06
299.675	318.06
299.905	304.06
300.136	298.06
300.366	325.06
300.597	328.06
300.827	292.06
301.057	331.06
301.288	331.06
301.518	326.06
301.748	342.06
301.979	319.06
302.209	321.06
302.439	338.06
302.669	321.06
302.9	320.06
303.13	322.06
303.36	337.06
303.59	335.06
303.82	322.06
304.051	335.06
304.281	316.06
304.511	325.06
304.741	338.06
304.971	325.06
305.201	326.06
305.431	327.06
305.661	336.06
305.891	331.06
306.121	324.06
306.352	334.06
306.582	338.06
306.812	318.06
307.042	331.06
307.272	334.06
307.502	318.06
307.731	322.06
307.961	343.06
308.191	337.06
308.421	322.06
308.651	335.06
308.881	331.06
309.111	334.06
309.341	335.06
309.571	347.06
309.8	362.06
310.03	366.06
310.26	363.06
310.49	366.06
310.72	369.06
310.949	403.06
311.179	404.06
311.409	390.06
311.639	375.06
311.868	372.06
312.098	356.06
312.328	379.06
312.557	395.06
312.787	390.06
313.017	408.06
313.246	373.06
313.476	375.06
313.706	372.06
313.935	359.06
314.165	404.06
314.394	395.06
314.624	407.06
314.853	385.06
315.083	378.06
315.312	388.06
315.542	374.06
315.771	372.06
316.001	359.06
316.23	364.06
316.46	355.06
316.689	380.06
316.919	384.06
317.148	374.06
317.377	393.06
317.607	388.06
317.836	399.06
318.065	375.06
318.295	373.06
318.524	366.06
318.753	373.06
318.983	366.06
319.212	381.06
319.441	376.06
319.67	399.06
319.9	391.06
320.129	392.06
320.358	379.06
320.587	366.06
320.816	400.06
321.046	382.06
321.275	413.06
321.504	393.06
321.733	402.06
321.962	415.06
322.191	420.06
322.42	430.06
322.649	423.06
322.878	444.06
323.108	442.06
323.337	469.06
323.566	475.06
323.795	525.06
324.024	545.06
324.253	631.06
324.482	882.06
324.71	1400.06
324.939	2148.06
325.168	1834.06
325.397	903.06
325.626	610.06
325.855	534.06
326.084	493.06
326.313	482.06
326.542	497.06
326.77	536.06
326.999	617.06
327.228	846.06
327.457	1285.06
327.686	1582.06
327.914	1030.06
328.143	696.06
328.372	591.06
328.6	571.06
328.829	540.06
329.058	562.06
329.287	571.06
329.515	553.06
329.744	495.06
329.972	495.06
330.201	494.06
330.43	533.06
330.658	554.06
330.887	594.06
331.115	569.06
331.344	504.06
331.572	464.06
331.801	466.06
332.03	487.06
332.258	479.06
332.486	446.06
332.715	466.06
332.943	472.06
333.172	459.06
333.4	492.06
333.629	464.06
333.857	476.06
334.085	496.06
334.314	501.06
334.542	526.06
334.771	557.06
334.999	533.06
335.227	486.06
335.455	474.06
335.684	456.06
335.912	478.06
336.14	451.06
336.369	452.06
336.597	441.06
336.825	470.06
337.053	460.06
337.281	452.06
337.51	456.06
337.738	454.06
337.966	458.06
338.194	452.06
338.422	450.06
338.65	441.06
338.878	440.06
339.106	434.06
339.334	461.06
339.562	459.06
339.79	433.06
340.018	424.06
340.246	447.06
340.474	436.06
340.702	449.06
340.93	440.06
341.158	432.06
341.386	421.06
341.614	423.06
341.842	448.06
342.07	431.06
342.298	441.06
342.526	417.06
342.754	402.06
342.981	424.06
343.209	426.06
343.437	431.06
343.665	434.06
343.893	439.06
344.12	440.06
344.348	443.06
344.576	440.06
344.804	435.06
345.031	453.06
345.259	459.06
345.487	448.06
345.714	446.06
345.942	430.06
346.17	427.06
346.397	425.06
346.625	413.06
346.853	416.06
347.08	423.06
347.308	417.06
347.535	414.06
347.763	426.06
347.99	421.06
348.218	448.06
348.445	428.06
348.673	439.06
348.9	444.06
349.128	425.06
349.355	404.06
349.583	400.06
349.81	409.06
350.037	384.06
350.265	414.06
350.492	407.06
350.72	403.06
350.947	422.06
351.174	429.06
351.402	436.06
351.629	420.06
351.856	422.06
352.083	412.06
352.311	448.06
352.538	421.06
352.765	440.06
352.992	432.06
353.22	436.06
353.447	426.06
353.674	418.06
353.901	396.06
354.128	406.06
354.355	392.06
354.583	394.06
354.81	391.06
355.037	408.06
355.264	386.06
355.491	394.06
355.718	367.06
355.945	408.06
356.172	390.06
356.399	382.06
356.626	403.06
356.853	417.06
357.08	399.06
357.307	399.06
357.534	391.06
357.761	400.06
357.988	395.06
358.215	395.06
358.441	418.06
358.668	411.06
358.895	400.06
359.122	380.06
359.349	403.06
359.576	428.06
359.802	439.06
360.029	446.06
360.256	476.06
360.483	448.06
360.709	446.06
360.936	430.06
361.163	412.06
361.39	436.06
361.616	435.06
361.843	431.06
362.07	447.06
362.296	440.06
362.523	415.06
362.749	444.06
362.976	414.06
363.203	397.06
363.429	417.06
363.656	413.06
363.882	423.06
364.109	406.06
364.335	428.06
364.562	408.06
364.788	408.06
365.015	393.06
365.241	420.06
365.468	425.06
365.694	416.06
365.92	435.06
366.147	420.06
366.373	427.06
366.599	412.06
366.826	425.06
367.052	416.06
367.278	411.06
367.505	410.06
367.731	380.06
367.957	386.06
368.184	426.06
368.41	410.06
368.636	418.06
368.862	427.06
369.089	416.06
369.315	422.06
369.541	424.06
369.767	416.06
369.993	405.06
370.219	414.06
370.445	417.06
370.672	408.06
370.898	406.06
371.124	408.06
371.35	412.06
371.576	401.06
371.802	416.06
372.028	413.06
372.254	425.06
372.48	418.06
372.706	416.06
372.932	431.06
373.158	425.06
373.384	424.06
373.61	417.06
373.835	427.06
374.061	427.06
374.287	416.06
374.513	420.06
374.739	432.06
374.965	444.06
375.191	457.06
375.416	439.06
375.642	449.06
375.868	429.06
376.094	416.06
376.319	424.06
376.545	431.06
376.771	424.06
376.997	412.06
377.222	416.06
377.448	425.06
377.674	427.06
377.899	421.06
378.125	421.06
378.35	415.06
378.576	402.06
378.802	408.06
379.027	432.06
379.253	414.06
379.478	421.06
379.704	408.06
379.929	446.06
380.155	430.06
380.38	410.06
380.606	423.06
380.831	427.06
381.057	443.06
381.282	431.06
381.507	420.06
381.733	414.06
381.958	436.06
382.184	420.06
382.409	434.06
382.634	450.06
382.86	413.06
383.085	438.06
383.31	436.06
383.535	433.06
383.761	412.06
383.986	459.06
384.211	440.06
384.436	454.06
384.662	441.06
384.887	436.06
385.112	456.06
385.337	447.06
385.562	463.06
385.787	464.06
386.013	470.06
386.238	461.06
386.463	465.06
386.688	470.06
386.913	459.06
387.138	459.06
387.363	479.06
387.588	466.06
387.813	467.06
388.038	471.06
388.263	463.06
388.488	470.06
388.713	480.06
388.938	481.06
389.163	457.06
389.387	471.06
389.612	471.06
389.837	471.06
390.062	475.06
390.287	482.06
390.512	475.06
390.736	491.06
390.961	461.06
391.186	479.06
391.411	491.06
391.636	505.06
391.86	496.06
392.085	492.06
392.31	484.06
392.534	473.06
392.759	489.06
392.984	485.06
393.208	489.06
393.433	484.06
393.658	518.06
393.882	478.06
394.107	482.06
394.331	481.06
394.556	491.06
394.78	476.06
395.005	504.06
395.229	494.06
395.454	497.06
395.678	510.06
395.903	500.06
396.127	505.06
396.352	548.06
396.576	534.06
396.801	499.06
397.025	491.06
397.249	485.06
397.474	520.06
397.698	539.06
397.922	534.06
398.147	538.06
398.371	554.06
398.595	545.06
398.82	552.06
399.044	570.06
399.268	580.06
399.492	623.06
399.717	663.06
399.941	661.06
400.165	688.06
400.389	664.06
400.613	627.06
400.837	620.06
401.062	591.06
401.286	555.06
401.51	574.06
401.734	550.06
401.958	546.06
402.182	546.06
402.406	584.06
402.63	575.06
402.854	599.06
403.078	586.06
403.302	591.06
403.526	605.06
403.75	594.06
403.974	582.06
404.198	581.06
404.422	602.06
404.645	612.06
404.869	598.06
405.093	639.06
405.317	655.06
405.541	722.06
405.765	636.06
405.988	618.06
406.212	630.06
406.436	639.06
406.66	664.06
406.883	630.06
407.107	653.06
407.331	713.06
407.555	758.06
407.778	769.06
408.002	710.06
408.226	660.06
408.449	661.06
408.673	658.06
408.896	692.06
409.12	696.06
409.344	656.06
409.567	590.06
409.791	588.06
410.014	591.06
410.238	577.06
410.461	608.06
410.685	606.06
410.908	616.06
411.132	622.06
411.355	657.06
411.578	656.06
411.802	619.06
412.025	596.06
412.249	597.06
412.472	625.06
412.695	664.06
412.919	624.06
413.142	590.06
413.365	588.06
413.589	586.06
413.812	574.06
414.035	546.06
414.258	554.06
414.482	556.06
414.705	567.06
414.928	553.06
415.151	537.06
415.374	564.06
415.597	569.06
415.821	538.06
416.044	552.06
416.267	565.06
416.49	548.06
416.713	526.06
416.936	560.06
417.159	546.06
417.382	558.06
417.605	573.06
417.828	559.06
418.051	576.06
418.274	580.06
418.497	562.06
418.72	563.06
418.943	534.06
419.166	587.06
419.389	592.06
419.611	607.06
419.834	607.06
420.057	572.06
420.28	582.06
420.503	582.06
420.726	564.06
420.948	586.06
421.171	632.06
421.394	645.06
421.617	605.06
421.839	560.06
422.062	587.06
422.285	594.06
422.507	619.06
422.73	728.06
422.953	722.06
423.175	644.06
423.398	625.06
423.621	595.06
423.843	620.06
424.066	607.06
424.288	613.06
424.511	645.06
424.733	689.06
424.956	760.06
425.178	728.06
425.401	716.06
425.623	752.06
425.846	641.06
426.068	612.06
426.291	606.06
426.513	601.06
426.735	624.06
426.958	661.06
427.18	714.06
427.402	834.06
427.625	945.06
427.847	833.06
428.069	741.06
428.292	660.06
428.514	623.06
428.736	601.06
428.958	568.06
429.181	573.06
429.403	562.06
429.625	576.06
429.847	604.06
430.069	657.06
430.292	666.06
430.514	589.06
430.736	587.06
430.958	570.06
431.18	549.06
431.402	554.06
431.624	536.06
431.846	529.06
432.068	544.06
432.29	554.06
432.512	543.06
432.734	572.06
432.956	548.06
433.178	561.06
433.4	554.06
433.622	577.06
433.844	538.06
434.066	554.06
434.287	548.06
434.509	553.06
434.731	556.06
434.953	568.06
435.175	594.06
435.397	608.06
435.618	616.06
435.84	649.06
436.062	741.06
436.284	821.06
436.505	681.06
436.727	614.06
436.949	597.06
437.17	568.06
437.392	590.06
437.614	588.06
437.835	646.06
438.057	700.06
438.278	812.06
438.5	812.06
438.721	848.06
438.943	845.06
439.165	669.06
439.386	640.06
439.608	602.06
439.829	629.06
440.05	637.06
440.272	703.06
440.493	646.06
440.715	589.06
440.936	566.06
441.158	585.06
441.379	571.06
441.6	576.06
441.822	616.06
442.043	647.06
442.264	724.06
442.486	770.06
442.707	692.06
442.928	626.06
443.149	642.06
443.371	690.06
443.592	693.06
443.813	781.06
444.034	850.06
444.255	696.06
444.476	654.06
444.698	633.06
444.919	638.06
445.14	738.06
445.361	693.06
445.582	646.06
445.803	722.06
446.024	808.06
446.245	817.06
446.466	759.06
446.687	660.06
446.908	607.06
447.129	593.06
447.35	578.06
447.571	549.06
447.792	556.06
448.013	554.06
448.234	582.06
448.455	629.06
448.675	716.06
448.896	834.06
449.117	704.06
449.338	672.06
449.559	788.06
449.779	885.06
450	736.06
450.221	611.06
450.442	562.06
450.662	564.06
450.883	540.06
451.104	570.06
451.324	564.06
451.545	544.06
451.766	518.06
451.986	493.06
452.207	507.06
452.428	507.06
452.648	493.06
452.869	495.06
453.089	528.06
453.31	541.06
453.53	505.06
453.751	499.06
453.971	522.06
454.192	527.06
454.412	510.06
454.633	477.06
454.853	516.06
455.073	484.06
455.294	525.06
455.514	580.06
455.734	567.06
455.955	496.06
456.175	477.06
456.395	488.06
456.616	466.06
456.836	470.06
457.056	478.06
457.276	482.06
457.497	479.06
457.717	492.06
457.937	511.06
458.157	479.06
458.377	497.06
458.598	505.06
458.818	585.06
459.038	637.06
459.258	650.06
459.478	583.06
459.698	573.06
459.918	553.06
460.138	572.06
460.358	544.06
460.578	569.06
460.798	568.06
461.018	566.06
461.238	580.06
461.458	559.06
461.678	559.06
461.898	577.06
462.118	576.06
462.338	602.06
462.558	580.06
462.777	623.06
462.997	626.06
463.217	637.06
463.437	666.06
463.657	628.06
463.876	632.06
464.096	630.06
464.316	600.06
464.536	628.06
464.755	606.06
464.975	620.06
465.195	623.06
465.414	696.06
465.634	617.06
465.854	594.06
466.073	544.06
466.293	532.06
466.512	543.06
466.732	530.06
466.951	525.06
467.171	533.06
467.391	539.06
467.61	530.06
467.829	556.06
468.049	560.06
468.268	542.06
468.488	509.06
468.707	547.06
468.927	524.06
469.146	510.06
469.365	495.06
469.585	529.06
469.804	538.06
470.023	543.06
470.243	562.06
470.462	545.06
470.681	587.06
470.901	544.06
471.12	544.06
471.339	525.06
471.558	544.06
471.777	525.06
471.997	518.06
472.216	533.06
472.435	555.06
472.654	556.06
472.873	554.06
473.092	527.06
473.311	535.06
473.53	532.06
473.749	520.06
473.968	580.06
474.187	643.06
474.406	677.06
474.625	594.06
474.844	544.06
475.063	534.06
475.282	527.06
475.501	557.06
475.72	543.06
475.939	556.06
476.158	542.06
476.377	571.06
476.596	553.06
476.814	558.06
477.033	568.06
477.252	576.06
477.471	561.06
477.69	587.06
477.908	598.06
478.127	593.06
478.346	576.06
478.564	596.06
478.783	587.06
479.002	603.06
479.22	629.06
479.439	638.06
479.658	658.06
479.876	649.06
480.095	637.06
480.313	677.06
480.532	668.06
480.751	666.06
480.969	668.06
481.188	715.06
481.406	749.06
481.624	678.06
481.843	664.06
482.061	621.06
482.28	621.06
482.498	617.06
482.717	591.06
482.935	638.06
483.153	619.06
483.372	625.06
483.59	645.06
483.808	629.06
484.027	630.06
484.245	626.06
484.463	604.06
484.681	638.06
484.9	640.06
485.118	636.06
485.336	647.06
485.554	630.06
485.772	658.06
485.99	657.06
486.209	645.06
486.427	640.06
486.645	646.06
486.863	649.06
487.081	694.06
487.299	676.06
487.517	678.06
487.735	639.06
487.953	648.06
488.171	647.06
488.389	674.06
488.607	669.06
488.825	682.06
489.043	670.06
489.261	660.06
489.479	677.06
489.696	652.06
489.914	680.06
490.132	692.06
490.35	708.06
490.568	699.06
490.786	716.06
491.003	714.06
491.221	738.06
491.439	720.06
491.657	731.06
491.874	744.06
492.092	758.06
492.31	772.06
492.527	744.06
492.745	745.06
492.963	742.06
493.18	774.06
493.398	765.06
493.615	761.06
493.833	774.06
494.05	778.06
494.268	773.06
494.485	760.06
494.703	757.06
494.92	764.06
495.138	767.06
495.355	785.06
495.573	801.06
495.79	778.06
496.008	779.06
496.225	774.06
496.442	785.06
496.66	822.06
496.877	788.06
497.094	789.06
497.312	808.06
497.529	820.06
497.746	827.06
497.963	824.06
498.181	831.06
498.398	851.06
498.615	845.06
498.832	929.06
499.049	956.06
499.267	988.06
499.484	1033.06
499.701	1026.06
499.918	1097.06
500.135	1164.06
500.352	1204.06
500.569	1228.06
500.786	1239.06
501.003	1196.06
501.22	1177.06
501.437	1107.06
501.654	1064.06
501.871	1040.06
502.088	1001.06
502.305	971.06
502.522	929.06
502.739	915.06
502.956	878.06
503.172	886.06
503.389	849.06
503.606	865.06
503.823	855.06
504.04	841.06
504.256	809.06
504.473	830.06
504.69	822.06
504.907	794.06
505.123	773.06
505.34	776.06
505.557	753.06
505.773	753.06
505.99	756.06
506.207	713.06
506.423	729.06
506.64	728.06
506.856	708.06
507.073	726.06
507.289	733.06
507.506	701.06
507.722	742.06
507.939	741.06
508.155	753.06
508.372	695.06
508.588	682.06
508.805	697.06
509.021	693.06
509.238	719.06
509.454	726.06
509.67	707.06
509.887	688.06
510.103	698.06
510.319	688.06
510.536	796.06
510.752	1270.06
510.968	1053.06
511.184	710.06
511.401	680.06
511.617	686.06
511.833	662.06
512.049	659.06
512.265	683.06
512.481	655.06
512.698	636.06
512.914	663.06
513.13	680.06
513.346	653.06
513.562	665.06
513.778	680.06
513.994	674.06
514.21	695.06
514.426	692.06
514.642	753.06
514.858	732.06
515.074	781.06
515.29	913.06
515.506	1344.06
515.721	1161.06
515.937	800.06
516.153	741.06
516.369	725.06
516.585	713.06
516.801	703.06
517.016	709.06
517.232	728.06
517.448	702.06
517.664	721.06
517.879	716.06
518.095	731.06
518.311	710.06
518.527	698.06
518.742	716.06
518.958	711.06
519.173	666.06
519.389	685.06
519.605	702.06
519.82	666.06
520.036	702.06
520.251	709.06
520.467	694.06
520.682	720.06
520.898	713.06
521.113	733.06
521.329	791.06
521.544	862.06
521.76	1040.06
521.975	1719.06
522.19	1756.06
522.406	975.06
522.621	714.06
522.836	692.06
523.052	653.06
523.267	642.06
523.482	628.06
523.698	602.06
523.913	624.06
524.128	632.06
524.343	602.06
524.559	590.06
524.774	574.06
524.989	603.06
525.204	585.06
525.419	601.06
525.634	597.06
525.849	592.06
526.064	572.06
526.28	566.06
526.495	569.06
526.71	582.06
526.925	595.06
527.14	548.06
527.355	566.06
527.57	564.06
527.785	556.06
527.999	558.06
528.214	560.06
528.429	568.06
528.644	568.06
528.859	552.06
529.074	569.06
529.289	576.06
529.503	645.06
529.718	634.06
529.933	583.06
530.148	549.06
530.363	571.06
530.577	578.06
530.792	536.06
531.007	551.06
531.221	546.06
531.436	545.06
531.651	544.06
531.865	557.06
532.08	536.06
532.295	540.06
532.509	526.06
532.724	538.06
532.938	526.06
533.153	529.06
533.367	506.06
533.582	530.06
533.796	520.06
534.011	521.06
534.225	519.06
534.44	539.06
534.654	529.06
534.868	539.06
535.083	519.06
535.297	549.06
535.511	541.06
535.726	555.06
535.94	547.06
536.154	520.06
536.369	535.06
536.583	514.06
536.797	492.06
537.011	525.06
537.225	526.06
537.44	519.06
537.654	517.06
537.868	525.06
538.082	537.06
538.296	506.06
538.51	531.06
538.724	532.06
538.938	496.06
539.153	509.06
539.367	516.06
539.581	488.06
539.795	486.06
540.009	520.06
540.222	516.06
540.436	505.06
540.65	519.06
540.864	520.06
541.078	511.06
541.292	520.06
541.506	524.06
541.72	504.06
541.934	521.06
542.147	486.06
542.361	522.06
542.575	503.06
542.789	495.06
543.002	508.06
543.216	524.06
543.43	523.06
543.644	510.06
543.857	514.06
544.071	544.06
544.285	512.06
544.498	516.06
544.712	505.06
544.925	504.06
545.139	516.06
545.352	506.06
545.566	506.06
545.779	506.06
545.993	497.06
546.206	485.06
546.42	513.06
546.633	493.06
546.847	482.06
547.06	491.06
547.274	509.06
547.487	498.06
547.7	475.06
547.914	485.06
548.127	478.06
548.34	485.06
548.554	527.06
548.767	487.06
548.98	488.06
549.193	495.06
549.407	486.06
549.62	506.06
549.833	504.06
550.046	480.06
550.259	516.06
550.473	471.06
550.686	480.06
550.899	495.06
551.112	470.06
551.325	483.06
551.538	488.06
551.751	504.06
551.964	507.06
552.177	504.06
552.39	518.06
552.603	511.06
552.816	494.06
553.029	502.06
553.242	496.06
553.455	524.06
553.667	549.06
553.88	536.06
554.093	515.06
554.306	493.06
554.519	490.06
554.732	507.06
554.944	480.06
555.157	467.06
555.37	466.06
555.583	481.06
555.795	464.06
556.008	456.06
556.221	429.06
556.433	457.06
556.646	464.06
556.859	445.06
557.071	450.06
557.284	445.06
557.496	446.06
557.709	457.06
557.921	428.06
558.134	465.06
558.346	447.06
558.559	448.06
558.771	442.06
558.984	440.06
559.196	459.06
559.409	448.06
559.621	444.06
559.833	429.06
560.046	425.06
560.258	426.06
560.47	439.06
560.683	454.06
560.895	433.06
561.107	460.06
561.32	418.06
561.532	410.06
561.744	430.06
561.956	450.06
562.168	430.06
562.381	442.06
562.593	431.06
562.805	428.06
563.017	440.06
563.229	446.06
563.441	432.06
563.653	448.06
563.865	433.06
564.077	460.06
564.289	451.06
564.501	468.06
564.713	460.06
564.925	465.06
565.137	480.06
565.349	480.06
565.561	478.06
565.773	487.06
565.985	508.06
566.197	515.06
566.408	546.06
566.62	527.06
566.832	561.06
567.044	560.06
567.255	554.06
567.467	589.06
567.679	577.06
567.891	604.06
568.102	600.06
568.314	608.06
568.526	560.06
568.737	543.06
568.949	510.06
569.161	506.06
569.372	493.06
569.584	455.06
569.795	456.06
570.007	471.06
570.218	483.06
570.43	486.06
570.641	437.06
570.853	454.06
571.064	446.06
571.276	439.06
571.487	405.06
571.698	430.06
571.91	409.06
572.121	413.06
572.333	410.06
572.544	408.06
572.755	411.06
572.966	423.06
573.178	386.06
573.389	396.06
573.6	364.06
573.811	404.06
574.023	388.06
574.234	370.06
574.445	398.06
574.656	365.06
574.867	375.06
575.078	364.06
575.289	378.06
575.501	382.06
575.712	363.06
575.923	392.06
576.134	367.06
576.345	380.06
576.556	367.06
576.767	355.06
576.978	368.06
577.188	357.06
577.399	366.06
577.61	358.06
577.821	361.06
578.032	357.06
578.243	406.06
578.454	634.06
578.665	465.06
578.875	372.06
579.086	353.06
579.297	356.06
579.508	348.06
579.718	341.06
579.929	362.06
580.14	350.06
580.35	345.06
580.561	336.06
580.772	347.06
580.982	356.06
581.193	348.06
581.403	341.06
581.614	351.06
581.825	357.06
582.035	340.06
582.246	338.06
582.456	338.06
582.667	334.06
582.877	326.06
583.087	339.06
583.298	328.06
583.508	328.06
583.719	330.06
583.929	339.06
584.139	341.06
584.35	346.06
584.56	344.06
584.77	322.06
584.981	344.06
585.191	333.06
585.401	337.06
585.611	333.06
585.821	320.06
586.032	340.06
586.242	334.06
586.452	329.06
586.662	315.06
586.872	337.06
587.082	349.06
587.292	338.06
587.502	347.06
587.713	331.06
587.923	334.06
588.133	340.06
588.343	326.06
588.553	325.06
588.762	328.06
588.972	309.06
589.182	370.06
589.392	374.06
589.602	336.06
589.812	332.06
590.022	338.06
590.232	334.06
590.441	343.06
590.651	337.06
590.861	326.06
591.071	319.06
591.281	344.06
591.49	335.06
591.7	312.06
591.91	338.06
592.119	364.06
592.329	360.06
592.539	357.06
592.748	346.06
592.958	355.06
593.167	337.06
593.377	367.06
593.587	366.06
593.796	346.06
594.006	359.06
594.215	352.06
594.424	356.06
594.634	353.06
594.843	329.06
595.053	341.06
595.262	340.06
595.472	356.06
595.681	339.06
595.89	319.06
596.1	321.06
596.309	315.06
596.518	321.06
596.727	325.06
596.937	305.06
597.146	309.06
597.355	324.06
597.564	296.06
597.774	283.06
597.983	312.06
598.192	300.06
598.401	302.06
598.61	291.06
598.819	308.06
599.028	285.06
599.237	315.06
599.446	288.06
599.655	300.06
599.864	305.06
600.073	303.06
600.282	297.06
600.491	282.06
600.7	293.06
600.909	285.06
601.118	297.06
601.327	280.06
601.536	300.06
601.745	284.06
601.953	299.06
602.162	295.06
602.371	290.06
602.58	267.06
602.789	269.06
602.997	260.06
603.206	298.06
603.415	266.06
603.623	264.06
603.832	273.06
604.041	304.06
604.249	280.06
604.458	275.06
604.666	270.06
604.875	269.06
605.084	272.06
605.292	267.06
605.501	280.06
605.709	246.06
605.918	271.06
606.126	274.06
606.334	282.06
606.543	271.06
606.751	271.06
606.96	272.06
607.168	283.06
607.376	263.06
607.585	278.06
607.793	270.06
608.001	251.06
608.21	268.06
608.418	281.06
608.626	268.06
608.834	260.06
609.043	268.06
609.251	273.06
609.459	268.06
609.667	265.06
609.875	273.06
610.083	269.06
610.291	268.06
610.499	283.06
610.707	256.06
610.916	254.06
611.124	268.06
611.332	269.06
611.54	276.06
611.748	270.06
611.955	272.06
612.163	263.06
612.371	267.06
612.579	270.06
612.787	273.06
612.995	272.06
613.203	262.06
613.411	262.06
613.618	250.06
613.826	265.06
614.034	262.06
614.242	252.06
614.449	250.06
614.657	268.06
614.865	266.06
615.072	261.06
615.28	269.06
615.488	246.06
615.695	248.06
615.903	252.06
616.111	232.06
616.318	255.06
616.526	254.06
616.733	248.06
616.941	246.06
617.148	234.06
617.356	232.06
617.563	249.06
617.771	252.06
617.978	267.06
618.185	277.06
618.393	238.06
618.6	231.06
618.807	262.06
619.015	264.06
619.222	240.06
619.429	256.06
619.637	261.06
619.844	240.06
620.051	249.06
620.258	244.06
620.466	242.06
620.673	236.06
620.88	237.06
621.087	248.06
621.294	256.06
621.501	256.06
621.708	233.06
621.915	242.06
622.122	244.06
622.329	257.06
622.536	249.06
622.743	244.06
622.95	230.06
623.157	237.06
623.364	234.06
623.571	247.06
623.778	262.06
623.985	248.06
624.192	216.06
624.399	222.06
624.606	221.06
624.812	240.06
625.019	236.06
625.226	228.06
625.433	235.06
625.639	230.06
625.846	230.06
626.053	213.06
626.259	233.06
626.466	211.06
626.673	253.06
626.879	215.06
627.086	226.06
627.293	228.06
627.499	218.06
627.706	231.06
627.912	225.06
628.119	203.06
628.325	220.06
628.532	212.06
628.738	214.06
628.945	234.06
629.151	224.06
629.357	218.06
629.564	215.06
629.77	222.06
629.976	203.06
630.183	204.06
630.389	218.06
630.595	215.06
630.802	208.06
631.008	235.06
631.214	209.06
631.42	212.06
631.627	209.06
631.833	216.06
632.039	198.06
632.245	202.06
632.451	229.06
632.657	208.06
632.863	206.06
633.069	214.06
633.275	209.06
633.481	198.06
633.688	209.06
633.893	210.06
634.099	192.06
634.305	192.06
634.511	208.06
634.717	204.06
634.923	209.06
635.129	203.06
635.335	207.06
635.541	196.06
635.747	209.06
635.952	205.06
636.158	197.06
636.364	196.06
636.57	200.06
636.775	205.06
636.981	205.06
637.187	194.06
637.392	198.06
637.598	198.06
637.804	197.06
638.009	182.06
638.215	185.06
638.421	204.06
638.626	188.06
638.832	189.06
639.037	189.06
639.243	188.06
639.448	188.06
639.654	192.06
639.859	175.06
640.065	182.06
640.27	190.06
640.475	173.06
640.681	172.06
640.886	160.06
641.091	173.06
641.297	177.06
641.502	175.06
641.707	192.06
641.913	174.06
642.118	190.06
642.323	188.06
642.528	191.06
642.733	185.06
642.939	181.06
643.144	185.06
643.349	199.06
643.554	190.06
643.759	169.06
643.964	177.06
644.169	189.06
644.374	207.06
644.579	192.06
644.784	174.06
644.989	170.06
645.194	156.06
645.399	177.06
645.604	169.06
645.809	177.06
646.014	181.06
646.219	177.06
646.423	169.06
646.628	180.06
646.833	172.06
647.038	185.06
647.243	166.06
647.447	186.06
647.652	195.06
647.857	188.06
648.062	169.06
648.266	199.06
648.471	179.06
648.676	174.06
648.88	187.06
649.085	203.06
649.289	189.06
649.494	185.06
649.698	200.06
649.903	200.06
650.107	185.06
650.312	184.06
650.516	175.06
650.721	174.06
650.925	171.06
651.13	158.06
651.334	150.06
651.539	166.06
651.743	174.06
651.947	166.06
652.152	155.06
652.356	155.06
652.56	157.06
652.764	163.06
652.969	149.06
653.173	149.06
653.377	149.06
653.581	143.06
653.785	141.06
653.99	150.06
654.194	134.06
654.398	135.06
654.602	153.06
654.806	141.06
655.01	155.06
655.214	165.06
655.418	146.06
655.622	159.06
655.826	171.06
656.03	142.06
656.234	138.06
656.438	150.06
656.642	140.06
656.846	159.06
657.049	142.06
657.253	134.06
657.457	133.06
657.661	136.06
657.865	131.06
658.068	123.06
658.272	124.06
658.476	106.06
658.68	105.06
658.883	111.06
659.087	111.06
659.291	115.06
659.494	100.06
659.698	102.06
659.901	118.06
660.105	104.06
660.309	112.06
660.512	89.06
660.716	76.06
660.919	86.06
661.123	90.06
661.326	101.06
661.53	96.06
661.733	101.06
661.936	89.06
662.14	86.06
662.343	102.06
662.546	82.06
662.75	94.06
662.953	103.06
663.156	75.06
663.36	87.06
663.563	96.06
663.766	92.06
663.969	91.06
664.173	99.06
664.376	91.06
664.579	82.06
664.782	92.06
664.985	100.06
665.188	92.06
665.391	82.06
665.594	95.06
665.797	94.06
666	92.06
666.203	98.06
666.406	82.06
666.609	98.06
666.812	101.06
667.015	81.06
667.218	81.06
667.421	88.06
667.624	90.06
667.827	98.06
668.03	76.06
668.232	81.06
668.435	81.06
668.638	79.06
668.841	77.06
669.043	94.06
669.246	90.06
669.449	91.06
669.651	92.06
669.854	71.06
670.057	85.06
670.259	81.06
670.462	90.06
670.665	92.06
670.867	94.06
671.07	79.06
671.272	104.06
671.475	96.06
671.677	97.06
671.88	93.06
672.082	86.06
672.284	76.06
672.487	85.06
672.689	89.06
672.892	74.06
