Data from 1979.PennyLincolnUp.Lamp.En5.5.200Scan.071719.P1_HRD10591_16-19-16-865.txt Node
Date: Thu Jul 18 16:19:16 EDT 2019
User: cochatt
Spectrometer: HR+D1059
Trigger mode: 1
Integration Time (sec): 1.000000E-1
Scans to average: 1
Electric dark correction enabled: true
Nonlinearity correction enabled: false
Boxcar width: 0
XAxis mode: Wavelengths
Number of Pixels in Spectrum: 2048
>>>>>Begin Spectral Data<<<<<
223.165	-16.25
223.4	-16.25
223.635	-16.25
223.869	-16.25
224.104	-23.25
224.338	-18.25
224.573	-13.25
224.808	-2.25
225.042	-13.25
225.277	-12.25
225.511	4.75
225.746	-5.25
225.98	4.75
226.215	5.75
226.449	7.75
226.683	28.75
226.918	21.75
227.152	46.75
227.387	22.75
227.621	36.75
227.856	37.75
228.09	32.75
228.324	50.75
228.559	53.75
228.793	77.75
229.027	93.75
229.262	91.75
229.496	101.75
229.73	119.75
229.964	133.75
230.199	127.75
230.433	121.75
230.667	102.75
230.901	98.75
231.136	102.75
231.37	106.75
231.604	106.75
231.838	97.75
232.072	88.75
232.306	112.75
232.541	104.75
232.775	108.75
233.009	116.75
233.243	102.75
233.477	91.75
233.711	100.75
233.945	109.75
234.179	122.75
234.413	112.75
234.647	112.75
234.881	111.75
235.115	119.75
235.349	99.75
235.583	105.75
235.817	124.75
236.051	130.75
236.285	122.75
236.519	120.75
236.753	113.75
236.987	149.75
237.221	157.75
237.455	213.75
237.689	165.75
237.922	121.75
238.156	128.75
238.39	134.75
238.624	131.75
238.858	124.75
239.091	113.75
239.325	114.75
239.559	119.75
239.793	119.75
240.027	130.75
240.26	142.75
240.494	153.75
240.728	144.75
240.961	133.75
241.195	144.75
241.429	131.75
241.662	135.75
241.896	124.75
242.13	138.75
242.363	125.75
242.597	124.75
242.83	147.75
243.064	135.75
243.298	133.75
243.531	130.75
243.765	122.75
243.998	134.75
244.232	128.75
244.465	143.75
244.699	135.75
244.932	145.75
245.166	150.75
245.399	146.75
245.633	141.75
245.866	149.75
246.099	157.75
246.333	149.75
246.566	134.75
246.8	131.75
247.033	150.75
247.266	156.75
247.5	156.75
247.733	151.75
247.966	158.75
248.2	164.75
248.433	163.75
248.666	155.75
248.899	162.75
249.133	183.75
249.366	185.75
249.599	183.75
249.832	176.75
250.066	165.75
250.299	166.75
250.532	164.75
250.765	181.75
250.998	216.75
251.231	225.75
251.465	212.75
251.698	184.75
251.931	184.75
252.164	185.75
252.397	183.75
252.63	197.75
252.863	185.75
253.096	189.75
253.329	210.75
253.562	204.75
253.795	180.75
254.028	203.75
254.261	196.75
254.494	204.75
254.727	216.75
254.96	232.75
255.193	238.75
255.426	223.75
255.659	200.75
255.892	225.75
256.124	205.75
256.357	212.75
256.59	225.75
256.823	210.75
257.056	206.75
257.289	207.75
257.521	193.75
257.754	201.75
257.987	192.75
258.22	198.75
258.452	188.75
258.685	205.75
258.918	189.75
259.151	187.75
259.383	205.75
259.616	220.75
259.849	209.75
260.081	215.75
260.314	228.75
260.547	235.75
260.779	234.75
261.012	220.75
261.244	208.75
261.477	209.75
261.71	211.75
261.942	215.75
262.175	220.75
262.407	210.75
262.64	209.75
262.872	204.75
263.105	205.75
263.337	194.75
263.57	200.75
263.802	206.75
264.035	215.75
264.267	212.75
264.499	193.75
264.732	192.75
264.964	204.75
265.197	205.75
265.429	206.75
265.661	204.75
265.894	207.75
266.126	204.75
266.358	208.75
266.591	225.75
266.823	225.75
267.055	198.75
267.287	203.75
267.52	200.75
267.752	217.75
267.984	209.75
268.216	218.75
268.448	212.75
268.681	230.75
268.913	227.75
269.145	241.75
269.377	236.75
269.609	266.75
269.841	249.75
270.073	254.75
270.306	264.75
270.538	267.75
270.77	280.75
271.002	289.75
271.234	276.75
271.466	260.75
271.698	277.75
271.93	274.75
272.162	281.75
272.394	276.75
272.626	277.75
272.858	255.75
273.09	242.75
273.322	253.75
273.553	234.75
273.785	267.75
274.017	250.75
274.249	247.75
274.481	253.75
274.713	259.75
274.945	244.75
275.176	260.75
275.408	266.75
275.64	244.75
275.872	258.75
276.104	260.75
276.335	244.75
276.567	261.75
276.799	252.75
277.031	284.75
277.262	278.75
277.494	294.75
277.726	278.75
277.957	259.75
278.189	279.75
278.421	247.75
278.652	244.75
278.884	248.75
279.115	265.75
279.347	267.75
279.579	263.75
279.81	252.75
280.042	254.75
280.273	262.75
280.505	264.75
280.736	263.75
280.968	241.75
281.199	253.75
281.431	262.75
281.662	283.75
281.894	274.75
282.125	264.75
282.356	290.75
282.588	311.75
282.819	306.75
283.051	278.75
283.282	265.75
283.513	253.75
283.745	275.75
283.976	272.75
284.207	276.75
284.439	261.75
284.67	267.75
284.901	271.75
285.132	258.75
285.364	263.75
285.595	264.75
285.826	253.75
286.057	264.75
286.288	281.75
286.52	288.75
286.751	281.75
286.982	282.75
287.213	266.75
287.444	272.75
287.675	280.75
287.906	281.75
288.138	274.75
288.369	288.75
288.6	294.75
288.831	286.75
289.062	301.75
289.293	276.75
289.524	274.75
289.755	297.75
289.986	302.75
290.217	276.75
290.448	290.75
290.679	288.75
290.91	289.75
291.141	278.75
291.371	283.75
291.602	282.75
291.833	266.75
292.064	272.75
292.295	285.75
292.526	288.75
292.757	279.75
292.987	288.75
293.218	279.75
293.449	285.75
293.68	266.75
293.91	283.75
294.141	284.75
294.372	281.75
294.603	286.75
294.833	288.75
295.064	270.75
295.295	282.75
295.525	300.75
295.756	286.75
295.987	298.75
296.217	340.75
296.448	318.75
296.679	302.75
296.909	283.75
297.14	302.75
297.37	286.75
297.601	300.75
297.831	306.75
298.062	310.75
298.292	301.75
298.523	295.75
298.753	301.75
298.984	305.75
299.214	293.75
299.445	310.75
299.675	301.75
299.905	318.75
300.136	322.75
300.366	301.75
300.597	309.75
300.827	318.75
301.057	328.75
301.288	322.75
301.518	316.75
301.748	336.75
301.979	338.75
302.209	312.75
302.439	333.75
302.669	319.75
302.9	325.75
303.13	318.75
303.36	337.75
303.59	328.75
303.82	327.75
304.051	324.75
304.281	340.75
304.511	313.75
304.741	337.75
304.971	317.75
305.201	326.75
305.431	312.75
305.661	338.75
305.891	328.75
306.121	324.75
306.352	342.75
306.582	328.75
306.812	344.75
307.042	332.75
307.272	337.75
307.502	327.75
307.731	332.75
307.961	334.75
308.191	311.75
308.421	320.75
308.651	331.75
308.881	340.75
309.111	336.75
309.341	317.75
309.571	336.75
309.8	343.75
310.03	345.75
310.26	354.75
310.49	377.75
310.72	350.75
310.949	372.75
311.179	386.75
311.409	355.75
311.639	370.75
311.868	349.75
312.098	356.75
312.328	366.75
312.557	380.75
312.787	399.75
313.017	388.75
313.246	359.75
313.476	367.75
313.706	361.75
313.935	388.75
314.165	372.75
314.394	392.75
314.624	392.75
314.853	373.75
315.083	356.75
315.312	369.75
315.542	376.75
315.771	372.75
316.001	385.75
316.23	364.75
316.46	364.75
316.689	366.75
316.919	380.75
317.148	366.75
317.377	369.75
317.607	396.75
317.836	376.75
318.065	377.75
318.295	383.75
318.524	364.75
318.753	384.75
318.983	384.75
319.212	360.75
319.441	380.75
319.67	386.75
319.9	375.75
320.129	375.75
320.358	382.75
320.587	383.75
320.816	389.75
321.046	369.75
321.275	395.75
321.504	392.75
321.733	394.75
321.962	393.75
322.191	410.75
322.42	415.75
322.649	432.75
322.878	447.75
323.108	436.75
323.337	459.75
323.566	466.75
323.795	498.75
324.024	512.75
324.253	625.75
324.482	874.75
324.71	1403.75
324.939	2058.75
325.168	1765.75
325.397	889.75
325.626	600.75
325.855	514.75
326.084	489.75
326.313	481.75
326.542	480.75
326.77	502.75
326.999	591.75
327.228	823.75
327.457	1280.75
327.686	1562.75
327.914	1012.75
328.143	647.75
328.372	578.75
328.6	548.75
328.829	525.75
329.058	517.75
329.287	542.75
329.515	536.75
329.744	492.75
329.972	474.75
330.201	502.75
330.43	515.75
330.658	548.75
330.887	578.75
331.115	572.75
331.344	505.75
331.572	483.75
331.801	461.75
332.03	490.75
332.258	479.75
332.486	460.75
332.715	457.75
332.943	456.75
333.172	455.75
333.4	451.75
333.629	472.75
333.857	482.75
334.085	472.75
334.314	512.75
334.542	523.75
334.771	533.75
334.999	498.75
335.227	478.75
335.455	478.75
335.684	469.75
335.912	459.75
336.14	459.75
336.369	466.75
336.597	465.75
336.825	445.75
337.053	448.75
337.281	446.75
337.51	436.75
337.738	444.75
337.966	459.75
338.194	430.75
338.422	430.75
338.65	429.75
338.878	440.75
339.106	445.75
339.334	447.75
339.562	426.75
339.79	416.75
340.018	415.75
340.246	422.75
340.474	441.75
340.702	422.75
340.93	426.75
341.158	424.75
341.386	423.75
341.614	422.75
341.842	439.75
342.07	422.75
342.298	431.75
342.526	440.75
342.754	433.75
342.981	403.75
343.209	428.75
343.437	424.75
343.665	449.75
343.893	436.75
344.12	440.75
344.348	457.75
344.576	444.75
344.804	438.75
345.031	438.75
345.259	460.75
345.487	441.75
345.714	422.75
345.942	418.75
346.17	420.75
346.397	435.75
346.625	416.75
346.853	414.75
347.08	425.75
347.308	409.75
347.535	402.75
347.763	435.75
347.99	423.75
348.218	432.75
348.445	436.75
348.673	426.75
348.9	418.75
349.128	416.75
349.355	401.75
349.583	400.75
349.81	414.75
350.037	417.75
350.265	396.75
350.492	411.75
350.72	429.75
350.947	415.75
351.174	430.75
351.402	419.75
351.629	412.75
351.856	413.75
352.083	419.75
352.311	414.75
352.538	435.75
352.765	428.75
352.992	437.75
353.22	435.75
353.447	398.75
353.674	400.75
353.901	393.75
354.128	393.75
354.355	390.75
354.583	386.75
354.81	415.75
355.037	392.75
355.264	391.75
355.491	382.75
355.718	383.75
355.945	385.75
356.172	386.75
356.399	401.75
356.626	394.75
356.853	406.75
357.08	368.75
357.307	380.75
357.534	394.75
357.761	386.75
357.988	373.75
358.215	411.75
358.441	388.75
358.668	403.75
358.895	392.75
359.122	394.75
359.349	401.75
359.576	421.75
359.802	449.75
360.029	446.75
360.256	455.75
360.483	452.75
360.709	442.75
360.936	436.75
361.163	404.75
361.39	424.75
361.616	418.75
361.843	411.75
362.07	435.75
362.296	418.75
362.523	416.75
362.749	408.75
362.976	421.75
363.203	414.75
363.429	423.75
363.656	414.75
363.882	400.75
364.109	414.75
364.335	393.75
364.562	417.75
364.788	412.75
365.015	384.75
365.241	409.75
365.468	408.75
365.694	399.75
365.92	418.75
366.147	400.75
366.373	414.75
366.599	411.75
366.826	408.75
367.052	390.75
367.278	398.75
367.505	410.75
367.731	413.75
367.957	404.75
368.184	412.75
368.41	403.75
368.636	430.75
368.862	432.75
369.089	415.75
369.315	406.75
369.541	424.75
369.767	399.75
369.993	411.75
370.219	413.75
370.445	418.75
370.672	399.75
370.898	399.75
371.124	400.75
371.35	406.75
371.576	412.75
371.802	417.75
372.028	420.75
372.254	429.75
372.48	424.75
372.706	440.75
372.932	429.75
373.158	431.75
373.384	431.75
373.61	423.75
373.835	419.75
374.061	421.75
374.287	425.75
374.513	428.75
374.739	425.75
374.965	441.75
375.191	457.75
375.416	443.75
375.642	416.75
375.868	432.75
376.094	397.75
376.319	416.75
376.545	421.75
376.771	412.75
376.997	424.75
377.222	407.75
377.448	403.75
377.674	413.75
377.899	417.75
378.125	417.75
378.35	424.75
378.576	406.75
378.802	398.75
379.027	426.75
379.253	440.75
379.478	422.75
379.704	421.75
379.929	417.75
380.155	426.75
380.38	419.75
380.606	414.75
380.831	407.75
381.057	434.75
381.282	412.75
381.507	432.75
381.733	429.75
381.958	426.75
382.184	445.75
382.409	403.75
382.634	422.75
382.86	412.75
383.085	440.75
383.31	457.75
383.535	435.75
383.761	469.75
383.986	442.75
384.211	441.75
384.436	434.75
384.662	431.75
384.887	441.75
385.112	444.75
385.337	464.75
385.562	435.75
385.787	462.75
386.013	462.75
386.238	452.75
386.463	460.75
386.688	464.75
386.913	484.75
387.138	482.75
387.363	455.75
387.588	454.75
387.813	483.75
388.038	449.75
388.263	468.75
388.488	453.75
388.713	476.75
388.938	478.75
389.163	452.75
389.387	473.75
389.612	463.75
389.837	466.75
390.062	455.75
390.287	482.75
390.512	482.75
390.736	464.75
390.961	453.75
391.186	469.75
391.411	482.75
391.636	493.75
391.86	500.75
392.085	487.75
392.31	523.75
392.534	473.75
392.759	498.75
392.984	483.75
393.208	468.75
393.433	471.75
393.658	496.75
393.882	456.75
394.107	490.75
394.331	472.75
394.556	509.75
394.78	472.75
395.005	484.75
395.229	507.75
395.454	487.75
395.678	522.75
395.903	528.75
396.127	518.75
396.352	502.75
396.576	494.75
396.801	494.75
397.025	506.75
397.249	495.75
397.474	518.75
397.698	518.75
397.922	542.75
398.147	532.75
398.371	535.75
398.595	521.75
398.82	571.75
399.044	567.75
399.268	577.75
399.492	636.75
399.717	645.75
399.941	679.75
400.165	696.75
400.389	672.75
400.613	639.75
400.837	606.75
401.062	579.75
401.286	575.75
401.51	564.75
401.734	542.75
401.958	572.75
402.182	559.75
402.406	561.75
402.63	567.75
402.854	576.75
403.078	572.75
403.302	620.75
403.526	580.75
403.75	608.75
403.974	588.75
404.198	568.75
404.422	586.75
404.645	569.75
404.869	590.75
405.093	642.75
405.317	669.75
405.541	687.75
405.765	657.75
405.988	621.75
406.212	616.75
406.436	632.75
406.66	652.75
406.883	627.75
407.107	668.75
407.331	679.75
407.555	782.75
407.778	746.75
408.002	705.75
408.226	654.75
408.449	670.75
408.673	634.75
408.896	670.75
409.12	701.75
409.344	672.75
409.567	622.75
409.791	597.75
410.014	614.75
410.238	594.75
410.461	588.75
410.685	571.75
410.908	624.75
411.132	669.75
411.355	663.75
411.578	624.75
411.802	582.75
412.025	600.75
412.249	605.75
412.472	620.75
412.695	660.75
412.919	632.75
413.142	588.75
413.365	587.75
413.589	582.75
413.812	589.75
414.035	557.75
414.258	546.75
414.482	543.75
414.705	569.75
414.928	550.75
415.151	568.75
415.374	550.75
415.597	564.75
415.821	551.75
416.044	527.75
416.267	543.75
416.49	538.75
416.713	548.75
416.936	546.75
417.159	536.75
417.382	569.75
417.605	550.75
417.828	550.75
418.051	586.75
418.274	559.75
418.497	540.75
418.72	557.75
418.943	572.75
419.166	587.75
419.389	589.75
419.611	602.75
419.834	589.75
420.057	585.75
420.28	578.75
420.503	573.75
420.726	546.75
420.948	586.75
421.171	625.75
421.394	669.75
421.617	583.75
421.839	578.75
422.062	570.75
422.285	609.75
422.507	640.75
422.73	733.75
422.953	708.75
423.175	617.75
423.398	606.75
423.621	590.75
423.843	601.75
424.066	628.75
424.288	591.75
424.511	632.75
424.733	691.75
424.956	769.75
425.178	714.75
425.401	706.75
425.623	729.75
425.846	666.75
426.068	597.75
426.291	604.75
426.513	608.75
426.735	605.75
426.958	645.75
427.18	734.75
427.402	844.75
427.625	945.75
427.847	776.75
428.069	718.75
428.292	649.75
428.514	616.75
428.736	575.75
428.958	579.75
429.181	536.75
429.403	558.75
429.625	568.75
429.847	612.75
430.069	681.75
430.292	664.75
430.514	577.75
430.736	569.75
430.958	547.75
431.18	534.75
431.402	549.75
431.624	519.75
431.846	532.75
432.068	519.75
432.29	550.75
432.512	553.75
432.734	542.75
432.956	560.75
433.178	530.75
433.4	537.75
433.622	551.75
433.844	545.75
434.066	540.75
434.287	530.75
434.509	573.75
434.731	561.75
434.953	570.75
435.175	581.75
435.397	598.75
435.618	614.75
435.84	638.75
436.062	722.75
436.284	797.75
436.505	656.75
436.727	604.75
436.949	581.75
437.17	573.75
437.392	562.75
437.614	553.75
437.835	607.75
438.057	700.75
438.278	784.75
438.5	764.75
438.721	853.75
438.943	846.75
439.165	645.75
439.386	615.75
439.608	605.75
439.829	600.75
440.05	617.75
440.272	681.75
440.493	625.75
440.715	600.75
440.936	599.75
441.158	594.75
441.379	583.75
441.6	580.75
441.822	612.75
442.043	661.75
442.264	729.75
442.486	751.75
442.707	658.75
442.928	626.75
443.149	623.75
443.371	649.75
443.592	708.75
443.813	783.75
444.034	827.75
444.255	697.75
444.476	647.75
444.698	636.75
444.919	636.75
445.14	711.75
445.361	650.75
445.582	650.75
445.803	722.75
446.024	794.75
446.245	804.75
446.466	745.75
446.687	637.75
446.908	611.75
447.129	605.75
447.35	564.75
447.571	555.75
447.792	548.75
448.013	566.75
448.234	589.75
448.455	624.75
448.675	715.75
448.896	845.75
449.117	704.75
449.338	679.75
449.559	790.75
449.779	894.75
450	698.75
450.221	594.75
450.442	545.75
450.662	552.75
450.883	562.75
451.104	553.75
451.324	560.75
451.545	524.75
451.766	522.75
451.986	495.75
452.207	486.75
452.428	516.75
452.648	497.75
452.869	534.75
453.089	520.75
453.31	518.75
453.53	507.75
453.751	484.75
453.971	483.75
454.192	529.75
454.412	519.75
454.633	495.75
454.853	492.75
455.073	488.75
455.294	512.75
455.514	581.75
455.734	563.75
455.955	516.75
456.175	475.75
456.395	464.75
456.616	469.75
456.836	474.75
457.056	479.75
457.276	481.75
457.497	478.75
457.717	480.75
457.937	490.75
458.157	480.75
458.377	494.75
458.598	503.75
458.818	566.75
459.038	675.75
459.258	670.75
459.478	596.75
459.698	550.75
459.918	556.75
460.138	566.75
460.358	554.75
460.578	549.75
460.798	565.75
461.018	578.75
461.238	546.75
461.458	556.75
461.678	549.75
461.898	583.75
462.118	567.75
462.338	593.75
462.558	610.75
462.777	594.75
462.997	630.75
463.217	649.75
463.437	636.75
463.657	620.75
463.876	614.75
464.096	625.75
464.316	615.75
464.536	590.75
464.755	614.75
464.975	602.75
465.195	628.75
465.414	714.75
465.634	630.75
465.854	583.75
466.073	537.75
466.293	539.75
466.512	533.75
466.732	517.75
466.951	535.75
467.171	553.75
467.391	537.75
467.61	532.75
467.829	527.75
468.049	521.75
468.268	551.75
468.488	533.75
468.707	496.75
468.927	520.75
469.146	506.75
469.365	513.75
469.585	505.75
469.804	532.75
470.023	516.75
470.243	531.75
470.462	529.75
470.681	567.75
470.901	541.75
471.12	526.75
471.339	526.75
471.558	548.75
471.777	519.75
471.997	534.75
472.216	537.75
472.435	552.75
472.654	564.75
472.873	526.75
473.092	535.75
473.311	483.75
473.53	530.75
473.749	532.75
473.968	551.75
474.187	663.75
474.406	669.75
474.625	564.75
474.844	543.75
475.063	541.75
475.282	537.75
475.501	541.75
475.72	558.75
475.939	546.75
476.158	541.75
476.377	552.75
476.596	536.75
476.814	566.75
477.033	567.75
477.252	561.75
477.471	572.75
477.69	550.75
477.908	592.75
478.127	582.75
478.346	582.75
478.564	594.75
478.783	599.75
479.002	606.75
479.22	600.75
479.439	636.75
479.658	622.75
479.876	630.75
480.095	628.75
480.313	673.75
480.532	672.75
480.751	631.75
480.969	661.75
481.188	704.75
481.406	729.75
481.624	671.75
481.843	648.75
482.061	640.75
482.28	624.75
482.498	624.75
482.717	617.75
482.935	606.75
483.153	610.75
483.372	645.75
483.59	613.75
483.808	609.75
484.027	602.75
484.245	603.75
484.463	640.75
484.681	632.75
484.9	630.75
485.118	593.75
485.336	649.75
485.554	665.75
485.772	641.75
485.99	632.75
486.209	648.75
486.427	645.75
486.645	664.75
486.863	670.75
487.081	638.75
487.299	661.75
487.517	654.75
487.735	655.75
487.953	657.75
488.171	643.75
488.389	673.75
488.607	677.75
488.825	651.75
489.043	675.75
489.261	673.75
489.479	668.75
489.696	658.75
489.914	672.75
490.132	678.75
490.35	691.75
490.568	703.75
490.786	681.75
491.003	707.75
491.221	724.75
491.439	729.75
491.657	709.75
491.874	722.75
492.092	724.75
492.31	759.75
492.527	743.75
492.745	734.75
492.963	747.75
493.18	762.75
493.398	748.75
493.615	777.75
493.833	775.75
494.05	774.75
494.268	794.75
494.485	771.75
494.703	749.75
494.92	730.75
495.138	777.75
495.355	776.75
495.573	771.75
495.79	768.75
496.008	772.75
496.225	817.75
496.442	770.75
496.66	769.75
496.877	759.75
497.094	776.75
497.312	809.75
497.529	796.75
497.746	820.75
497.963	836.75
498.181	864.75
498.398	841.75
498.615	905.75
498.832	876.75
499.049	952.75
499.267	970.75
499.484	1018.75
499.701	1062.75
499.918	1093.75
500.135	1147.75
500.352	1196.75
500.569	1243.75
500.786	1257.75
501.003	1220.75
501.22	1158.75
501.437	1086.75
501.654	1052.75
501.871	1057.75
502.088	965.75
502.305	932.75
502.522	884.75
502.739	912.75
502.956	908.75
503.172	881.75
503.389	847.75
503.606	838.75
503.823	820.75
504.04	846.75
504.256	803.75
504.473	786.75
504.69	802.75
504.907	822.75
505.123	778.75
505.34	765.75
505.557	767.75
505.773	770.75
505.99	738.75
506.207	756.75
506.423	749.75
506.64	730.75
506.856	733.75
507.073	721.75
507.289	709.75
507.506	694.75
507.722	691.75
507.939	721.75
508.155	710.75
508.372	682.75
508.588	713.75
508.805	685.75
509.021	674.75
509.238	724.75
509.454	731.75
509.67	685.75
509.887	681.75
510.103	661.75
510.319	681.75
510.536	778.75
510.752	1286.75
510.968	1056.75
511.184	704.75
511.401	694.75
511.617	683.75
511.833	637.75
512.049	640.75
512.265	666.75
512.481	636.75
512.698	668.75
512.914	649.75
513.13	636.75
513.346	649.75
513.562	664.75
513.778	662.75
513.994	681.75
514.21	685.75
514.426	700.75
514.642	738.75
514.858	745.75
515.074	793.75
515.29	927.75
515.506	1319.75
515.721	1116.75
515.937	800.75
516.153	730.75
516.369	710.75
516.585	704.75
516.801	695.75
517.016	681.75
517.232	693.75
517.448	704.75
517.664	714.75
517.879	715.75
518.095	711.75
518.311	716.75
518.527	689.75
518.742	689.75
518.958	693.75
519.173	665.75
519.389	681.75
519.605	673.75
519.82	662.75
520.036	689.75
520.251	696.75
520.467	741.75
520.682	679.75
520.898	674.75
521.113	720.75
521.329	742.75
521.544	834.75
521.76	1028.75
521.975	1704.75
522.19	1696.75
522.406	944.75
522.621	714.75
522.836	674.75
523.052	649.75
523.267	634.75
523.482	608.75
523.698	638.75
523.913	634.75
524.128	612.75
524.343	604.75
524.559	592.75
524.774	589.75
524.989	586.75
525.204	585.75
525.419	578.75
525.634	577.75
525.849	592.75
526.064	553.75
526.28	549.75
526.495	546.75
526.71	543.75
526.925	535.75
527.14	544.75
527.355	553.75
527.57	556.75
527.785	543.75
527.999	565.75
528.214	545.75
528.429	563.75
528.644	577.75
528.859	556.75
529.074	549.75
529.289	574.75
529.503	644.75
529.718	617.75
529.933	563.75
530.148	536.75
530.363	554.75
530.577	548.75
530.792	552.75
531.007	539.75
531.221	551.75
531.436	527.75
531.651	524.75
531.865	539.75
532.08	551.75
532.295	525.75
532.509	544.75
532.724	521.75
532.938	520.75
533.153	529.75
533.367	524.75
533.582	529.75
533.796	524.75
534.011	521.75
534.225	518.75
534.44	515.75
534.654	543.75
534.868	505.75
535.083	528.75
535.297	529.75
535.511	497.75
535.726	549.75
535.94	532.75
536.154	529.75
536.369	544.75
536.583	515.75
536.797	519.75
537.011	508.75
537.225	501.75
537.44	526.75
537.654	480.75
537.868	493.75
538.082	473.75
538.296	516.75
538.51	516.75
538.724	511.75
538.938	510.75
539.153	517.75
539.367	513.75
539.581	523.75
539.795	520.75
540.009	504.75
540.222	512.75
540.436	516.75
540.65	487.75
540.864	497.75
541.078	505.75
541.292	519.75
541.506	516.75
541.72	497.75
541.934	505.75
542.147	489.75
542.361	505.75
542.575	507.75
542.789	494.75
543.002	485.75
543.216	498.75
543.43	522.75
543.644	496.75
543.857	482.75
544.071	526.75
544.285	521.75
544.498	512.75
544.712	497.75
544.925	482.75
545.139	486.75
545.352	486.75
545.566	502.75
545.779	493.75
545.993	501.75
546.206	500.75
546.42	490.75
546.633	487.75
546.847	502.75
547.06	497.75
547.274	510.75
547.487	486.75
547.7	476.75
547.914	496.75
548.127	484.75
548.34	493.75
548.554	504.75
548.767	485.75
548.98	486.75
549.193	493.75
549.407	508.75
549.62	495.75
549.833	505.75
550.046	479.75
550.259	505.75
550.473	501.75
550.686	479.75
550.899	480.75
551.112	483.75
551.325	456.75
551.538	476.75
551.751	488.75
551.964	486.75
552.177	474.75
552.39	506.75
552.603	475.75
552.816	517.75
553.029	497.75
553.242	517.75
553.455	520.75
553.667	496.75
553.88	515.75
554.093	508.75
554.306	513.75
554.519	493.75
554.732	488.75
554.944	465.75
555.157	462.75
555.37	484.75
555.583	480.75
555.795	448.75
556.008	469.75
556.221	445.75
556.433	469.75
556.646	448.75
556.859	457.75
557.071	454.75
557.284	436.75
557.496	465.75
557.709	446.75
557.921	461.75
558.134	448.75
558.346	438.75
558.559	436.75
558.771	410.75
558.984	426.75
559.196	444.75
559.409	456.75
559.621	434.75
559.833	428.75
560.046	428.75
560.258	440.75
560.47	433.75
560.683	435.75
560.895	423.75
561.107	409.75
561.32	455.75
561.532	442.75
561.744	449.75
561.956	434.75
562.168	434.75
562.381	430.75
562.593	424.75
562.805	430.75
563.017	438.75
563.229	439.75
563.441	436.75
563.653	445.75
563.865	442.75
564.077	428.75
564.289	439.75
564.501	465.75
564.713	469.75
564.925	457.75
565.137	452.75
565.349	478.75
565.561	485.75
565.773	506.75
565.985	495.75
566.197	521.75
566.408	532.75
566.62	546.75
566.832	546.75
567.044	578.75
567.255	557.75
567.467	581.75
567.679	578.75
567.891	595.75
568.102	607.75
568.314	584.75
568.526	572.75
568.737	553.75
568.949	522.75
569.161	474.75
569.372	492.75
569.584	474.75
569.795	463.75
570.007	439.75
570.218	489.75
570.43	450.75
570.641	434.75
570.853	437.75
571.064	416.75
571.276	436.75
571.487	436.75
571.698	446.75
571.91	413.75
572.121	411.75
572.333	401.75
572.544	418.75
572.755	403.75
572.966	370.75
573.178	394.75
573.389	367.75
573.6	378.75
573.811	381.75
574.023	390.75
574.234	377.75
574.445	400.75
574.656	355.75
574.867	368.75
575.078	388.75
575.289	353.75
575.501	374.75
575.712	370.75
575.923	361.75
576.134	365.75
576.345	359.75
576.556	384.75
576.767	376.75
576.978	354.75
577.188	368.75
577.399	350.75
577.61	347.75
577.821	370.75
578.032	352.75
578.243	381.75
578.454	600.75
578.665	462.75
578.875	367.75
579.086	358.75
579.297	367.75
579.508	344.75
579.718	341.75
579.929	324.75
580.14	357.75
580.35	334.75
580.561	362.75
580.772	362.75
580.982	349.75
581.193	338.75
581.403	342.75
581.614	332.75
581.825	332.75
582.035	339.75
582.246	336.75
582.456	317.75
582.667	335.75
582.877	335.75
583.087	340.75
583.298	344.75
583.508	345.75
583.719	328.75
583.929	342.75
584.139	324.75
584.35	339.75
584.56	335.75
584.77	355.75
584.981	327.75
585.191	312.75
585.401	329.75
585.611	323.75
585.821	347.75
586.032	336.75
586.242	338.75
586.452	319.75
586.662	334.75
586.872	317.75
587.082	334.75
587.292	345.75
587.502	331.75
587.713	337.75
587.923	314.75
588.133	322.75
588.343	321.75
588.553	312.75
588.762	308.75
588.972	299.75
589.182	333.75
589.392	341.75
589.602	315.75
589.812	351.75
590.022	356.75
590.232	338.75
590.441	326.75
590.651	328.75
590.861	309.75
591.071	327.75
591.281	342.75
591.49	342.75
591.7	326.75
591.91	330.75
592.119	337.75
592.329	327.75
592.539	329.75
592.748	348.75
592.958	354.75
593.167	345.75
593.377	358.75
593.587	344.75
593.796	353.75
594.006	352.75
594.215	353.75
594.424	356.75
594.634	360.75
594.843	337.75
595.053	335.75
595.262	330.75
595.472	333.75
595.681	331.75
595.89	335.75
596.1	316.75
596.309	292.75
596.518	321.75
596.727	312.75
596.937	300.75
597.146	296.75
597.355	315.75
597.564	311.75
597.774	319.75
597.983	286.75
598.192	300.75
598.401	289.75
598.61	282.75
598.819	301.75
599.028	287.75
599.237	291.75
599.446	288.75
599.655	280.75
599.864	281.75
600.073	285.75
600.282	292.75
600.491	273.75
600.7	273.75
600.909	263.75
601.118	276.75
601.327	285.75
601.536	288.75
601.745	280.75
601.953	273.75
602.162	289.75
602.371	277.75
602.58	272.75
602.789	280.75
602.997	272.75
603.206	262.75
603.415	281.75
603.623	284.75
603.832	280.75
604.041	266.75
604.249	277.75
604.458	277.75
604.666	264.75
604.875	270.75
605.084	256.75
605.292	259.75
605.501	255.75
605.709	277.75
605.918	252.75
606.126	265.75
606.334	272.75
606.543	267.75
606.751	274.75
606.96	255.75
607.168	258.75
607.376	274.75
607.585	263.75
607.793	270.75
608.001	250.75
608.21	261.75
608.418	262.75
608.626	264.75
608.834	272.75
609.043	270.75
609.251	245.75
609.459	252.75
609.667	258.75
609.875	271.75
610.083	265.75
610.291	258.75
610.499	271.75
610.707	274.75
610.916	264.75
611.124	257.75
611.332	267.75
611.54	284.75
611.748	261.75
611.955	256.75
612.163	244.75
612.371	244.75
612.579	266.75
612.787	251.75
612.995	243.75
613.203	274.75
613.411	248.75
613.618	247.75
613.826	243.75
614.034	253.75
614.242	255.75
614.449	237.75
614.657	244.75
614.865	251.75
615.072	261.75
615.28	266.75
615.488	261.75
615.695	262.75
615.903	238.75
616.111	257.75
616.318	254.75
616.526	264.75
616.733	266.75
616.941	261.75
617.148	241.75
617.356	256.75
617.563	245.75
617.771	246.75
617.978	257.75
618.185	253.75
618.393	254.75
618.6	246.75
618.807	241.75
619.015	262.75
619.222	244.75
619.429	238.75
619.637	238.75
619.844	255.75
620.051	238.75
620.258	257.75
620.466	246.75
620.673	227.75
620.88	222.75
621.087	230.75
621.294	219.75
621.501	234.75
621.708	235.75
621.915	238.75
622.122	252.75
622.329	235.75
622.536	232.75
622.743	238.75
622.95	238.75
623.157	236.75
623.364	236.75
623.571	214.75
623.778	229.75
623.985	217.75
624.192	212.75
624.399	232.75
624.606	231.75
624.812	229.75
625.019	221.75
625.226	223.75
625.433	239.75
625.639	212.75
625.846	208.75
626.053	209.75
626.259	226.75
626.466	223.75
626.673	209.75
626.879	209.75
627.086	223.75
627.293	223.75
627.499	216.75
627.706	222.75
627.912	200.75
628.119	209.75
628.325	214.75
628.532	210.75
628.738	230.75
628.945	220.75
629.151	212.75
629.357	209.75
629.564	195.75
629.77	214.75
629.976	194.75
630.183	194.75
630.389	205.75
630.595	202.75
630.802	200.75
631.008	196.75
631.214	205.75
631.42	212.75
631.627	206.75
631.833	197.75
632.039	196.75
632.245	205.75
632.451	193.75
632.657	204.75
632.863	202.75
633.069	202.75
633.275	193.75
633.481	200.75
633.688	185.75
633.893	211.75
634.099	191.75
634.305	197.75
634.511	185.75
634.717	206.75
634.923	200.75
635.129	192.75
635.335	193.75
635.541	181.75
635.747	189.75
635.952	197.75
636.158	186.75
636.364	198.75
636.57	208.75
636.775	201.75
636.981	190.75
637.187	190.75
637.392	194.75
637.598	180.75
637.804	185.75
638.009	193.75
638.215	196.75
638.421	181.75
638.626	183.75
638.832	188.75
639.037	178.75
639.243	182.75
639.448	195.75
639.654	183.75
639.859	180.75
640.065	168.75
640.27	188.75
640.475	186.75
640.681	165.75
640.886	158.75
641.091	179.75
641.297	190.75
641.502	164.75
641.707	163.75
641.913	163.75
642.118	173.75
642.323	166.75
642.528	152.75
642.733	189.75
642.939	174.75
643.144	181.75
643.349	173.75
643.554	173.75
643.759	165.75
643.964	170.75
644.169	176.75
644.374	161.75
644.579	172.75
644.784	184.75
644.989	172.75
645.194	181.75
645.399	168.75
645.604	176.75
645.809	166.75
646.014	171.75
646.219	190.75
646.423	193.75
646.628	165.75
646.833	155.75
647.038	175.75
647.243	185.75
647.447	164.75
647.652	167.75
647.857	177.75
648.062	181.75
648.266	170.75
648.471	164.75
648.676	172.75
648.88	186.75
649.085	174.75
649.289	188.75
649.494	171.75
649.698	193.75
649.903	194.75
650.107	176.75
650.312	173.75
650.516	176.75
650.721	181.75
650.925	145.75
651.13	158.75
651.334	155.75
651.539	146.75
651.743	164.75
651.947	146.75
652.152	164.75
652.356	168.75
652.56	151.75
652.764	156.75
652.969	159.75
653.173	152.75
653.377	150.75
653.581	136.75
653.785	133.75
653.99	144.75
654.194	134.75
654.398	141.75
654.602	139.75
654.806	138.75
655.01	135.75
655.214	136.75
655.418	129.75
655.622	138.75
655.826	143.75
656.03	137.75
656.234	134.75
656.438	135.75
656.642	146.75
656.846	136.75
657.049	135.75
657.253	130.75
657.457	120.75
657.661	117.75
657.865	120.75
658.068	117.75
658.272	104.75
658.476	114.75
658.68	104.75
658.883	101.75
659.087	79.75
659.291	112.75
659.494	105.75
659.698	97.75
659.901	98.75
660.105	94.75
660.309	95.75
660.512	87.75
660.716	91.75
660.919	95.75
661.123	92.75
661.326	97.75
661.53	88.75
661.733	92.75
661.936	82.75
662.14	88.75
662.343	80.75
662.546	83.75
662.75	79.75
662.953	79.75
663.156	91.75
663.36	84.75
663.563	64.75
663.766	71.75
663.969	83.75
664.173	70.75
664.376	79.75
664.579	70.75
664.782	86.75
664.985	84.75
665.188	79.75
665.391	74.75
665.594	86.75
665.797	77.75
666	68.75
666.203	67.75
666.406	76.75
666.609	76.75
666.812	85.75
667.015	84.75
667.218	83.75
667.421	92.75
667.624	71.75
667.827	68.75
668.03	82.75
668.232	69.75
668.435	74.75
668.638	71.75
668.841	80.75
669.043	79.75
669.246	71.75
669.449	81.75
669.651	80.75
669.854	81.75
670.057	86.75
670.259	84.75
670.462	83.75
670.665	72.75
670.867	79.75
671.07	80.75
671.272	82.75
671.475	86.75
671.677	81.75
671.88	84.75
672.082	88.75
672.284	63.75
672.487	69.75
672.689	70.75
672.892	62.75
