Data from 1979.PennyLincolnUp.Lamp.En5.5.200Scan.071719.P1_HRD10591_16-17-50-863.txt Node
Date: Thu Jul 18 16:17:50 EDT 2019
User: cochatt
Spectrometer: HR+D1059
Trigger mode: 1
Integration Time (sec): 1.000000E-1
Scans to average: 1
Electric dark correction enabled: true
Nonlinearity correction enabled: false
Boxcar width: 0
XAxis mode: Wavelengths
Number of Pixels in Spectrum: 2048
>>>>>Begin Spectral Data<<<<<
223.165	-9.62
223.4	-9.62
223.635	-9.62
223.869	-23.62
224.104	-27.62
224.338	-25.62
224.573	-19.62
224.808	-17.62
225.042	-5.62
225.277	-4.62
225.511	1.38
225.746	-7.62
225.98	10.38
226.215	12.38
226.449	24.38
226.683	26.38
226.918	27.38
227.152	39.38
227.387	41.38
227.621	51.38
227.856	26.38
228.09	30.38
228.324	41.38
228.559	43.38
228.793	58.38
229.027	92.38
229.262	102.38
229.496	103.38
229.73	118.38
229.964	139.38
230.199	108.38
230.433	102.38
230.667	96.38
230.901	98.38
231.136	121.38
231.37	112.38
231.604	100.38
231.838	106.38
232.072	118.38
232.306	112.38
232.541	113.38
232.775	112.38
233.009	114.38
233.243	102.38
233.477	102.38
233.711	129.38
233.945	103.38
234.179	116.38
234.413	124.38
234.647	110.38
234.881	121.38
235.115	123.38
235.349	116.38
235.583	108.38
235.817	119.38
236.051	118.38
236.285	113.38
236.519	116.38
236.753	125.38
236.987	122.38
237.221	152.38
237.455	197.38
237.689	157.38
237.922	137.38
238.156	117.38
238.39	119.38
238.624	119.38
238.858	129.38
239.091	125.38
239.325	138.38
239.559	113.38
239.793	109.38
240.027	120.38
240.26	127.38
240.494	129.38
240.728	126.38
240.961	136.38
241.195	116.38
241.429	119.38
241.662	130.38
241.896	137.38
242.13	123.38
242.363	119.38
242.597	121.38
242.83	130.38
243.064	130.38
243.298	121.38
243.531	136.38
243.765	150.38
243.998	130.38
244.232	123.38
244.465	138.38
244.699	154.38
244.932	140.38
245.166	138.38
245.399	132.38
245.633	132.38
245.866	134.38
246.099	134.38
246.333	109.38
246.566	134.38
246.8	134.38
247.033	163.38
247.266	142.38
247.5	139.38
247.733	164.38
247.966	150.38
248.2	150.38
248.433	149.38
248.666	162.38
248.899	162.38
249.133	166.38
249.366	160.38
249.599	177.38
249.832	153.38
250.066	147.38
250.299	154.38
250.532	168.38
250.765	163.38
250.998	196.38
251.231	199.38
251.465	197.38
251.698	180.38
251.931	181.38
252.164	184.38
252.397	186.38
252.63	165.38
252.863	189.38
253.096	198.38
253.329	192.38
253.562	190.38
253.795	184.38
254.028	172.38
254.261	186.38
254.494	186.38
254.727	212.38
254.96	237.38
255.193	221.38
255.426	214.38
255.659	182.38
255.892	197.38
256.124	192.38
256.357	205.38
256.59	202.38
256.823	189.38
257.056	202.38
257.289	173.38
257.521	189.38
257.754	200.38
257.987	189.38
258.22	195.38
258.452	185.38
258.685	172.38
258.918	183.38
259.151	189.38
259.383	194.38
259.616	194.38
259.849	184.38
260.081	199.38
260.314	212.38
260.547	216.38
260.779	198.38
261.012	191.38
261.244	186.38
261.477	182.38
261.71	204.38
261.942	188.38
262.175	213.38
262.407	203.38
262.64	188.38
262.872	196.38
263.105	182.38
263.337	193.38
263.57	199.38
263.802	192.38
264.035	183.38
264.267	182.38
264.499	197.38
264.732	169.38
264.964	194.38
265.197	191.38
265.429	172.38
265.661	212.38
265.894	186.38
266.126	194.38
266.358	205.38
266.591	180.38
266.823	186.38
267.055	206.38
267.287	199.38
267.52	202.38
267.752	199.38
267.984	197.38
268.216	219.38
268.448	214.38
268.681	206.38
268.913	213.38
269.145	233.38
269.377	234.38
269.609	212.38
269.841	202.38
270.073	243.38
270.306	250.38
270.538	249.38
270.77	261.38
271.002	240.38
271.234	241.38
271.466	244.38
271.698	246.38
271.93	245.38
272.162	264.38
272.394	240.38
272.626	259.38
272.858	240.38
273.09	237.38
273.322	231.38
273.553	233.38
273.785	229.38
274.017	221.38
274.249	225.38
274.481	231.38
274.713	242.38
274.945	229.38
275.176	241.38
275.408	236.38
275.64	221.38
275.872	230.38
276.104	233.38
276.335	232.38
276.567	225.38
276.799	236.38
277.031	275.38
277.262	270.38
277.494	256.38
277.726	244.38
277.957	259.38
278.189	242.38
278.421	242.38
278.652	228.38
278.884	228.38
279.115	240.38
279.347	236.38
279.579	244.38
279.81	237.38
280.042	226.38
280.273	252.38
280.505	241.38
280.736	238.38
280.968	233.38
281.199	237.38
281.431	217.38
281.662	224.38
281.894	247.38
282.125	258.38
282.356	250.38
282.588	264.38
282.819	257.38
283.051	239.38
283.282	244.38
283.513	245.38
283.745	242.38
283.976	237.38
284.207	256.38
284.439	236.38
284.67	243.38
284.901	244.38
285.132	252.38
285.364	241.38
285.595	231.38
285.826	233.38
286.057	242.38
286.288	266.38
286.52	259.38
286.751	233.38
286.982	234.38
287.213	259.38
287.444	224.38
287.675	244.38
287.906	259.38
288.138	245.38
288.369	261.38
288.6	266.38
288.831	282.38
289.062	276.38
289.293	260.38
289.524	246.38
289.755	271.38
289.986	244.38
290.217	264.38
290.448	274.38
290.679	252.38
290.91	248.38
291.141	257.38
291.371	251.38
291.602	261.38
291.833	247.38
292.064	269.38
292.295	261.38
292.526	266.38
292.757	248.38
292.987	262.38
293.218	274.38
293.449	251.38
293.68	272.38
293.91	278.38
294.141	280.38
294.372	269.38
294.603	277.38
294.833	251.38
295.064	268.38
295.295	267.38
295.525	269.38
295.756	274.38
295.987	280.38
296.217	266.38
296.448	290.38
296.679	280.38
296.909	272.38
297.14	278.38
297.37	283.38
297.601	288.38
297.831	279.38
298.062	295.38
298.292	274.38
298.523	277.38
298.753	277.38
298.984	273.38
299.214	281.38
299.445	277.38
299.675	272.38
299.905	287.38
300.136	285.38
300.366	288.38
300.597	286.38
300.827	290.38
301.057	321.38
301.288	289.38
301.518	283.38
301.748	276.38
301.979	280.38
302.209	299.38
302.439	298.38
302.669	278.38
302.9	285.38
303.13	296.38
303.36	296.38
303.59	290.38
303.82	290.38
304.051	301.38
304.281	296.38
304.511	298.38
304.741	314.38
304.971	291.38
305.201	265.38
305.431	281.38
305.661	285.38
305.891	308.38
306.121	306.38
306.352	299.38
306.582	314.38
306.812	297.38
307.042	298.38
307.272	297.38
307.502	291.38
307.731	312.38
307.961	312.38
308.191	302.38
308.421	298.38
308.651	301.38
308.881	297.38
309.111	310.38
309.341	304.38
309.571	308.38
309.8	293.38
310.03	327.38
310.26	314.38
310.49	336.38
310.72	330.38
310.949	337.38
311.179	352.38
311.409	318.38
311.639	304.38
311.868	317.38
312.098	314.38
312.328	331.38
312.557	350.38
312.787	325.38
313.017	352.38
313.246	333.38
313.476	321.38
313.706	322.38
313.935	348.38
314.165	354.38
314.394	341.38
314.624	344.38
314.853	342.38
315.083	351.38
315.312	342.38
315.542	336.38
315.771	339.38
316.001	345.38
316.23	341.38
316.46	325.38
316.689	341.38
316.919	338.38
317.148	334.38
317.377	340.38
317.607	332.38
317.836	353.38
318.065	340.38
318.295	327.38
318.524	320.38
318.753	333.38
318.983	325.38
319.212	318.38
319.441	335.38
319.67	334.38
319.9	343.38
320.129	345.38
320.358	334.38
320.587	338.38
320.816	355.38
321.046	343.38
321.275	333.38
321.504	354.38
321.733	323.38
321.962	352.38
322.191	368.38
322.42	364.38
322.649	371.38
322.878	380.38
323.108	376.38
323.337	403.38
323.566	412.38
323.795	425.38
324.024	457.38
324.253	507.38
324.482	743.38
324.71	1069.38
324.939	1627.38
325.168	1395.38
325.397	694.38
325.626	494.38
325.855	437.38
326.084	412.38
326.313	410.38
326.542	409.38
326.77	422.38
326.999	527.38
327.228	685.38
327.457	1019.38
327.686	1260.38
327.914	791.38
328.143	530.38
328.372	493.38
328.6	458.38
328.829	477.38
329.058	448.38
329.287	461.38
329.515	438.38
329.744	426.38
329.972	410.38
330.201	419.38
330.43	452.38
330.658	446.38
330.887	468.38
331.115	484.38
331.344	434.38
331.572	382.38
331.801	402.38
332.03	420.38
332.258	429.38
332.486	396.38
332.715	407.38
332.943	411.38
333.172	421.38
333.4	423.38
333.629	430.38
333.857	405.38
334.085	430.38
334.314	428.38
334.542	446.38
334.771	460.38
334.999	453.38
335.227	420.38
335.455	434.38
335.684	428.38
335.912	404.38
336.14	395.38
336.369	413.38
336.597	418.38
336.825	390.38
337.053	388.38
337.281	408.38
337.51	408.38
337.738	406.38
337.966	417.38
338.194	399.38
338.422	393.38
338.65	391.38
338.878	375.38
339.106	396.38
339.334	394.38
339.562	381.38
339.79	388.38
340.018	393.38
340.246	396.38
340.474	395.38
340.702	378.38
340.93	391.38
341.158	393.38
341.386	398.38
341.614	396.38
341.842	384.38
342.07	388.38
342.298	385.38
342.526	380.38
342.754	375.38
342.981	384.38
343.209	372.38
343.437	384.38
343.665	407.38
343.893	399.38
344.12	385.38
344.348	418.38
344.576	403.38
344.804	407.38
345.031	397.38
345.259	400.38
345.487	401.38
345.714	393.38
345.942	387.38
346.17	382.38
346.397	390.38
346.625	357.38
346.853	353.38
347.08	384.38
347.308	360.38
347.535	388.38
347.763	380.38
347.99	408.38
348.218	390.38
348.445	386.38
348.673	385.38
348.9	386.38
349.128	366.38
349.355	359.38
349.583	381.38
349.81	375.38
350.037	358.38
350.265	361.38
350.492	357.38
350.72	366.38
350.947	363.38
351.174	373.38
351.402	384.38
351.629	378.38
351.856	377.38
352.083	390.38
352.311	375.38
352.538	382.38
352.765	404.38
352.992	367.38
353.22	373.38
353.447	356.38
353.674	380.38
353.901	363.38
354.128	354.38
354.355	381.38
354.583	369.38
354.81	360.38
355.037	368.38
355.264	340.38
355.491	340.38
355.718	354.38
355.945	355.38
356.172	358.38
356.399	357.38
356.626	352.38
356.853	365.38
357.08	360.38
357.307	373.38
357.534	366.38
357.761	375.38
357.988	368.38
358.215	377.38
358.441	352.38
358.668	356.38
358.895	375.38
359.122	365.38
359.349	350.38
359.576	377.38
359.802	410.38
360.029	398.38
360.256	406.38
360.483	404.38
360.709	371.38
360.936	379.38
361.163	362.38
361.39	360.38
361.616	375.38
361.843	359.38
362.07	376.38
362.296	357.38
362.523	378.38
362.749	393.38
362.976	386.38
363.203	357.38
363.429	368.38
363.656	373.38
363.882	374.38
364.109	375.38
364.335	362.38
364.562	380.38
364.788	389.38
365.015	363.38
365.241	365.38
365.468	356.38
365.694	379.38
365.92	390.38
366.147	359.38
366.373	369.38
366.599	384.38
366.826	355.38
367.052	376.38
367.278	351.38
367.505	358.38
367.731	358.38
367.957	373.38
368.184	362.38
368.41	384.38
368.636	396.38
368.862	377.38
369.089	400.38
369.315	377.38
369.541	376.38
369.767	377.38
369.993	376.38
370.219	374.38
370.445	386.38
370.672	384.38
370.898	389.38
371.124	397.38
371.35	368.38
371.576	380.38
371.802	389.38
372.028	389.38
372.254	399.38
372.48	397.38
372.706	391.38
372.932	395.38
373.158	398.38
373.384	392.38
373.61	381.38
373.835	377.38
374.061	369.38
374.287	372.38
374.513	378.38
374.739	402.38
374.965	399.38
375.191	420.38
375.416	402.38
375.642	390.38
375.868	401.38
376.094	390.38
376.319	378.38
376.545	408.38
376.771	381.38
376.997	409.38
377.222	376.38
377.448	387.38
377.674	380.38
377.899	376.38
378.125	383.38
378.35	380.38
378.576	362.38
378.802	379.38
379.027	390.38
379.253	393.38
379.478	377.38
379.704	398.38
379.929	374.38
380.155	401.38
380.38	404.38
380.606	392.38
380.831	390.38
381.057	381.38
381.282	404.38
381.507	371.38
381.733	394.38
381.958	374.38
382.184	396.38
382.409	381.38
382.634	392.38
382.86	380.38
383.085	400.38
383.31	384.38
383.535	410.38
383.761	394.38
383.986	395.38
384.211	414.38
384.436	409.38
384.662	425.38
384.887	418.38
385.112	433.38
385.337	432.38
385.562	431.38
385.787	435.38
386.013	434.38
386.238	452.38
386.463	425.38
386.688	425.38
386.913	423.38
387.138	424.38
387.363	437.38
387.588	421.38
387.813	433.38
388.038	418.38
388.263	429.38
388.488	449.38
388.713	442.38
388.938	448.38
389.163	434.38
389.387	441.38
389.612	417.38
389.837	428.38
390.062	406.38
390.287	447.38
390.512	406.38
390.736	425.38
390.961	417.38
391.186	460.38
391.411	446.38
391.636	441.38
391.86	437.38
392.085	457.38
392.31	444.38
392.534	439.38
392.759	452.38
392.984	444.38
393.208	455.38
393.433	452.38
393.658	468.38
393.882	438.38
394.107	452.38
394.331	426.38
394.556	454.38
394.78	443.38
395.005	446.38
395.229	452.38
395.454	440.38
395.678	469.38
395.903	462.38
396.127	473.38
396.352	480.38
396.576	456.38
396.801	486.38
397.025	460.38
397.249	453.38
397.474	449.38
397.698	461.38
397.922	477.38
398.147	491.38
398.371	499.38
398.595	503.38
398.82	489.38
399.044	514.38
399.268	530.38
399.492	574.38
399.717	606.38
399.941	638.38
400.165	611.38
400.389	602.38
400.613	567.38
400.837	534.38
401.062	530.38
401.286	522.38
401.51	492.38
401.734	514.38
401.958	541.38
402.182	523.38
402.406	516.38
402.63	533.38
402.854	498.38
403.078	519.38
403.302	518.38
403.526	537.38
403.75	507.38
403.974	512.38
404.198	522.38
404.422	546.38
404.645	535.38
404.869	557.38
405.093	577.38
405.317	602.38
405.541	617.38
405.765	555.38
405.988	544.38
406.212	571.38
406.436	580.38
406.66	595.38
406.883	580.38
407.107	587.38
407.331	632.38
407.555	696.38
407.778	701.38
408.002	617.38
408.226	588.38
408.449	594.38
408.673	596.38
408.896	606.38
409.12	642.38
409.344	589.38
409.567	556.38
409.791	551.38
410.014	571.38
410.238	524.38
410.461	527.38
410.685	548.38
410.908	565.38
411.132	571.38
411.355	619.38
411.578	593.38
411.802	540.38
412.025	547.38
412.249	548.38
412.472	562.38
412.695	590.38
412.919	584.38
413.142	557.38
413.365	521.38
413.589	521.38
413.812	521.38
414.035	529.38
414.258	516.38
414.482	496.38
414.705	512.38
414.928	512.38
415.151	504.38
415.374	508.38
415.597	504.38
415.821	502.38
416.044	516.38
416.267	515.38
416.49	503.38
416.713	506.38
416.936	505.38
417.159	505.38
417.382	519.38
417.605	513.38
417.828	523.38
418.051	531.38
418.274	500.38
418.497	499.38
418.72	526.38
418.943	511.38
419.166	524.38
419.389	554.38
419.611	540.38
419.834	556.38
420.057	542.38
420.28	555.38
420.503	536.38
420.726	537.38
420.948	534.38
421.171	553.38
421.394	589.38
421.617	508.38
421.839	526.38
422.062	535.38
422.285	529.38
422.507	563.38
422.73	626.38
422.953	630.38
423.175	555.38
423.398	538.38
423.621	545.38
423.843	533.38
424.066	567.38
424.288	566.38
424.511	568.38
424.733	608.38
424.956	693.38
425.178	651.38
425.401	642.38
425.623	694.38
425.846	558.38
426.068	552.38
426.291	570.38
426.513	551.38
426.735	536.38
426.958	579.38
427.18	653.38
427.402	762.38
427.625	796.38
427.847	716.38
428.069	641.38
428.292	585.38
428.514	555.38
428.736	521.38
428.958	529.38
429.181	501.38
429.403	502.38
429.625	501.38
429.847	541.38
430.069	599.38
430.292	610.38
430.514	508.38
430.736	511.38
430.958	489.38
431.18	510.38
431.402	471.38
431.624	487.38
431.846	477.38
432.068	479.38
432.29	487.38
432.512	485.38
432.734	491.38
432.956	499.38
433.178	488.38
433.4	532.38
433.622	514.38
433.844	488.38
434.066	498.38
434.287	476.38
434.509	496.38
434.731	518.38
434.953	507.38
435.175	538.38
435.397	558.38
435.618	561.38
435.84	582.38
436.062	666.38
436.284	695.38
436.505	573.38
436.727	531.38
436.949	530.38
437.17	517.38
437.392	490.38
437.614	521.38
437.835	555.38
438.057	596.38
438.278	706.38
438.5	684.38
438.721	747.38
438.943	729.38
439.165	590.38
439.386	552.38
439.608	532.38
439.829	551.38
440.05	541.38
440.272	593.38
440.493	586.38
440.715	544.38
440.936	518.38
441.158	517.38
441.379	514.38
441.6	525.38
441.822	546.38
442.043	587.38
442.264	622.38
442.486	659.38
442.707	598.38
442.928	560.38
443.149	541.38
443.371	567.38
443.592	614.38
443.813	679.38
444.034	736.38
444.255	640.38
444.476	596.38
444.698	578.38
444.919	542.38
445.14	714.38
445.361	630.38
445.582	596.38
445.803	619.38
446.024	710.38
446.245	692.38
446.466	661.38
446.687	579.38
446.908	551.38
447.129	510.38
447.35	518.38
447.571	489.38
447.792	493.38
448.013	492.38
448.234	498.38
448.455	555.38
448.675	668.38
448.896	720.38
449.117	635.38
449.338	608.38
449.559	691.38
449.779	789.38
450	636.38
450.221	536.38
450.442	473.38
450.662	474.38
450.883	497.38
451.104	495.38
451.324	481.38
451.545	471.38
451.766	465.38
451.986	461.38
452.207	450.38
452.428	436.38
452.648	460.38
452.869	456.38
453.089	451.38
453.31	468.38
453.53	463.38
453.751	461.38
453.971	455.38
454.192	465.38
454.412	446.38
454.633	461.38
454.853	462.38
455.073	442.38
455.294	471.38
455.514	510.38
455.734	518.38
455.955	481.38
456.175	454.38
456.395	418.38
456.616	439.38
456.836	437.38
457.056	436.38
457.276	425.38
457.497	451.38
457.717	418.38
457.937	436.38
458.157	448.38
458.377	465.38
458.598	470.38
458.818	504.38
459.038	567.38
459.258	587.38
459.478	522.38
459.698	501.38
459.918	520.38
460.138	493.38
460.358	504.38
460.578	504.38
460.798	517.38
461.018	507.38
461.238	512.38
461.458	498.38
461.678	518.38
461.898	545.38
462.118	526.38
462.338	550.38
462.558	548.38
462.777	563.38
462.997	594.38
463.217	565.38
463.437	587.38
463.657	572.38
463.876	562.38
464.096	570.38
464.316	560.38
464.536	550.38
464.755	553.38
464.975	561.38
465.195	576.38
465.414	594.38
465.634	543.38
465.854	548.38
466.073	513.38
466.293	499.38
466.512	482.38
466.732	488.38
466.951	486.38
467.171	474.38
467.391	497.38
467.61	486.38
467.829	489.38
468.049	488.38
468.268	490.38
468.488	459.38
468.707	465.38
468.927	460.38
469.146	469.38
469.365	476.38
469.585	468.38
469.804	478.38
470.023	464.38
470.243	483.38
470.462	491.38
470.681	525.38
470.901	495.38
471.12	475.38
471.339	470.38
471.558	486.38
471.777	496.38
471.997	470.38
472.216	496.38
472.435	500.38
472.654	519.38
472.873	491.38
473.092	460.38
473.311	459.38
473.53	470.38
473.749	477.38
473.968	514.38
474.187	600.38
474.406	605.38
474.625	520.38
474.844	504.38
475.063	484.38
475.282	452.38
475.501	472.38
475.72	490.38
475.939	482.38
476.158	505.38
476.377	520.38
476.596	517.38
476.814	511.38
477.033	507.38
477.252	530.38
477.471	521.38
477.69	519.38
477.908	521.38
478.127	547.38
478.346	523.38
478.564	530.38
478.783	546.38
479.002	545.38
479.22	551.38
479.439	573.38
479.658	577.38
479.876	587.38
480.095	564.38
480.313	564.38
480.532	603.38
480.751	614.38
480.969	611.38
481.188	642.38
481.406	654.38
481.624	590.38
481.843	574.38
482.061	587.38
482.28	580.38
482.498	571.38
482.717	566.38
482.935	572.38
483.153	551.38
483.372	552.38
483.59	586.38
483.808	573.38
484.027	560.38
484.245	576.38
484.463	570.38
484.681	573.38
484.9	603.38
485.118	583.38
485.336	598.38
485.554	582.38
485.772	595.38
485.99	594.38
486.209	583.38
486.427	582.38
486.645	571.38
486.863	600.38
487.081	590.38
487.299	582.38
487.517	593.38
487.735	593.38
487.953	613.38
488.171	598.38
488.389	614.38
488.607	587.38
488.825	613.38
489.043	620.38
489.261	589.38
489.479	594.38
489.696	624.38
489.914	634.38
490.132	603.38
490.35	620.38
490.568	624.38
490.786	642.38
491.003	645.38
491.221	634.38
491.439	666.38
491.657	660.38
491.874	666.38
492.092	656.38
492.31	678.38
492.527	667.38
492.745	718.38
492.963	665.38
493.18	682.38
493.398	703.38
493.615	724.38
493.833	692.38
494.05	688.38
494.268	676.38
494.485	673.38
494.703	683.38
494.92	705.38
495.138	690.38
495.355	692.38
495.573	685.38
495.79	709.38
496.008	704.38
496.225	711.38
496.442	721.38
496.66	696.38
496.877	710.38
497.094	709.38
497.312	730.38
497.529	730.38
497.746	744.38
497.963	745.38
498.181	781.38
498.398	795.38
498.615	812.38
498.832	824.38
499.049	851.38
499.267	890.38
499.484	925.38
499.701	954.38
499.918	996.38
500.135	1070.38
500.352	1118.38
500.569	1151.38
500.786	1133.38
501.003	1113.38
501.22	1056.38
501.437	1057.38
501.654	960.38
501.871	957.38
502.088	897.38
502.305	859.38
502.522	846.38
502.739	836.38
502.956	802.38
503.172	795.38
503.389	774.38
503.606	756.38
503.823	745.38
504.04	761.38
504.256	745.38
504.473	743.38
504.69	727.38
504.907	731.38
505.123	716.38
505.34	702.38
505.557	690.38
505.773	699.38
505.99	664.38
506.207	681.38
506.423	669.38
506.64	662.38
506.856	642.38
507.073	633.38
507.289	639.38
507.506	651.38
507.722	662.38
507.939	646.38
508.155	634.38
508.372	641.38
508.588	636.38
508.805	613.38
509.021	634.38
509.238	616.38
509.454	616.38
509.67	636.38
509.887	624.38
510.103	624.38
510.319	624.38
510.536	718.38
510.752	1013.38
510.968	866.38
511.184	637.38
511.401	609.38
511.617	582.38
511.833	590.38
512.049	610.38
512.265	588.38
512.481	580.38
512.698	584.38
512.914	573.38
513.13	570.38
513.346	590.38
513.562	594.38
513.778	583.38
513.994	600.38
514.21	589.38
514.426	622.38
514.642	636.38
514.858	630.38
515.074	667.38
515.29	772.38
515.506	1003.38
515.721	907.38
515.937	686.38
516.153	652.38
516.369	637.38
516.585	646.38
516.801	620.38
517.016	637.38
517.232	640.38
517.448	650.38
517.664	660.38
517.879	642.38
518.095	666.38
518.311	639.38
518.527	628.38
518.742	624.38
518.958	618.38
519.173	591.38
519.389	610.38
519.605	616.38
519.82	588.38
520.036	608.38
520.251	621.38
520.467	628.38
520.682	626.38
520.898	617.38
521.113	640.38
521.329	671.38
521.544	669.38
521.76	839.38
521.975	1260.38
522.19	1240.38
522.406	754.38
522.621	628.38
522.836	571.38
523.052	574.38
523.267	561.38
523.482	537.38
523.698	554.38
523.913	560.38
524.128	555.38
524.343	529.38
524.559	536.38
524.774	533.38
524.989	524.38
525.204	521.38
525.419	521.38
525.634	542.38
525.849	524.38
526.064	538.38
526.28	517.38
526.495	494.38
526.71	516.38
526.925	503.38
527.14	500.38
527.355	497.38
527.57	494.38
527.785	499.38
527.999	506.38
528.214	509.38
528.429	491.38
528.644	497.38
528.859	500.38
529.074	496.38
529.289	516.38
529.503	557.38
529.718	567.38
529.933	509.38
530.148	505.38
530.363	504.38
530.577	477.38
530.792	518.38
531.007	508.38
531.221	505.38
531.436	510.38
531.651	505.38
531.865	521.38
532.08	483.38
532.295	492.38
532.509	492.38
532.724	479.38
532.938	482.38
533.153	492.38
533.367	471.38
533.582	486.38
533.796	479.38
534.011	486.38
534.225	503.38
534.44	472.38
534.654	473.38
534.868	466.38
535.083	475.38
535.297	486.38
535.511	473.38
535.726	493.38
535.94	488.38
536.154	473.38
536.369	500.38
536.583	489.38
536.797	493.38
537.011	457.38
537.225	465.38
537.44	465.38
537.654	470.38
537.868	467.38
538.082	449.38
538.296	469.38
538.51	465.38
538.724	486.38
538.938	478.38
539.153	471.38
539.367	477.38
539.581	478.38
539.795	472.38
540.009	450.38
540.222	459.38
540.436	490.38
540.65	466.38
540.864	463.38
541.078	457.38
541.292	461.38
541.506	473.38
541.72	466.38
541.934	464.38
542.147	474.38
542.361	469.38
542.575	458.38
542.789	452.38
543.002	462.38
543.216	455.38
543.43	448.38
543.644	452.38
543.857	458.38
544.071	486.38
544.285	474.38
544.498	473.38
544.712	452.38
544.925	467.38
545.139	447.38
545.352	476.38
545.566	473.38
545.779	449.38
545.993	448.38
546.206	472.38
546.42	466.38
546.633	451.38
546.847	462.38
547.06	469.38
547.274	453.38
547.487	466.38
547.7	443.38
547.914	458.38
548.127	456.38
548.34	466.38
548.554	450.38
548.767	460.38
548.98	464.38
549.193	452.38
549.407	456.38
549.62	468.38
549.833	458.38
550.046	473.38
550.259	441.38
550.473	446.38
550.686	449.38
550.899	422.38
551.112	455.38
551.325	444.38
551.538	451.38
551.751	466.38
551.964	450.38
552.177	440.38
552.39	428.38
552.603	449.38
552.816	455.38
553.029	459.38
553.242	449.38
553.455	466.38
553.667	486.38
553.88	453.38
554.093	462.38
554.306	457.38
554.519	454.38
554.732	437.38
554.944	441.38
555.157	444.38
555.37	422.38
555.583	426.38
555.795	437.38
556.008	434.38
556.221	423.38
556.433	443.38
556.646	405.38
556.859	419.38
557.071	418.38
557.284	419.38
557.496	408.38
557.709	411.38
557.921	395.38
558.134	408.38
558.346	409.38
558.559	421.38
558.771	404.38
558.984	416.38
559.196	425.38
559.409	405.38
559.621	403.38
559.833	412.38
560.046	392.38
560.258	380.38
560.47	393.38
560.683	420.38
560.895	407.38
561.107	413.38
561.32	416.38
561.532	425.38
561.744	408.38
561.956	427.38
562.168	395.38
562.381	421.38
562.593	408.38
562.805	399.38
563.017	396.38
563.229	408.38
563.441	417.38
563.653	423.38
563.865	411.38
564.077	389.38
564.289	392.38
564.501	413.38
564.713	437.38
564.925	435.38
565.137	447.38
565.349	440.38
565.561	419.38
565.773	473.38
565.985	483.38
566.197	482.38
566.408	490.38
566.62	490.38
566.832	502.38
567.044	515.38
567.255	526.38
567.467	538.38
567.679	526.38
567.891	557.38
568.102	550.38
568.314	538.38
568.526	502.38
568.737	516.38
568.949	475.38
569.161	465.38
569.372	440.38
569.584	426.38
569.795	445.38
570.007	419.38
570.218	438.38
570.43	420.38
570.641	412.38
570.853	401.38
571.064	413.38
571.276	409.38
571.487	398.38
571.698	401.38
571.91	396.38
572.121	378.38
572.333	384.38
572.544	374.38
572.755	372.38
572.966	380.38
573.178	356.38
573.389	362.38
573.6	364.38
573.811	370.38
574.023	358.38
574.234	357.38
574.445	343.38
574.656	342.38
574.867	343.38
575.078	337.38
575.289	353.38
575.501	354.38
575.712	343.38
575.923	348.38
576.134	365.38
576.345	346.38
576.556	348.38
576.767	350.38
576.978	338.38
577.188	357.38
577.399	345.38
577.61	350.38
577.821	339.38
578.032	332.38
578.243	365.38
578.454	486.38
578.665	388.38
578.875	340.38
579.086	338.38
579.297	324.38
579.508	314.38
579.718	329.38
579.929	316.38
580.14	300.38
580.35	330.38
580.561	341.38
580.772	316.38
580.982	335.38
581.193	310.38
581.403	321.38
581.614	324.38
581.825	327.38
582.035	313.38
582.246	324.38
582.456	315.38
582.667	331.38
582.877	324.38
583.087	309.38
583.298	307.38
583.508	298.38
583.719	320.38
583.929	327.38
584.139	336.38
584.35	321.38
584.56	325.38
584.77	304.38
584.981	309.38
585.191	285.38
585.401	310.38
585.611	299.38
585.821	315.38
586.032	301.38
586.242	290.38
586.452	315.38
586.662	295.38
586.872	298.38
587.082	301.38
587.292	287.38
587.502	317.38
587.713	299.38
587.923	313.38
588.133	314.38
588.343	299.38
588.553	307.38
588.762	318.38
588.972	308.38
589.182	361.38
589.392	368.38
589.602	317.38
589.812	368.38
590.022	327.38
590.232	314.38
590.441	302.38
590.651	299.38
590.861	306.38
591.071	304.38
591.281	309.38
591.49	294.38
591.7	327.38
591.91	302.38
592.119	293.38
592.329	321.38
592.539	320.38
592.748	327.38
592.958	330.38
593.167	322.38
593.377	317.38
593.587	345.38
593.796	349.38
594.006	326.38
594.215	319.38
594.424	315.38
594.634	343.38
594.843	326.38
595.053	313.38
595.262	333.38
595.472	309.38
595.681	314.38
595.89	293.38
596.1	304.38
596.309	316.38
596.518	304.38
596.727	295.38
596.937	294.38
597.146	300.38
597.355	289.38
597.564	278.38
597.774	289.38
597.983	294.38
598.192	291.38
598.401	260.38
598.61	264.38
598.819	281.38
599.028	264.38
599.237	262.38
599.446	278.38
599.655	273.38
599.864	280.38
600.073	272.38
600.282	263.38
600.491	273.38
600.7	279.38
600.909	288.38
601.118	255.38
601.327	262.38
601.536	257.38
601.745	260.38
601.953	269.38
602.162	257.38
602.371	270.38
602.58	244.38
602.789	261.38
602.997	249.38
603.206	258.38
603.415	262.38
603.623	259.38
603.832	264.38
604.041	262.38
604.249	262.38
604.458	242.38
604.666	265.38
604.875	254.38
605.084	256.38
605.292	259.38
605.501	245.38
605.709	245.38
605.918	262.38
606.126	231.38
606.334	239.38
606.543	256.38
606.751	253.38
606.96	270.38
607.168	232.38
607.376	246.38
607.585	259.38
607.793	243.38
608.001	244.38
608.21	233.38
608.418	247.38
608.626	241.38
608.834	247.38
609.043	252.38
609.251	266.38
609.459	235.38
609.667	259.38
609.875	248.38
610.083	256.38
610.291	248.38
610.499	234.38
610.707	260.38
610.916	248.38
611.124	246.38
611.332	239.38
611.54	273.38
611.748	248.38
611.955	251.38
612.163	236.38
612.371	244.38
612.579	260.38
612.787	252.38
612.995	230.38
613.203	260.38
613.411	235.38
613.618	226.38
613.826	228.38
614.034	251.38
614.242	242.38
614.449	239.38
614.657	246.38
614.865	246.38
615.072	253.38
615.28	243.38
615.488	221.38
615.695	258.38
615.903	236.38
616.111	256.38
616.318	258.38
616.526	236.38
616.733	238.38
616.941	238.38
617.148	243.38
617.356	241.38
617.563	226.38
617.771	224.38
617.978	227.38
618.185	226.38
618.393	242.38
618.6	220.38
618.807	234.38
619.015	253.38
619.222	239.38
619.429	236.38
619.637	222.38
619.844	245.38
620.051	229.38
620.258	235.38
620.466	229.38
620.673	217.38
620.88	228.38
621.087	211.38
621.294	213.38
621.501	225.38
621.708	225.38
621.915	227.38
622.122	216.38
622.329	230.38
622.536	230.38
622.743	238.38
622.95	220.38
623.157	221.38
623.364	238.38
623.571	217.38
623.778	225.38
623.985	211.38
624.192	202.38
624.399	205.38
624.606	219.38
624.812	232.38
625.019	221.38
625.226	211.38
625.433	218.38
625.639	204.38
625.846	186.38
626.053	209.38
626.259	207.38
626.466	226.38
626.673	198.38
626.879	228.38
627.086	209.38
627.293	217.38
627.499	214.38
627.706	204.38
627.912	202.38
628.119	198.38
628.325	204.38
628.532	204.38
628.738	205.38
628.945	218.38
629.151	197.38
629.357	188.38
629.564	188.38
629.77	189.38
629.976	199.38
630.183	203.38
630.389	198.38
630.595	193.38
630.802	209.38
631.008	193.38
631.214	188.38
631.42	210.38
631.627	202.38
631.833	202.38
632.039	195.38
632.245	203.38
632.451	198.38
632.657	193.38
632.863	216.38
633.069	208.38
633.275	202.38
633.481	187.38
633.688	200.38
633.893	185.38
634.099	200.38
634.305	201.38
634.511	189.38
634.717	199.38
634.923	198.38
635.129	179.38
635.335	189.38
635.541	180.38
635.747	182.38
635.952	173.38
636.158	180.38
636.364	186.38
636.57	193.38
636.775	199.38
636.981	187.38
637.187	184.38
637.392	177.38
637.598	177.38
637.804	171.38
638.009	194.38
638.215	181.38
638.421	187.38
638.626	178.38
638.832	196.38
639.037	173.38
639.243	173.38
639.448	184.38
639.654	173.38
639.859	170.38
640.065	164.38
640.27	174.38
640.475	179.38
640.681	179.38
640.886	176.38
641.091	176.38
641.297	187.38
641.502	178.38
641.707	174.38
641.913	172.38
642.118	172.38
642.323	170.38
642.528	171.38
642.733	166.38
642.939	158.38
643.144	177.38
643.349	162.38
643.554	181.38
643.759	186.38
643.964	163.38
644.169	184.38
644.374	167.38
644.579	176.38
644.784	168.38
644.989	174.38
645.194	180.38
645.399	166.38
645.604	192.38
645.809	176.38
646.014	170.38
646.219	165.38
646.423	166.38
646.628	180.38
646.833	168.38
647.038	186.38
647.243	181.38
647.447	169.38
647.652	152.38
647.857	179.38
648.062	169.38
648.266	178.38
648.471	180.38
648.676	189.38
648.88	170.38
649.085	160.38
649.289	180.38
649.494	185.38
649.698	193.38
649.903	184.38
650.107	176.38
650.312	156.38
650.516	175.38
650.721	176.38
650.925	157.38
651.13	161.38
651.334	154.38
651.539	154.38
651.743	156.38
651.947	160.38
652.152	158.38
652.356	162.38
652.56	139.38
652.764	156.38
652.969	148.38
653.173	150.38
653.377	147.38
653.581	150.38
653.785	149.38
653.99	134.38
654.194	149.38
654.398	146.38
654.602	128.38
654.806	143.38
655.01	148.38
655.214	146.38
655.418	152.38
655.622	151.38
655.826	126.38
656.03	132.38
656.234	137.38
656.438	138.38
656.642	133.38
656.846	137.38
657.049	136.38
657.253	138.38
657.457	118.38
657.661	110.38
657.865	117.38
658.068	128.38
658.272	99.38
658.476	105.38
658.68	101.38
658.883	106.38
659.087	102.38
659.291	123.38
659.494	99.38
659.698	103.38
659.901	107.38
660.105	106.38
660.309	99.38
660.512	80.38
660.716	78.38
660.919	96.38
661.123	99.38
661.326	89.38
661.53	94.38
661.733	93.38
661.936	88.38
662.14	73.38
662.343	79.38
662.546	93.38
662.75	88.38
662.953	80.38
663.156	75.38
663.36	77.38
663.563	93.38
663.766	84.38
663.969	77.38
664.173	85.38
664.376	78.38
664.579	88.38
664.782	70.38
664.985	89.38
665.188	78.38
665.391	85.38
665.594	86.38
665.797	78.38
666	79.38
666.203	89.38
666.406	86.38
666.609	69.38
666.812	98.38
667.015	73.38
667.218	97.38
667.421	89.38
667.624	87.38
667.827	86.38
668.03	96.38
668.232	84.38
668.435	78.38
668.638	69.38
668.841	85.38
669.043	83.38
669.246	88.38
669.449	98.38
669.651	78.38
669.854	85.38
670.057	81.38
670.259	70.38
670.462	74.38
670.665	84.38
670.867	80.38
671.07	88.38
671.272	77.38
671.475	83.38
671.677	75.38
671.88	91.38
672.082	86.38
672.284	74.38
672.487	83.38
672.689	82.38
672.892	90.38
