Data from 1979.PennyLincolnUp.Lamp.En5.5.200Scan.071719.P1_HRD10591_16-20-20-863.txt Node
Date: Thu Jul 18 16:20:20 EDT 2019
User: cochatt
Spectrometer: HR+D1059
Trigger mode: 1
Integration Time (sec): 1.000000E-1
Scans to average: 1
Electric dark correction enabled: true
Nonlinearity correction enabled: false
Boxcar width: 0
XAxis mode: Wavelengths
Number of Pixels in Spectrum: 2048
>>>>>Begin Spectral Data<<<<<
223.165	-21.31
223.4	-21.31
223.635	-21.31
223.869	-31.31
224.104	-23.31
224.338	-12.31
224.573	-16.31
224.808	-13.31
225.042	-9.31
225.277	-10.31
225.511	2.69
225.746	6.69
225.98	7.69
226.215	6.69
226.449	13.69
226.683	23.69
226.918	28.69
227.152	47.69
227.387	21.69
227.621	28.69
227.856	44.69
228.09	35.69
228.324	52.69
228.559	41.69
228.793	62.69
229.027	101.69
229.262	111.69
229.496	104.69
229.73	134.69
229.964	146.69
230.199	122.69
230.433	115.69
230.667	118.69
230.901	125.69
231.136	119.69
231.37	108.69
231.604	122.69
231.838	98.69
232.072	116.69
232.306	116.69
232.541	114.69
232.775	109.69
233.009	108.69
233.243	96.69
233.477	112.69
233.711	123.69
233.945	124.69
234.179	119.69
234.413	125.69
234.647	122.69
234.881	114.69
235.115	118.69
235.349	119.69
235.583	124.69
235.817	127.69
236.051	116.69
236.285	103.69
236.519	127.69
236.753	135.69
236.987	144.69
237.221	182.69
237.455	237.69
237.689	190.69
237.922	157.69
238.156	140.69
238.39	137.69
238.624	136.69
238.858	138.69
239.091	125.69
239.325	132.69
239.559	134.69
239.793	112.69
240.027	146.69
240.26	142.69
240.494	156.69
240.728	149.69
240.961	155.69
241.195	128.69
241.429	148.69
241.662	140.69
241.896	143.69
242.13	128.69
242.363	127.69
242.597	140.69
242.83	149.69
243.064	138.69
243.298	130.69
243.531	147.69
243.765	142.69
243.998	136.69
244.232	144.69
244.465	150.69
244.699	143.69
244.932	145.69
245.166	137.69
245.399	147.69
245.633	136.69
245.866	144.69
246.099	140.69
246.333	147.69
246.566	154.69
246.8	163.69
247.033	162.69
247.266	173.69
247.5	153.69
247.733	167.69
247.966	162.69
248.2	160.69
248.433	160.69
248.666	158.69
248.899	188.69
249.133	192.69
249.366	211.69
249.599	197.69
249.832	168.69
250.066	182.69
250.299	183.69
250.532	165.69
250.765	215.69
250.998	213.69
251.231	216.69
251.465	200.69
251.698	203.69
251.931	175.69
252.164	188.69
252.397	196.69
252.63	205.69
252.863	207.69
253.096	222.69
253.329	210.69
253.562	214.69
253.795	210.69
254.028	215.69
254.261	223.69
254.494	230.69
254.727	225.69
254.96	278.69
255.193	256.69
255.426	246.69
255.659	240.69
255.892	218.69
256.124	226.69
256.357	233.69
256.59	224.69
256.823	218.69
257.056	206.69
257.289	198.69
257.521	206.69
257.754	213.69
257.987	215.69
258.22	212.69
258.452	211.69
258.685	199.69
258.918	207.69
259.151	221.69
259.383	199.69
259.616	210.69
259.849	226.69
260.081	244.69
260.314	244.69
260.547	245.69
260.779	219.69
261.012	236.69
261.244	223.69
261.477	217.69
261.71	231.69
261.942	211.69
262.175	235.69
262.407	243.69
262.64	205.69
262.872	189.69
263.105	203.69
263.337	220.69
263.57	219.69
263.802	215.69
264.035	199.69
264.267	202.69
264.499	223.69
264.732	218.69
264.964	223.69
265.197	204.69
265.429	204.69
265.661	235.69
265.894	223.69
266.126	214.69
266.358	201.69
266.591	214.69
266.823	210.69
267.055	223.69
267.287	219.69
267.52	229.69
267.752	228.69
267.984	223.69
268.216	231.69
268.448	207.69
268.681	230.69
268.913	236.69
269.145	268.69
269.377	269.69
269.609	280.69
269.841	261.69
270.073	255.69
270.306	290.69
270.538	290.69
270.77	298.69
271.002	259.69
271.234	284.69
271.466	288.69
271.698	317.69
271.93	305.69
272.162	300.69
272.394	294.69
272.626	275.69
272.858	287.69
273.09	278.69
273.322	263.69
273.553	272.69
273.785	259.69
274.017	240.69
274.249	270.69
274.481	272.69
274.713	266.69
274.945	278.69
275.176	275.69
275.408	253.69
275.64	256.69
275.872	260.69
276.104	266.69
276.335	244.69
276.567	270.69
276.799	264.69
277.031	296.69
277.262	308.69
277.494	289.69
277.726	292.69
277.957	273.69
278.189	276.69
278.421	278.69
278.652	282.69
278.884	274.69
279.115	270.69
279.347	271.69
279.579	263.69
279.81	269.69
280.042	261.69
280.273	280.69
280.505	265.69
280.736	260.69
280.968	260.69
281.199	252.69
281.431	263.69
281.662	283.69
281.894	274.69
282.125	270.69
282.356	280.69
282.588	303.69
282.819	307.69
283.051	284.69
283.282	282.69
283.513	272.69
283.745	286.69
283.976	292.69
284.207	275.69
284.439	265.69
284.67	270.69
284.901	286.69
285.132	270.69
285.364	270.69
285.595	286.69
285.826	277.69
286.057	286.69
286.288	262.69
286.52	248.69
286.751	296.69
286.982	288.69
287.213	288.69
287.444	292.69
287.675	292.69
287.906	289.69
288.138	283.69
288.369	296.69
288.6	298.69
288.831	323.69
289.062	280.69
289.293	314.69
289.524	289.69
289.755	305.69
289.986	289.69
290.217	299.69
290.448	294.69
290.679	304.69
290.91	297.69
291.141	282.69
291.371	301.69
291.602	307.69
291.833	295.69
292.064	303.69
292.295	294.69
292.526	293.69
292.757	301.69
292.987	291.69
293.218	296.69
293.449	300.69
293.68	299.69
293.91	277.69
294.141	278.69
294.372	297.69
294.603	301.69
294.833	297.69
295.064	292.69
295.295	303.69
295.525	314.69
295.756	298.69
295.987	324.69
296.217	324.69
296.448	341.69
296.679	323.69
296.909	302.69
297.14	300.69
297.37	314.69
297.601	311.69
297.831	311.69
298.062	316.69
298.292	319.69
298.523	304.69
298.753	312.69
298.984	322.69
299.214	307.69
299.445	306.69
299.675	331.69
299.905	337.69
300.136	318.69
300.366	311.69
300.597	320.69
300.827	333.69
301.057	342.69
301.288	357.69
301.518	332.69
301.748	335.69
301.979	356.69
302.209	327.69
302.439	342.69
302.669	338.69
302.9	327.69
303.13	334.69
303.36	329.69
303.59	348.69
303.82	354.69
304.051	342.69
304.281	348.69
304.511	326.69
304.741	327.69
304.971	345.69
305.201	321.69
305.431	335.69
305.661	334.69
305.891	315.69
306.121	315.69
306.352	341.69
306.582	347.69
306.812	349.69
307.042	372.69
307.272	334.69
307.502	360.69
307.731	332.69
307.961	329.69
308.191	364.69
308.421	346.69
308.651	352.69
308.881	342.69
309.111	350.69
309.341	359.69
309.571	354.69
309.8	370.69
310.03	385.69
310.26	380.69
310.49	390.69
310.72	364.69
310.949	388.69
311.179	395.69
311.409	383.69
311.639	384.69
311.868	388.69
312.098	392.69
312.328	376.69
312.557	393.69
312.787	416.69
313.017	409.69
313.246	397.69
313.476	386.69
313.706	398.69
313.935	398.69
314.165	404.69
314.394	391.69
314.624	404.69
314.853	386.69
315.083	372.69
315.312	390.69
315.542	384.69
315.771	371.69
316.001	371.69
316.23	378.69
316.46	388.69
316.689	379.69
316.919	392.69
317.148	377.69
317.377	395.69
317.607	399.69
317.836	394.69
318.065	372.69
318.295	394.69
318.524	392.69
318.753	380.69
318.983	361.69
319.212	372.69
319.441	382.69
319.67	387.69
319.9	388.69
320.129	366.69
320.358	396.69
320.587	400.69
320.816	395.69
321.046	408.69
321.275	410.69
321.504	404.69
321.733	417.69
321.962	421.69
322.191	427.69
322.42	437.69
322.649	434.69
322.878	427.69
323.108	438.69
323.337	455.69
323.566	485.69
323.795	491.69
324.024	572.69
324.253	642.69
324.482	920.69
324.71	1483.69
324.939	2174.69
325.168	1897.69
325.397	926.69
325.626	630.69
325.855	559.69
326.084	500.69
326.313	480.69
326.542	510.69
326.77	555.69
326.999	618.69
327.228	862.69
327.457	1350.69
327.686	1641.69
327.914	1048.69
328.143	699.69
328.372	596.69
328.6	586.69
328.829	550.69
329.058	556.69
329.287	617.69
329.515	538.69
329.744	523.69
329.972	510.69
330.201	504.69
330.43	566.69
330.658	602.69
330.887	580.69
331.115	595.69
331.344	527.69
331.572	486.69
331.801	500.69
332.03	490.69
332.258	486.69
332.486	499.69
332.715	475.69
332.943	460.69
333.172	487.69
333.4	482.69
333.629	483.69
333.857	516.69
334.085	522.69
334.314	521.69
334.542	544.69
334.771	581.69
334.999	526.69
335.227	501.69
335.455	485.69
335.684	468.69
335.912	487.69
336.14	477.69
336.369	464.69
336.597	464.69
336.825	483.69
337.053	481.69
337.281	453.69
337.51	437.69
337.738	474.69
337.966	436.69
338.194	463.69
338.422	465.69
338.65	471.69
338.878	461.69
339.106	438.69
339.334	447.69
339.562	469.69
339.79	441.69
340.018	454.69
340.246	443.69
340.474	452.69
340.702	436.69
340.93	474.69
341.158	431.69
341.386	443.69
341.614	447.69
341.842	436.69
342.07	444.69
342.298	436.69
342.526	448.69
342.754	405.69
342.981	430.69
343.209	442.69
343.437	436.69
343.665	441.69
343.893	457.69
344.12	472.69
344.348	445.69
344.576	444.69
344.804	462.69
345.031	452.69
345.259	472.69
345.487	454.69
345.714	457.69
345.942	457.69
346.17	438.69
346.397	419.69
346.625	453.69
346.853	449.69
347.08	425.69
347.308	422.69
347.535	428.69
347.763	441.69
347.99	463.69
348.218	454.69
348.445	416.69
348.673	441.69
348.9	426.69
349.128	426.69
349.355	420.69
349.583	436.69
349.81	413.69
350.037	426.69
350.265	412.69
350.492	408.69
350.72	430.69
350.947	425.69
351.174	431.69
351.402	442.69
351.629	473.69
351.856	447.69
352.083	454.69
352.311	452.69
352.538	426.69
352.765	445.69
352.992	415.69
353.22	440.69
353.447	410.69
353.674	414.69
353.901	409.69
354.128	427.69
354.355	424.69
354.583	414.69
354.81	397.69
355.037	400.69
355.264	414.69
355.491	420.69
355.718	402.69
355.945	410.69
356.172	388.69
356.399	411.69
356.626	390.69
356.853	390.69
357.08	409.69
357.307	413.69
357.534	408.69
357.761	402.69
357.988	426.69
358.215	404.69
358.441	410.69
358.668	407.69
358.895	418.69
359.122	415.69
359.349	432.69
359.576	415.69
359.802	473.69
360.029	487.69
360.256	462.69
360.483	456.69
360.709	434.69
360.936	432.69
361.163	440.69
361.39	432.69
361.616	432.69
361.843	433.69
362.07	434.69
362.296	423.69
362.523	446.69
362.749	439.69
362.976	423.69
363.203	428.69
363.429	423.69
363.656	426.69
363.882	431.69
364.109	433.69
364.335	431.69
364.562	434.69
364.788	414.69
365.015	432.69
365.241	402.69
365.468	426.69
365.694	431.69
365.92	413.69
366.147	419.69
366.373	422.69
366.599	415.69
366.826	429.69
367.052	423.69
367.278	421.69
367.505	427.69
367.731	404.69
367.957	410.69
368.184	426.69
368.41	437.69
368.636	422.69
368.862	451.69
369.089	426.69
369.315	429.69
369.541	434.69
369.767	429.69
369.993	418.69
370.219	443.69
370.445	419.69
370.672	432.69
370.898	435.69
371.124	438.69
371.35	416.69
371.576	429.69
371.802	424.69
372.028	410.69
372.254	416.69
372.48	428.69
372.706	450.69
372.932	434.69
373.158	435.69
373.384	442.69
373.61	447.69
373.835	430.69
374.061	448.69
374.287	439.69
374.513	430.69
374.739	435.69
374.965	438.69
375.191	436.69
375.416	442.69
375.642	412.69
375.868	436.69
376.094	436.69
376.319	434.69
376.545	466.69
376.771	452.69
376.997	415.69
377.222	418.69
377.448	420.69
377.674	418.69
377.899	450.69
378.125	401.69
378.35	425.69
378.576	427.69
378.802	414.69
379.027	410.69
379.253	448.69
379.478	425.69
379.704	442.69
379.929	421.69
380.155	442.69
380.38	428.69
380.606	459.69
380.831	436.69
381.057	426.69
381.282	441.69
381.507	438.69
381.733	447.69
381.958	434.69
382.184	438.69
382.409	448.69
382.634	457.69
382.86	426.69
383.085	435.69
383.31	444.69
383.535	448.69
383.761	443.69
383.986	440.69
384.211	432.69
384.436	484.69
384.662	470.69
384.887	489.69
385.112	470.69
385.337	471.69
385.562	489.69
385.787	471.69
386.013	481.69
386.238	480.69
386.463	484.69
386.688	518.69
386.913	494.69
387.138	478.69
387.363	486.69
387.588	478.69
387.813	455.69
388.038	488.69
388.263	472.69
388.488	481.69
388.713	493.69
388.938	494.69
389.163	471.69
389.387	494.69
389.612	494.69
389.837	485.69
390.062	491.69
390.287	473.69
390.512	485.69
390.736	489.69
390.961	490.69
391.186	488.69
391.411	488.69
391.636	500.69
391.86	521.69
392.085	500.69
392.31	501.69
392.534	483.69
392.759	510.69
392.984	502.69
393.208	473.69
393.433	495.69
393.658	500.69
393.882	494.69
394.107	481.69
394.331	495.69
394.556	506.69
394.78	524.69
395.005	504.69
395.229	494.69
395.454	501.69
395.678	500.69
395.903	533.69
396.127	554.69
396.352	529.69
396.576	526.69
396.801	519.69
397.025	519.69
397.249	511.69
397.474	523.69
397.698	522.69
397.922	567.69
398.147	566.69
398.371	571.69
398.595	574.69
398.82	578.69
399.044	590.69
399.268	584.69
399.492	635.69
399.717	660.69
399.941	710.69
400.165	720.69
400.389	718.69
400.613	666.69
400.837	616.69
401.062	596.69
401.286	587.69
401.51	585.69
401.734	566.69
401.958	589.69
402.182	583.69
402.406	586.69
402.63	590.69
402.854	578.69
403.078	573.69
403.302	588.69
403.526	598.69
403.75	603.69
403.974	599.69
404.198	601.69
404.422	595.69
404.645	612.69
404.869	604.69
405.093	669.69
405.317	692.69
405.541	725.69
405.765	670.69
405.988	650.69
406.212	644.69
406.436	653.69
406.66	669.69
406.883	655.69
407.107	664.69
407.331	703.69
407.555	791.69
407.778	806.69
408.002	717.69
408.226	679.69
408.449	668.69
408.673	659.69
408.896	709.69
409.12	730.69
409.344	712.69
409.567	643.69
409.791	648.69
410.014	603.69
410.238	608.69
410.461	615.69
410.685	624.69
410.908	639.69
411.132	643.69
411.355	710.69
411.578	672.69
411.802	627.69
412.025	621.69
412.249	635.69
412.472	656.69
412.695	698.69
412.919	680.69
413.142	620.69
413.365	606.69
413.589	599.69
413.812	597.69
414.035	574.69
414.258	576.69
414.482	603.69
414.705	576.69
414.928	582.69
415.151	579.69
415.374	572.69
415.597	587.69
415.821	559.69
416.044	584.69
416.267	578.69
416.49	580.69
416.713	574.69
416.936	566.69
417.159	572.69
417.382	571.69
417.605	579.69
417.828	591.69
418.051	595.69
418.274	584.69
418.497	564.69
418.72	593.69
418.943	557.69
419.166	596.69
419.389	626.69
419.611	608.69
419.834	604.69
420.057	624.69
420.28	588.69
420.503	585.69
420.726	580.69
420.948	620.69
421.171	646.69
421.394	666.69
421.617	588.69
421.839	593.69
422.062	605.69
422.285	595.69
422.507	656.69
422.73	766.69
422.953	726.69
423.175	636.69
423.398	610.69
423.621	615.69
423.843	630.69
424.066	631.69
424.288	627.69
424.511	654.69
424.733	690.69
424.956	782.69
425.178	742.69
425.401	741.69
425.623	762.69
425.846	678.69
426.068	639.69
426.291	638.69
426.513	635.69
426.735	646.69
426.958	659.69
427.18	731.69
427.402	892.69
427.625	976.69
427.847	853.69
428.069	732.69
428.292	675.69
428.514	612.69
428.736	618.69
428.958	638.69
429.181	593.69
429.403	586.69
429.625	600.69
429.847	646.69
430.069	715.69
430.292	687.69
430.514	605.69
430.736	574.69
430.958	560.69
431.18	563.69
431.402	564.69
431.624	554.69
431.846	538.69
432.068	559.69
432.29	567.69
432.512	548.69
432.734	554.69
432.956	559.69
433.178	544.69
433.4	576.69
433.622	549.69
433.844	552.69
434.066	570.69
434.287	564.69
434.509	567.69
434.731	589.69
434.953	576.69
435.175	592.69
435.397	638.69
435.618	642.69
435.84	652.69
436.062	754.69
436.284	867.69
436.505	714.69
436.727	636.69
436.949	601.69
437.17	596.69
437.392	576.69
437.614	583.69
437.835	627.69
438.057	706.69
438.278	833.69
438.5	810.69
438.721	891.69
438.943	888.69
439.165	696.69
439.386	626.69
439.608	615.69
439.829	610.69
440.05	654.69
440.272	708.69
440.493	678.69
440.715	605.69
440.936	605.69
441.158	599.69
441.379	590.69
441.6	600.69
441.822	612.69
442.043	675.69
442.264	764.69
442.486	785.69
442.707	670.69
442.928	636.69
443.149	651.69
443.371	678.69
443.592	719.69
443.813	800.69
444.034	859.69
444.255	764.69
444.476	706.69
444.698	641.69
444.919	630.69
445.14	736.69
445.361	694.69
445.582	692.69
445.803	730.69
446.024	849.69
446.245	846.69
446.466	778.69
446.687	680.69
446.908	623.69
447.129	608.69
447.35	574.69
447.571	596.69
447.792	576.69
448.013	580.69
448.234	581.69
448.455	656.69
448.675	763.69
448.896	883.69
449.117	786.69
449.338	720.69
449.559	816.69
449.779	939.69
450	749.69
450.221	639.69
450.442	565.69
450.662	572.69
450.883	572.69
451.104	580.69
451.324	586.69
451.545	565.69
451.766	554.69
451.986	521.69
452.207	523.69
452.428	503.69
452.648	519.69
452.869	518.69
453.089	527.69
453.31	542.69
453.53	539.69
453.751	534.69
453.971	520.69
454.192	549.69
454.412	527.69
454.633	521.69
454.853	515.69
455.073	511.69
455.294	550.69
455.514	610.69
455.734	571.69
455.955	514.69
456.175	509.69
456.395	489.69
456.616	482.69
456.836	496.69
457.056	486.69
457.276	480.69
457.497	513.69
457.717	504.69
457.937	498.69
458.157	502.69
458.377	513.69
458.598	536.69
458.818	591.69
459.038	664.69
459.258	686.69
459.478	623.69
459.698	570.69
459.918	556.69
460.138	567.69
460.358	592.69
460.578	563.69
460.798	574.69
461.018	589.69
461.238	600.69
461.458	577.69
461.678	575.69
461.898	593.69
462.118	581.69
462.338	598.69
462.558	613.69
462.777	638.69
462.997	648.69
463.217	646.69
463.437	652.69
463.657	663.69
463.876	634.69
464.096	636.69
464.316	654.69
464.536	619.69
464.755	605.69
464.975	603.69
465.195	655.69
465.414	719.69
465.634	657.69
465.854	600.69
466.073	587.69
466.293	553.69
466.512	539.69
466.732	555.69
466.951	541.69
467.171	550.69
467.391	571.69
467.61	572.69
467.829	568.69
468.049	554.69
468.268	550.69
468.488	502.69
468.707	550.69
468.927	535.69
469.146	526.69
469.365	536.69
469.585	539.69
469.804	546.69
470.023	549.69
470.243	541.69
470.462	555.69
470.681	572.69
470.901	560.69
471.12	568.69
471.339	548.69
471.558	521.69
471.777	548.69
471.997	528.69
472.216	557.69
472.435	575.69
472.654	585.69
472.873	543.69
473.092	533.69
473.311	535.69
473.53	542.69
473.749	547.69
473.968	600.69
474.187	676.69
474.406	732.69
474.625	603.69
474.844	558.69
475.063	543.69
475.282	553.69
475.501	550.69
475.72	564.69
475.939	560.69
476.158	552.69
476.377	554.69
476.596	564.69
476.814	602.69
477.033	574.69
477.252	584.69
477.471	551.69
477.69	582.69
477.908	589.69
478.127	606.69
478.346	592.69
478.564	617.69
478.783	621.69
479.002	649.69
479.22	655.69
479.439	632.69
479.658	666.69
479.876	659.69
480.095	657.69
480.313	665.69
480.532	700.69
480.751	698.69
480.969	671.69
481.188	719.69
481.406	755.69
481.624	699.69
481.843	676.69
482.061	660.69
482.28	653.69
482.498	634.69
482.717	618.69
482.935	639.69
483.153	642.69
483.372	654.69
483.59	635.69
483.808	610.69
484.027	636.69
484.245	626.69
484.463	626.69
484.681	657.69
484.9	635.69
485.118	666.69
485.336	649.69
485.554	652.69
485.772	659.69
485.99	644.69
486.209	656.69
486.427	646.69
486.645	698.69
486.863	687.69
487.081	694.69
487.299	714.69
487.517	694.69
487.735	670.69
487.953	666.69
488.171	695.69
488.389	696.69
488.607	696.69
488.825	685.69
489.043	687.69
489.261	686.69
489.479	696.69
489.696	696.69
489.914	687.69
490.132	690.69
490.35	690.69
490.568	736.69
490.786	727.69
491.003	729.69
491.221	745.69
491.439	768.69
491.657	732.69
491.874	768.69
492.092	756.69
492.31	773.69
492.527	784.69
492.745	785.69
492.963	783.69
493.18	798.69
493.398	796.69
493.615	802.69
493.833	827.69
494.05	806.69
494.268	802.69
494.485	802.69
494.703	793.69
494.92	810.69
495.138	812.69
495.355	815.69
495.573	796.69
495.79	806.69
496.008	835.69
496.225	845.69
496.442	812.69
496.66	817.69
496.877	812.69
497.094	806.69
497.312	835.69
497.529	804.69
497.746	866.69
497.963	861.69
498.181	885.69
498.398	926.69
498.615	919.69
498.832	941.69
499.049	954.69
499.267	988.69
499.484	1017.69
499.701	1095.69
499.918	1104.69
500.135	1180.69
500.352	1258.69
500.569	1265.69
500.786	1284.69
501.003	1243.69
501.22	1205.69
501.437	1160.69
501.654	1098.69
501.871	1102.69
502.088	1006.69
502.305	1001.69
502.522	1004.69
502.739	933.69
502.956	882.69
503.172	898.69
503.389	851.69
503.606	842.69
503.823	834.69
504.04	863.69
504.256	829.69
504.473	840.69
504.69	822.69
504.907	840.69
505.123	804.69
505.34	821.69
505.557	796.69
505.773	802.69
505.99	756.69
506.207	770.69
506.423	766.69
506.64	783.69
506.856	756.69
507.073	744.69
507.289	736.69
507.506	776.69
507.722	778.69
507.939	752.69
508.155	767.69
508.372	737.69
508.588	715.69
508.805	712.69
509.021	711.69
509.238	729.69
509.454	751.69
509.67	717.69
509.887	718.69
510.103	720.69
510.319	725.69
510.536	828.69
510.752	1330.69
510.968	1072.69
511.184	724.69
511.401	685.69
511.617	684.69
511.833	674.69
512.049	675.69
512.265	670.69
512.481	680.69
512.698	656.69
512.914	665.69
513.13	662.69
513.346	676.69
513.562	669.69
513.778	666.69
513.994	684.69
514.21	688.69
514.426	723.69
514.642	774.69
514.858	788.69
515.074	828.69
515.29	952.69
515.506	1379.69
515.721	1151.69
515.937	814.69
516.153	770.69
516.369	724.69
516.585	711.69
516.801	727.69
517.016	738.69
517.232	740.69
517.448	723.69
517.664	739.69
517.879	747.69
518.095	768.69
518.311	741.69
518.527	740.69
518.742	736.69
518.958	720.69
519.173	718.69
519.389	710.69
519.605	696.69
519.82	671.69
520.036	703.69
520.251	730.69
520.467	762.69
520.682	707.69
520.898	712.69
521.113	772.69
521.329	781.69
521.544	866.69
521.76	1075.69
521.975	1696.69
522.19	1742.69
522.406	963.69
522.621	772.69
522.836	700.69
523.052	690.69
523.267	646.69
523.482	634.69
523.698	642.69
523.913	624.69
524.128	634.69
524.343	606.69
524.559	619.69
524.774	622.69
524.989	611.69
525.204	600.69
525.419	630.69
525.634	594.69
525.849	587.69
526.064	570.69
526.28	577.69
526.495	578.69
526.71	587.69
526.925	562.69
527.14	559.69
527.355	582.69
527.57	554.69
527.785	576.69
527.999	579.69
528.214	568.69
528.429	572.69
528.644	583.69
528.859	575.69
529.074	583.69
529.289	608.69
529.503	662.69
529.718	652.69
529.933	590.69
530.148	562.69
530.363	570.69
530.577	571.69
530.792	570.69
531.007	550.69
531.221	551.69
531.436	581.69
531.651	547.69
531.865	559.69
532.08	554.69
532.295	546.69
532.509	556.69
532.724	569.69
532.938	549.69
533.153	552.69
533.367	543.69
533.582	567.69
533.796	535.69
534.011	566.69
534.225	562.69
534.44	541.69
534.654	539.69
534.868	534.69
535.083	552.69
535.297	552.69
535.511	523.69
535.726	546.69
535.94	563.69
536.154	532.69
536.369	545.69
536.583	542.69
536.797	534.69
537.011	508.69
537.225	533.69
537.44	503.69
537.654	527.69
537.868	525.69
538.082	503.69
538.296	506.69
538.51	534.69
538.724	532.69
538.938	502.69
539.153	542.69
539.367	555.69
539.581	544.69
539.795	503.69
540.009	510.69
540.222	509.69
540.436	523.69
540.65	534.69
540.864	532.69
541.078	522.69
541.292	530.69
541.506	522.69
541.72	523.69
541.934	519.69
542.147	536.69
542.361	524.69
542.575	531.69
542.789	502.69
543.002	512.69
543.216	519.69
543.43	544.69
543.644	528.69
543.857	534.69
544.071	534.69
544.285	526.69
544.498	494.69
544.712	524.69
544.925	534.69
545.139	524.69
545.352	503.69
545.566	528.69
545.779	488.69
545.993	526.69
546.206	523.69
546.42	506.69
546.633	490.69
546.847	513.69
547.06	494.69
547.274	518.69
547.487	503.69
547.7	487.69
547.914	508.69
548.127	532.69
548.34	523.69
548.554	510.69
548.767	480.69
548.98	511.69
549.193	491.69
549.407	503.69
549.62	486.69
549.833	502.69
550.046	493.69
550.259	501.69
550.473	527.69
550.686	523.69
550.899	500.69
551.112	503.69
551.325	512.69
551.538	503.69
551.751	501.69
551.964	492.69
552.177	501.69
552.39	498.69
552.603	487.69
552.816	506.69
553.029	516.69
553.242	515.69
553.455	516.69
553.667	543.69
553.88	524.69
554.093	541.69
554.306	494.69
554.519	497.69
554.732	479.69
554.944	486.69
555.157	499.69
555.37	477.69
555.583	470.69
555.795	467.69
556.008	466.69
556.221	472.69
556.433	487.69
556.646	467.69
556.859	473.69
557.071	460.69
557.284	428.69
557.496	461.69
557.709	446.69
557.921	457.69
558.134	452.69
558.346	437.69
558.559	449.69
558.771	446.69
558.984	428.69
559.196	439.69
559.409	454.69
559.621	449.69
559.833	445.69
560.046	445.69
560.258	429.69
560.47	447.69
560.683	426.69
560.895	442.69
561.107	444.69
561.32	448.69
561.532	438.69
561.744	462.69
561.956	457.69
562.168	449.69
562.381	454.69
562.593	456.69
562.805	467.69
563.017	453.69
563.229	457.69
563.441	443.69
563.653	441.69
563.865	446.69
564.077	461.69
564.289	456.69
564.501	447.69
564.713	467.69
564.925	488.69
565.137	482.69
565.349	495.69
565.561	502.69
565.773	506.69
565.985	500.69
566.197	518.69
566.408	535.69
566.62	551.69
566.832	577.69
567.044	581.69
567.255	570.69
567.467	599.69
567.679	612.69
567.891	606.69
568.102	603.69
568.314	606.69
568.526	565.69
568.737	557.69
568.949	512.69
569.161	493.69
569.372	500.69
569.584	485.69
569.795	472.69
570.007	466.69
570.218	520.69
570.43	482.69
570.641	456.69
570.853	451.69
571.064	456.69
571.276	468.69
571.487	443.69
571.698	431.69
571.91	420.69
572.121	428.69
572.333	409.69
572.544	384.69
572.755	397.69
572.966	418.69
573.178	417.69
573.389	408.69
573.6	388.69
573.811	395.69
574.023	396.69
574.234	379.69
574.445	403.69
574.656	375.69
574.867	406.69
575.078	394.69
575.289	394.69
575.501	378.69
575.712	371.69
575.923	372.69
576.134	374.69
576.345	367.69
576.556	371.69
576.767	365.69
576.978	384.69
577.188	378.69
577.399	377.69
577.61	380.69
577.821	375.69
578.032	382.69
578.243	379.69
578.454	648.69
578.665	482.69
578.875	379.69
579.086	374.69
579.297	347.69
579.508	338.69
579.718	354.69
579.929	364.69
580.14	364.69
580.35	363.69
580.561	371.69
580.772	340.69
580.982	354.69
581.193	347.69
581.403	356.69
581.614	366.69
581.825	353.69
582.035	358.69
582.246	368.69
582.456	340.69
582.667	327.69
582.877	325.69
583.087	321.69
583.298	328.69
583.508	331.69
583.719	341.69
583.929	333.69
584.139	337.69
584.35	322.69
584.56	341.69
584.77	328.69
584.981	334.69
585.191	339.69
585.401	339.69
585.611	336.69
585.821	345.69
586.032	324.69
586.242	335.69
586.452	327.69
586.662	339.69
586.872	318.69
587.082	334.69
587.292	340.69
587.502	338.69
587.713	355.69
587.923	310.69
588.133	339.69
588.343	336.69
588.553	330.69
588.762	332.69
588.972	332.69
589.182	334.69
589.392	329.69
589.602	331.69
589.812	342.69
590.022	360.69
590.232	361.69
590.441	333.69
590.651	331.69
590.861	321.69
591.071	334.69
591.281	325.69
591.49	348.69
591.7	337.69
591.91	350.69
592.119	354.69
592.329	352.69
592.539	345.69
592.748	357.69
592.958	374.69
593.167	374.69
593.377	370.69
593.587	371.69
593.796	363.69
594.006	361.69
594.215	351.69
594.424	351.69
594.634	348.69
594.843	350.69
595.053	335.69
595.262	358.69
595.472	339.69
595.681	340.69
595.89	336.69
596.1	324.69
596.309	324.69
596.518	319.69
596.727	323.69
596.937	325.69
597.146	326.69
597.355	311.69
597.564	301.69
597.774	308.69
597.983	290.69
598.192	294.69
598.401	317.69
598.61	314.69
598.819	300.69
599.028	298.69
599.237	302.69
599.446	291.69
599.655	297.69
599.864	316.69
600.073	310.69
600.282	294.69
600.491	294.69
600.7	302.69
600.909	293.69
601.118	294.69
601.327	298.69
601.536	284.69
601.745	294.69
601.953	301.69
602.162	283.69
602.371	258.69
602.58	275.69
602.789	276.69
602.997	282.69
603.206	276.69
603.415	289.69
603.623	310.69
603.832	283.69
604.041	289.69
604.249	292.69
604.458	265.69
604.666	256.69
604.875	263.69
605.084	279.69
605.292	286.69
605.501	284.69
605.709	287.69
605.918	270.69
606.126	265.69
606.334	287.69
606.543	287.69
606.751	263.69
606.96	252.69
607.168	276.69
607.376	263.69
607.585	267.69
607.793	280.69
608.001	271.69
608.21	270.69
608.418	274.69
608.626	270.69
608.834	278.69
609.043	276.69
609.251	271.69
609.459	287.69
609.667	263.69
609.875	265.69
610.083	268.69
610.291	269.69
610.499	287.69
610.707	280.69
610.916	272.69
611.124	279.69
611.332	290.69
611.54	274.69
611.748	276.69
611.955	247.69
612.163	267.69
612.371	259.69
612.579	280.69
612.787	262.69
612.995	271.69
613.203	275.69
613.411	267.69
613.618	276.69
613.826	265.69
614.034	284.69
614.242	260.69
614.449	264.69
614.657	268.69
614.865	260.69
615.072	283.69
615.28	244.69
615.488	270.69
615.695	266.69
615.903	263.69
616.111	269.69
616.318	257.69
616.526	265.69
616.733	263.69
616.941	263.69
617.148	272.69
617.356	256.69
617.563	259.69
617.771	247.69
617.978	254.69
618.185	253.69
618.393	267.69
618.6	244.69
618.807	266.69
619.015	256.69
619.222	259.69
619.429	262.69
619.637	253.69
619.844	252.69
620.051	256.69
620.258	239.69
620.466	257.69
620.673	256.69
620.88	251.69
621.087	231.69
621.294	230.69
621.501	235.69
621.708	258.69
621.915	235.69
622.122	247.69
622.329	249.69
622.536	242.69
622.743	230.69
622.95	235.69
623.157	219.69
623.364	224.69
623.571	236.69
623.778	236.69
623.985	244.69
624.192	238.69
624.399	237.69
624.606	252.69
624.812	229.69
625.019	233.69
625.226	233.69
625.433	228.69
625.639	211.69
625.846	228.69
626.053	233.69
626.259	237.69
626.466	219.69
626.673	225.69
626.879	230.69
627.086	221.69
627.293	213.69
627.499	230.69
627.706	228.69
627.912	215.69
628.119	232.69
628.325	224.69
628.532	216.69
628.738	208.69
628.945	225.69
629.151	214.69
629.357	211.69
629.564	216.69
629.77	224.69
629.976	228.69
630.183	221.69
630.389	207.69
630.595	222.69
630.802	197.69
631.008	211.69
631.214	218.69
631.42	207.69
631.627	213.69
631.833	218.69
632.039	207.69
632.245	213.69
632.451	207.69
632.657	225.69
632.863	232.69
633.069	194.69
633.275	222.69
633.481	182.69
633.688	203.69
633.893	210.69
634.099	192.69
634.305	194.69
634.511	190.69
634.717	203.69
634.923	202.69
635.129	196.69
635.335	203.69
635.541	214.69
635.747	203.69
635.952	200.69
636.158	200.69
636.364	203.69
636.57	229.69
636.775	219.69
636.981	186.69
637.187	203.69
637.392	193.69
637.598	199.69
637.804	199.69
638.009	201.69
638.215	190.69
638.421	191.69
638.626	206.69
638.832	194.69
639.037	188.69
639.243	194.69
639.448	174.69
639.654	165.69
639.859	181.69
640.065	186.69
640.27	191.69
640.475	195.69
640.681	188.69
640.886	186.69
641.091	209.69
641.297	183.69
641.502	164.69
641.707	172.69
641.913	184.69
642.118	192.69
642.323	189.69
642.528	188.69
642.733	182.69
642.939	180.69
643.144	187.69
643.349	190.69
643.554	183.69
643.759	191.69
643.964	181.69
644.169	179.69
644.374	188.69
644.579	180.69
644.784	173.69
644.989	172.69
645.194	187.69
645.399	182.69
645.604	178.69
645.809	193.69
646.014	162.69
646.219	159.69
646.423	158.69
646.628	189.69
646.833	174.69
647.038	182.69
647.243	191.69
647.447	175.69
647.652	188.69
647.857	170.69
648.062	175.69
648.266	178.69
648.471	177.69
648.676	179.69
648.88	178.69
649.085	194.69
649.289	190.69
649.494	186.69
649.698	184.69
649.903	217.69
650.107	187.69
650.312	168.69
650.516	176.69
650.721	160.69
650.925	164.69
651.13	171.69
651.334	180.69
651.539	177.69
651.743	147.69
651.947	172.69
652.152	159.69
652.356	154.69
652.56	153.69
652.764	150.69
652.969	160.69
653.173	147.69
653.377	155.69
653.581	156.69
653.785	166.69
653.99	139.69
654.194	137.69
654.398	158.69
654.602	132.69
654.806	145.69
655.01	146.69
655.214	127.69
655.418	143.69
655.622	128.69
655.826	144.69
656.03	136.69
656.234	135.69
656.438	139.69
656.642	148.69
656.846	142.69
657.049	134.69
657.253	146.69
657.457	118.69
657.661	125.69
657.865	126.69
658.068	110.69
658.272	112.69
658.476	114.69
658.68	104.69
658.883	114.69
659.087	102.69
659.291	108.69
659.494	110.69
659.698	110.69
659.901	107.69
660.105	85.69
660.309	103.69
660.512	103.69
660.716	108.69
660.919	96.69
661.123	94.69
661.326	83.69
661.53	92.69
661.733	97.69
661.936	87.69
662.14	73.69
662.343	99.69
662.546	93.69
662.75	87.69
662.953	88.69
663.156	86.69
663.36	89.69
663.563	85.69
663.766	77.69
663.969	86.69
664.173	95.69
664.376	90.69
664.579	90.69
664.782	85.69
664.985	71.69
665.188	83.69
665.391	83.69
665.594	95.69
665.797	94.69
666	87.69
666.203	88.69
666.406	87.69
666.609	77.69
666.812	76.69
667.015	85.69
667.218	70.69
667.421	84.69
667.624	93.69
667.827	83.69
668.03	74.69
668.232	83.69
668.435	90.69
668.638	83.69
668.841	90.69
669.043	102.69
669.246	83.69
669.449	95.69
669.651	87.69
669.854	88.69
670.057	80.69
670.259	87.69
670.462	84.69
670.665	79.69
670.867	84.69
671.07	79.69
671.272	87.69
671.475	78.69
671.677	87.69
671.88	77.69
672.082	84.69
672.284	79.69
672.487	85.69
672.689	98.69
672.892	82.69
