Data from 1979.PennyLincolnUp.Lamp.En5.5.200Scan.071719.P1_HRD10591_16-18-25-863.txt Node
Date: Thu Jul 18 16:18:25 EDT 2019
User: cochatt
Spectrometer: HR+D1059
Trigger mode: 1
Integration Time (sec): 1.000000E-1
Scans to average: 1
Electric dark correction enabled: true
Nonlinearity correction enabled: false
Boxcar width: 0
XAxis mode: Wavelengths
Number of Pixels in Spectrum: 2048
>>>>>Begin Spectral Data<<<<<
223.165	-29.62
223.4	-29.62
223.635	-29.62
223.869	-15.62
224.104	-20.62
224.338	-13.62
224.573	-24.62
224.808	-10.62
225.042	-0.62
225.277	3.38
225.511	-7.62
225.746	20.38
225.98	-6.62
226.215	11.38
226.449	8.38
226.683	28.38
226.918	22.38
227.152	35.38
227.387	28.38
227.621	43.38
227.856	38.38
228.09	44.38
228.324	54.38
228.559	45.38
228.793	59.38
229.027	78.38
229.262	93.38
229.496	97.38
229.73	127.38
229.964	146.38
230.199	121.38
230.433	104.38
230.667	105.38
230.901	106.38
231.136	100.38
231.37	112.38
231.604	112.38
231.838	102.38
232.072	101.38
232.306	103.38
232.541	105.38
232.775	109.38
233.009	102.38
233.243	105.38
233.477	116.38
233.711	120.38
233.945	124.38
234.179	99.38
234.413	115.38
234.647	114.38
234.881	114.38
235.115	103.38
235.349	110.38
235.583	110.38
235.817	108.38
236.051	114.38
236.285	111.38
236.519	118.38
236.753	121.38
236.987	143.38
237.221	157.38
237.455	198.38
237.689	182.38
237.922	135.38
238.156	123.38
238.39	115.38
238.624	123.38
238.858	132.38
239.091	112.38
239.325	121.38
239.559	122.38
239.793	120.38
240.027	132.38
240.26	133.38
240.494	157.38
240.728	134.38
240.961	140.38
241.195	137.38
241.429	122.38
241.662	124.38
241.896	126.38
242.13	118.38
242.363	132.38
242.597	139.38
242.83	129.38
243.064	146.38
243.298	130.38
243.531	129.38
243.765	146.38
243.998	139.38
244.232	147.38
244.465	149.38
244.699	128.38
244.932	127.38
245.166	129.38
245.399	129.38
245.633	134.38
245.866	131.38
246.099	153.38
246.333	145.38
246.566	147.38
246.8	146.38
247.033	132.38
247.266	144.38
247.5	157.38
247.733	173.38
247.966	145.38
248.2	150.38
248.433	162.38
248.666	149.38
248.899	169.38
249.133	177.38
249.366	186.38
249.599	181.38
249.832	161.38
250.066	165.38
250.299	181.38
250.532	168.38
250.765	184.38
250.998	187.38
251.231	197.38
251.465	202.38
251.698	180.38
251.931	178.38
252.164	176.38
252.397	162.38
252.63	195.38
252.863	177.38
253.096	198.38
253.329	205.38
253.562	226.38
253.795	193.38
254.028	202.38
254.261	196.38
254.494	194.38
254.727	206.38
254.96	228.38
255.193	252.38
255.426	190.38
255.659	205.38
255.892	196.38
256.124	217.38
256.357	209.38
256.59	194.38
256.823	182.38
257.056	210.38
257.289	186.38
257.521	191.38
257.754	207.38
257.987	182.38
258.22	188.38
258.452	192.38
258.685	179.38
258.918	206.38
259.151	189.38
259.383	197.38
259.616	209.38
259.849	210.38
260.081	210.38
260.314	232.38
260.547	231.38
260.779	226.38
261.012	209.38
261.244	205.38
261.477	183.38
261.71	209.38
261.942	212.38
262.175	206.38
262.407	202.38
262.64	204.38
262.872	202.38
263.105	204.38
263.337	203.38
263.57	199.38
263.802	212.38
264.035	205.38
264.267	203.38
264.499	193.38
264.732	200.38
264.964	204.38
265.197	189.38
265.429	202.38
265.661	194.38
265.894	202.38
266.126	218.38
266.358	205.38
266.591	204.38
266.823	217.38
267.055	217.38
267.287	207.38
267.52	217.38
267.752	201.38
267.984	221.38
268.216	231.38
268.448	221.38
268.681	222.38
268.913	221.38
269.145	242.38
269.377	254.38
269.609	259.38
269.841	249.38
270.073	224.38
270.306	258.38
270.538	256.38
270.77	264.38
271.002	268.38
271.234	254.38
271.466	251.38
271.698	269.38
271.93	295.38
272.162	270.38
272.394	269.38
272.626	277.38
272.858	245.38
273.09	255.38
273.322	242.38
273.553	250.38
273.785	230.38
274.017	233.38
274.249	235.38
274.481	241.38
274.713	252.38
274.945	241.38
275.176	252.38
275.408	228.38
275.64	240.38
275.872	238.38
276.104	252.38
276.335	270.38
276.567	250.38
276.799	270.38
277.031	267.38
277.262	268.38
277.494	307.38
277.726	280.38
277.957	264.38
278.189	243.38
278.421	252.38
278.652	259.38
278.884	243.38
279.115	267.38
279.347	265.38
279.579	254.38
279.81	246.38
280.042	237.38
280.273	236.38
280.505	261.38
280.736	248.38
280.968	234.38
281.199	233.38
281.431	261.38
281.662	273.38
281.894	252.38
282.125	239.38
282.356	268.38
282.588	288.38
282.819	273.38
283.051	273.38
283.282	235.38
283.513	244.38
283.745	243.38
283.976	241.38
284.207	251.38
284.439	271.38
284.67	264.38
284.901	258.38
285.132	280.38
285.364	282.38
285.595	268.38
285.826	270.38
286.057	268.38
286.288	265.38
286.52	264.38
286.751	274.38
286.982	258.38
287.213	264.38
287.444	285.38
287.675	258.38
287.906	278.38
288.138	276.38
288.369	279.38
288.6	254.38
288.831	292.38
289.062	286.38
289.293	277.38
289.524	292.38
289.755	276.38
289.986	259.38
290.217	267.38
290.448	266.38
290.679	264.38
290.91	286.38
291.141	291.38
291.371	270.38
291.602	286.38
291.833	279.38
292.064	263.38
292.295	288.38
292.526	269.38
292.757	266.38
292.987	286.38
293.218	266.38
293.449	274.38
293.68	278.38
293.91	281.38
294.141	286.38
294.372	271.38
294.603	279.38
294.833	284.38
295.064	304.38
295.295	280.38
295.525	264.38
295.756	274.38
295.987	287.38
296.217	323.38
296.448	317.38
296.679	292.38
296.909	294.38
297.14	293.38
297.37	298.38
297.601	310.38
297.831	289.38
298.062	286.38
298.292	282.38
298.523	290.38
298.753	293.38
298.984	287.38
299.214	297.38
299.445	304.38
299.675	306.38
299.905	299.38
300.136	304.38
300.366	304.38
300.597	305.38
300.827	307.38
301.057	300.38
301.288	309.38
301.518	302.38
301.748	312.38
301.979	317.38
302.209	320.38
302.439	320.38
302.669	310.38
302.9	320.38
303.13	328.38
303.36	313.38
303.59	298.38
303.82	324.38
304.051	313.38
304.281	320.38
304.511	297.38
304.741	332.38
304.971	306.38
305.201	309.38
305.431	331.38
305.661	316.38
305.891	309.38
306.121	320.38
306.352	320.38
306.582	318.38
306.812	324.38
307.042	326.38
307.272	311.38
307.502	316.38
307.731	320.38
307.961	308.38
308.191	331.38
308.421	312.38
308.651	305.38
308.881	329.38
309.111	334.38
309.341	356.38
309.571	324.38
309.8	344.38
310.03	312.38
310.26	351.38
310.49	354.38
310.72	348.38
310.949	377.38
311.179	374.38
311.409	371.38
311.639	353.38
311.868	338.38
312.098	361.38
312.328	358.38
312.557	374.38
312.787	392.38
313.017	376.38
313.246	380.38
313.476	353.38
313.706	351.38
313.935	339.38
314.165	384.38
314.394	362.38
314.624	377.38
314.853	376.38
315.083	354.38
315.312	368.38
315.542	348.38
315.771	362.38
316.001	345.38
316.23	353.38
316.46	351.38
316.689	374.38
316.919	350.38
317.148	375.38
317.377	368.38
317.607	365.38
317.836	368.38
318.065	367.38
318.295	360.38
318.524	357.38
318.753	344.38
318.983	350.38
319.212	353.38
319.441	360.38
319.67	377.38
319.9	369.38
320.129	366.38
320.358	353.38
320.587	354.38
320.816	356.38
321.046	364.38
321.275	387.38
321.504	387.38
321.733	384.38
321.962	361.38
322.191	386.38
322.42	400.38
322.649	405.38
322.878	414.38
323.108	436.38
323.337	441.38
323.566	470.38
323.795	490.38
324.024	510.38
324.253	589.38
324.482	825.38
324.71	1316.38
324.939	1972.38
325.168	1740.38
325.397	834.38
325.626	592.38
325.855	494.38
326.084	464.38
326.313	444.38
326.542	473.38
326.77	536.38
326.999	558.38
327.228	798.38
327.457	1179.38
327.686	1477.38
327.914	963.38
328.143	626.38
328.372	550.38
328.6	517.38
328.829	485.38
329.058	490.38
329.287	521.38
329.515	489.38
329.744	458.38
329.972	462.38
330.201	483.38
330.43	511.38
330.658	530.38
330.887	564.38
331.115	526.38
331.344	465.38
331.572	464.38
331.801	479.38
332.03	487.38
332.258	445.38
332.486	409.38
332.715	427.38
332.943	444.38
333.172	441.38
333.4	454.38
333.629	461.38
333.857	473.38
334.085	462.38
334.314	500.38
334.542	516.38
334.771	526.38
334.999	489.38
335.227	452.38
335.455	462.38
335.684	434.38
335.912	449.38
336.14	433.38
336.369	416.38
336.597	455.38
336.825	430.38
337.053	436.38
337.281	420.38
337.51	419.38
337.738	433.38
337.966	419.38
338.194	434.38
338.422	428.38
338.65	427.38
338.878	404.38
339.106	422.38
339.334	421.38
339.562	417.38
339.79	414.38
340.018	424.38
340.246	432.38
340.474	416.38
340.702	425.38
340.93	399.38
341.158	425.38
341.386	399.38
341.614	397.38
341.842	414.38
342.07	398.38
342.298	407.38
342.526	422.38
342.754	386.38
342.981	402.38
343.209	405.38
343.437	417.38
343.665	410.38
343.893	429.38
344.12	431.38
344.348	436.38
344.576	432.38
344.804	429.38
345.031	433.38
345.259	452.38
345.487	416.38
345.714	422.38
345.942	420.38
346.17	427.38
346.397	405.38
346.625	409.38
346.853	413.38
347.08	405.38
347.308	404.38
347.535	420.38
347.763	406.38
347.99	404.38
348.218	412.38
348.445	396.38
348.673	392.38
348.9	414.38
349.128	391.38
349.355	402.38
349.583	414.38
349.81	388.38
350.037	417.38
350.265	402.38
350.492	403.38
350.72	394.38
350.947	376.38
351.174	410.38
351.402	436.38
351.629	440.38
351.856	409.38
352.083	404.38
352.311	418.38
352.538	433.38
352.765	427.38
352.992	415.38
353.22	406.38
353.447	414.38
353.674	403.38
353.901	394.38
354.128	378.38
354.355	377.38
354.583	370.38
354.81	387.38
355.037	386.38
355.264	376.38
355.491	377.38
355.718	394.38
355.945	384.38
356.172	372.38
356.399	376.38
356.626	354.38
356.853	374.38
357.08	373.38
357.307	383.38
357.534	363.38
357.761	385.38
357.988	388.38
358.215	394.38
358.441	385.38
358.668	388.38
358.895	382.38
359.122	393.38
359.349	404.38
359.576	385.38
359.802	419.38
360.029	470.38
360.256	461.38
360.483	443.38
360.709	421.38
360.936	434.38
361.163	409.38
361.39	391.38
361.616	414.38
361.843	408.38
362.07	408.38
362.296	391.38
362.523	410.38
362.749	413.38
362.976	407.38
363.203	412.38
363.429	389.38
363.656	388.38
363.882	407.38
364.109	406.38
364.335	402.38
364.562	389.38
364.788	400.38
365.015	386.38
365.241	405.38
365.468	402.38
365.694	398.38
365.92	402.38
366.147	382.38
366.373	388.38
366.599	391.38
366.826	404.38
367.052	398.38
367.278	401.38
367.505	397.38
367.731	399.38
367.957	400.38
368.184	393.38
368.41	402.38
368.636	418.38
368.862	413.38
369.089	414.38
369.315	397.38
369.541	404.38
369.767	398.38
369.993	395.38
370.219	396.38
370.445	405.38
370.672	389.38
370.898	407.38
371.124	413.38
371.35	406.38
371.576	390.38
371.802	395.38
372.028	383.38
372.254	408.38
372.48	405.38
372.706	406.38
372.932	406.38
373.158	402.38
373.384	410.38
373.61	425.38
373.835	416.38
374.061	411.38
374.287	409.38
374.513	412.38
374.739	420.38
374.965	428.38
375.191	434.38
375.416	438.38
375.642	407.38
375.868	416.38
376.094	428.38
376.319	412.38
376.545	401.38
376.771	404.38
376.997	400.38
377.222	388.38
377.448	399.38
377.674	410.38
377.899	392.38
378.125	414.38
378.35	428.38
378.576	385.38
378.802	414.38
379.027	401.38
379.253	402.38
379.478	410.38
379.704	408.38
379.929	405.38
380.155	415.38
380.38	405.38
380.606	399.38
380.831	403.38
381.057	406.38
381.282	390.38
381.507	396.38
381.733	417.38
381.958	416.38
382.184	396.38
382.409	413.38
382.634	418.38
382.86	424.38
383.085	436.38
383.31	412.38
383.535	423.38
383.761	424.38
383.986	427.38
384.211	438.38
384.436	418.38
384.662	434.38
384.887	438.38
385.112	450.38
385.337	449.38
385.562	455.38
385.787	448.38
386.013	457.38
386.238	441.38
386.463	453.38
386.688	444.38
386.913	461.38
387.138	442.38
387.363	459.38
387.588	461.38
387.813	469.38
388.038	464.38
388.263	443.38
388.488	445.38
388.713	436.38
388.938	461.38
389.163	448.38
389.387	488.38
389.612	463.38
389.837	462.38
390.062	451.38
390.287	438.38
390.512	440.38
390.736	450.38
390.961	444.38
391.186	461.38
391.411	469.38
391.636	475.38
391.86	468.38
392.085	482.38
392.31	492.38
392.534	482.38
392.759	489.38
392.984	465.38
393.208	439.38
393.433	498.38
393.658	489.38
393.882	491.38
394.107	465.38
394.331	470.38
394.556	466.38
394.78	473.38
395.005	466.38
395.229	484.38
395.454	486.38
395.678	489.38
395.903	507.38
396.127	501.38
396.352	523.38
396.576	509.38
396.801	486.38
397.025	485.38
397.249	493.38
397.474	476.38
397.698	494.38
397.922	502.38
398.147	502.38
398.371	523.38
398.595	486.38
398.82	506.38
399.044	582.38
399.268	582.38
399.492	608.38
399.717	627.38
399.941	670.38
400.165	670.38
400.389	665.38
400.613	611.38
400.837	573.38
401.062	542.38
401.286	562.38
401.51	563.38
401.734	532.38
401.958	540.38
402.182	546.38
402.406	551.38
402.63	552.38
402.854	540.38
403.078	538.38
403.302	570.38
403.526	564.38
403.75	569.38
403.974	580.38
404.198	564.38
404.422	594.38
404.645	582.38
404.869	572.38
405.093	583.38
405.317	637.38
405.541	679.38
405.765	608.38
405.988	603.38
406.212	622.38
406.436	643.38
406.66	635.38
406.883	632.38
407.107	625.38
407.331	681.38
407.555	756.38
407.778	741.38
408.002	685.38
408.226	648.38
408.449	636.38
408.673	625.38
408.896	631.38
409.12	689.38
409.344	652.38
409.567	592.38
409.791	584.38
410.014	605.38
410.238	568.38
410.461	560.38
410.685	574.38
410.908	579.38
411.132	621.38
411.355	647.38
411.578	635.38
411.802	586.38
412.025	599.38
412.249	588.38
412.472	591.38
412.695	620.38
412.919	616.38
413.142	570.38
413.365	569.38
413.589	556.38
413.812	540.38
414.035	556.38
414.258	550.38
414.482	544.38
414.705	536.38
414.928	540.38
415.151	546.38
415.374	545.38
415.597	534.38
415.821	524.38
416.044	554.38
416.267	541.38
416.49	533.38
416.713	532.38
416.936	556.38
417.159	531.38
417.382	540.38
417.605	552.38
417.828	557.38
418.051	548.38
418.274	555.38
418.497	521.38
418.72	546.38
418.943	530.38
419.166	574.38
419.389	590.38
419.611	566.38
419.834	580.38
420.057	592.38
420.28	571.38
420.503	566.38
420.726	555.38
420.948	581.38
421.171	609.38
421.394	614.38
421.617	583.38
421.839	546.38
422.062	557.38
422.285	549.38
422.507	619.38
422.73	675.38
422.953	672.38
423.175	609.38
423.398	577.38
423.621	601.38
423.843	587.38
424.066	595.38
424.288	595.38
424.511	596.38
424.733	648.38
424.956	727.38
425.178	704.38
425.401	692.38
425.623	732.38
425.846	645.38
426.068	582.38
426.291	590.38
426.513	588.38
426.735	598.38
426.958	619.38
427.18	684.38
427.402	806.38
427.625	900.38
427.847	771.38
428.069	666.38
428.292	634.38
428.514	566.38
428.736	554.38
428.958	572.38
429.181	555.38
429.403	535.38
429.625	530.38
429.847	559.38
430.069	636.38
430.292	634.38
430.514	557.38
430.736	533.38
430.958	533.38
431.18	526.38
431.402	528.38
431.624	501.38
431.846	516.38
432.068	518.38
432.29	516.38
432.512	538.38
432.734	548.38
432.956	523.38
433.178	554.38
433.4	543.38
433.622	543.38
433.844	542.38
434.066	546.38
434.287	521.38
434.509	547.38
434.731	534.38
434.953	557.38
435.175	566.38
435.397	564.38
435.618	585.38
435.84	612.38
436.062	725.38
436.284	796.38
436.505	660.38
436.727	596.38
436.949	561.38
437.17	546.38
437.392	541.38
437.614	554.38
437.835	596.38
438.057	672.38
438.278	757.38
438.5	764.38
438.721	814.38
438.943	784.38
439.165	633.38
439.386	582.38
439.608	592.38
439.829	563.38
440.05	615.38
440.272	636.38
440.493	608.38
440.715	563.38
440.936	560.38
441.158	533.38
441.379	549.38
441.6	585.38
441.822	578.38
442.043	607.38
442.264	711.38
442.486	731.38
442.707	629.38
442.928	591.38
443.149	613.38
443.371	640.38
443.592	665.38
443.813	731.38
444.034	784.38
444.255	672.38
444.476	624.38
444.698	621.38
444.919	624.38
445.14	755.38
445.361	643.38
445.582	631.38
445.803	682.38
446.024	763.38
446.245	794.38
446.466	698.38
446.687	641.38
446.908	586.38
447.129	540.38
447.35	527.38
447.571	542.38
447.792	542.38
448.013	547.38
448.234	561.38
448.455	609.38
448.675	704.38
448.896	809.38
449.117	680.38
449.338	634.38
449.559	735.38
449.779	824.38
450	682.38
450.221	582.38
450.442	532.38
450.662	538.38
450.883	537.38
451.104	542.38
451.324	531.38
451.545	531.38
451.766	508.38
451.986	498.38
452.207	500.38
452.428	497.38
452.648	464.38
452.869	496.38
453.089	516.38
453.31	478.38
453.53	485.38
453.751	508.38
453.971	497.38
454.192	529.38
454.412	501.38
454.633	472.38
454.853	506.38
455.073	480.38
455.294	494.38
455.514	562.38
455.734	533.38
455.955	487.38
456.175	466.38
456.395	449.38
456.616	464.38
456.836	484.38
457.056	469.38
457.276	453.38
457.497	484.38
457.717	457.38
457.937	471.38
458.157	479.38
458.377	471.38
458.598	500.38
458.818	553.38
459.038	592.38
459.258	605.38
459.478	581.38
459.698	535.38
459.918	536.38
460.138	536.38
460.358	539.38
460.578	565.38
460.798	560.38
461.018	565.38
461.238	548.38
461.458	548.38
461.678	531.38
461.898	549.38
462.118	566.38
462.338	567.38
462.558	576.38
462.777	576.38
462.997	585.38
463.217	622.38
463.437	626.38
463.657	618.38
463.876	574.38
464.096	588.38
464.316	618.38
464.536	588.38
464.755	589.38
464.975	593.38
465.195	615.38
465.414	664.38
465.634	596.38
465.854	578.38
466.073	539.38
466.293	535.38
466.512	523.38
466.732	520.38
466.951	526.38
467.171	488.38
467.391	533.38
467.61	506.38
467.829	529.38
468.049	524.38
468.268	516.38
468.488	512.38
468.707	483.38
468.927	503.38
469.146	502.38
469.365	498.38
469.585	482.38
469.804	507.38
470.023	544.38
470.243	500.38
470.462	516.38
470.681	545.38
470.901	536.38
471.12	520.38
471.339	523.38
471.558	519.38
471.777	509.38
471.997	521.38
472.216	502.38
472.435	557.38
472.654	537.38
472.873	501.38
473.092	485.38
473.311	486.38
473.53	513.38
473.749	517.38
473.968	510.38
474.187	593.38
474.406	636.38
474.625	554.38
474.844	527.38
475.063	514.38
475.282	507.38
475.501	499.38
475.72	532.38
475.939	515.38
476.158	527.38
476.377	524.38
476.596	531.38
476.814	559.38
477.033	549.38
477.252	568.38
477.471	560.38
477.69	546.38
477.908	562.38
478.127	562.38
478.346	568.38
478.564	588.38
478.783	564.38
479.002	606.38
479.22	596.38
479.439	585.38
479.658	594.38
479.876	626.38
480.095	653.38
480.313	648.38
480.532	627.38
480.751	630.38
480.969	625.38
481.188	679.38
481.406	736.38
481.624	652.38
481.843	608.38
482.061	598.38
482.28	594.38
482.498	580.38
482.717	613.38
482.935	619.38
483.153	602.38
483.372	602.38
483.59	583.38
483.808	603.38
484.027	593.38
484.245	605.38
484.463	575.38
484.681	594.38
484.9	626.38
485.118	618.38
485.336	612.38
485.554	626.38
485.772	618.38
485.99	622.38
486.209	630.38
486.427	632.38
486.645	637.38
486.863	654.38
487.081	613.38
487.299	610.38
487.517	629.38
487.735	620.38
487.953	621.38
488.171	643.38
488.389	663.38
488.607	629.38
488.825	651.38
489.043	640.38
489.261	636.38
489.479	659.38
489.696	651.38
489.914	650.38
490.132	661.38
490.35	662.38
490.568	647.38
490.786	654.38
491.003	672.38
491.221	681.38
491.439	703.38
491.657	715.38
491.874	737.38
492.092	692.38
492.31	711.38
492.527	745.38
492.745	738.38
492.963	722.38
493.18	732.38
493.398	725.38
493.615	738.38
493.833	746.38
494.05	710.38
494.268	729.38
494.485	732.38
494.703	735.38
494.92	730.38
495.138	765.38
495.355	767.38
495.573	758.38
495.79	748.38
496.008	745.38
496.225	725.38
496.442	746.38
496.66	731.38
496.877	744.38
497.094	759.38
497.312	769.38
497.529	801.38
497.746	816.38
497.963	832.38
498.181	843.38
498.398	828.38
498.615	891.38
498.832	868.38
499.049	887.38
499.267	920.38
499.484	983.38
499.701	1038.38
499.918	1057.38
500.135	1109.38
500.352	1160.38
500.569	1205.38
500.786	1189.38
501.003	1197.38
501.22	1130.38
501.437	1084.38
501.654	1034.38
501.871	992.38
502.088	989.38
502.305	941.38
502.522	890.38
502.739	883.38
502.956	859.38
503.172	822.38
503.389	796.38
503.606	822.38
503.823	790.38
504.04	775.38
504.256	773.38
504.473	774.38
504.69	803.38
504.907	780.38
505.123	741.38
505.34	755.38
505.557	714.38
505.773	715.38
505.99	722.38
506.207	710.38
506.423	720.38
506.64	692.38
506.856	722.38
507.073	716.38
507.289	685.38
507.506	692.38
507.722	683.38
507.939	700.38
508.155	715.38
508.372	682.38
508.588	681.38
508.805	670.38
509.021	661.38
509.238	677.38
509.454	660.38
509.67	665.38
509.887	626.38
510.103	649.38
510.319	670.38
510.536	747.38
510.752	1196.38
510.968	986.38
511.184	682.38
511.401	646.38
511.617	628.38
511.833	646.38
512.049	621.38
512.265	666.38
512.481	640.38
512.698	596.38
512.914	637.38
513.13	638.38
513.346	620.38
513.562	633.38
513.778	658.38
513.994	621.38
514.21	648.38
514.426	666.38
514.642	715.38
514.858	714.38
515.074	725.38
515.29	882.38
515.506	1249.38
515.721	1060.38
515.937	738.38
516.153	702.38
516.369	696.38
516.585	675.38
516.801	681.38
517.016	691.38
517.232	680.38
517.448	680.38
517.664	693.38
517.879	676.38
518.095	680.38
518.311	703.38
518.527	664.38
518.742	676.38
518.958	653.38
519.173	675.38
519.389	662.38
519.605	653.38
519.82	664.38
520.036	664.38
520.251	654.38
520.467	692.38
520.682	680.38
520.898	678.38
521.113	698.38
521.329	721.38
521.544	804.38
521.76	950.38
521.975	1574.38
522.19	1579.38
522.406	906.38
522.621	722.38
522.836	638.38
523.052	648.38
523.267	611.38
523.482	592.38
523.698	598.38
523.913	590.38
524.128	596.38
524.343	584.38
524.559	580.38
524.774	552.38
524.989	553.38
525.204	582.38
525.419	578.38
525.634	563.38
525.849	560.38
526.064	544.38
526.28	543.38
526.495	565.38
526.71	552.38
526.925	530.38
527.14	521.38
527.355	539.38
527.57	548.38
527.785	518.38
527.999	542.38
528.214	545.38
528.429	546.38
528.644	540.38
528.859	560.38
529.074	532.38
529.289	547.38
529.503	629.38
529.718	606.38
529.933	554.38
530.148	546.38
530.363	573.38
530.577	547.38
530.792	516.38
531.007	524.38
531.221	531.38
531.436	525.38
531.651	525.38
531.865	512.38
532.08	533.38
532.295	513.38
532.509	514.38
532.724	530.38
532.938	534.38
533.153	523.38
533.367	516.38
533.582	507.38
533.796	524.38
534.011	516.38
534.225	492.38
534.44	512.38
534.654	507.38
534.868	518.38
535.083	521.38
535.297	523.38
535.511	509.38
535.726	526.38
535.94	525.38
536.154	494.38
536.369	517.38
536.583	491.38
536.797	516.38
537.011	494.38
537.225	493.38
537.44	498.38
537.654	490.38
537.868	490.38
538.082	488.38
538.296	493.38
538.51	494.38
538.724	481.38
538.938	491.38
539.153	493.38
539.367	527.38
539.581	520.38
539.795	498.38
540.009	492.38
540.222	483.38
540.436	496.38
540.65	487.38
540.864	491.38
541.078	497.38
541.292	516.38
541.506	512.38
541.72	499.38
541.934	479.38
542.147	466.38
542.361	494.38
542.575	462.38
542.789	492.38
543.002	465.38
543.216	500.38
543.43	502.38
543.644	491.38
543.857	502.38
544.071	482.38
544.285	489.38
544.498	475.38
544.712	485.38
544.925	492.38
545.139	476.38
545.352	478.38
545.566	501.38
545.779	498.38
545.993	481.38
546.206	484.38
546.42	508.38
546.633	481.38
546.847	473.38
547.06	487.38
547.274	478.38
547.487	502.38
547.7	493.38
547.914	483.38
548.127	481.38
548.34	488.38
548.554	458.38
548.767	473.38
548.98	487.38
549.193	469.38
549.407	477.38
549.62	465.38
549.833	475.38
550.046	480.38
550.259	470.38
550.473	483.38
550.686	466.38
550.899	475.38
551.112	484.38
551.325	454.38
551.538	469.38
551.751	486.38
551.964	471.38
552.177	480.38
552.39	465.38
552.603	476.38
552.816	474.38
553.029	470.38
553.242	500.38
553.455	496.38
553.667	493.38
553.88	486.38
554.093	489.38
554.306	490.38
554.519	472.38
554.732	484.38
554.944	466.38
555.157	467.38
555.37	436.38
555.583	434.38
555.795	458.38
556.008	441.38
556.221	455.38
556.433	430.38
556.646	442.38
556.859	417.38
557.071	435.38
557.284	428.38
557.496	437.38
557.709	430.38
557.921	435.38
558.134	420.38
558.346	438.38
558.559	440.38
558.771	416.38
558.984	414.38
559.196	413.38
559.409	415.38
559.621	412.38
559.833	428.38
560.046	438.38
560.258	405.38
560.47	416.38
560.683	440.38
560.895	416.38
561.107	403.38
561.32	389.38
561.532	435.38
561.744	414.38
561.956	425.38
562.168	424.38
562.381	427.38
562.593	427.38
562.805	423.38
563.017	431.38
563.229	446.38
563.441	427.38
563.653	442.38
563.865	419.38
564.077	411.38
564.289	437.38
564.501	432.38
564.713	442.38
564.925	451.38
565.137	472.38
565.349	477.38
565.561	472.38
565.773	476.38
565.985	519.38
566.197	480.38
566.408	488.38
566.62	523.38
566.832	534.38
567.044	566.38
567.255	541.38
567.467	556.38
567.679	567.38
567.891	580.38
568.102	573.38
568.314	566.38
568.526	571.38
568.737	530.38
568.949	501.38
569.161	502.38
569.372	488.38
569.584	466.38
569.795	440.38
570.007	429.38
570.218	457.38
570.43	462.38
570.641	427.38
570.853	407.38
571.064	423.38
571.276	410.38
571.487	401.38
571.698	415.38
571.91	410.38
572.121	406.38
572.333	398.38
572.544	379.38
572.755	386.38
572.966	372.38
573.178	381.38
573.389	360.38
573.6	378.38
573.811	389.38
574.023	370.38
574.234	375.38
574.445	373.38
574.656	363.38
574.867	361.38
575.078	361.38
575.289	385.38
575.501	364.38
575.712	376.38
575.923	355.38
576.134	355.38
576.345	363.38
576.556	362.38
576.767	359.38
576.978	353.38
577.188	352.38
577.399	359.38
577.61	373.38
577.821	344.38
578.032	370.38
578.243	384.38
578.454	547.38
578.665	457.38
578.875	350.38
579.086	349.38
579.297	349.38
579.508	335.38
579.718	343.38
579.929	347.38
580.14	331.38
580.35	349.38
580.561	334.38
580.772	330.38
580.982	334.38
581.193	337.38
581.403	347.38
581.614	345.38
581.825	342.38
582.035	328.38
582.246	319.38
582.456	355.38
582.667	320.38
582.877	319.38
583.087	329.38
583.298	328.38
583.508	323.38
583.719	314.38
583.929	330.38
584.139	308.38
584.35	327.38
584.56	341.38
584.77	328.38
584.981	334.38
585.191	330.38
585.401	343.38
585.611	320.38
585.821	343.38
586.032	333.38
586.242	334.38
586.452	314.38
586.662	330.38
586.872	305.38
587.082	324.38
587.292	344.38
587.502	333.38
587.713	322.38
587.923	316.38
588.133	311.38
588.343	324.38
588.553	320.38
588.762	322.38
588.972	334.38
589.182	359.38
589.392	343.38
589.602	333.38
589.812	322.38
590.022	341.38
590.232	320.38
590.441	319.38
590.651	317.38
590.861	332.38
591.071	309.38
591.281	297.38
591.49	319.38
591.7	337.38
591.91	321.38
592.119	313.38
592.329	344.38
592.539	360.38
592.748	333.38
592.958	342.38
593.167	333.38
593.377	345.38
593.587	363.38
593.796	343.38
594.006	344.38
594.215	334.38
594.424	336.38
594.634	344.38
594.843	326.38
595.053	342.38
595.262	321.38
595.472	312.38
595.681	310.38
595.89	312.38
596.1	315.38
596.309	306.38
596.518	304.38
596.727	305.38
596.937	298.38
597.146	308.38
597.355	313.38
597.564	279.38
597.774	289.38
597.983	302.38
598.192	295.38
598.401	293.38
598.61	283.38
598.819	282.38
599.028	289.38
599.237	283.38
599.446	272.38
599.655	281.38
599.864	271.38
600.073	269.38
600.282	272.38
600.491	272.38
600.7	274.38
600.909	274.38
601.118	269.38
601.327	278.38
601.536	275.38
601.745	280.38
601.953	293.38
602.162	298.38
602.371	269.38
602.58	273.38
602.789	285.38
602.997	255.38
603.206	278.38
603.415	270.38
603.623	250.38
603.832	263.38
604.041	282.38
604.249	248.38
604.458	269.38
604.666	256.38
604.875	247.38
605.084	258.38
605.292	270.38
605.501	268.38
605.709	261.38
605.918	249.38
606.126	258.38
606.334	248.38
606.543	260.38
606.751	272.38
606.96	255.38
607.168	249.38
607.376	236.38
607.585	260.38
607.793	268.38
608.001	254.38
608.21	270.38
608.418	250.38
608.626	268.38
608.834	266.38
609.043	270.38
609.251	247.38
609.459	244.38
609.667	265.38
609.875	264.38
610.083	257.38
610.291	238.38
610.499	264.38
610.707	245.38
610.916	244.38
611.124	264.38
611.332	257.38
611.54	264.38
611.748	258.38
611.955	251.38
612.163	266.38
612.371	272.38
612.579	253.38
612.787	235.38
612.995	241.38
613.203	238.38
613.411	270.38
613.618	258.38
613.826	247.38
614.034	249.38
614.242	247.38
614.449	247.38
614.657	229.38
614.865	252.38
615.072	246.38
615.28	250.38
615.488	243.38
615.695	236.38
615.903	264.38
616.111	251.38
616.318	260.38
616.526	262.38
616.733	244.38
616.941	243.38
617.148	256.38
617.356	252.38
617.563	237.38
617.771	241.38
617.978	234.38
618.185	257.38
618.393	248.38
618.6	252.38
618.807	242.38
619.015	258.38
619.222	236.38
619.429	240.38
619.637	234.38
619.844	232.38
620.051	249.38
620.258	236.38
620.466	244.38
620.673	233.38
620.88	225.38
621.087	218.38
621.294	236.38
621.501	229.38
621.708	227.38
621.915	231.38
622.122	239.38
622.329	222.38
622.536	233.38
622.743	228.38
622.95	235.38
623.157	215.38
623.364	245.38
623.571	244.38
623.778	220.38
623.985	226.38
624.192	237.38
624.399	215.38
624.606	227.38
624.812	229.38
625.019	228.38
625.226	235.38
625.433	232.38
625.639	226.38
625.846	206.38
626.053	228.38
626.259	202.38
626.466	208.38
626.673	207.38
626.879	214.38
627.086	216.38
627.293	210.38
627.499	218.38
627.706	222.38
627.912	220.38
628.119	213.38
628.325	216.38
628.532	216.38
628.738	213.38
628.945	227.38
629.151	202.38
629.357	203.38
629.564	203.38
629.77	210.38
629.976	211.38
630.183	200.38
630.389	202.38
630.595	200.38
630.802	211.38
631.008	192.38
631.214	200.38
631.42	193.38
631.627	202.38
631.833	190.38
632.039	189.38
632.245	184.38
632.451	201.38
632.657	191.38
632.863	185.38
633.069	204.38
633.275	207.38
633.481	185.38
633.688	195.38
633.893	203.38
634.099	199.38
634.305	196.38
634.511	174.38
634.717	188.38
634.923	193.38
635.129	204.38
635.335	194.38
635.541	190.38
635.747	200.38
635.952	182.38
636.158	182.38
636.364	190.38
636.57	202.38
636.775	187.38
636.981	182.38
637.187	190.38
637.392	170.38
637.598	187.38
637.804	201.38
638.009	191.38
638.215	177.38
638.421	195.38
638.626	181.38
638.832	183.38
639.037	186.38
639.243	187.38
639.448	179.38
639.654	182.38
639.859	180.38
640.065	175.38
640.27	170.38
640.475	184.38
640.681	188.38
640.886	183.38
641.091	176.38
641.297	175.38
641.502	167.38
641.707	181.38
641.913	178.38
642.118	193.38
642.323	170.38
642.528	169.38
642.733	164.38
642.939	163.38
643.144	167.38
643.349	180.38
643.554	181.38
643.759	179.38
643.964	165.38
644.169	169.38
644.374	158.38
644.579	192.38
644.784	164.38
644.989	190.38
645.194	172.38
645.399	190.38
645.604	168.38
645.809	178.38
646.014	178.38
646.219	172.38
646.423	184.38
646.628	160.38
646.833	187.38
647.038	170.38
647.243	180.38
647.447	189.38
647.652	176.38
647.857	174.38
648.062	166.38
648.266	174.38
648.471	172.38
648.676	173.38
648.88	164.38
649.085	190.38
649.289	176.38
649.494	176.38
649.698	190.38
649.903	180.38
650.107	193.38
650.312	188.38
650.516	165.38
650.721	161.38
650.925	158.38
651.13	156.38
651.334	142.38
651.539	166.38
651.743	167.38
651.947	170.38
652.152	147.38
652.356	156.38
652.56	152.38
652.764	129.38
652.969	156.38
653.173	134.38
653.377	129.38
653.581	160.38
653.785	162.38
653.99	156.38
654.194	158.38
654.398	153.38
654.602	134.38
654.806	144.38
655.01	143.38
655.214	138.38
655.418	140.38
655.622	137.38
655.826	135.38
656.03	137.38
656.234	150.38
656.438	152.38
656.642	143.38
656.846	123.38
657.049	134.38
657.253	128.38
657.457	131.38
657.661	130.38
657.865	114.38
658.068	115.38
658.272	114.38
658.476	115.38
658.68	100.38
658.883	93.38
659.087	96.38
659.291	111.38
659.494	98.38
659.698	107.38
659.901	109.38
660.105	97.38
660.309	92.38
660.512	97.38
660.716	94.38
660.919	91.38
661.123	92.38
661.326	88.38
661.53	90.38
661.733	76.38
661.936	94.38
662.14	89.38
662.343	91.38
662.546	82.38
662.75	77.38
662.953	77.38
663.156	71.38
663.36	97.38
663.563	98.38
663.766	82.38
663.969	73.38
664.173	90.38
664.376	85.38
664.579	73.38
664.782	81.38
664.985	89.38
665.188	91.38
665.391	91.38
665.594	81.38
665.797	78.38
666	81.38
666.203	80.38
666.406	87.38
666.609	77.38
666.812	81.38
667.015	87.38
667.218	78.38
667.421	77.38
667.624	74.38
667.827	80.38
668.03	84.38
668.232	77.38
668.435	76.38
668.638	89.38
668.841	87.38
669.043	97.38
669.246	80.38
669.449	86.38
669.651	84.38
669.854	74.38
670.057	79.38
670.259	83.38
670.462	95.38
670.665	75.38
670.867	88.38
671.07	76.38
671.272	86.38
671.475	91.38
671.677	83.38
671.88	72.38
672.082	82.38
672.284	72.38
672.487	82.38
672.689	72.38
672.892	84.38
