Data from 1979.PennyLincolnUp.Lamp.En5.5.200Scan.071719.P1_HRD10591_16-18-40-863.txt Node
Date: Thu Jul 18 16:18:40 EDT 2019
User: cochatt
Spectrometer: HR+D1059
Trigger mode: 1
Integration Time (sec): 1.000000E-1
Scans to average: 1
Electric dark correction enabled: true
Nonlinearity correction enabled: false
Boxcar width: 0
XAxis mode: Wavelengths
Number of Pixels in Spectrum: 2048
>>>>>Begin Spectral Data<<<<<
223.165	-14.25
223.4	-14.25
223.635	-14.25
223.869	-25.25
224.104	-26.25
224.338	-18.25
224.573	-17.25
224.808	-0.25
225.042	-1.25
225.277	-10.25
225.511	9.75
225.746	2.75
225.98	-13.25
226.215	16.75
226.449	23.75
226.683	20.75
226.918	22.75
227.152	29.75
227.387	28.75
227.621	44.75
227.856	45.75
228.09	66.75
228.324	48.75
228.559	61.75
228.793	66.75
229.027	88.75
229.262	101.75
229.496	104.75
229.73	122.75
229.964	126.75
230.199	128.75
230.433	108.75
230.667	114.75
230.901	103.75
231.136	100.75
231.37	113.75
231.604	103.75
231.838	106.75
232.072	114.75
232.306	110.75
232.541	112.75
232.775	118.75
233.009	104.75
233.243	97.75
233.477	127.75
233.711	113.75
233.945	136.75
234.179	112.75
234.413	111.75
234.647	101.75
234.881	131.75
235.115	135.75
235.349	143.75
235.583	113.75
235.817	117.75
236.051	117.75
236.285	139.75
236.519	117.75
236.753	128.75
236.987	133.75
237.221	159.75
237.455	206.75
237.689	184.75
237.922	148.75
238.156	130.75
238.39	132.75
238.624	122.75
238.858	121.75
239.091	136.75
239.325	117.75
239.559	126.75
239.793	146.75
240.027	129.75
240.26	137.75
240.494	141.75
240.728	143.75
240.961	146.75
241.195	138.75
241.429	131.75
241.662	130.75
241.896	131.75
242.13	126.75
242.363	137.75
242.597	136.75
242.83	149.75
243.064	134.75
243.298	137.75
243.531	130.75
243.765	134.75
243.998	137.75
244.232	128.75
244.465	135.75
244.699	141.75
244.932	151.75
245.166	141.75
245.399	139.75
245.633	151.75
245.866	138.75
246.099	164.75
246.333	136.75
246.566	136.75
246.8	160.75
247.033	165.75
247.266	165.75
247.5	161.75
247.733	143.75
247.966	177.75
248.2	168.75
248.433	164.75
248.666	163.75
248.899	169.75
249.133	199.75
249.366	196.75
249.599	185.75
249.832	189.75
250.066	173.75
250.299	177.75
250.532	165.75
250.765	193.75
250.998	206.75
251.231	225.75
251.465	211.75
251.698	191.75
251.931	174.75
252.164	184.75
252.397	188.75
252.63	194.75
252.863	176.75
253.096	202.75
253.329	222.75
253.562	208.75
253.795	220.75
254.028	213.75
254.261	210.75
254.494	202.75
254.727	220.75
254.96	258.75
255.193	235.75
255.426	219.75
255.659	199.75
255.892	212.75
256.124	216.75
256.357	220.75
256.59	206.75
256.823	216.75
257.056	218.75
257.289	214.75
257.521	196.75
257.754	183.75
257.987	191.75
258.22	220.75
258.452	210.75
258.685	200.75
258.918	198.75
259.151	204.75
259.383	199.75
259.616	188.75
259.849	196.75
260.081	205.75
260.314	240.75
260.547	239.75
260.779	216.75
261.012	209.75
261.244	209.75
261.477	210.75
261.71	221.75
261.942	222.75
262.175	225.75
262.407	226.75
262.64	196.75
262.872	210.75
263.105	210.75
263.337	198.75
263.57	200.75
263.802	213.75
264.035	214.75
264.267	211.75
264.499	202.75
264.732	210.75
264.964	200.75
265.197	234.75
265.429	207.75
265.661	182.75
265.894	188.75
266.126	214.75
266.358	216.75
266.591	209.75
266.823	215.75
267.055	220.75
267.287	217.75
267.52	210.75
267.752	205.75
267.984	211.75
268.216	221.75
268.448	240.75
268.681	218.75
268.913	230.75
269.145	247.75
269.377	252.75
269.609	237.75
269.841	246.75
270.073	244.75
270.306	279.75
270.538	277.75
270.77	289.75
271.002	281.75
271.234	272.75
271.466	266.75
271.698	288.75
271.93	268.75
272.162	280.75
272.394	290.75
272.626	293.75
272.858	249.75
273.09	250.75
273.322	244.75
273.553	235.75
273.785	250.75
274.017	250.75
274.249	250.75
274.481	244.75
274.713	257.75
274.945	253.75
275.176	241.75
275.408	250.75
275.64	254.75
275.872	250.75
276.104	262.75
276.335	262.75
276.567	253.75
276.799	264.75
277.031	288.75
277.262	306.75
277.494	286.75
277.726	285.75
277.957	272.75
278.189	248.75
278.421	256.75
278.652	265.75
278.884	265.75
279.115	266.75
279.347	251.75
279.579	284.75
279.81	272.75
280.042	261.75
280.273	264.75
280.505	263.75
280.736	259.75
280.968	254.75
281.199	266.75
281.431	266.75
281.662	247.75
281.894	266.75
282.125	270.75
282.356	278.75
282.588	290.75
282.819	294.75
283.051	288.75
283.282	267.75
283.513	289.75
283.745	267.75
283.976	253.75
284.207	270.75
284.439	260.75
284.67	265.75
284.901	262.75
285.132	274.75
285.364	260.75
285.595	274.75
285.826	274.75
286.057	274.75
286.288	258.75
286.52	266.75
286.751	272.75
286.982	279.75
287.213	268.75
287.444	263.75
287.675	267.75
287.906	297.75
288.138	291.75
288.369	286.75
288.6	304.75
288.831	264.75
289.062	303.75
289.293	295.75
289.524	277.75
289.755	282.75
289.986	292.75
290.217	269.75
290.448	288.75
290.679	278.75
290.91	300.75
291.141	278.75
291.371	282.75
291.602	293.75
291.833	290.75
292.064	283.75
292.295	302.75
292.526	288.75
292.757	291.75
292.987	281.75
293.218	301.75
293.449	303.75
293.68	290.75
293.91	289.75
294.141	266.75
294.372	282.75
294.603	302.75
294.833	303.75
295.064	293.75
295.295	300.75
295.525	280.75
295.756	305.75
295.987	284.75
296.217	321.75
296.448	330.75
296.679	313.75
296.909	291.75
297.14	304.75
297.37	292.75
297.601	309.75
297.831	306.75
298.062	309.75
298.292	297.75
298.523	283.75
298.753	292.75
298.984	283.75
299.214	313.75
299.445	315.75
299.675	327.75
299.905	304.75
300.136	307.75
300.366	333.75
300.597	305.75
300.827	312.75
301.057	313.75
301.288	316.75
301.518	323.75
301.748	312.75
301.979	312.75
302.209	312.75
302.439	330.75
302.669	320.75
302.9	330.75
303.13	325.75
303.36	324.75
303.59	336.75
303.82	353.75
304.051	320.75
304.281	325.75
304.511	331.75
304.741	322.75
304.971	338.75
305.201	325.75
305.431	322.75
305.661	337.75
305.891	306.75
306.121	330.75
306.352	338.75
306.582	338.75
306.812	329.75
307.042	334.75
307.272	326.75
307.502	333.75
307.731	351.75
307.961	327.75
308.191	334.75
308.421	353.75
308.651	319.75
308.881	345.75
309.111	346.75
309.341	329.75
309.571	338.75
309.8	352.75
310.03	351.75
310.26	351.75
310.49	351.75
310.72	353.75
310.949	381.75
311.179	380.75
311.409	376.75
311.639	365.75
311.868	358.75
312.098	372.75
312.328	350.75
312.557	364.75
312.787	382.75
313.017	367.75
313.246	388.75
313.476	372.75
313.706	373.75
313.935	389.75
314.165	389.75
314.394	386.75
314.624	376.75
314.853	379.75
315.083	372.75
315.312	370.75
315.542	381.75
315.771	350.75
316.001	362.75
316.23	376.75
316.46	374.75
316.689	365.75
316.919	375.75
317.148	382.75
317.377	380.75
317.607	353.75
317.836	358.75
318.065	364.75
318.295	367.75
318.524	372.75
318.753	371.75
318.983	370.75
319.212	356.75
319.441	359.75
319.67	396.75
319.9	399.75
320.129	381.75
320.358	392.75
320.587	376.75
320.816	399.75
321.046	390.75
321.275	404.75
321.504	384.75
321.733	373.75
321.962	377.75
322.191	392.75
322.42	402.75
322.649	426.75
322.878	406.75
323.108	444.75
323.337	446.75
323.566	477.75
323.795	487.75
324.024	505.75
324.253	598.75
324.482	841.75
324.71	1322.75
324.939	1996.75
325.168	1720.75
325.397	849.75
325.626	589.75
325.855	485.75
326.084	487.75
326.313	465.75
326.542	477.75
326.77	531.75
326.999	588.75
327.228	790.75
327.457	1241.75
327.686	1509.75
327.914	984.75
328.143	645.75
328.372	561.75
328.6	540.75
328.829	522.75
329.058	528.75
329.287	547.75
329.515	513.75
329.744	478.75
329.972	479.75
330.201	493.75
330.43	503.75
330.658	534.75
330.887	551.75
331.115	542.75
331.344	500.75
331.572	487.75
331.801	480.75
332.03	478.75
332.258	473.75
332.486	440.75
332.715	462.75
332.943	437.75
333.172	454.75
333.4	471.75
333.629	454.75
333.857	493.75
334.085	498.75
334.314	496.75
334.542	528.75
334.771	548.75
334.999	508.75
335.227	473.75
335.455	448.75
335.684	458.75
335.912	459.75
336.14	453.75
336.369	452.75
336.597	468.75
336.825	449.75
337.053	442.75
337.281	439.75
337.51	442.75
337.738	440.75
337.966	461.75
338.194	440.75
338.422	445.75
338.65	430.75
338.878	426.75
339.106	452.75
339.334	428.75
339.562	443.75
339.79	440.75
340.018	416.75
340.246	408.75
340.474	423.75
340.702	428.75
340.93	433.75
341.158	423.75
341.386	438.75
341.614	431.75
341.842	454.75
342.07	424.75
342.298	421.75
342.526	421.75
342.754	415.75
342.981	420.75
343.209	414.75
343.437	423.75
343.665	429.75
343.893	425.75
344.12	442.75
344.348	442.75
344.576	439.75
344.804	460.75
345.031	438.75
345.259	451.75
345.487	450.75
345.714	421.75
345.942	414.75
346.17	424.75
346.397	428.75
346.625	413.75
346.853	410.75
347.08	407.75
347.308	426.75
347.535	404.75
347.763	427.75
347.99	423.75
348.218	426.75
348.445	432.75
348.673	436.75
348.9	416.75
349.128	418.75
349.355	400.75
349.583	401.75
349.81	418.75
350.037	396.75
350.265	431.75
350.492	402.75
350.72	404.75
350.947	412.75
351.174	433.75
351.402	440.75
351.629	407.75
351.856	429.75
352.083	422.75
352.311	425.75
352.538	411.75
352.765	431.75
352.992	413.75
353.22	405.75
353.447	420.75
353.674	416.75
353.901	414.75
354.128	396.75
354.355	394.75
354.583	385.75
354.81	370.75
355.037	388.75
355.264	405.75
355.491	414.75
355.718	402.75
355.945	399.75
356.172	400.75
356.399	405.75
356.626	415.75
356.853	400.75
357.08	412.75
357.307	401.75
357.534	394.75
357.761	393.75
357.988	409.75
358.215	379.75
358.441	390.75
358.668	394.75
358.895	420.75
359.122	409.75
359.349	424.75
359.576	410.75
359.802	440.75
360.029	457.75
360.256	472.75
360.483	458.75
360.709	414.75
360.936	428.75
361.163	412.75
361.39	421.75
361.616	411.75
361.843	416.75
362.07	401.75
362.296	419.75
362.523	404.75
362.749	412.75
362.976	404.75
363.203	401.75
363.429	408.75
363.656	401.75
363.882	394.75
364.109	407.75
364.335	382.75
364.562	414.75
364.788	410.75
365.015	414.75
365.241	436.75
365.468	397.75
365.694	422.75
365.92	411.75
366.147	414.75
366.373	425.75
366.599	416.75
366.826	409.75
367.052	392.75
367.278	415.75
367.505	427.75
367.731	399.75
367.957	409.75
368.184	402.75
368.41	407.75
368.636	414.75
368.862	392.75
369.089	396.75
369.315	384.75
369.541	406.75
369.767	393.75
369.993	399.75
370.219	414.75
370.445	397.75
370.672	422.75
370.898	397.75
371.124	438.75
371.35	421.75
371.576	422.75
371.802	407.75
372.028	414.75
372.254	430.75
372.48	430.75
372.706	433.75
372.932	401.75
373.158	414.75
373.384	412.75
373.61	427.75
373.835	425.75
374.061	420.75
374.287	420.75
374.513	431.75
374.739	416.75
374.965	436.75
375.191	454.75
375.416	441.75
375.642	421.75
375.868	419.75
376.094	424.75
376.319	403.75
376.545	418.75
376.771	410.75
376.997	409.75
377.222	413.75
377.448	414.75
377.674	412.75
377.899	422.75
378.125	412.75
378.35	420.75
378.576	402.75
378.802	412.75
379.027	413.75
379.253	402.75
379.478	423.75
379.704	418.75
379.929	418.75
380.155	401.75
380.38	399.75
380.606	429.75
380.831	427.75
381.057	440.75
381.282	437.75
381.507	440.75
381.733	440.75
381.958	428.75
382.184	423.75
382.409	420.75
382.634	440.75
382.86	453.75
383.085	424.75
383.31	436.75
383.535	429.75
383.761	434.75
383.986	442.75
384.211	440.75
384.436	438.75
384.662	460.75
384.887	459.75
385.112	431.75
385.337	452.75
385.562	447.75
385.787	456.75
386.013	487.75
386.238	493.75
386.463	485.75
386.688	479.75
386.913	470.75
387.138	446.75
387.363	443.75
387.588	472.75
387.813	468.75
388.038	449.75
388.263	463.75
388.488	468.75
388.713	480.75
388.938	452.75
389.163	464.75
389.387	470.75
389.612	457.75
389.837	476.75
390.062	472.75
390.287	461.75
390.512	460.75
390.736	469.75
390.961	479.75
391.186	467.75
391.411	493.75
391.636	464.75
391.86	474.75
392.085	482.75
392.31	516.75
392.534	472.75
392.759	500.75
392.984	484.75
393.208	473.75
393.433	470.75
393.658	495.75
393.882	484.75
394.107	474.75
394.331	469.75
394.556	494.75
394.78	486.75
395.005	502.75
395.229	500.75
395.454	489.75
395.678	515.75
395.903	516.75
396.127	510.75
396.352	538.75
396.576	508.75
396.801	504.75
397.025	506.75
397.249	505.75
397.474	522.75
397.698	514.75
397.922	514.75
398.147	537.75
398.371	530.75
398.595	540.75
398.82	551.75
399.044	538.75
399.268	601.75
399.492	633.75
399.717	634.75
399.941	705.75
400.165	666.75
400.389	676.75
400.613	642.75
400.837	570.75
401.062	577.75
401.286	580.75
401.51	550.75
401.734	562.75
401.958	548.75
402.182	574.75
402.406	551.75
402.63	549.75
402.854	560.75
403.078	584.75
403.302	577.75
403.526	580.75
403.75	592.75
403.974	574.75
404.198	593.75
404.422	594.75
404.645	607.75
404.869	596.75
405.093	609.75
405.317	639.75
405.541	700.75
405.765	636.75
405.988	624.75
406.212	637.75
406.436	629.75
406.66	640.75
406.883	650.75
407.107	637.75
407.331	710.75
407.555	752.75
407.778	746.75
408.002	700.75
408.226	657.75
408.449	649.75
408.673	650.75
408.896	657.75
409.12	705.75
409.344	666.75
409.567	640.75
409.791	601.75
410.014	605.75
410.238	553.75
410.461	591.75
410.685	607.75
410.908	626.75
411.132	634.75
411.355	668.75
411.578	654.75
411.802	594.75
412.025	580.75
412.249	588.75
412.472	625.75
412.695	635.75
412.919	606.75
413.142	575.75
413.365	569.75
413.589	578.75
413.812	567.75
414.035	561.75
414.258	578.75
414.482	552.75
414.705	570.75
414.928	563.75
415.151	562.75
415.374	564.75
415.597	551.75
415.821	531.75
416.044	528.75
416.267	541.75
416.49	554.75
416.713	544.75
416.936	545.75
417.159	562.75
417.382	573.75
417.605	550.75
417.828	568.75
418.051	576.75
418.274	571.75
418.497	542.75
418.72	533.75
418.943	564.75
419.166	568.75
419.389	608.75
419.611	612.75
419.834	596.75
420.057	582.75
420.28	586.75
420.503	572.75
420.726	567.75
420.948	593.75
421.171	613.75
421.394	642.75
421.617	595.75
421.839	584.75
422.062	575.75
422.285	556.75
422.507	632.75
422.73	706.75
422.953	680.75
423.175	616.75
423.398	594.75
423.621	581.75
423.843	588.75
424.066	617.75
424.288	602.75
424.511	621.75
424.733	648.75
424.956	766.75
425.178	701.75
425.401	720.75
425.623	713.75
425.846	644.75
426.068	619.75
426.291	611.75
426.513	577.75
426.735	594.75
426.958	633.75
427.18	712.75
427.402	869.75
427.625	910.75
427.847	813.75
428.069	688.75
428.292	637.75
428.514	618.75
428.736	555.75
428.958	587.75
429.181	576.75
429.403	550.75
429.625	569.75
429.847	580.75
430.069	636.75
430.292	649.75
430.514	566.75
430.736	566.75
430.958	561.75
431.18	554.75
431.402	551.75
431.624	530.75
431.846	538.75
432.068	528.75
432.29	549.75
432.512	530.75
432.734	531.75
432.956	561.75
433.178	548.75
433.4	567.75
433.622	530.75
433.844	549.75
434.066	548.75
434.287	555.75
434.509	551.75
434.731	555.75
434.953	587.75
435.175	591.75
435.397	600.75
435.618	598.75
435.84	630.75
436.062	738.75
436.284	778.75
436.505	664.75
436.727	633.75
436.949	574.75
437.17	556.75
437.392	560.75
437.614	574.75
437.835	593.75
438.057	694.75
438.278	746.75
438.5	779.75
438.721	844.75
438.943	818.75
439.165	649.75
439.386	608.75
439.608	598.75
439.829	558.75
440.05	628.75
440.272	664.75
440.493	639.75
440.715	575.75
440.936	562.75
441.158	552.75
441.379	582.75
441.6	600.75
441.822	598.75
442.043	614.75
442.264	706.75
442.486	769.75
442.707	666.75
442.928	644.75
443.149	636.75
443.371	640.75
443.592	673.75
443.813	770.75
444.034	837.75
444.255	732.75
444.476	649.75
444.698	618.75
444.919	601.75
445.14	705.75
445.361	662.75
445.582	657.75
445.803	708.75
446.024	802.75
446.245	815.75
446.466	729.75
446.687	619.75
446.908	592.75
447.129	585.75
447.35	555.75
447.571	556.75
447.792	519.75
448.013	561.75
448.234	551.75
448.455	604.75
448.675	703.75
448.896	817.75
449.117	698.75
449.338	644.75
449.559	751.75
449.779	842.75
450	702.75
450.221	606.75
450.442	569.75
450.662	537.75
450.883	533.75
451.104	543.75
451.324	560.75
451.545	524.75
451.766	508.75
451.986	528.75
452.207	508.75
452.428	519.75
452.648	507.75
452.869	494.75
453.089	515.75
453.31	531.75
453.53	508.75
453.751	527.75
453.971	505.75
454.192	510.75
454.412	511.75
454.633	481.75
454.853	500.75
455.073	501.75
455.294	494.75
455.514	590.75
455.734	566.75
455.955	492.75
456.175	477.75
456.395	469.75
456.616	471.75
456.836	465.75
457.056	456.75
457.276	439.75
457.497	482.75
457.717	496.75
457.937	470.75
458.157	487.75
458.377	464.75
458.598	514.75
458.818	562.75
459.038	630.75
459.258	654.75
459.478	580.75
459.698	544.75
459.918	519.75
460.138	565.75
460.358	549.75
460.578	571.75
460.798	572.75
461.018	532.75
461.238	555.75
461.458	570.75
461.678	566.75
461.898	584.75
462.118	576.75
462.338	594.75
462.558	594.75
462.777	609.75
462.997	616.75
463.217	641.75
463.437	644.75
463.657	620.75
463.876	594.75
464.096	611.75
464.316	611.75
464.536	632.75
464.755	600.75
464.975	615.75
465.195	647.75
465.414	671.75
465.634	626.75
465.854	600.75
466.073	545.75
466.293	543.75
466.512	540.75
466.732	557.75
466.951	522.75
467.171	530.75
467.391	536.75
467.61	537.75
467.829	542.75
468.049	544.75
468.268	534.75
468.488	530.75
468.707	496.75
468.927	530.75
469.146	493.75
469.365	494.75
469.585	494.75
469.804	529.75
470.023	543.75
470.243	539.75
470.462	534.75
470.681	532.75
470.901	555.75
471.12	541.75
471.339	504.75
471.558	540.75
471.777	538.75
471.997	526.75
472.216	517.75
472.435	547.75
472.654	541.75
472.873	534.75
473.092	506.75
473.311	512.75
473.53	515.75
473.749	544.75
473.968	573.75
474.187	645.75
474.406	677.75
474.625	577.75
474.844	528.75
475.063	534.75
475.282	528.75
475.501	538.75
475.72	546.75
475.939	548.75
476.158	518.75
476.377	539.75
476.596	548.75
476.814	556.75
477.033	553.75
477.252	570.75
477.471	563.75
477.69	565.75
477.908	572.75
478.127	584.75
478.346	584.75
478.564	599.75
478.783	597.75
479.002	590.75
479.22	601.75
479.439	613.75
479.658	628.75
479.876	650.75
480.095	645.75
480.313	663.75
480.532	664.75
480.751	665.75
480.969	630.75
481.188	680.75
481.406	730.75
481.624	671.75
481.843	632.75
482.061	608.75
482.28	634.75
482.498	595.75
482.717	633.75
482.935	636.75
483.153	608.75
483.372	608.75
483.59	606.75
483.808	598.75
484.027	627.75
484.245	632.75
484.463	626.75
484.681	624.75
484.9	628.75
485.118	640.75
485.336	656.75
485.554	637.75
485.772	619.75
485.99	651.75
486.209	640.75
486.427	640.75
486.645	638.75
486.863	652.75
487.081	670.75
487.299	643.75
487.517	664.75
487.735	666.75
487.953	640.75
488.171	654.75
488.389	653.75
488.607	681.75
488.825	665.75
489.043	640.75
489.261	682.75
489.479	664.75
489.696	654.75
489.914	677.75
490.132	669.75
490.35	685.75
490.568	690.75
490.786	706.75
491.003	697.75
491.221	720.75
491.439	721.75
491.657	731.75
491.874	709.75
492.092	723.75
492.31	714.75
492.527	749.75
492.745	744.75
492.963	738.75
493.18	729.75
493.398	745.75
493.615	736.75
493.833	756.75
494.05	786.75
494.268	763.75
494.485	779.75
494.703	745.75
494.92	759.75
495.138	765.75
495.355	737.75
495.573	760.75
495.79	761.75
496.008	772.75
496.225	751.75
496.442	762.75
496.66	772.75
496.877	768.75
497.094	812.75
497.312	794.75
497.529	812.75
497.746	808.75
497.963	842.75
498.181	834.75
498.398	877.75
498.615	863.75
498.832	914.75
499.049	913.75
499.267	943.75
499.484	1022.75
499.701	1024.75
499.918	1102.75
500.135	1141.75
500.352	1194.75
500.569	1228.75
500.786	1228.75
501.003	1212.75
501.22	1154.75
501.437	1106.75
501.654	1087.75
501.871	1043.75
502.088	977.75
502.305	968.75
502.522	912.75
502.739	914.75
502.956	878.75
503.172	873.75
503.389	850.75
503.606	849.75
503.823	836.75
504.04	816.75
504.256	798.75
504.473	816.75
504.69	810.75
504.907	821.75
505.123	792.75
505.34	791.75
505.557	751.75
505.773	732.75
505.99	737.75
506.207	719.75
506.423	737.75
506.64	728.75
506.856	710.75
507.073	688.75
507.289	713.75
507.506	722.75
507.722	730.75
507.939	712.75
508.155	703.75
508.372	712.75
508.588	704.75
508.805	698.75
509.021	688.75
509.238	702.75
509.454	689.75
509.67	682.75
509.887	677.75
510.103	678.75
510.319	687.75
510.536	766.75
510.752	1204.75
510.968	1006.75
511.184	702.75
511.401	648.75
511.617	677.75
511.833	648.75
512.049	633.75
512.265	655.75
512.481	652.75
512.698	641.75
512.914	657.75
513.13	629.75
513.346	650.75
513.562	646.75
513.778	650.75
513.994	649.75
514.21	682.75
514.426	687.75
514.642	717.75
514.858	726.75
515.074	750.75
515.29	864.75
515.506	1240.75
515.721	1076.75
515.937	791.75
516.153	718.75
516.369	708.75
516.585	713.75
516.801	717.75
517.016	714.75
517.232	704.75
517.448	714.75
517.664	719.75
517.879	689.75
518.095	721.75
518.311	696.75
518.527	690.75
518.742	684.75
518.958	688.75
519.173	703.75
519.389	672.75
519.605	649.75
519.82	648.75
520.036	672.75
520.251	684.75
520.467	694.75
520.682	675.75
520.898	704.75
521.113	727.75
521.329	727.75
521.544	821.75
521.76	994.75
521.975	1561.75
522.19	1583.75
522.406	909.75
522.621	698.75
522.836	678.75
523.052	646.75
523.267	621.75
523.482	642.75
523.698	620.75
523.913	593.75
524.128	609.75
524.343	585.75
524.559	593.75
524.774	563.75
524.989	576.75
525.204	595.75
525.419	588.75
525.634	584.75
525.849	580.75
526.064	594.75
526.28	540.75
526.495	555.75
526.71	559.75
526.925	568.75
527.14	542.75
527.355	566.75
527.57	554.75
527.785	549.75
527.999	553.75
528.214	542.75
528.429	543.75
528.644	569.75
528.859	550.75
529.074	571.75
529.289	570.75
529.503	634.75
529.718	622.75
529.933	570.75
530.148	574.75
530.363	559.75
530.577	546.75
530.792	521.75
531.007	542.75
531.221	534.75
531.436	535.75
531.651	552.75
531.865	547.75
532.08	548.75
532.295	555.75
532.509	531.75
532.724	522.75
532.938	530.75
533.153	519.75
533.367	520.75
533.582	546.75
533.796	532.75
534.011	538.75
534.225	530.75
534.44	509.75
534.654	523.75
534.868	534.75
535.083	525.75
535.297	513.75
535.511	507.75
535.726	530.75
535.94	549.75
536.154	528.75
536.369	526.75
536.583	507.75
536.797	516.75
537.011	493.75
537.225	514.75
537.44	504.75
537.654	520.75
537.868	505.75
538.082	513.75
538.296	517.75
538.51	508.75
538.724	523.75
538.938	502.75
539.153	531.75
539.367	507.75
539.581	511.75
539.795	503.75
540.009	485.75
540.222	510.75
540.436	504.75
540.65	483.75
540.864	505.75
541.078	528.75
541.292	497.75
541.506	529.75
541.72	500.75
541.934	506.75
542.147	506.75
542.361	495.75
542.575	488.75
542.789	521.75
543.002	492.75
543.216	493.75
543.43	513.75
543.644	508.75
543.857	489.75
544.071	511.75
544.285	507.75
544.498	495.75
544.712	500.75
544.925	526.75
545.139	497.75
545.352	508.75
545.566	494.75
545.779	487.75
545.993	494.75
546.206	507.75
546.42	500.75
546.633	496.75
546.847	514.75
547.06	506.75
547.274	490.75
547.487	464.75
547.7	492.75
547.914	498.75
548.127	480.75
548.34	488.75
548.554	486.75
548.767	475.75
548.98	494.75
549.193	486.75
549.407	521.75
549.62	518.75
549.833	493.75
550.046	463.75
550.259	480.75
550.473	476.75
550.686	504.75
550.899	500.75
551.112	482.75
551.325	489.75
551.538	461.75
551.751	488.75
551.964	476.75
552.177	465.75
552.39	511.75
552.603	480.75
552.816	510.75
553.029	506.75
553.242	477.75
553.455	510.75
553.667	506.75
553.88	531.75
554.093	493.75
554.306	502.75
554.519	487.75
554.732	476.75
554.944	504.75
555.157	477.75
555.37	464.75
555.583	444.75
555.795	481.75
556.008	462.75
556.221	444.75
556.433	451.75
556.646	449.75
556.859	455.75
557.071	456.75
557.284	447.75
557.496	442.75
557.709	451.75
557.921	426.75
558.134	448.75
558.346	432.75
558.559	439.75
558.771	420.75
558.984	424.75
559.196	433.75
559.409	458.75
559.621	437.75
559.833	433.75
560.046	436.75
560.258	434.75
560.47	425.75
560.683	430.75
560.895	444.75
561.107	433.75
561.32	422.75
561.532	433.75
561.744	447.75
561.956	437.75
562.168	428.75
562.381	436.75
562.593	418.75
562.805	446.75
563.017	438.75
563.229	428.75
563.441	442.75
563.653	422.75
563.865	445.75
564.077	448.75
564.289	454.75
564.501	450.75
564.713	445.75
564.925	478.75
565.137	476.75
565.349	457.75
565.561	468.75
565.773	500.75
565.985	496.75
566.197	488.75
566.408	535.75
566.62	533.75
566.832	567.75
567.044	547.75
567.255	558.75
567.467	575.75
567.679	563.75
567.891	635.75
568.102	605.75
568.314	578.75
568.526	543.75
568.737	529.75
568.949	519.75
569.161	482.75
569.372	479.75
569.584	479.75
569.795	436.75
570.007	452.75
570.218	507.75
570.43	469.75
570.641	460.75
570.853	431.75
571.064	436.75
571.276	425.75
571.487	402.75
571.698	405.75
571.91	428.75
572.121	408.75
572.333	396.75
572.544	402.75
572.755	418.75
572.966	398.75
573.178	391.75
573.389	382.75
573.6	400.75
573.811	382.75
574.023	384.75
574.234	399.75
574.445	392.75
574.656	380.75
574.867	408.75
575.078	372.75
575.289	380.75
575.501	368.75
575.712	358.75
575.923	368.75
576.134	352.75
576.345	379.75
576.556	384.75
576.767	383.75
576.978	379.75
577.188	347.75
577.399	354.75
577.61	343.75
577.821	349.75
578.032	378.75
578.243	406.75
578.454	582.75
578.665	461.75
578.875	353.75
579.086	344.75
579.297	346.75
579.508	349.75
579.718	349.75
579.929	346.75
580.14	355.75
580.35	352.75
580.561	358.75
580.772	346.75
580.982	354.75
581.193	334.75
581.403	343.75
581.614	328.75
581.825	356.75
582.035	334.75
582.246	354.75
582.456	354.75
582.667	354.75
582.877	346.75
583.087	321.75
583.298	348.75
583.508	334.75
583.719	342.75
583.929	340.75
584.139	338.75
584.35	312.75
584.56	339.75
584.77	352.75
584.981	333.75
585.191	319.75
585.401	358.75
585.611	306.75
585.821	338.75
586.032	326.75
586.242	335.75
586.452	326.75
586.662	336.75
586.872	349.75
587.082	343.75
587.292	345.75
587.502	311.75
587.713	329.75
587.923	324.75
588.133	333.75
588.343	326.75
588.553	324.75
588.762	334.75
588.972	329.75
589.182	352.75
589.392	363.75
589.602	331.75
589.812	360.75
590.022	347.75
590.232	330.75
590.441	344.75
590.651	328.75
590.861	323.75
591.071	326.75
591.281	328.75
591.49	325.75
591.7	347.75
591.91	327.75
592.119	346.75
592.329	342.75
592.539	350.75
592.748	357.75
592.958	342.75
593.167	366.75
593.377	366.75
593.587	376.75
593.796	361.75
594.006	357.75
594.215	361.75
594.424	357.75
594.634	354.75
594.843	350.75
595.053	334.75
595.262	348.75
595.472	337.75
595.681	326.75
595.89	331.75
596.1	316.75
596.309	301.75
596.518	301.75
596.727	321.75
596.937	311.75
597.146	317.75
597.355	303.75
597.564	318.75
597.774	305.75
597.983	307.75
598.192	284.75
598.401	296.75
598.61	301.75
598.819	290.75
599.028	292.75
599.237	296.75
599.446	300.75
599.655	301.75
599.864	293.75
600.073	281.75
600.282	285.75
600.491	273.75
600.7	278.75
600.909	300.75
601.118	297.75
601.327	282.75
601.536	287.75
601.745	270.75
601.953	279.75
602.162	268.75
602.371	274.75
602.58	269.75
602.789	288.75
602.997	288.75
603.206	271.75
603.415	264.75
603.623	281.75
603.832	278.75
604.041	280.75
604.249	264.75
604.458	285.75
604.666	264.75
604.875	252.75
605.084	280.75
605.292	273.75
605.501	267.75
605.709	273.75
605.918	261.75
606.126	266.75
606.334	251.75
606.543	264.75
606.751	267.75
606.96	261.75
607.168	259.75
607.376	275.75
607.585	261.75
607.793	272.75
608.001	252.75
608.21	253.75
608.418	270.75
608.626	262.75
608.834	264.75
609.043	258.75
609.251	264.75
609.459	247.75
609.667	245.75
609.875	258.75
610.083	276.75
610.291	268.75
610.499	244.75
610.707	261.75
610.916	241.75
611.124	252.75
611.332	274.75
611.54	283.75
611.748	270.75
611.955	260.75
612.163	262.75
612.371	270.75
612.579	266.75
612.787	258.75
612.995	273.75
613.203	258.75
613.411	268.75
613.618	258.75
613.826	259.75
614.034	263.75
614.242	249.75
614.449	238.75
614.657	245.75
614.865	268.75
615.072	264.75
615.28	269.75
615.488	262.75
615.695	247.75
615.903	261.75
616.111	282.75
616.318	258.75
616.526	245.75
616.733	248.75
616.941	256.75
617.148	251.75
617.356	254.75
617.563	260.75
617.771	267.75
617.978	249.75
618.185	254.75
618.393	236.75
618.6	266.75
618.807	262.75
619.015	244.75
619.222	269.75
619.429	252.75
619.637	260.75
619.844	247.75
620.051	260.75
620.258	238.75
620.466	249.75
620.673	233.75
620.88	235.75
621.087	253.75
621.294	248.75
621.501	254.75
621.708	235.75
621.915	252.75
622.122	245.75
622.329	244.75
622.536	234.75
622.743	227.75
622.95	212.75
623.157	231.75
623.364	236.75
623.571	235.75
623.778	242.75
623.985	235.75
624.192	249.75
624.399	232.75
624.606	215.75
624.812	217.75
625.019	219.75
625.226	234.75
625.433	224.75
625.639	228.75
625.846	228.75
626.053	218.75
626.259	210.75
626.466	230.75
626.673	216.75
626.879	231.75
627.086	221.75
627.293	234.75
627.499	222.75
627.706	240.75
627.912	226.75
628.119	228.75
628.325	216.75
628.532	221.75
628.738	213.75
628.945	212.75
629.151	220.75
629.357	226.75
629.564	205.75
629.77	206.75
629.976	206.75
630.183	213.75
630.389	199.75
630.595	225.75
630.802	207.75
631.008	209.75
631.214	204.75
631.42	227.75
631.627	209.75
631.833	210.75
632.039	202.75
632.245	202.75
632.451	207.75
632.657	212.75
632.863	216.75
633.069	219.75
633.275	214.75
633.481	190.75
633.688	192.75
633.893	190.75
634.099	199.75
634.305	212.75
634.511	203.75
634.717	200.75
634.923	211.75
635.129	193.75
635.335	191.75
635.541	189.75
635.747	194.75
635.952	189.75
636.158	194.75
636.364	202.75
636.57	222.75
636.775	188.75
636.981	192.75
637.187	193.75
637.392	199.75
637.598	215.75
637.804	199.75
638.009	191.75
638.215	203.75
638.421	185.75
638.626	196.75
638.832	188.75
639.037	181.75
639.243	181.75
639.448	185.75
639.654	192.75
639.859	193.75
640.065	174.75
640.27	192.75
640.475	188.75
640.681	180.75
640.886	186.75
641.091	177.75
641.297	193.75
641.502	175.75
641.707	181.75
641.913	200.75
642.118	186.75
642.323	184.75
642.528	191.75
642.733	189.75
642.939	188.75
643.144	177.75
643.349	186.75
643.554	180.75
643.759	170.75
643.964	170.75
644.169	174.75
644.374	182.75
644.579	190.75
644.784	188.75
644.989	177.75
645.194	160.75
645.399	181.75
645.604	166.75
645.809	178.75
646.014	165.75
646.219	175.75
646.423	186.75
646.628	194.75
646.833	180.75
647.038	170.75
647.243	188.75
647.447	176.75
647.652	181.75
647.857	164.75
648.062	182.75
648.266	193.75
648.471	184.75
648.676	194.75
648.88	182.75
649.085	173.75
649.289	176.75
649.494	190.75
649.698	199.75
649.903	199.75
650.107	173.75
650.312	182.75
650.516	168.75
650.721	172.75
650.925	172.75
651.13	188.75
651.334	146.75
651.539	145.75
651.743	155.75
651.947	171.75
652.152	150.75
652.356	152.75
652.56	146.75
652.764	161.75
652.969	158.75
653.173	169.75
653.377	144.75
653.581	145.75
653.785	139.75
653.99	142.75
654.194	154.75
654.398	147.75
654.602	144.75
654.806	152.75
655.01	171.75
655.214	160.75
655.418	151.75
655.622	155.75
655.826	131.75
656.03	140.75
656.234	158.75
656.438	156.75
656.642	137.75
656.846	150.75
657.049	148.75
657.253	133.75
657.457	122.75
657.661	120.75
657.865	140.75
658.068	132.75
658.272	119.75
658.476	112.75
658.68	122.75
658.883	113.75
659.087	104.75
659.291	96.75
659.494	92.75
659.698	105.75
659.901	101.75
660.105	112.75
660.309	110.75
660.512	117.75
660.716	111.75
660.919	100.75
661.123	99.75
661.326	95.75
661.53	89.75
661.733	86.75
661.936	96.75
662.14	93.75
662.343	87.75
662.546	79.75
662.75	86.75
662.953	94.75
663.156	92.75
663.36	72.75
663.563	97.75
663.766	86.75
663.969	78.75
664.173	80.75
664.376	82.75
664.579	84.75
664.782	107.75
664.985	90.75
665.188	94.75
665.391	100.75
665.594	81.75
665.797	95.75
666	72.75
666.203	80.75
666.406	72.75
666.609	72.75
666.812	97.75
667.015	95.75
667.218	86.75
667.421	100.75
667.624	81.75
667.827	81.75
668.03	96.75
668.232	91.75
668.435	86.75
668.638	89.75
668.841	76.75
669.043	88.75
669.246	85.75
669.449	85.75
669.651	75.75
669.854	89.75
670.057	90.75
670.259	92.75
670.462	80.75
670.665	92.75
670.867	81.75
671.07	100.75
671.272	85.75
671.475	87.75
671.677	85.75
671.88	82.75
672.082	92.75
672.284	93.75
672.487	72.75
672.689	92.75
672.892	79.75
