Data from 1979.PennyLincolnUp.Lamp.En5.5.200Scan.071719.P1_HRD10591_16-18-47-863.txt Node
Date: Thu Jul 18 16:18:47 EDT 2019
User: cochatt
Spectrometer: HR+D1059
Trigger mode: 1
Integration Time (sec): 1.000000E-1
Scans to average: 1
Electric dark correction enabled: true
Nonlinearity correction enabled: false
Boxcar width: 0
XAxis mode: Wavelengths
Number of Pixels in Spectrum: 2048
>>>>>Begin Spectral Data<<<<<
223.165	-5.62
223.4	-5.62
223.635	-5.62
223.869	-22.62
224.104	-12.62
224.338	-7.62
224.573	-15.62
224.808	-1.62
225.042	-16.62
225.277	-11.62
225.511	-3.62
225.746	14.38
225.98	5.38
226.215	8.38
226.449	12.38
226.683	15.38
226.918	24.38
227.152	17.38
227.387	39.38
227.621	45.38
227.856	53.38
228.09	52.38
228.324	30.38
228.559	44.38
228.793	60.38
229.027	102.38
229.262	111.38
229.496	119.38
229.73	120.38
229.964	152.38
230.199	128.38
230.433	101.38
230.667	116.38
230.901	122.38
231.136	110.38
231.37	119.38
231.604	111.38
231.838	109.38
232.072	120.38
232.306	114.38
232.541	116.38
232.775	118.38
233.009	115.38
233.243	122.38
233.477	123.38
233.711	105.38
233.945	110.38
234.179	115.38
234.413	116.38
234.647	122.38
234.881	116.38
235.115	128.38
235.349	115.38
235.583	97.38
235.817	114.38
236.051	130.38
236.285	115.38
236.519	124.38
236.753	128.38
236.987	135.38
237.221	172.38
237.455	216.38
237.689	173.38
237.922	142.38
238.156	128.38
238.39	120.38
238.624	117.38
238.858	109.38
239.091	112.38
239.325	111.38
239.559	118.38
239.793	125.38
240.027	134.38
240.26	132.38
240.494	139.38
240.728	152.38
240.961	144.38
241.195	122.38
241.429	114.38
241.662	140.38
241.896	147.38
242.13	120.38
242.363	124.38
242.597	133.38
242.83	128.38
243.064	136.38
243.298	117.38
243.531	144.38
243.765	135.38
243.998	139.38
244.232	143.38
244.465	144.38
244.699	151.38
244.932	156.38
245.166	156.38
245.399	136.38
245.633	168.38
245.866	156.38
246.099	162.38
246.333	135.38
246.566	138.38
246.8	146.38
247.033	150.38
247.266	145.38
247.5	159.38
247.733	164.38
247.966	152.38
248.2	160.38
248.433	173.38
248.666	157.38
248.899	193.38
249.133	192.38
249.366	183.38
249.599	186.38
249.832	166.38
250.066	179.38
250.299	184.38
250.532	190.38
250.765	195.38
250.998	213.38
251.231	198.38
251.465	199.38
251.698	185.38
251.931	198.38
252.164	180.38
252.397	181.38
252.63	190.38
252.863	203.38
253.096	191.38
253.329	207.38
253.562	216.38
253.795	192.38
254.028	199.38
254.261	202.38
254.494	217.38
254.727	222.38
254.96	259.38
255.193	253.38
255.426	228.38
255.659	202.38
255.892	204.38
256.124	225.38
256.357	221.38
256.59	219.38
256.823	225.38
257.056	206.38
257.289	201.38
257.521	213.38
257.754	207.38
257.987	212.38
258.22	218.38
258.452	204.38
258.685	188.38
258.918	201.38
259.151	199.38
259.383	215.38
259.616	208.38
259.849	219.38
260.081	207.38
260.314	211.38
260.547	224.38
260.779	234.38
261.012	209.38
261.244	218.38
261.477	210.38
261.71	203.38
261.942	203.38
262.175	222.38
262.407	225.38
262.64	204.38
262.872	208.38
263.105	203.38
263.337	204.38
263.57	226.38
263.802	202.38
264.035	198.38
264.267	204.38
264.499	200.38
264.732	236.38
264.964	204.38
265.197	219.38
265.429	212.38
265.661	189.38
265.894	190.38
266.126	211.38
266.358	221.38
266.591	206.38
266.823	228.38
267.055	221.38
267.287	221.38
267.52	224.38
267.752	219.38
267.984	223.38
268.216	227.38
268.448	226.38
268.681	229.38
268.913	242.38
269.145	233.38
269.377	259.38
269.609	249.38
269.841	244.38
270.073	248.38
270.306	260.38
270.538	278.38
270.77	281.38
271.002	283.38
271.234	266.38
271.466	272.38
271.698	282.38
271.93	308.38
272.162	286.38
272.394	290.38
272.626	286.38
272.858	273.38
273.09	278.38
273.322	271.38
273.553	239.38
273.785	248.38
274.017	236.38
274.249	244.38
274.481	256.38
274.713	235.38
274.945	270.38
275.176	257.38
275.408	262.38
275.64	254.38
275.872	250.38
276.104	267.38
276.335	263.38
276.567	272.38
276.799	272.38
277.031	279.38
277.262	296.38
277.494	294.38
277.726	266.38
277.957	266.38
278.189	283.38
278.421	252.38
278.652	267.38
278.884	249.38
279.115	257.38
279.347	249.38
279.579	268.38
279.81	259.38
280.042	243.38
280.273	272.38
280.505	250.38
280.736	271.38
280.968	253.38
281.199	270.38
281.431	270.38
281.662	268.38
281.894	260.38
282.125	264.38
282.356	274.38
282.588	300.38
282.819	287.38
283.051	266.38
283.282	251.38
283.513	258.38
283.745	267.38
283.976	251.38
284.207	252.38
284.439	262.38
284.67	283.38
284.901	279.38
285.132	277.38
285.364	285.38
285.595	272.38
285.826	246.38
286.057	256.38
286.288	280.38
286.52	273.38
286.751	273.38
286.982	275.38
287.213	258.38
287.444	284.38
287.675	278.38
287.906	279.38
288.138	296.38
288.369	303.38
288.6	298.38
288.831	300.38
289.062	290.38
289.293	287.38
289.524	272.38
289.755	297.38
289.986	282.38
290.217	291.38
290.448	271.38
290.679	294.38
290.91	299.38
291.141	291.38
291.371	283.38
291.602	291.38
291.833	278.38
292.064	278.38
292.295	284.38
292.526	278.38
292.757	313.38
292.987	294.38
293.218	265.38
293.449	275.38
293.68	290.38
293.91	283.38
294.141	278.38
294.372	287.38
294.603	278.38
294.833	298.38
295.064	302.38
295.295	311.38
295.525	294.38
295.756	296.38
295.987	323.38
296.217	313.38
296.448	333.38
296.679	320.38
296.909	286.38
297.14	287.38
297.37	291.38
297.601	312.38
297.831	297.38
298.062	299.38
298.292	312.38
298.523	298.38
298.753	302.38
298.984	300.38
299.214	296.38
299.445	318.38
299.675	298.38
299.905	320.38
300.136	315.38
300.366	324.38
300.597	325.38
300.827	298.38
301.057	324.38
301.288	334.38
301.518	304.38
301.748	311.38
301.979	298.38
302.209	340.38
302.439	306.38
302.669	322.38
302.9	331.38
303.13	321.38
303.36	346.38
303.59	313.38
303.82	348.38
304.051	342.38
304.281	334.38
304.511	330.38
304.741	319.38
304.971	331.38
305.201	326.38
305.431	300.38
305.661	332.38
305.891	333.38
306.121	325.38
306.352	334.38
306.582	325.38
306.812	334.38
307.042	334.38
307.272	314.38
307.502	316.38
307.731	345.38
307.961	319.38
308.191	335.38
308.421	339.38
308.651	325.38
308.881	328.38
309.111	356.38
309.341	347.38
309.571	356.38
309.8	334.38
310.03	356.38
310.26	358.38
310.49	378.38
310.72	378.38
310.949	371.38
311.179	384.38
311.409	387.38
311.639	353.38
311.868	380.38
312.098	373.38
312.328	362.38
312.557	396.38
312.787	390.38
313.017	383.38
313.246	385.38
313.476	374.38
313.706	361.38
313.935	372.38
314.165	388.38
314.394	398.38
314.624	389.38
314.853	380.38
315.083	368.38
315.312	378.38
315.542	376.38
315.771	375.38
316.001	364.38
316.23	370.38
316.46	378.38
316.689	379.38
316.919	359.38
317.148	400.38
317.377	390.38
317.607	366.38
317.836	376.38
318.065	364.38
318.295	365.38
318.524	365.38
318.753	361.38
318.983	373.38
319.212	361.38
319.441	388.38
319.67	386.38
319.9	379.38
320.129	376.38
320.358	374.38
320.587	370.38
320.816	364.38
321.046	388.38
321.275	389.38
321.504	395.38
321.733	395.38
321.962	393.38
322.191	400.38
322.42	443.38
322.649	427.38
322.878	401.38
323.108	437.38
323.337	463.38
323.566	477.38
323.795	470.38
324.024	543.38
324.253	621.38
324.482	878.38
324.71	1369.38
324.939	2062.38
325.168	1760.38
325.397	879.38
325.626	589.38
325.855	539.38
326.084	468.38
326.313	465.38
326.542	464.38
326.77	530.38
326.999	590.38
327.228	810.38
327.457	1251.38
327.686	1581.38
327.914	1010.38
328.143	658.38
328.372	578.38
328.6	551.38
328.829	516.38
329.058	544.38
329.287	534.38
329.515	533.38
329.744	485.38
329.972	470.38
330.201	475.38
330.43	523.38
330.658	544.38
330.887	553.38
331.115	556.38
331.344	496.38
331.572	489.38
331.801	472.38
332.03	502.38
332.258	444.38
332.486	463.38
332.715	451.38
332.943	456.38
333.172	446.38
333.4	476.38
333.629	492.38
333.857	498.38
334.085	469.38
334.314	519.38
334.542	504.38
334.771	548.38
334.999	488.38
335.227	482.38
335.455	484.38
335.684	459.38
335.912	453.38
336.14	472.38
336.369	453.38
336.597	450.38
336.825	483.38
337.053	463.38
337.281	445.38
337.51	448.38
337.738	441.38
337.966	438.38
338.194	442.38
338.422	442.38
338.65	435.38
338.878	443.38
339.106	439.38
339.334	437.38
339.562	423.38
339.79	426.38
340.018	415.38
340.246	445.38
340.474	448.38
340.702	453.38
340.93	426.38
341.158	438.38
341.386	427.38
341.614	422.38
341.842	424.38
342.07	440.38
342.298	424.38
342.526	415.38
342.754	415.38
342.981	422.38
343.209	415.38
343.437	426.38
343.665	436.38
343.893	455.38
344.12	442.38
344.348	441.38
344.576	450.38
344.804	459.38
345.031	454.38
345.259	460.38
345.487	448.38
345.714	445.38
345.942	430.38
346.17	430.38
346.397	409.38
346.625	413.38
346.853	399.38
347.08	430.38
347.308	423.38
347.535	427.38
347.763	438.38
347.99	431.38
348.218	430.38
348.445	439.38
348.673	438.38
348.9	415.38
349.128	413.38
349.355	422.38
349.583	411.38
349.81	419.38
350.037	404.38
350.265	415.38
350.492	408.38
350.72	382.38
350.947	414.38
351.174	414.38
351.402	441.38
351.629	427.38
351.856	425.38
352.083	440.38
352.311	417.38
352.538	425.38
352.765	421.38
352.992	435.38
353.22	424.38
353.447	412.38
353.674	436.38
353.901	420.38
354.128	382.38
354.355	386.38
354.583	392.38
354.81	394.38
355.037	383.38
355.264	391.38
355.491	389.38
355.718	397.38
355.945	391.38
356.172	401.38
356.399	406.38
356.626	405.38
356.853	396.38
357.08	408.38
357.307	404.38
357.534	388.38
357.761	409.38
357.988	398.38
358.215	392.38
358.441	408.38
358.668	397.38
358.895	398.38
359.122	430.38
359.349	397.38
359.576	419.38
359.802	454.38
360.029	459.38
360.256	473.38
360.483	448.38
360.709	426.38
360.936	427.38
361.163	423.38
361.39	429.38
361.616	438.38
361.843	426.38
362.07	405.38
362.296	431.38
362.523	418.38
362.749	410.38
362.976	419.38
363.203	400.38
363.429	416.38
363.656	405.38
363.882	415.38
364.109	405.38
364.335	390.38
364.562	420.38
364.788	408.38
365.015	417.38
365.241	391.38
365.468	404.38
365.694	428.38
365.92	416.38
366.147	414.38
366.373	425.38
366.599	408.38
366.826	423.38
367.052	411.38
367.278	412.38
367.505	392.38
367.731	418.38
367.957	426.38
368.184	416.38
368.41	427.38
368.636	406.38
368.862	442.38
369.089	421.38
369.315	413.38
369.541	425.38
369.767	421.38
369.993	417.38
370.219	413.38
370.445	400.38
370.672	422.38
370.898	396.38
371.124	415.38
371.35	390.38
371.576	398.38
371.802	421.38
372.028	407.38
372.254	421.38
372.48	408.38
372.706	438.38
372.932	422.38
373.158	420.38
373.384	420.38
373.61	424.38
373.835	414.38
374.061	420.38
374.287	428.38
374.513	434.38
374.739	427.38
374.965	452.38
375.191	429.38
375.416	436.38
375.642	440.38
375.868	431.38
376.094	419.38
376.319	425.38
376.545	417.38
376.771	421.38
376.997	415.38
377.222	430.38
377.448	423.38
377.674	430.38
377.899	397.38
378.125	418.38
378.35	404.38
378.576	408.38
378.802	425.38
379.027	423.38
379.253	416.38
379.478	411.38
379.704	420.38
379.929	426.38
380.155	423.38
380.38	444.38
380.606	415.38
380.831	418.38
381.057	426.38
381.282	440.38
381.507	434.38
381.733	422.38
381.958	428.38
382.184	428.38
382.409	437.38
382.634	435.38
382.86	417.38
383.085	444.38
383.31	422.38
383.535	428.38
383.761	421.38
383.986	442.38
384.211	440.38
384.436	443.38
384.662	445.38
384.887	460.38
385.112	484.38
385.337	458.38
385.562	477.38
385.787	464.38
386.013	490.38
386.238	485.38
386.463	469.38
386.688	460.38
386.913	458.38
387.138	455.38
387.363	475.38
387.588	477.38
387.813	502.38
388.038	483.38
388.263	474.38
388.488	489.38
388.713	458.38
388.938	463.38
389.163	478.38
389.387	462.38
389.612	476.38
389.837	485.38
390.062	466.38
390.287	467.38
390.512	468.38
390.736	477.38
390.961	484.38
391.186	467.38
391.411	483.38
391.636	468.38
391.86	500.38
392.085	517.38
392.31	491.38
392.534	489.38
392.759	470.38
392.984	480.38
393.208	471.38
393.433	475.38
393.658	490.38
393.882	485.38
394.107	489.38
394.331	474.38
394.556	471.38
394.78	487.38
395.005	493.38
395.229	500.38
395.454	515.38
395.678	480.38
395.903	503.38
396.127	525.38
396.352	536.38
396.576	501.38
396.801	490.38
397.025	518.38
397.249	514.38
397.474	501.38
397.698	514.38
397.922	518.38
398.147	556.38
398.371	555.38
398.595	542.38
398.82	552.38
399.044	578.38
399.268	589.38
399.492	638.38
399.717	654.38
399.941	672.38
400.165	712.38
400.389	679.38
400.613	629.38
400.837	576.38
401.062	574.38
401.286	563.38
401.51	574.38
401.734	543.38
401.958	575.38
402.182	572.38
402.406	555.38
402.63	582.38
402.854	556.38
403.078	580.38
403.302	578.38
403.526	580.38
403.75	596.38
403.974	581.38
404.198	591.38
404.422	586.38
404.645	606.38
404.869	612.38
405.093	646.38
405.317	652.38
405.541	674.38
405.765	648.38
405.988	623.38
406.212	631.38
406.436	648.38
406.66	678.38
406.883	633.38
407.107	644.38
407.331	681.38
407.555	759.38
407.778	760.38
408.002	698.38
408.226	656.38
408.449	670.38
408.673	656.38
408.896	646.38
409.12	703.38
409.344	683.38
409.567	595.38
409.791	620.38
410.014	615.38
410.238	591.38
410.461	582.38
410.685	581.38
410.908	596.38
411.132	628.38
411.355	642.38
411.578	630.38
411.802	616.38
412.025	580.38
412.249	620.38
412.472	627.38
412.695	660.38
412.919	638.38
413.142	590.38
413.365	588.38
413.589	586.38
413.812	559.38
414.035	580.38
414.258	556.38
414.482	542.38
414.705	568.38
414.928	585.38
415.151	573.38
415.374	562.38
415.597	550.38
415.821	556.38
416.044	545.38
416.267	555.38
416.49	552.38
416.713	546.38
416.936	546.38
417.159	552.38
417.382	567.38
417.605	565.38
417.828	573.38
418.051	578.38
418.274	565.38
418.497	557.38
418.72	569.38
418.943	572.38
419.166	584.38
419.389	618.38
419.611	610.38
419.834	591.38
420.057	592.38
420.28	565.38
420.503	568.38
420.726	574.38
420.948	596.38
421.171	620.38
421.394	642.38
421.617	579.38
421.839	586.38
422.062	583.38
422.285	588.38
422.507	617.38
422.73	710.38
422.953	700.38
423.175	621.38
423.398	591.38
423.621	615.38
423.843	608.38
424.066	626.38
424.288	598.38
424.511	640.38
424.733	669.38
424.956	748.38
425.178	703.38
425.401	712.38
425.623	735.38
425.846	642.38
426.068	626.38
426.291	604.38
426.513	610.38
426.735	628.38
426.958	636.38
427.18	718.38
427.402	863.38
427.625	912.38
427.847	834.38
428.069	720.38
428.292	638.38
428.514	615.38
428.736	568.38
428.958	576.38
429.181	561.38
429.403	580.38
429.625	564.38
429.847	616.38
430.069	664.38
430.292	650.38
430.514	569.38
430.736	563.38
430.958	560.38
431.18	530.38
431.402	541.38
431.624	535.38
431.846	515.38
432.068	521.38
432.29	556.38
432.512	536.38
432.734	575.38
432.956	527.38
433.178	546.38
433.4	543.38
433.622	562.38
433.844	550.38
434.066	510.38
434.287	540.38
434.509	536.38
434.731	543.38
434.953	585.38
435.175	566.38
435.397	604.38
435.618	614.38
435.84	626.38
436.062	748.38
436.284	840.38
436.505	704.38
436.727	622.38
436.949	580.38
437.17	566.38
437.392	570.38
437.614	587.38
437.835	596.38
438.057	687.38
438.278	777.38
438.5	774.38
438.721	871.38
438.943	849.38
439.165	684.38
439.386	608.38
439.608	607.38
439.829	607.38
440.05	637.38
440.272	692.38
440.493	638.38
440.715	607.38
440.936	587.38
441.158	593.38
441.379	572.38
441.6	572.38
441.822	611.38
442.043	659.38
442.264	710.38
442.486	743.38
442.707	657.38
442.928	653.38
443.149	621.38
443.371	639.38
443.592	686.38
443.813	769.38
444.034	808.38
444.255	686.38
444.476	646.38
444.698	655.38
444.919	643.38
445.14	718.38
445.361	690.38
445.582	651.38
445.803	705.38
446.024	814.38
446.245	804.38
446.466	732.38
446.687	653.38
446.908	586.38
447.129	570.38
447.35	544.38
447.571	545.38
447.792	558.38
448.013	539.38
448.234	570.38
448.455	607.38
448.675	708.38
448.896	830.38
449.117	692.38
449.338	674.38
449.559	777.38
449.779	895.38
450	725.38
450.221	601.38
450.442	570.38
450.662	559.38
450.883	547.38
451.104	556.38
451.324	550.38
451.545	541.38
451.766	512.38
451.986	503.38
452.207	491.38
452.428	500.38
452.648	492.38
452.869	489.38
453.089	488.38
453.31	528.38
453.53	489.38
453.751	501.38
453.971	521.38
454.192	519.38
454.412	503.38
454.633	492.38
454.853	507.38
455.073	514.38
455.294	520.38
455.514	588.38
455.734	570.38
455.955	485.38
456.175	512.38
456.395	483.38
456.616	476.38
456.836	496.38
457.056	474.38
457.276	474.38
457.497	457.38
457.717	481.38
457.937	488.38
458.157	484.38
458.377	486.38
458.598	531.38
458.818	566.38
459.038	623.38
459.258	643.38
459.478	573.38
459.698	534.38
459.918	563.38
460.138	549.38
460.358	571.38
460.578	567.38
460.798	566.38
461.018	576.38
461.238	555.38
461.458	580.38
461.678	562.38
461.898	573.38
462.118	572.38
462.338	596.38
462.558	607.38
462.777	592.38
462.997	632.38
463.217	624.38
463.437	636.38
463.657	635.38
463.876	615.38
464.096	626.38
464.316	616.38
464.536	611.38
464.755	628.38
464.975	617.38
465.195	628.38
465.414	714.38
465.634	633.38
465.854	585.38
466.073	549.38
466.293	538.38
466.512	533.38
466.732	525.38
466.951	532.38
467.171	535.38
467.391	547.38
467.61	534.38
467.829	539.38
468.049	524.38
468.268	548.38
468.488	528.38
468.707	508.38
468.927	519.38
469.146	524.38
469.365	497.38
469.585	502.38
469.804	533.38
470.023	541.38
470.243	513.38
470.462	542.38
470.681	572.38
470.901	570.38
471.12	540.38
471.339	520.38
471.558	544.38
471.777	559.38
471.997	520.38
472.216	541.38
472.435	551.38
472.654	562.38
472.873	536.38
473.092	534.38
473.311	542.38
473.53	548.38
473.749	550.38
473.968	567.38
474.187	662.38
474.406	694.38
474.625	568.38
474.844	532.38
475.063	546.38
475.282	526.38
475.501	539.38
475.72	525.38
475.939	553.38
476.158	557.38
476.377	565.38
476.596	555.38
476.814	543.38
477.033	550.38
477.252	566.38
477.471	593.38
477.69	588.38
477.908	570.38
478.127	574.38
478.346	604.38
478.564	589.38
478.783	574.38
479.002	597.38
479.22	615.38
479.439	614.38
479.658	625.38
479.876	650.38
480.095	651.38
480.313	677.38
480.532	663.38
480.751	644.38
480.969	679.38
481.188	697.38
481.406	732.38
481.624	660.38
481.843	640.38
482.061	637.38
482.28	619.38
482.498	602.38
482.717	630.38
482.935	623.38
483.153	621.38
483.372	605.38
483.59	622.38
483.808	623.38
484.027	606.38
484.245	613.38
484.463	619.38
484.681	630.38
484.9	632.38
485.118	610.38
485.336	630.38
485.554	662.38
485.772	636.38
485.99	645.38
486.209	630.38
486.427	659.38
486.645	654.38
486.863	665.38
487.081	650.38
487.299	674.38
487.517	635.38
487.735	632.38
487.953	647.38
488.171	674.38
488.389	653.38
488.607	664.38
488.825	684.38
489.043	663.38
489.261	668.38
489.479	672.38
489.696	674.38
489.914	672.38
490.132	681.38
490.35	707.38
490.568	718.38
490.786	698.38
491.003	711.38
491.221	719.38
491.439	726.38
491.657	738.38
491.874	745.38
492.092	744.38
492.31	728.38
492.527	745.38
492.745	777.38
492.963	760.38
493.18	750.38
493.398	768.38
493.615	782.38
493.833	792.38
494.05	764.38
494.268	751.38
494.485	745.38
494.703	755.38
494.92	772.38
495.138	763.38
495.355	770.38
495.573	750.38
495.79	774.38
496.008	790.38
496.225	754.38
496.442	763.38
496.66	768.38
496.877	770.38
497.094	746.38
497.312	795.38
497.529	808.38
497.746	810.38
497.963	837.38
498.181	854.38
498.398	864.38
498.615	861.38
498.832	898.38
499.049	926.38
499.267	993.38
499.484	999.38
499.701	1060.38
499.918	1108.38
500.135	1135.38
500.352	1214.38
500.569	1245.38
500.786	1245.38
501.003	1191.38
501.22	1162.38
501.437	1110.38
501.654	1071.38
501.871	1038.38
502.088	1015.38
502.305	982.38
502.522	932.38
502.739	946.38
502.956	865.38
503.172	834.38
503.389	849.38
503.606	845.38
503.823	824.38
504.04	820.38
504.256	795.38
504.473	811.38
504.69	815.38
504.907	792.38
505.123	777.38
505.34	788.38
505.557	778.38
505.773	764.38
505.99	772.38
506.207	756.38
506.423	750.38
506.64	725.38
506.856	723.38
507.073	727.38
507.289	730.38
507.506	709.38
507.722	735.38
507.939	738.38
508.155	707.38
508.372	711.38
508.588	690.38
508.805	701.38
509.021	692.38
509.238	701.38
509.454	713.38
509.67	692.38
509.887	704.38
510.103	681.38
510.319	682.38
510.536	784.38
510.752	1282.38
510.968	1078.38
511.184	698.38
511.401	662.38
511.617	675.38
511.833	674.38
512.049	646.38
512.265	659.38
512.481	682.38
512.698	672.38
512.914	655.38
513.13	638.38
513.346	646.38
513.562	652.38
513.778	647.38
513.994	683.38
514.21	668.38
514.426	685.38
514.642	733.38
514.858	731.38
515.074	798.38
515.29	922.38
515.506	1313.38
515.721	1118.38
515.937	796.38
516.153	739.38
516.369	697.38
516.585	703.38
516.801	682.38
517.016	712.38
517.232	724.38
517.448	722.38
517.664	752.38
517.879	739.38
518.095	714.38
518.311	741.38
518.527	698.38
518.742	705.38
518.958	689.38
519.173	708.38
519.389	670.38
519.605	655.38
519.82	662.38
520.036	664.38
520.251	724.38
520.467	706.38
520.682	699.38
520.898	677.38
521.113	714.38
521.329	758.38
521.544	838.38
521.76	1007.38
521.975	1657.38
522.19	1679.38
522.406	939.38
522.621	716.38
522.836	666.38
523.052	651.38
523.267	641.38
523.482	609.38
523.698	619.38
523.913	619.38
524.128	614.38
524.343	590.38
524.559	589.38
524.774	575.38
524.989	574.38
525.204	590.38
525.419	594.38
525.634	568.38
525.849	582.38
526.064	558.38
526.28	566.38
526.495	574.38
526.71	579.38
526.925	564.38
527.14	571.38
527.355	527.38
527.57	543.38
527.785	549.38
527.999	559.38
528.214	564.38
528.429	542.38
528.644	535.38
528.859	547.38
529.074	549.38
529.289	575.38
529.503	638.38
529.718	613.38
529.933	598.38
530.148	563.38
530.363	585.38
530.577	543.38
530.792	558.38
531.007	556.38
531.221	551.38
531.436	542.38
531.651	548.38
531.865	571.38
532.08	546.38
532.295	541.38
532.509	526.38
532.724	539.38
532.938	539.38
533.153	530.38
533.367	544.38
533.582	539.38
533.796	541.38
534.011	534.38
534.225	527.38
534.44	516.38
534.654	538.38
534.868	519.38
535.083	515.38
535.297	524.38
535.511	541.38
535.726	550.38
535.94	550.38
536.154	540.38
536.369	530.38
536.583	527.38
536.797	518.38
537.011	523.38
537.225	496.38
537.44	506.38
537.654	519.38
537.868	513.38
538.082	516.38
538.296	514.38
538.51	535.38
538.724	515.38
538.938	512.38
539.153	506.38
539.367	502.38
539.581	536.38
539.795	531.38
540.009	502.38
540.222	514.38
540.436	513.38
540.65	487.38
540.864	522.38
541.078	489.38
541.292	519.38
541.506	502.38
541.72	536.38
541.934	486.38
542.147	492.38
542.361	503.38
542.575	508.38
542.789	483.38
543.002	488.38
543.216	489.38
543.43	513.38
543.644	501.38
543.857	498.38
544.071	504.38
544.285	523.38
544.498	502.38
544.712	508.38
544.925	495.38
545.139	485.38
545.352	473.38
545.566	486.38
545.779	477.38
545.993	498.38
546.206	528.38
546.42	502.38
546.633	500.38
546.847	492.38
547.06	483.38
547.274	487.38
547.487	479.38
547.7	480.38
547.914	497.38
548.127	489.38
548.34	491.38
548.554	484.38
548.767	508.38
548.98	502.38
549.193	472.38
549.407	509.38
549.62	516.38
549.833	517.38
550.046	479.38
550.259	491.38
550.473	488.38
550.686	490.38
550.899	469.38
551.112	471.38
551.325	491.38
551.538	480.38
551.751	485.38
551.964	485.38
552.177	494.38
552.39	492.38
552.603	493.38
552.816	503.38
553.029	477.38
553.242	510.38
553.455	505.38
553.667	514.38
553.88	521.38
554.093	496.38
554.306	510.38
554.519	495.38
554.732	485.38
554.944	477.38
555.157	459.38
555.37	483.38
555.583	471.38
555.795	463.38
556.008	463.38
556.221	438.38
556.433	461.38
556.646	448.38
556.859	447.38
557.071	455.38
557.284	444.38
557.496	457.38
557.709	474.38
557.921	445.38
558.134	442.38
558.346	418.38
558.559	428.38
558.771	436.38
558.984	459.38
559.196	440.38
559.409	424.38
559.621	426.38
559.833	434.38
560.046	452.38
560.258	446.38
560.47	443.38
560.683	442.38
560.895	435.38
561.107	414.38
561.32	431.38
561.532	432.38
561.744	419.38
561.956	436.38
562.168	441.38
562.381	428.38
562.593	446.38
562.805	429.38
563.017	439.38
563.229	465.38
563.441	462.38
563.653	443.38
563.865	441.38
564.077	441.38
564.289	475.38
564.501	438.38
564.713	459.38
564.925	463.38
565.137	474.38
565.349	473.38
565.561	489.38
565.773	503.38
565.985	516.38
566.197	515.38
566.408	512.38
566.62	538.38
566.832	562.38
567.044	574.38
567.255	569.38
567.467	556.38
567.679	557.38
567.891	586.38
568.102	594.38
568.314	574.38
568.526	543.38
568.737	541.38
568.949	526.38
569.161	519.38
569.372	490.38
569.584	471.38
569.795	459.38
570.007	464.38
570.218	497.38
570.43	493.38
570.641	441.38
570.853	396.38
571.064	440.38
571.276	443.38
571.487	432.38
571.698	430.38
571.91	422.38
572.121	416.38
572.333	421.38
572.544	394.38
572.755	414.38
572.966	397.38
573.178	383.38
573.389	395.38
573.6	397.38
573.811	388.38
574.023	384.38
574.234	372.38
574.445	376.38
574.656	390.38
574.867	386.38
575.078	378.38
575.289	398.38
575.501	374.38
575.712	382.38
575.923	358.38
576.134	371.38
576.345	357.38
576.556	371.38
576.767	385.38
576.978	359.38
577.188	390.38
577.399	360.38
577.61	345.38
577.821	371.38
578.032	358.38
578.243	404.38
578.454	614.38
578.665	486.38
578.875	379.38
579.086	356.38
579.297	342.38
579.508	348.38
579.718	351.38
579.929	370.38
580.14	365.38
580.35	336.38
580.561	341.38
580.772	335.38
580.982	354.38
581.193	354.38
581.403	353.38
581.614	343.38
581.825	334.38
582.035	326.38
582.246	310.38
582.456	339.38
582.667	357.38
582.877	354.38
583.087	333.38
583.298	340.38
583.508	336.38
583.719	355.38
583.929	349.38
584.139	335.38
584.35	335.38
584.56	348.38
584.77	327.38
584.981	332.38
585.191	354.38
585.401	322.38
585.611	335.38
585.821	322.38
586.032	336.38
586.242	317.38
586.452	328.38
586.662	325.38
586.872	331.38
587.082	329.38
587.292	342.38
587.502	319.38
587.713	336.38
587.923	295.38
588.133	327.38
588.343	333.38
588.553	323.38
588.762	328.38
588.972	325.38
589.182	381.38
589.392	365.38
589.602	350.38
589.812	363.38
590.022	336.38
590.232	314.38
590.441	343.38
590.651	324.38
590.861	350.38
591.071	329.38
591.281	329.38
591.49	344.38
591.7	315.38
591.91	340.38
592.119	338.38
592.329	345.38
592.539	351.38
592.748	351.38
592.958	342.38
593.167	356.38
593.377	367.38
593.587	374.38
593.796	344.38
594.006	376.38
594.215	344.38
594.424	336.38
594.634	333.38
594.843	344.38
595.053	329.38
595.262	347.38
595.472	336.38
595.681	326.38
595.89	315.38
596.1	326.38
596.309	320.38
596.518	325.38
596.727	313.38
596.937	308.38
597.146	313.38
597.355	295.38
597.564	318.38
597.774	318.38
597.983	288.38
598.192	298.38
598.401	311.38
598.61	282.38
598.819	299.38
599.028	282.38
599.237	290.38
599.446	302.38
599.655	299.38
599.864	284.38
600.073	280.38
600.282	293.38
600.491	289.38
600.7	297.38
600.909	292.38
601.118	282.38
601.327	274.38
601.536	274.38
601.745	279.38
601.953	281.38
602.162	275.38
602.371	275.38
602.58	274.38
602.789	261.38
602.997	270.38
603.206	272.38
603.415	282.38
603.623	293.38
603.832	284.38
604.041	290.38
604.249	282.38
604.458	279.38
604.666	285.38
604.875	267.38
605.084	275.38
605.292	275.38
605.501	277.38
605.709	260.38
605.918	270.38
606.126	295.38
606.334	267.38
606.543	269.38
606.751	278.38
606.96	266.38
607.168	267.38
607.376	265.38
607.585	280.38
607.793	283.38
608.001	264.38
608.21	264.38
608.418	259.38
608.626	264.38
608.834	271.38
609.043	282.38
609.251	279.38
609.459	269.38
609.667	262.38
609.875	269.38
610.083	265.38
610.291	258.38
610.499	264.38
610.707	265.38
610.916	239.38
611.124	282.38
611.332	286.38
611.54	274.38
611.748	257.38
611.955	279.38
612.163	263.38
612.371	264.38
612.579	277.38
612.787	246.38
612.995	246.38
613.203	262.38
613.411	245.38
613.618	266.38
613.826	267.38
614.034	237.38
614.242	265.38
614.449	262.38
614.657	247.38
614.865	244.38
615.072	237.38
615.28	246.38
615.488	257.38
615.695	253.38
615.903	258.38
616.111	269.38
616.318	262.38
616.526	251.38
616.733	253.38
616.941	263.38
617.148	272.38
617.356	258.38
617.563	250.38
617.771	238.38
617.978	246.38
618.185	245.38
618.393	247.38
618.6	252.38
618.807	243.38
619.015	262.38
619.222	254.38
619.429	242.38
619.637	242.38
619.844	250.38
620.051	247.38
620.258	243.38
620.466	251.38
620.673	230.38
620.88	222.38
621.087	227.38
621.294	250.38
621.501	238.38
621.708	255.38
621.915	242.38
622.122	245.38
622.329	238.38
622.536	218.38
622.743	235.38
622.95	244.38
623.157	233.38
623.364	231.38
623.571	244.38
623.778	226.38
623.985	238.38
624.192	247.38
624.399	234.38
624.606	229.38
624.812	216.38
625.019	232.38
625.226	230.38
625.433	262.38
625.639	220.38
625.846	234.38
626.053	219.38
626.259	212.38
626.466	237.38
626.673	216.38
626.879	224.38
627.086	216.38
627.293	214.38
627.499	215.38
627.706	222.38
627.912	222.38
628.119	211.38
628.325	215.38
628.532	234.38
628.738	208.38
628.945	206.38
629.151	209.38
629.357	237.38
629.564	206.38
629.77	214.38
629.976	202.38
630.183	228.38
630.389	228.38
630.595	219.38
630.802	211.38
631.008	184.38
631.214	194.38
631.42	208.38
631.627	213.38
631.833	198.38
632.039	202.38
632.245	205.38
632.451	194.38
632.657	183.38
632.863	208.38
633.069	198.38
633.275	204.38
633.481	193.38
633.688	204.38
633.893	202.38
634.099	205.38
634.305	195.38
634.511	190.38
634.717	186.38
634.923	187.38
635.129	219.38
635.335	192.38
635.541	189.38
635.747	204.38
635.952	196.38
636.158	194.38
636.364	207.38
636.57	209.38
636.775	196.38
636.981	206.38
637.187	213.38
637.392	188.38
637.598	182.38
637.804	187.38
638.009	208.38
638.215	204.38
638.421	194.38
638.626	190.38
638.832	204.38
639.037	187.38
639.243	181.38
639.448	198.38
639.654	196.38
639.859	198.38
640.065	199.38
640.27	193.38
640.475	191.38
640.681	180.38
640.886	208.38
641.091	211.38
641.297	182.38
641.502	172.38
641.707	195.38
641.913	192.38
642.118	184.38
642.323	185.38
642.528	186.38
642.733	184.38
642.939	184.38
643.144	175.38
643.349	194.38
643.554	166.38
643.759	168.38
643.964	187.38
644.169	170.38
644.374	176.38
644.579	171.38
644.784	175.38
644.989	175.38
645.194	187.38
645.399	174.38
645.604	193.38
645.809	178.38
646.014	174.38
646.219	172.38
646.423	172.38
646.628	173.38
646.833	189.38
647.038	191.38
647.243	163.38
647.447	182.38
647.652	194.38
647.857	185.38
648.062	186.38
648.266	175.38
648.471	193.38
648.676	178.38
648.88	172.38
649.085	175.38
649.289	180.38
649.494	178.38
649.698	194.38
649.903	202.38
650.107	174.38
650.312	180.38
650.516	168.38
650.721	174.38
650.925	152.38
651.13	149.38
651.334	163.38
651.539	152.38
651.743	157.38
651.947	155.38
652.152	147.38
652.356	159.38
652.56	166.38
652.764	152.38
652.969	154.38
653.173	144.38
653.377	148.38
653.581	156.38
653.785	144.38
653.99	157.38
654.194	136.38
654.398	150.38
654.602	132.38
654.806	142.38
655.01	159.38
655.214	150.38
655.418	152.38
655.622	134.38
655.826	148.38
656.03	151.38
656.234	162.38
656.438	143.38
656.642	132.38
656.846	152.38
657.049	127.38
657.253	124.38
657.457	142.38
657.661	132.38
657.865	119.38
658.068	124.38
658.272	122.38
658.476	108.38
658.68	110.38
658.883	105.38
659.087	97.38
659.291	111.38
659.494	108.38
659.698	121.38
659.901	109.38
660.105	96.38
660.309	99.38
660.512	92.38
660.716	108.38
660.919	100.38
661.123	101.38
661.326	98.38
661.53	103.38
661.733	101.38
661.936	83.38
662.14	88.38
662.343	97.38
662.546	94.38
662.75	98.38
662.953	102.38
663.156	101.38
663.36	86.38
663.563	86.38
663.766	91.38
663.969	90.38
664.173	87.38
664.376	99.38
664.579	98.38
664.782	84.38
664.985	70.38
665.188	82.38
665.391	79.38
665.594	80.38
665.797	97.38
666	96.38
666.203	85.38
666.406	86.38
666.609	82.38
666.812	69.38
667.015	69.38
667.218	86.38
667.421	83.38
667.624	88.38
667.827	92.38
668.03	74.38
668.232	85.38
668.435	89.38
668.638	71.38
668.841	71.38
669.043	86.38
669.246	82.38
669.449	84.38
669.651	87.38
669.854	89.38
670.057	100.38
670.259	77.38
670.462	93.38
670.665	75.38
670.867	86.38
671.07	90.38
671.272	87.38
671.475	96.38
671.677	83.38
671.88	83.38
672.082	82.38
672.284	90.38
672.487	85.38
672.689	84.38
672.892	79.38
