Data from 1979.PennyLincolnUp.Lamp.En5.5.200Scan.071719.P1_HRD10591_16-19-42-863.txt Node
Date: Thu Jul 18 16:19:42 EDT 2019
User: cochatt
Spectrometer: HR+D1059
Trigger mode: 1
Integration Time (sec): 1.000000E-1
Scans to average: 1
Electric dark correction enabled: true
Nonlinearity correction enabled: false
Boxcar width: 0
XAxis mode: Wavelengths
Number of Pixels in Spectrum: 2048
>>>>>Begin Spectral Data<<<<<
223.165	-23.94
223.4	-23.94
223.635	-23.94
223.869	-16.94
224.104	-21.94
224.338	-14.94
224.573	-22.94
224.808	-17.94
225.042	5.06
225.277	2.06
225.511	6.06
225.746	-6.94
225.98	7.06
226.215	12.06
226.449	15.06
226.683	23.06
226.918	25.06
227.152	30.06
227.387	24.06
227.621	30.06
227.856	39.06
228.09	39.06
228.324	50.06
228.559	49.06
228.793	58.06
229.027	93.06
229.262	89.06
229.496	106.06
229.73	124.06
229.964	145.06
230.199	105.06
230.433	106.06
230.667	118.06
230.901	102.06
231.136	102.06
231.37	98.06
231.604	112.06
231.838	103.06
232.072	105.06
232.306	107.06
232.541	103.06
232.775	117.06
233.009	113.06
233.243	117.06
233.477	106.06
233.711	103.06
233.945	111.06
234.179	97.06
234.413	120.06
234.647	122.06
234.881	113.06
235.115	116.06
235.349	116.06
235.583	115.06
235.817	119.06
236.051	121.06
236.285	112.06
236.519	127.06
236.753	123.06
236.987	130.06
237.221	157.06
237.455	195.06
237.689	166.06
237.922	136.06
238.156	123.06
238.39	123.06
238.624	111.06
238.858	114.06
239.091	114.06
239.325	112.06
239.559	120.06
239.793	116.06
240.027	135.06
240.26	123.06
240.494	143.06
240.728	145.06
240.961	128.06
241.195	147.06
241.429	125.06
241.662	126.06
241.896	136.06
242.13	123.06
242.363	127.06
242.597	130.06
242.83	130.06
243.064	135.06
243.298	149.06
243.531	121.06
243.765	132.06
243.998	133.06
244.232	122.06
244.465	122.06
244.699	118.06
244.932	143.06
245.166	133.06
245.399	143.06
245.633	133.06
245.866	128.06
246.099	138.06
246.333	147.06
246.566	141.06
246.8	147.06
247.033	157.06
247.266	145.06
247.5	145.06
247.733	162.06
247.966	162.06
248.2	161.06
248.433	152.06
248.666	153.06
248.899	163.06
249.133	190.06
249.366	177.06
249.599	177.06
249.832	176.06
250.066	175.06
250.299	177.06
250.532	175.06
250.765	184.06
250.998	198.06
251.231	201.06
251.465	173.06
251.698	185.06
251.931	175.06
252.164	168.06
252.397	171.06
252.63	185.06
252.863	181.06
253.096	203.06
253.329	200.06
253.562	220.06
253.795	204.06
254.028	188.06
254.261	193.06
254.494	208.06
254.727	221.06
254.96	246.06
255.193	228.06
255.426	205.06
255.659	215.06
255.892	201.06
256.124	214.06
256.357	209.06
256.59	216.06
256.823	186.06
257.056	195.06
257.289	194.06
257.521	205.06
257.754	195.06
257.987	207.06
258.22	188.06
258.452	197.06
258.685	193.06
258.918	198.06
259.151	199.06
259.383	195.06
259.616	201.06
259.849	194.06
260.081	220.06
260.314	211.06
260.547	238.06
260.779	209.06
261.012	211.06
261.244	218.06
261.477	199.06
261.71	210.06
261.942	209.06
262.175	226.06
262.407	207.06
262.64	203.06
262.872	194.06
263.105	214.06
263.337	195.06
263.57	198.06
263.802	180.06
264.035	201.06
264.267	177.06
264.499	207.06
264.732	212.06
264.964	209.06
265.197	197.06
265.429	200.06
265.661	190.06
265.894	196.06
266.126	186.06
266.358	187.06
266.591	193.06
266.823	193.06
267.055	213.06
267.287	213.06
267.52	207.06
267.752	197.06
267.984	222.06
268.216	215.06
268.448	218.06
268.681	204.06
268.913	210.06
269.145	245.06
269.377	239.06
269.609	242.06
269.841	230.06
270.073	237.06
270.306	252.06
270.538	274.06
270.77	266.06
271.002	274.06
271.234	270.06
271.466	265.06
271.698	271.06
271.93	259.06
272.162	290.06
272.394	273.06
272.626	271.06
272.858	275.06
273.09	266.06
273.322	235.06
273.553	242.06
273.785	248.06
274.017	242.06
274.249	242.06
274.481	245.06
274.713	243.06
274.945	234.06
275.176	238.06
275.408	249.06
275.64	236.06
275.872	249.06
276.104	246.06
276.335	267.06
276.567	232.06
276.799	239.06
277.031	279.06
277.262	282.06
277.494	311.06
277.726	272.06
277.957	251.06
278.189	232.06
278.421	249.06
278.652	245.06
278.884	271.06
279.115	254.06
279.347	245.06
279.579	233.06
279.81	247.06
280.042	237.06
280.273	266.06
280.505	244.06
280.736	259.06
280.968	246.06
281.199	229.06
281.431	253.06
281.662	255.06
281.894	238.06
282.125	250.06
282.356	257.06
282.588	291.06
282.819	297.06
283.051	260.06
283.282	247.06
283.513	263.06
283.745	252.06
283.976	261.06
284.207	277.06
284.439	261.06
284.67	263.06
284.901	255.06
285.132	264.06
285.364	260.06
285.595	260.06
285.826	259.06
286.057	260.06
286.288	275.06
286.52	271.06
286.751	251.06
286.982	255.06
287.213	275.06
287.444	257.06
287.675	265.06
287.906	267.06
288.138	272.06
288.369	297.06
288.6	294.06
288.831	305.06
289.062	269.06
289.293	265.06
289.524	274.06
289.755	270.06
289.986	278.06
290.217	271.06
290.448	262.06
290.679	301.06
290.91	270.06
291.141	259.06
291.371	272.06
291.602	263.06
291.833	267.06
292.064	284.06
292.295	282.06
292.526	273.06
292.757	275.06
292.987	268.06
293.218	279.06
293.449	292.06
293.68	273.06
293.91	266.06
294.141	280.06
294.372	283.06
294.603	272.06
294.833	279.06
295.064	271.06
295.295	278.06
295.525	271.06
295.756	283.06
295.987	292.06
296.217	315.06
296.448	319.06
296.679	299.06
296.909	275.06
297.14	283.06
297.37	287.06
297.601	287.06
297.831	280.06
298.062	282.06
298.292	287.06
298.523	306.06
298.753	278.06
298.984	298.06
299.214	291.06
299.445	311.06
299.675	295.06
299.905	296.06
300.136	305.06
300.366	301.06
300.597	281.06
300.827	293.06
301.057	334.06
301.288	323.06
301.518	301.06
301.748	306.06
301.979	301.06
302.209	297.06
302.439	321.06
302.669	326.06
302.9	301.06
303.13	311.06
303.36	303.06
303.59	314.06
303.82	321.06
304.051	335.06
304.281	320.06
304.511	315.06
304.741	306.06
304.971	310.06
305.201	314.06
305.431	314.06
305.661	308.06
305.891	318.06
306.121	325.06
306.352	323.06
306.582	322.06
306.812	304.06
307.042	312.06
307.272	323.06
307.502	310.06
307.731	314.06
307.961	323.06
308.191	298.06
308.421	330.06
308.651	342.06
308.881	321.06
309.111	322.06
309.341	312.06
309.571	324.06
309.8	344.06
310.03	327.06
310.26	355.06
310.49	338.06
310.72	349.06
310.949	356.06
311.179	376.06
311.409	349.06
311.639	344.06
311.868	383.06
312.098	356.06
312.328	358.06
312.557	375.06
312.787	397.06
313.017	371.06
313.246	373.06
313.476	356.06
313.706	343.06
313.935	349.06
314.165	360.06
314.394	361.06
314.624	375.06
314.853	369.06
315.083	361.06
315.312	359.06
315.542	368.06
315.771	356.06
316.001	346.06
316.23	357.06
316.46	339.06
316.689	351.06
316.919	360.06
317.148	377.06
317.377	383.06
317.607	366.06
317.836	357.06
318.065	341.06
318.295	367.06
318.524	360.06
318.753	359.06
318.983	342.06
319.212	328.06
319.441	380.06
319.67	371.06
319.9	359.06
320.129	358.06
320.358	367.06
320.587	379.06
320.816	377.06
321.046	367.06
321.275	370.06
321.504	378.06
321.733	388.06
321.962	379.06
322.191	403.06
322.42	376.06
322.649	412.06
322.878	420.06
323.108	425.06
323.337	432.06
323.566	455.06
323.795	480.06
324.024	529.06
324.253	627.06
324.482	832.06
324.71	1339.06
324.939	2042.06
325.168	1715.06
325.397	841.06
325.626	589.06
325.855	499.06
326.084	473.06
326.313	464.06
326.542	462.06
326.77	528.06
326.999	608.06
327.228	767.06
327.457	1227.06
327.686	1534.06
327.914	991.06
328.143	663.06
328.372	553.06
328.6	529.06
328.829	520.06
329.058	517.06
329.287	531.06
329.515	488.06
329.744	471.06
329.972	474.06
330.201	494.06
330.43	517.06
330.658	526.06
330.887	537.06
331.115	529.06
331.344	470.06
331.572	456.06
331.801	470.06
332.03	457.06
332.258	434.06
332.486	423.06
332.715	449.06
332.943	449.06
333.172	448.06
333.4	452.06
333.629	453.06
333.857	465.06
334.085	469.06
334.314	458.06
334.542	506.06
334.771	526.06
334.999	497.06
335.227	465.06
335.455	443.06
335.684	458.06
335.912	433.06
336.14	439.06
336.369	442.06
336.597	448.06
336.825	438.06
337.053	452.06
337.281	423.06
337.51	444.06
337.738	433.06
337.966	431.06
338.194	438.06
338.422	411.06
338.65	430.06
338.878	421.06
339.106	408.06
339.334	424.06
339.562	400.06
339.79	425.06
340.018	403.06
340.246	406.06
340.474	415.06
340.702	421.06
340.93	421.06
341.158	410.06
341.386	394.06
341.614	405.06
341.842	416.06
342.07	425.06
342.298	421.06
342.526	411.06
342.754	400.06
342.981	395.06
343.209	413.06
343.437	418.06
343.665	424.06
343.893	432.06
344.12	435.06
344.348	448.06
344.576	437.06
344.804	431.06
345.031	426.06
345.259	446.06
345.487	433.06
345.714	425.06
345.942	401.06
346.17	405.06
346.397	407.06
346.625	402.06
346.853	407.06
347.08	410.06
347.308	399.06
347.535	416.06
347.763	407.06
347.99	396.06
348.218	403.06
348.445	438.06
348.673	415.06
348.9	423.06
349.128	409.06
349.355	369.06
349.583	398.06
349.81	404.06
350.037	409.06
350.265	392.06
350.492	377.06
350.72	382.06
350.947	388.06
351.174	422.06
351.402	410.06
351.629	423.06
351.856	386.06
352.083	400.06
352.311	411.06
352.538	434.06
352.765	418.06
352.992	403.06
353.22	396.06
353.447	399.06
353.674	379.06
353.901	391.06
354.128	394.06
354.355	376.06
354.583	391.06
354.81	392.06
355.037	392.06
355.264	370.06
355.491	348.06
355.718	357.06
355.945	383.06
356.172	383.06
356.399	374.06
356.626	404.06
356.853	398.06
357.08	403.06
357.307	402.06
357.534	383.06
357.761	394.06
357.988	374.06
358.215	377.06
358.441	377.06
358.668	393.06
358.895	403.06
359.122	407.06
359.349	402.06
359.576	418.06
359.802	430.06
360.029	441.06
360.256	453.06
360.483	434.06
360.709	414.06
360.936	395.06
361.163	381.06
361.39	409.06
361.616	419.06
361.843	409.06
362.07	386.06
362.296	416.06
362.523	394.06
362.749	412.06
362.976	413.06
363.203	425.06
363.429	395.06
363.656	402.06
363.882	390.06
364.109	406.06
364.335	400.06
364.562	390.06
364.788	403.06
365.015	394.06
365.241	405.06
365.468	387.06
365.694	405.06
365.92	421.06
366.147	402.06
366.373	379.06
366.599	395.06
366.826	399.06
367.052	411.06
367.278	378.06
367.505	389.06
367.731	399.06
367.957	403.06
368.184	397.06
368.41	412.06
368.636	413.06
368.862	384.06
369.089	413.06
369.315	381.06
369.541	388.06
369.767	401.06
369.993	397.06
370.219	401.06
370.445	391.06
370.672	390.06
370.898	390.06
371.124	405.06
371.35	397.06
371.576	391.06
371.802	397.06
372.028	402.06
372.254	392.06
372.48	387.06
372.706	391.06
372.932	389.06
373.158	411.06
373.384	402.06
373.61	411.06
373.835	399.06
374.061	412.06
374.287	421.06
374.513	427.06
374.739	406.06
374.965	403.06
375.191	421.06
375.416	417.06
375.642	409.06
375.868	409.06
376.094	405.06
376.319	392.06
376.545	403.06
376.771	413.06
376.997	426.06
377.222	405.06
377.448	405.06
377.674	389.06
377.899	405.06
378.125	383.06
378.35	389.06
378.576	414.06
378.802	414.06
379.027	383.06
379.253	416.06
379.478	387.06
379.704	401.06
379.929	405.06
380.155	386.06
380.38	405.06
380.606	414.06
380.831	401.06
381.057	413.06
381.282	402.06
381.507	404.06
381.733	426.06
381.958	419.06
382.184	416.06
382.409	412.06
382.634	415.06
382.86	433.06
383.085	423.06
383.31	425.06
383.535	433.06
383.761	415.06
383.986	409.06
384.211	441.06
384.436	433.06
384.662	432.06
384.887	425.06
385.112	463.06
385.337	439.06
385.562	453.06
385.787	442.06
386.013	463.06
386.238	471.06
386.463	462.06
386.688	464.06
386.913	448.06
387.138	446.06
387.363	454.06
387.588	437.06
387.813	465.06
388.038	454.06
388.263	439.06
388.488	454.06
388.713	442.06
388.938	463.06
389.163	427.06
389.387	449.06
389.612	435.06
389.837	450.06
390.062	452.06
390.287	444.06
390.512	454.06
390.736	427.06
390.961	448.06
391.186	460.06
391.411	467.06
391.636	473.06
391.86	498.06
392.085	493.06
392.31	477.06
392.534	483.06
392.759	465.06
392.984	469.06
393.208	464.06
393.433	423.06
393.658	463.06
393.882	466.06
394.107	453.06
394.331	457.06
394.556	463.06
394.78	469.06
395.005	451.06
395.229	452.06
395.454	485.06
395.678	464.06
395.903	491.06
396.127	522.06
396.352	513.06
396.576	495.06
396.801	487.06
397.025	481.06
397.249	501.06
397.474	504.06
397.698	509.06
397.922	497.06
398.147	497.06
398.371	520.06
398.595	507.06
398.82	531.06
399.044	542.06
399.268	554.06
399.492	610.06
399.717	640.06
399.941	651.06
400.165	658.06
400.389	636.06
400.613	614.06
400.837	553.06
401.062	548.06
401.286	543.06
401.51	545.06
401.734	531.06
401.958	545.06
402.182	559.06
402.406	541.06
402.63	533.06
402.854	545.06
403.078	544.06
403.302	565.06
403.526	574.06
403.75	548.06
403.974	585.06
404.198	564.06
404.422	559.06
404.645	562.06
404.869	571.06
405.093	613.06
405.317	638.06
405.541	670.06
405.765	592.06
405.988	576.06
406.212	582.06
406.436	605.06
406.66	643.06
406.883	612.06
407.107	629.06
407.331	674.06
407.555	745.06
407.778	732.06
408.002	677.06
408.226	641.06
408.449	632.06
408.673	607.06
408.896	647.06
409.12	668.06
409.344	654.06
409.567	617.06
409.791	579.06
410.014	579.06
410.238	564.06
410.461	559.06
410.685	569.06
410.908	608.06
411.132	625.06
411.355	651.06
411.578	606.06
411.802	579.06
412.025	567.06
412.249	561.06
412.472	585.06
412.695	621.06
412.919	595.06
413.142	589.06
413.365	564.06
413.589	570.06
413.812	554.06
414.035	534.06
414.258	547.06
414.482	557.06
414.705	525.06
414.928	523.06
415.151	529.06
415.374	533.06
415.597	539.06
415.821	531.06
416.044	526.06
416.267	536.06
416.49	538.06
416.713	523.06
416.936	522.06
417.159	514.06
417.382	515.06
417.605	539.06
417.828	554.06
418.051	572.06
418.274	553.06
418.497	516.06
418.72	533.06
418.943	527.06
419.166	536.06
419.389	573.06
419.611	571.06
419.834	569.06
420.057	581.06
420.28	553.06
420.503	539.06
420.726	559.06
420.948	567.06
421.171	615.06
421.394	636.06
421.617	567.06
421.839	554.06
422.062	564.06
422.285	557.06
422.507	614.06
422.73	696.06
422.953	677.06
423.175	594.06
423.398	548.06
423.621	583.06
423.843	596.06
424.066	598.06
424.288	563.06
424.511	623.06
424.733	662.06
424.956	726.06
425.178	717.06
425.401	679.06
425.623	738.06
425.846	632.06
426.068	576.06
426.291	577.06
426.513	577.06
426.735	603.06
426.958	617.06
427.18	691.06
427.402	827.06
427.625	951.06
427.847	818.06
428.069	695.06
428.292	602.06
428.514	573.06
428.736	562.06
428.958	550.06
429.181	541.06
429.403	517.06
429.625	556.06
429.847	582.06
430.069	643.06
430.292	631.06
430.514	557.06
430.736	527.06
430.958	535.06
431.18	538.06
431.402	529.06
431.624	511.06
431.846	533.06
432.068	482.06
432.29	522.06
432.512	528.06
432.734	529.06
432.956	519.06
433.178	529.06
433.4	534.06
433.622	549.06
433.844	518.06
434.066	533.06
434.287	524.06
434.509	540.06
434.731	533.06
434.953	533.06
435.175	566.06
435.397	593.06
435.618	563.06
435.84	631.06
436.062	704.06
436.284	800.06
436.505	673.06
436.727	598.06
436.949	569.06
437.17	547.06
437.392	539.06
437.614	553.06
437.835	604.06
438.057	648.06
438.278	785.06
438.5	765.06
438.721	827.06
438.943	785.06
439.165	640.06
439.386	595.06
439.608	588.06
439.829	587.06
440.05	589.06
440.272	675.06
440.493	608.06
440.715	583.06
440.936	540.06
441.158	555.06
441.379	560.06
441.6	583.06
441.822	560.06
442.043	600.06
442.264	682.06
442.486	736.06
442.707	637.06
442.928	607.06
443.149	627.06
443.371	639.06
443.592	660.06
443.813	766.06
444.034	822.06
444.255	685.06
444.476	600.06
444.698	616.06
444.919	596.06
445.14	698.06
445.361	672.06
445.582	615.06
445.803	675.06
446.024	777.06
446.245	778.06
446.466	723.06
446.687	624.06
446.908	587.06
447.129	550.06
447.35	562.06
447.571	517.06
447.792	529.06
448.013	526.06
448.234	541.06
448.455	597.06
448.675	672.06
448.896	808.06
449.117	675.06
449.338	650.06
449.559	745.06
449.779	845.06
450	675.06
450.221	594.06
450.442	549.06
450.662	562.06
450.883	533.06
451.104	542.06
451.324	541.06
451.545	522.06
451.766	514.06
451.986	477.06
452.207	474.06
452.428	483.06
452.648	502.06
452.869	499.06
453.089	482.06
453.31	489.06
453.53	488.06
453.751	488.06
453.971	513.06
454.192	527.06
454.412	483.06
454.633	500.06
454.853	464.06
455.073	475.06
455.294	491.06
455.514	573.06
455.734	565.06
455.955	468.06
456.175	464.06
456.395	453.06
456.616	454.06
456.836	464.06
457.056	458.06
457.276	448.06
457.497	474.06
457.717	452.06
457.937	482.06
458.157	465.06
458.377	486.06
458.598	491.06
458.818	565.06
459.038	607.06
459.258	617.06
459.478	573.06
459.698	530.06
459.918	523.06
460.138	542.06
460.358	540.06
460.578	519.06
460.798	548.06
461.018	535.06
461.238	537.06
461.458	529.06
461.678	534.06
461.898	537.06
462.118	543.06
462.338	582.06
462.558	580.06
462.777	582.06
462.997	585.06
463.217	623.06
463.437	630.06
463.657	607.06
463.876	597.06
464.096	585.06
464.316	606.06
464.536	602.06
464.755	602.06
464.975	574.06
465.195	602.06
465.414	666.06
465.634	581.06
465.854	565.06
466.073	543.06
466.293	547.06
466.512	514.06
466.732	503.06
466.951	509.06
467.171	519.06
467.391	506.06
467.61	497.06
467.829	532.06
468.049	513.06
468.268	512.06
468.488	485.06
468.707	493.06
468.927	505.06
469.146	500.06
469.365	481.06
469.585	494.06
469.804	503.06
470.023	532.06
470.243	507.06
470.462	495.06
470.681	524.06
470.901	529.06
471.12	516.06
471.339	519.06
471.558	512.06
471.777	515.06
471.997	518.06
472.216	522.06
472.435	560.06
472.654	525.06
472.873	503.06
473.092	501.06
473.311	484.06
473.53	514.06
473.749	506.06
473.968	537.06
474.187	620.06
474.406	661.06
474.625	560.06
474.844	519.06
475.063	505.06
475.282	496.06
475.501	522.06
475.72	497.06
475.939	523.06
476.158	517.06
476.377	505.06
476.596	514.06
476.814	531.06
477.033	538.06
477.252	541.06
477.471	538.06
477.69	559.06
477.908	590.06
478.127	561.06
478.346	577.06
478.564	553.06
478.783	579.06
479.002	594.06
479.22	565.06
479.439	587.06
479.658	631.06
479.876	629.06
480.095	607.06
480.313	626.06
480.532	630.06
480.751	608.06
480.969	614.06
481.188	713.06
481.406	719.06
481.624	631.06
481.843	627.06
482.061	615.06
482.28	606.06
482.498	590.06
482.717	598.06
482.935	602.06
483.153	592.06
483.372	594.06
483.59	616.06
483.808	606.06
484.027	600.06
484.245	597.06
484.463	611.06
484.681	620.06
484.9	593.06
485.118	592.06
485.336	592.06
485.554	623.06
485.772	629.06
485.99	621.06
486.209	610.06
486.427	595.06
486.645	632.06
486.863	663.06
487.081	627.06
487.299	632.06
487.517	653.06
487.735	637.06
487.953	642.06
488.171	635.06
488.389	630.06
488.607	618.06
488.825	643.06
489.043	631.06
489.261	626.06
489.479	642.06
489.696	644.06
489.914	651.06
490.132	662.06
490.35	654.06
490.568	667.06
490.786	676.06
491.003	671.06
491.221	688.06
491.439	707.06
491.657	699.06
491.874	718.06
492.092	706.06
492.31	731.06
492.527	726.06
492.745	725.06
492.963	717.06
493.18	730.06
493.398	733.06
493.615	705.06
493.833	722.06
494.05	733.06
494.268	739.06
494.485	728.06
494.703	749.06
494.92	755.06
495.138	734.06
495.355	761.06
495.573	749.06
495.79	730.06
496.008	735.06
496.225	751.06
496.442	720.06
496.66	767.06
496.877	749.06
497.094	795.06
497.312	809.06
497.529	801.06
497.746	797.06
497.963	803.06
498.181	819.06
498.398	836.06
498.615	872.06
498.832	894.06
499.049	925.06
499.267	928.06
499.484	979.06
499.701	1008.06
499.918	1049.06
500.135	1102.06
500.352	1120.06
500.569	1163.06
500.786	1161.06
501.003	1174.06
501.22	1129.06
501.437	1075.06
501.654	1012.06
501.871	1014.06
502.088	958.06
502.305	913.06
502.522	895.06
502.739	868.06
502.956	855.06
503.172	823.06
503.389	822.06
503.606	813.06
503.823	779.06
504.04	792.06
504.256	807.06
504.473	781.06
504.69	778.06
504.907	766.06
505.123	754.06
505.34	719.06
505.557	703.06
505.773	743.06
505.99	717.06
506.207	715.06
506.423	715.06
506.64	699.06
506.856	688.06
507.073	685.06
507.289	667.06
507.506	686.06
507.722	724.06
507.939	715.06
508.155	698.06
508.372	691.06
508.588	657.06
508.805	669.06
509.021	669.06
509.238	674.06
509.454	673.06
509.67	685.06
509.887	655.06
510.103	666.06
510.319	700.06
510.536	753.06
510.752	1226.06
510.968	1021.06
511.184	673.06
511.401	664.06
511.617	658.06
511.833	633.06
512.049	627.06
512.265	624.06
512.481	631.06
512.698	637.06
512.914	639.06
513.13	638.06
513.346	647.06
513.562	603.06
513.778	637.06
513.994	644.06
514.21	671.06
514.426	650.06
514.642	711.06
514.858	742.06
515.074	753.06
515.29	865.06
515.506	1230.06
515.721	1083.06
515.937	753.06
516.153	698.06
516.369	680.06
516.585	689.06
516.801	667.06
517.016	699.06
517.232	693.06
517.448	690.06
517.664	706.06
517.879	678.06
518.095	680.06
518.311	681.06
518.527	687.06
518.742	687.06
518.958	664.06
519.173	639.06
519.389	639.06
519.605	655.06
519.82	640.06
520.036	659.06
520.251	694.06
520.467	675.06
520.682	666.06
520.898	705.06
521.113	677.06
521.329	728.06
521.544	799.06
521.76	990.06
521.975	1645.06
522.19	1645.06
522.406	927.06
522.621	728.06
522.836	677.06
523.052	633.06
523.267	597.06
523.482	586.06
523.698	576.06
523.913	584.06
524.128	602.06
524.343	581.06
524.559	571.06
524.774	576.06
524.989	574.06
525.204	589.06
525.419	575.06
525.634	578.06
525.849	560.06
526.064	531.06
526.28	537.06
526.495	569.06
526.71	554.06
526.925	549.06
527.14	543.06
527.355	536.06
527.57	540.06
527.785	526.06
527.999	526.06
528.214	550.06
528.429	520.06
528.644	544.06
528.859	527.06
529.074	515.06
529.289	555.06
529.503	633.06
529.718	611.06
529.933	559.06
530.148	559.06
530.363	538.06
530.577	527.06
530.792	521.06
531.007	541.06
531.221	537.06
531.436	529.06
531.651	520.06
531.865	518.06
532.08	504.06
532.295	511.06
532.509	513.06
532.724	499.06
532.938	503.06
533.153	524.06
533.367	522.06
533.582	506.06
533.796	504.06
534.011	521.06
534.225	537.06
534.44	502.06
534.654	499.06
534.868	491.06
535.083	520.06
535.297	518.06
535.511	532.06
535.726	506.06
535.94	515.06
536.154	491.06
536.369	501.06
536.583	480.06
536.797	502.06
537.011	489.06
537.225	497.06
537.44	497.06
537.654	510.06
537.868	493.06
538.082	486.06
538.296	501.06
538.51	480.06
538.724	486.06
538.938	474.06
539.153	488.06
539.367	497.06
539.581	511.06
539.795	497.06
540.009	485.06
540.222	493.06
540.436	491.06
540.65	493.06
540.864	488.06
541.078	501.06
541.292	511.06
541.506	478.06
541.72	462.06
541.934	463.06
542.147	488.06
542.361	498.06
542.575	481.06
542.789	508.06
543.002	497.06
543.216	478.06
543.43	491.06
543.644	493.06
543.857	486.06
544.071	488.06
544.285	485.06
544.498	478.06
544.712	476.06
544.925	486.06
545.139	475.06
545.352	476.06
545.566	463.06
545.779	486.06
545.993	483.06
546.206	498.06
546.42	501.06
546.633	475.06
546.847	471.06
547.06	467.06
547.274	454.06
547.487	459.06
547.7	464.06
547.914	489.06
548.127	481.06
548.34	495.06
548.554	458.06
548.767	480.06
548.98	473.06
549.193	453.06
549.407	488.06
549.62	468.06
549.833	488.06
550.046	455.06
550.259	462.06
550.473	464.06
550.686	477.06
550.899	471.06
551.112	462.06
551.325	469.06
551.538	482.06
551.751	471.06
551.964	451.06
552.177	451.06
552.39	468.06
552.603	470.06
552.816	467.06
553.029	482.06
553.242	475.06
553.455	494.06
553.667	507.06
553.88	498.06
554.093	480.06
554.306	493.06
554.519	493.06
554.732	460.06
554.944	473.06
555.157	480.06
555.37	447.06
555.583	454.06
555.795	461.06
556.008	451.06
556.221	433.06
556.433	445.06
556.646	434.06
556.859	426.06
557.071	433.06
557.284	447.06
557.496	474.06
557.709	429.06
557.921	452.06
558.134	420.06
558.346	440.06
558.559	432.06
558.771	416.06
558.984	403.06
559.196	409.06
559.409	417.06
559.621	429.06
559.833	414.06
560.046	416.06
560.258	403.06
560.47	420.06
560.683	411.06
560.895	410.06
561.107	426.06
561.32	418.06
561.532	388.06
561.744	421.06
561.956	420.06
562.168	418.06
562.381	415.06
562.593	411.06
562.805	438.06
563.017	437.06
563.229	419.06
563.441	418.06
563.653	432.06
563.865	417.06
564.077	406.06
564.289	441.06
564.501	433.06
564.713	441.06
564.925	465.06
565.137	441.06
565.349	460.06
565.561	478.06
565.773	477.06
565.985	481.06
566.197	477.06
566.408	481.06
566.62	513.06
566.832	522.06
567.044	553.06
567.255	536.06
567.467	557.06
567.679	576.06
567.891	567.06
568.102	596.06
568.314	559.06
568.526	535.06
568.737	496.06
568.949	484.06
569.161	469.06
569.372	474.06
569.584	456.06
569.795	462.06
570.007	430.06
570.218	465.06
570.43	481.06
570.641	417.06
570.853	410.06
571.064	422.06
571.276	391.06
571.487	409.06
571.698	409.06
571.91	417.06
572.121	401.06
572.333	393.06
572.544	361.06
572.755	363.06
572.966	390.06
573.178	381.06
573.389	384.06
573.6	376.06
573.811	356.06
574.023	383.06
574.234	367.06
574.445	365.06
574.656	373.06
574.867	356.06
575.078	357.06
575.289	363.06
575.501	359.06
575.712	361.06
575.923	350.06
576.134	349.06
576.345	360.06
576.556	360.06
576.767	349.06
576.978	342.06
577.188	342.06
577.399	348.06
577.61	353.06
577.821	338.06
578.032	357.06
578.243	381.06
578.454	596.06
578.665	450.06
578.875	345.06
579.086	323.06
579.297	344.06
579.508	336.06
579.718	326.06
579.929	339.06
580.14	334.06
580.35	333.06
580.561	331.06
580.772	320.06
580.982	331.06
581.193	332.06
581.403	307.06
581.614	353.06
581.825	349.06
582.035	324.06
582.246	330.06
582.456	344.06
582.667	323.06
582.877	307.06
583.087	320.06
583.298	325.06
583.508	318.06
583.719	310.06
583.929	321.06
584.139	315.06
584.35	321.06
584.56	316.06
584.77	331.06
584.981	325.06
585.191	334.06
585.401	337.06
585.611	316.06
585.821	329.06
586.032	321.06
586.242	326.06
586.452	342.06
586.662	314.06
586.872	305.06
587.082	338.06
587.292	318.06
587.502	315.06
587.713	311.06
587.923	334.06
588.133	335.06
588.343	317.06
588.553	315.06
588.762	316.06
588.972	331.06
589.182	328.06
589.392	318.06
589.602	310.06
589.812	313.06
590.022	323.06
590.232	314.06
590.441	315.06
590.651	301.06
590.861	311.06
591.071	313.06
591.281	298.06
591.49	314.06
591.7	322.06
591.91	335.06
592.119	305.06
592.329	330.06
592.539	339.06
592.748	351.06
592.958	354.06
593.167	359.06
593.377	337.06
593.587	346.06
593.796	339.06
594.006	342.06
594.215	331.06
594.424	350.06
594.634	341.06
594.843	329.06
595.053	321.06
595.262	322.06
595.472	327.06
595.681	303.06
595.89	314.06
596.1	327.06
596.309	303.06
596.518	290.06
596.727	277.06
596.937	305.06
597.146	305.06
597.355	282.06
597.564	281.06
597.774	279.06
597.983	280.06
598.192	278.06
598.401	285.06
598.61	281.06
598.819	290.06
599.028	276.06
599.237	271.06
599.446	267.06
599.655	288.06
599.864	284.06
600.073	281.06
600.282	274.06
600.491	273.06
600.7	281.06
600.909	271.06
601.118	279.06
601.327	265.06
601.536	275.06
601.745	268.06
601.953	276.06
602.162	271.06
602.371	266.06
602.58	275.06
602.789	278.06
602.997	269.06
603.206	268.06
603.415	272.06
603.623	262.06
603.832	242.06
604.041	261.06
604.249	264.06
604.458	259.06
604.666	266.06
604.875	259.06
605.084	248.06
605.292	257.06
605.501	262.06
605.709	265.06
605.918	259.06
606.126	258.06
606.334	273.06
606.543	242.06
606.751	259.06
606.96	266.06
607.168	248.06
607.376	263.06
607.585	248.06
607.793	266.06
608.001	247.06
608.21	250.06
608.418	259.06
608.626	246.06
608.834	250.06
609.043	259.06
609.251	253.06
609.459	238.06
609.667	259.06
609.875	234.06
610.083	245.06
610.291	231.06
610.499	267.06
610.707	242.06
610.916	231.06
611.124	253.06
611.332	261.06
611.54	273.06
611.748	256.06
611.955	242.06
612.163	239.06
612.371	248.06
612.579	245.06
612.787	275.06
612.995	253.06
613.203	244.06
613.411	252.06
613.618	241.06
613.826	249.06
614.034	231.06
614.242	241.06
614.449	222.06
614.657	251.06
614.865	248.06
615.072	245.06
615.28	250.06
615.488	243.06
615.695	255.06
615.903	248.06
616.111	229.06
616.318	248.06
616.526	259.06
616.733	257.06
616.941	240.06
617.148	253.06
617.356	243.06
617.563	250.06
617.771	248.06
617.978	254.06
618.185	235.06
618.393	257.06
618.6	229.06
618.807	246.06
619.015	253.06
619.222	234.06
619.429	240.06
619.637	249.06
619.844	222.06
620.051	240.06
620.258	241.06
620.466	240.06
620.673	242.06
620.88	210.06
621.087	227.06
621.294	245.06
621.501	231.06
621.708	222.06
621.915	245.06
622.122	224.06
622.329	226.06
622.536	239.06
622.743	227.06
622.95	221.06
623.157	239.06
623.364	232.06
623.571	222.06
623.778	235.06
623.985	228.06
624.192	212.06
624.399	222.06
624.606	215.06
624.812	222.06
625.019	195.06
625.226	199.06
625.433	218.06
625.639	230.06
625.846	225.06
626.053	200.06
626.259	206.06
626.466	231.06
626.673	204.06
626.879	211.06
627.086	228.06
627.293	220.06
627.499	210.06
627.706	218.06
627.912	219.06
628.119	232.06
628.325	207.06
628.532	207.06
628.738	197.06
628.945	211.06
629.151	199.06
629.357	223.06
629.564	190.06
629.77	195.06
629.976	207.06
630.183	198.06
630.389	198.06
630.595	218.06
630.802	197.06
631.008	201.06
631.214	204.06
631.42	198.06
631.627	197.06
631.833	192.06
632.039	199.06
632.245	192.06
632.451	194.06
632.657	208.06
632.863	200.06
633.069	188.06
633.275	197.06
633.481	198.06
633.688	193.06
633.893	190.06
634.099	202.06
634.305	192.06
634.511	184.06
634.717	161.06
634.923	177.06
635.129	184.06
635.335	192.06
635.541	166.06
635.747	185.06
635.952	189.06
636.158	191.06
636.364	182.06
636.57	206.06
636.775	195.06
636.981	183.06
637.187	198.06
637.392	193.06
637.598	187.06
637.804	186.06
638.009	198.06
638.215	198.06
638.421	178.06
638.626	171.06
638.832	180.06
639.037	165.06
639.243	182.06
639.448	187.06
639.654	188.06
639.859	197.06
640.065	173.06
640.27	181.06
640.475	171.06
640.681	177.06
640.886	166.06
641.091	171.06
641.297	190.06
641.502	181.06
641.707	179.06
641.913	161.06
642.118	181.06
642.323	161.06
642.528	177.06
642.733	176.06
642.939	165.06
643.144	181.06
643.349	169.06
643.554	159.06
643.759	159.06
643.964	153.06
644.169	177.06
644.374	163.06
644.579	157.06
644.784	167.06
644.989	169.06
645.194	162.06
645.399	179.06
645.604	169.06
645.809	186.06
646.014	185.06
646.219	184.06
646.423	164.06
646.628	159.06
646.833	163.06
647.038	169.06
647.243	187.06
647.447	169.06
647.652	171.06
647.857	180.06
648.062	168.06
648.266	158.06
648.471	168.06
648.676	170.06
648.88	165.06
649.085	150.06
649.289	179.06
649.494	160.06
649.698	191.06
649.903	203.06
650.107	170.06
650.312	163.06
650.516	156.06
650.721	162.06
650.925	149.06
651.13	165.06
651.334	158.06
651.539	165.06
651.743	154.06
651.947	143.06
652.152	152.06
652.356	143.06
652.56	168.06
652.764	142.06
652.969	148.06
653.173	156.06
653.377	146.06
653.581	150.06
653.785	154.06
653.99	146.06
654.194	136.06
654.398	137.06
654.602	132.06
654.806	120.06
655.01	144.06
655.214	123.06
655.418	130.06
655.622	141.06
655.826	140.06
656.03	122.06
656.234	118.06
656.438	144.06
656.642	129.06
656.846	123.06
657.049	127.06
657.253	129.06
657.457	114.06
657.661	117.06
657.865	123.06
658.068	122.06
658.272	119.06
658.476	108.06
658.68	106.06
658.883	113.06
659.087	99.06
659.291	75.06
659.494	94.06
659.698	110.06
659.901	99.06
660.105	97.06
660.309	80.06
660.512	90.06
660.716	94.06
660.919	94.06
661.123	95.06
661.326	84.06
661.53	90.06
661.733	71.06
661.936	98.06
662.14	83.06
662.343	82.06
662.546	86.06
662.75	82.06
662.953	85.06
663.156	88.06
663.36	82.06
663.563	80.06
663.766	79.06
663.969	83.06
664.173	66.06
664.376	76.06
664.579	74.06
664.782	79.06
664.985	74.06
665.188	62.06
665.391	85.06
665.594	80.06
665.797	74.06
666	91.06
666.203	84.06
666.406	86.06
666.609	79.06
666.812	74.06
667.015	93.06
667.218	74.06
667.421	67.06
667.624	81.06
667.827	78.06
668.03	89.06
668.232	83.06
668.435	86.06
668.638	75.06
668.841	94.06
669.043	86.06
669.246	82.06
669.449	79.06
669.651	86.06
669.854	81.06
670.057	72.06
670.259	88.06
670.462	79.06
670.665	97.06
670.867	81.06
671.07	81.06
671.272	68.06
671.475	58.06
671.677	83.06
671.88	83.06
672.082	80.06
672.284	78.06
672.487	81.06
672.689	81.06
672.892	91.06
