Data from 1979.PennyLincolnUp.Lamp.En5.5.200Scan.071719.P1_HRD10591_16-18-49-863.txt Node
Date: Thu Jul 18 16:18:49 EDT 2019
User: cochatt
Spectrometer: HR+D1059
Trigger mode: 1
Integration Time (sec): 1.000000E-1
Scans to average: 1
Electric dark correction enabled: true
Nonlinearity correction enabled: false
Boxcar width: 0
XAxis mode: Wavelengths
Number of Pixels in Spectrum: 2048
>>>>>Begin Spectral Data<<<<<
223.165	-20.94
223.4	-20.94
223.635	-20.94
223.869	-22.94
224.104	-15.94
224.338	-16.94
224.573	-8.94
224.808	-15.94
225.042	2.06
225.277	2.06
225.511	3.06
225.746	-9.94
225.98	10.06
226.215	14.06
226.449	21.06
226.683	8.06
226.918	28.06
227.152	23.06
227.387	22.06
227.621	38.06
227.856	52.06
228.09	36.06
228.324	43.06
228.559	60.06
228.793	68.06
229.027	103.06
229.262	106.06
229.496	111.06
229.73	123.06
229.964	139.06
230.199	143.06
230.433	122.06
230.667	107.06
230.901	116.06
231.136	107.06
231.37	114.06
231.604	116.06
231.838	103.06
232.072	121.06
232.306	117.06
232.541	111.06
232.775	118.06
233.009	109.06
233.243	110.06
233.477	112.06
233.711	127.06
233.945	118.06
234.179	118.06
234.413	124.06
234.647	110.06
234.881	116.06
235.115	126.06
235.349	124.06
235.583	107.06
235.817	116.06
236.051	132.06
236.285	122.06
236.519	114.06
236.753	110.06
236.987	158.06
237.221	165.06
237.455	211.06
237.689	177.06
237.922	115.06
238.156	120.06
238.39	135.06
238.624	133.06
238.858	119.06
239.091	120.06
239.325	123.06
239.559	128.06
239.793	143.06
240.027	124.06
240.26	127.06
240.494	154.06
240.728	146.06
240.961	151.06
241.195	134.06
241.429	135.06
241.662	129.06
241.896	121.06
242.13	126.06
242.363	115.06
242.597	133.06
242.83	128.06
243.064	152.06
243.298	131.06
243.531	141.06
243.765	135.06
243.998	130.06
244.232	147.06
244.465	150.06
244.699	150.06
244.932	148.06
245.166	148.06
245.399	150.06
245.633	134.06
245.866	145.06
246.099	138.06
246.333	155.06
246.566	142.06
246.8	150.06
247.033	168.06
247.266	133.06
247.5	158.06
247.733	170.06
247.966	168.06
248.2	161.06
248.433	160.06
248.666	189.06
248.899	180.06
249.133	191.06
249.366	172.06
249.599	191.06
249.832	174.06
250.066	161.06
250.299	176.06
250.532	165.06
250.765	188.06
250.998	210.06
251.231	217.06
251.465	209.06
251.698	177.06
251.931	192.06
252.164	193.06
252.397	189.06
252.63	194.06
252.863	189.06
253.096	195.06
253.329	226.06
253.562	206.06
253.795	204.06
254.028	189.06
254.261	199.06
254.494	198.06
254.727	212.06
254.96	236.06
255.193	238.06
255.426	223.06
255.659	198.06
255.892	219.06
256.124	200.06
256.357	214.06
256.59	201.06
256.823	205.06
257.056	192.06
257.289	194.06
257.521	207.06
257.754	182.06
257.987	174.06
258.22	185.06
258.452	182.06
258.685	200.06
258.918	194.06
259.151	204.06
259.383	208.06
259.616	205.06
259.849	207.06
260.081	217.06
260.314	227.06
260.547	235.06
260.779	215.06
261.012	220.06
261.244	208.06
261.477	195.06
261.71	209.06
261.942	210.06
262.175	222.06
262.407	205.06
262.64	199.06
262.872	184.06
263.105	214.06
263.337	209.06
263.57	217.06
263.802	201.06
264.035	210.06
264.267	202.06
264.499	188.06
264.732	198.06
264.964	202.06
265.197	194.06
265.429	199.06
265.661	207.06
265.894	203.06
266.126	216.06
266.358	198.06
266.591	212.06
266.823	205.06
267.055	216.06
267.287	203.06
267.52	208.06
267.752	210.06
267.984	209.06
268.216	217.06
268.448	219.06
268.681	231.06
268.913	223.06
269.145	255.06
269.377	246.06
269.609	239.06
269.841	232.06
270.073	241.06
270.306	275.06
270.538	264.06
270.77	278.06
271.002	289.06
271.234	268.06
271.466	266.06
271.698	293.06
271.93	278.06
272.162	267.06
272.394	276.06
272.626	269.06
272.858	248.06
273.09	263.06
273.322	267.06
273.553	258.06
273.785	244.06
274.017	238.06
274.249	245.06
274.481	267.06
274.713	264.06
274.945	261.06
275.176	266.06
275.408	270.06
275.64	254.06
275.872	240.06
276.104	235.06
276.335	226.06
276.567	248.06
276.799	262.06
277.031	273.06
277.262	276.06
277.494	289.06
277.726	269.06
277.957	267.06
278.189	264.06
278.421	269.06
278.652	252.06
278.884	251.06
279.115	265.06
279.347	248.06
279.579	252.06
279.81	269.06
280.042	270.06
280.273	241.06
280.505	239.06
280.736	268.06
280.968	245.06
281.199	255.06
281.431	256.06
281.662	264.06
281.894	262.06
282.125	260.06
282.356	274.06
282.588	287.06
282.819	289.06
283.051	271.06
283.282	252.06
283.513	271.06
283.745	265.06
283.976	275.06
284.207	258.06
284.439	264.06
284.67	256.06
284.901	279.06
285.132	279.06
285.364	265.06
285.595	257.06
285.826	246.06
286.057	280.06
286.288	260.06
286.52	268.06
286.751	272.06
286.982	280.06
287.213	287.06
287.444	273.06
287.675	282.06
287.906	270.06
288.138	273.06
288.369	280.06
288.6	286.06
288.831	294.06
289.062	271.06
289.293	284.06
289.524	270.06
289.755	294.06
289.986	278.06
290.217	273.06
290.448	262.06
290.679	264.06
290.91	275.06
291.141	300.06
291.371	288.06
291.602	265.06
291.833	277.06
292.064	259.06
292.295	285.06
292.526	251.06
292.757	268.06
292.987	262.06
293.218	261.06
293.449	266.06
293.68	292.06
293.91	279.06
294.141	276.06
294.372	267.06
294.603	280.06
294.833	264.06
295.064	284.06
295.295	298.06
295.525	277.06
295.756	295.06
295.987	294.06
296.217	297.06
296.448	334.06
296.679	302.06
296.909	291.06
297.14	306.06
297.37	288.06
297.601	286.06
297.831	285.06
298.062	301.06
298.292	285.06
298.523	279.06
298.753	294.06
298.984	302.06
299.214	313.06
299.445	304.06
299.675	310.06
299.905	285.06
300.136	296.06
300.366	293.06
300.597	309.06
300.827	303.06
301.057	331.06
301.288	306.06
301.518	312.06
301.748	298.06
301.979	319.06
302.209	310.06
302.439	326.06
302.669	314.06
302.9	326.06
303.13	315.06
303.36	318.06
303.59	321.06
303.82	320.06
304.051	328.06
304.281	321.06
304.511	310.06
304.741	286.06
304.971	285.06
305.201	313.06
305.431	308.06
305.661	329.06
305.891	318.06
306.121	322.06
306.352	324.06
306.582	313.06
306.812	327.06
307.042	339.06
307.272	319.06
307.502	321.06
307.731	327.06
307.961	337.06
308.191	321.06
308.421	318.06
308.651	330.06
308.881	317.06
309.111	325.06
309.341	335.06
309.571	334.06
309.8	356.06
310.03	334.06
310.26	356.06
310.49	349.06
310.72	364.06
310.949	373.06
311.179	360.06
311.409	348.06
311.639	368.06
311.868	365.06
312.098	365.06
312.328	354.06
312.557	388.06
312.787	396.06
313.017	397.06
313.246	360.06
313.476	377.06
313.706	361.06
313.935	366.06
314.165	363.06
314.394	366.06
314.624	370.06
314.853	384.06
315.083	364.06
315.312	360.06
315.542	358.06
315.771	330.06
316.001	329.06
316.23	363.06
316.46	360.06
316.689	369.06
316.919	343.06
317.148	363.06
317.377	377.06
317.607	361.06
317.836	379.06
318.065	350.06
318.295	352.06
318.524	353.06
318.753	359.06
318.983	370.06
319.212	362.06
319.441	351.06
319.67	361.06
319.9	356.06
320.129	366.06
320.358	369.06
320.587	380.06
320.816	369.06
321.046	377.06
321.275	380.06
321.504	355.06
321.733	388.06
321.962	380.06
322.191	390.06
322.42	410.06
322.649	406.06
322.878	426.06
323.108	433.06
323.337	438.06
323.566	458.06
323.795	461.06
324.024	505.06
324.253	624.06
324.482	850.06
324.71	1329.06
324.939	1922.06
325.168	1712.06
325.397	822.06
325.626	584.06
325.855	502.06
326.084	470.06
326.313	466.06
326.542	455.06
326.77	505.06
326.999	566.06
327.228	767.06
327.457	1200.06
327.686	1479.06
327.914	950.06
328.143	620.06
328.372	567.06
328.6	542.06
328.829	485.06
329.058	509.06
329.287	543.06
329.515	522.06
329.744	473.06
329.972	454.06
330.201	493.06
330.43	484.06
330.658	535.06
330.887	555.06
331.115	542.06
331.344	486.06
331.572	444.06
331.801	472.06
332.03	461.06
332.258	452.06
332.486	423.06
332.715	429.06
332.943	448.06
333.172	449.06
333.4	444.06
333.629	465.06
333.857	469.06
334.085	484.06
334.314	481.06
334.542	500.06
334.771	529.06
334.999	483.06
335.227	458.06
335.455	433.06
335.684	458.06
335.912	444.06
336.14	442.06
336.369	458.06
336.597	433.06
336.825	442.06
337.053	432.06
337.281	420.06
337.51	417.06
337.738	418.06
337.966	431.06
338.194	434.06
338.422	433.06
338.65	423.06
338.878	444.06
339.106	416.06
339.334	428.06
339.562	415.06
339.79	410.06
340.018	436.06
340.246	418.06
340.474	429.06
340.702	412.06
340.93	406.06
341.158	411.06
341.386	384.06
341.614	428.06
341.842	407.06
342.07	400.06
342.298	407.06
342.526	412.06
342.754	404.06
342.981	393.06
343.209	410.06
343.437	398.06
343.665	422.06
343.893	463.06
344.12	446.06
344.348	424.06
344.576	431.06
344.804	430.06
345.031	426.06
345.259	449.06
345.487	425.06
345.714	428.06
345.942	411.06
346.17	394.06
346.397	410.06
346.625	423.06
346.853	407.06
347.08	408.06
347.308	395.06
347.535	416.06
347.763	412.06
347.99	406.06
348.218	405.06
348.445	438.06
348.673	411.06
348.9	402.06
349.128	402.06
349.355	407.06
349.583	412.06
349.81	393.06
350.037	388.06
350.265	411.06
350.492	406.06
350.72	408.06
350.947	396.06
351.174	407.06
351.402	417.06
351.629	415.06
351.856	405.06
352.083	410.06
352.311	413.06
352.538	405.06
352.765	418.06
352.992	419.06
353.22	396.06
353.447	404.06
353.674	410.06
353.901	398.06
354.128	389.06
354.355	390.06
354.583	385.06
354.81	415.06
355.037	396.06
355.264	376.06
355.491	370.06
355.718	392.06
355.945	382.06
356.172	386.06
356.399	389.06
356.626	400.06
356.853	377.06
357.08	398.06
357.307	398.06
357.534	395.06
357.761	384.06
357.988	379.06
358.215	389.06
358.441	375.06
358.668	393.06
358.895	399.06
359.122	379.06
359.349	381.06
359.576	396.06
359.802	428.06
360.029	427.06
360.256	450.06
360.483	444.06
360.709	433.06
360.936	399.06
361.163	431.06
361.39	413.06
361.616	399.06
361.843	422.06
362.07	398.06
362.296	421.06
362.523	418.06
362.749	418.06
362.976	408.06
363.203	405.06
363.429	404.06
363.656	394.06
363.882	413.06
364.109	413.06
364.335	385.06
364.562	413.06
364.788	376.06
365.015	400.06
365.241	397.06
365.468	376.06
365.694	384.06
365.92	400.06
366.147	416.06
366.373	386.06
366.599	402.06
366.826	406.06
367.052	383.06
367.278	390.06
367.505	402.06
367.731	393.06
367.957	396.06
368.184	417.06
368.41	403.06
368.636	394.06
368.862	402.06
369.089	415.06
369.315	410.06
369.541	390.06
369.767	403.06
369.993	403.06
370.219	401.06
370.445	404.06
370.672	401.06
370.898	398.06
371.124	407.06
371.35	402.06
371.576	404.06
371.802	408.06
372.028	405.06
372.254	408.06
372.48	408.06
372.706	424.06
372.932	423.06
373.158	394.06
373.384	415.06
373.61	406.06
373.835	423.06
374.061	409.06
374.287	412.06
374.513	404.06
374.739	410.06
374.965	416.06
375.191	422.06
375.416	418.06
375.642	415.06
375.868	396.06
376.094	410.06
376.319	410.06
376.545	408.06
376.771	409.06
376.997	416.06
377.222	417.06
377.448	422.06
377.674	399.06
377.899	413.06
378.125	408.06
378.35	406.06
378.576	401.06
378.802	418.06
379.027	406.06
379.253	412.06
379.478	400.06
379.704	392.06
379.929	402.06
380.155	400.06
380.38	412.06
380.606	400.06
380.831	400.06
381.057	426.06
381.282	410.06
381.507	416.06
381.733	432.06
381.958	437.06
382.184	416.06
382.409	389.06
382.634	412.06
382.86	423.06
383.085	430.06
383.31	442.06
383.535	425.06
383.761	424.06
383.986	433.06
384.211	445.06
384.436	436.06
384.662	439.06
384.887	440.06
385.112	459.06
385.337	455.06
385.562	428.06
385.787	433.06
386.013	474.06
386.238	466.06
386.463	453.06
386.688	460.06
386.913	446.06
387.138	477.06
387.363	460.06
387.588	446.06
387.813	473.06
388.038	461.06
388.263	463.06
388.488	454.06
388.713	449.06
388.938	476.06
389.163	466.06
389.387	453.06
389.612	449.06
389.837	459.06
390.062	442.06
390.287	446.06
390.512	451.06
390.736	459.06
390.961	444.06
391.186	441.06
391.411	471.06
391.636	476.06
391.86	482.06
392.085	463.06
392.31	499.06
392.534	481.06
392.759	479.06
392.984	472.06
393.208	479.06
393.433	467.06
393.658	469.06
393.882	473.06
394.107	477.06
394.331	479.06
394.556	469.06
394.78	464.06
395.005	462.06
395.229	461.06
395.454	468.06
395.678	470.06
395.903	507.06
396.127	489.06
396.352	506.06
396.576	477.06
396.801	502.06
397.025	496.06
397.249	481.06
397.474	492.06
397.698	496.06
397.922	487.06
398.147	502.06
398.371	541.06
398.595	522.06
398.82	527.06
399.044	521.06
399.268	557.06
399.492	591.06
399.717	616.06
399.941	657.06
400.165	676.06
400.389	657.06
400.613	602.06
400.837	569.06
401.062	557.06
401.286	543.06
401.51	542.06
401.734	572.06
401.958	546.06
402.182	559.06
402.406	564.06
402.63	565.06
402.854	554.06
403.078	557.06
403.302	572.06
403.526	566.06
403.75	560.06
403.974	576.06
404.198	545.06
404.422	553.06
404.645	586.06
404.869	576.06
405.093	589.06
405.317	619.06
405.541	651.06
405.765	601.06
405.988	602.06
406.212	600.06
406.436	629.06
406.66	636.06
406.883	604.06
407.107	620.06
407.331	677.06
407.555	700.06
407.778	723.06
408.002	683.06
408.226	620.06
408.449	625.06
408.673	617.06
408.896	656.06
409.12	680.06
409.344	667.06
409.567	599.06
409.791	603.06
410.014	596.06
410.238	585.06
410.461	559.06
410.685	563.06
410.908	582.06
411.132	623.06
411.355	648.06
411.578	606.06
411.802	577.06
412.025	557.06
412.249	566.06
412.472	595.06
412.695	628.06
412.919	626.06
413.142	570.06
413.365	562.06
413.589	559.06
413.812	554.06
414.035	536.06
414.258	531.06
414.482	556.06
414.705	540.06
414.928	542.06
415.151	538.06
415.374	555.06
415.597	542.06
415.821	542.06
416.044	491.06
416.267	533.06
416.49	540.06
416.713	526.06
416.936	516.06
417.159	557.06
417.382	529.06
417.605	524.06
417.828	545.06
418.051	545.06
418.274	536.06
418.497	522.06
418.72	542.06
418.943	541.06
419.166	559.06
419.389	599.06
419.611	583.06
419.834	561.06
420.057	565.06
420.28	553.06
420.503	568.06
420.726	549.06
420.948	561.06
421.171	585.06
421.394	628.06
421.617	578.06
421.839	552.06
422.062	568.06
422.285	548.06
422.507	626.06
422.73	710.06
422.953	684.06
423.175	601.06
423.398	566.06
423.621	586.06
423.843	595.06
424.066	602.06
424.288	578.06
424.511	624.06
424.733	665.06
424.956	720.06
425.178	686.06
425.401	678.06
425.623	706.06
425.846	614.06
426.068	608.06
426.291	582.06
426.513	570.06
426.735	593.06
426.958	632.06
427.18	696.06
427.402	816.06
427.625	924.06
427.847	801.06
428.069	688.06
428.292	632.06
428.514	592.06
428.736	556.06
428.958	568.06
429.181	552.06
429.403	544.06
429.625	550.06
429.847	600.06
430.069	618.06
430.292	618.06
430.514	569.06
430.736	564.06
430.958	542.06
431.18	533.06
431.402	534.06
431.624	495.06
431.846	514.06
432.068	525.06
432.29	522.06
432.512	501.06
432.734	535.06
432.956	517.06
433.178	524.06
433.4	542.06
433.622	540.06
433.844	523.06
434.066	521.06
434.287	517.06
434.509	540.06
434.731	543.06
434.953	545.06
435.175	566.06
435.397	588.06
435.618	592.06
435.84	613.06
436.062	686.06
436.284	760.06
436.505	633.06
436.727	588.06
436.949	526.06
437.17	560.06
437.392	564.06
437.614	558.06
437.835	572.06
438.057	672.06
438.278	758.06
438.5	753.06
438.721	819.06
438.943	794.06
439.165	654.06
439.386	601.06
439.608	603.06
439.829	575.06
440.05	599.06
440.272	658.06
440.493	630.06
440.715	576.06
440.936	592.06
441.158	546.06
441.379	544.06
441.6	578.06
441.822	583.06
442.043	625.06
442.264	684.06
442.486	734.06
442.707	651.06
442.928	587.06
443.149	598.06
443.371	636.06
443.592	662.06
443.813	756.06
444.034	814.06
444.255	708.06
444.476	626.06
444.698	605.06
444.919	606.06
445.14	721.06
445.361	670.06
445.582	636.06
445.803	680.06
446.024	782.06
446.245	752.06
446.466	714.06
446.687	616.06
446.908	590.06
447.129	558.06
447.35	538.06
447.571	548.06
447.792	518.06
448.013	529.06
448.234	562.06
448.455	596.06
448.675	692.06
448.896	792.06
449.117	689.06
449.338	638.06
449.559	735.06
449.779	842.06
450	684.06
450.221	560.06
450.442	546.06
450.662	526.06
450.883	561.06
451.104	558.06
451.324	535.06
451.545	497.06
451.766	488.06
451.986	502.06
452.207	496.06
452.428	509.06
452.648	510.06
452.869	480.06
453.089	482.06
453.31	522.06
453.53	502.06
453.751	489.06
453.971	488.06
454.192	505.06
454.412	503.06
454.633	481.06
454.853	448.06
455.073	473.06
455.294	518.06
455.514	564.06
455.734	559.06
455.955	486.06
456.175	477.06
456.395	464.06
456.616	475.06
456.836	465.06
457.056	470.06
457.276	451.06
457.497	469.06
457.717	441.06
457.937	481.06
458.157	455.06
458.377	480.06
458.598	499.06
458.818	554.06
459.038	622.06
459.258	632.06
459.478	576.06
459.698	560.06
459.918	523.06
460.138	534.06
460.358	530.06
460.578	538.06
460.798	558.06
461.018	561.06
461.238	543.06
461.458	551.06
461.678	552.06
461.898	549.06
462.118	543.06
462.338	549.06
462.558	553.06
462.777	580.06
462.997	616.06
463.217	619.06
463.437	610.06
463.657	621.06
463.876	592.06
464.096	594.06
464.316	581.06
464.536	599.06
464.755	600.06
464.975	578.06
465.195	646.06
465.414	694.06
465.634	622.06
465.854	564.06
466.073	552.06
466.293	532.06
466.512	540.06
466.732	511.06
466.951	527.06
467.171	492.06
467.391	496.06
467.61	508.06
467.829	521.06
468.049	514.06
468.268	523.06
468.488	494.06
468.707	500.06
468.927	502.06
469.146	509.06
469.365	529.06
469.585	482.06
469.804	503.06
470.023	504.06
470.243	530.06
470.462	533.06
470.681	542.06
470.901	569.06
471.12	538.06
471.339	522.06
471.558	489.06
471.777	494.06
471.997	502.06
472.216	508.06
472.435	565.06
472.654	560.06
472.873	528.06
473.092	498.06
473.311	501.06
473.53	512.06
473.749	520.06
473.968	539.06
474.187	637.06
474.406	661.06
474.625	573.06
474.844	530.06
475.063	516.06
475.282	513.06
475.501	529.06
475.72	533.06
475.939	507.06
476.158	532.06
476.377	526.06
476.596	519.06
476.814	548.06
477.033	542.06
477.252	545.06
477.471	538.06
477.69	545.06
477.908	543.06
478.127	567.06
478.346	569.06
478.564	597.06
478.783	592.06
479.002	597.06
479.22	591.06
479.439	628.06
479.658	618.06
479.876	602.06
480.095	623.06
480.313	637.06
480.532	648.06
480.751	626.06
480.969	631.06
481.188	676.06
481.406	695.06
481.624	645.06
481.843	615.06
482.061	590.06
482.28	604.06
482.498	613.06
482.717	611.06
482.935	594.06
483.153	603.06
483.372	598.06
483.59	600.06
483.808	594.06
484.027	573.06
484.245	580.06
484.463	578.06
484.681	607.06
484.9	598.06
485.118	632.06
485.336	620.06
485.554	605.06
485.772	639.06
485.99	640.06
486.209	639.06
486.427	620.06
486.645	622.06
486.863	639.06
487.081	654.06
487.299	629.06
487.517	650.06
487.735	629.06
487.953	637.06
488.171	658.06
488.389	638.06
488.607	625.06
488.825	635.06
489.043	602.06
489.261	644.06
489.479	642.06
489.696	652.06
489.914	666.06
490.132	633.06
490.35	654.06
490.568	684.06
490.786	672.06
491.003	681.06
491.221	718.06
491.439	702.06
491.657	704.06
491.874	688.06
492.092	717.06
492.31	733.06
492.527	721.06
492.745	710.06
492.963	729.06
493.18	720.06
493.398	750.06
493.615	732.06
493.833	729.06
494.05	734.06
494.268	741.06
494.485	733.06
494.703	725.06
494.92	754.06
495.138	750.06
495.355	740.06
495.573	748.06
495.79	749.06
496.008	757.06
496.225	745.06
496.442	738.06
496.66	757.06
496.877	737.06
497.094	768.06
497.312	776.06
497.529	785.06
497.746	795.06
497.963	813.06
498.181	810.06
498.398	835.06
498.615	836.06
498.832	889.06
499.049	900.06
499.267	909.06
499.484	964.06
499.701	1006.06
499.918	1066.06
500.135	1109.06
500.352	1155.06
500.569	1179.06
500.786	1171.06
501.003	1158.06
501.22	1105.06
501.437	1076.06
501.654	1024.06
501.871	1002.06
502.088	994.06
502.305	924.06
502.522	902.06
502.739	859.06
502.956	844.06
503.172	827.06
503.389	825.06
503.606	785.06
503.823	804.06
504.04	772.06
504.256	765.06
504.473	776.06
504.69	767.06
504.907	784.06
505.123	751.06
505.34	732.06
505.557	710.06
505.773	717.06
505.99	722.06
506.207	701.06
506.423	696.06
506.64	718.06
506.856	680.06
507.073	710.06
507.289	701.06
507.506	701.06
507.722	694.06
507.939	709.06
508.155	686.06
508.372	682.06
508.588	671.06
508.805	664.06
509.021	664.06
509.238	659.06
509.454	679.06
509.67	676.06
509.887	656.06
510.103	663.06
510.319	642.06
510.536	737.06
510.752	1215.06
510.968	1010.06
511.184	681.06
511.401	680.06
511.617	651.06
511.833	632.06
512.049	632.06
512.265	620.06
512.481	636.06
512.698	621.06
512.914	626.06
513.13	612.06
513.346	649.06
513.562	636.06
513.778	639.06
513.994	629.06
514.21	663.06
514.426	696.06
514.642	675.06
514.858	710.06
515.074	763.06
515.29	864.06
515.506	1257.06
515.721	1089.06
515.937	774.06
516.153	728.06
516.369	666.06
516.585	687.06
516.801	696.06
517.016	682.06
517.232	708.06
517.448	689.06
517.664	684.06
517.879	690.06
518.095	719.06
518.311	674.06
518.527	672.06
518.742	664.06
518.958	642.06
519.173	654.06
519.389	657.06
519.605	648.06
519.82	681.06
520.036	661.06
520.251	686.06
520.467	677.06
520.682	666.06
520.898	690.06
521.113	706.06
521.329	733.06
521.544	808.06
521.76	974.06
521.975	1560.06
522.19	1619.06
522.406	901.06
522.621	689.06
522.836	635.06
523.052	628.06
523.267	623.06
523.482	632.06
523.698	599.06
523.913	576.06
524.128	580.06
524.343	577.06
524.559	584.06
524.774	572.06
524.989	572.06
525.204	552.06
525.419	569.06
525.634	573.06
525.849	543.06
526.064	569.06
526.28	560.06
526.495	533.06
526.71	538.06
526.925	557.06
527.14	541.06
527.355	526.06
527.57	530.06
527.785	523.06
527.999	527.06
528.214	550.06
528.429	549.06
528.644	562.06
528.859	557.06
529.074	542.06
529.289	563.06
529.503	627.06
529.718	605.06
529.933	564.06
530.148	552.06
530.363	548.06
530.577	528.06
530.792	537.06
531.007	539.06
531.221	536.06
531.436	503.06
531.651	497.06
531.865	528.06
532.08	518.06
532.295	520.06
532.509	518.06
532.724	494.06
532.938	516.06
533.153	520.06
533.367	497.06
533.582	499.06
533.796	493.06
534.011	515.06
534.225	524.06
534.44	525.06
534.654	527.06
534.868	512.06
535.083	488.06
535.297	500.06
535.511	504.06
535.726	540.06
535.94	534.06
536.154	521.06
536.369	519.06
536.583	492.06
536.797	514.06
537.011	481.06
537.225	504.06
537.44	506.06
537.654	513.06
537.868	498.06
538.082	515.06
538.296	504.06
538.51	517.06
538.724	497.06
538.938	494.06
539.153	502.06
539.367	508.06
539.581	505.06
539.795	496.06
540.009	487.06
540.222	496.06
540.436	490.06
540.65	489.06
540.864	487.06
541.078	479.06
541.292	497.06
541.506	486.06
541.72	495.06
541.934	493.06
542.147	491.06
542.361	492.06
542.575	495.06
542.789	475.06
543.002	485.06
543.216	491.06
543.43	514.06
543.644	505.06
543.857	498.06
544.071	478.06
544.285	482.06
544.498	497.06
544.712	495.06
544.925	484.06
545.139	485.06
545.352	474.06
545.566	488.06
545.779	481.06
545.993	495.06
546.206	498.06
546.42	494.06
546.633	480.06
546.847	463.06
547.06	477.06
547.274	481.06
547.487	473.06
547.7	474.06
547.914	479.06
548.127	480.06
548.34	478.06
548.554	465.06
548.767	478.06
548.98	465.06
549.193	493.06
549.407	474.06
549.62	473.06
549.833	473.06
550.046	494.06
550.259	468.06
550.473	484.06
550.686	493.06
550.899	478.06
551.112	457.06
551.325	462.06
551.538	464.06
551.751	478.06
551.964	469.06
552.177	474.06
552.39	469.06
552.603	472.06
552.816	476.06
553.029	482.06
553.242	478.06
553.455	505.06
553.667	496.06
553.88	499.06
554.093	497.06
554.306	486.06
554.519	483.06
554.732	479.06
554.944	469.06
555.157	445.06
555.37	446.06
555.583	448.06
555.795	456.06
556.008	441.06
556.221	428.06
556.433	431.06
556.646	453.06
556.859	439.06
557.071	454.06
557.284	443.06
557.496	423.06
557.709	428.06
557.921	440.06
558.134	426.06
558.346	422.06
558.559	436.06
558.771	438.06
558.984	414.06
559.196	438.06
559.409	401.06
559.621	426.06
559.833	415.06
560.046	408.06
560.258	425.06
560.47	417.06
560.683	411.06
560.895	402.06
561.107	419.06
561.32	401.06
561.532	420.06
561.744	428.06
561.956	436.06
562.168	425.06
562.381	432.06
562.593	448.06
562.805	431.06
563.017	434.06
563.229	429.06
563.441	427.06
563.653	427.06
563.865	418.06
564.077	423.06
564.289	441.06
564.501	440.06
564.713	449.06
564.925	446.06
565.137	464.06
565.349	485.06
565.561	479.06
565.773	461.06
565.985	476.06
566.197	475.06
566.408	502.06
566.62	526.06
566.832	524.06
567.044	524.06
567.255	539.06
567.467	540.06
567.679	547.06
567.891	571.06
568.102	584.06
568.314	567.06
568.526	551.06
568.737	535.06
568.949	500.06
569.161	478.06
569.372	462.06
569.584	446.06
569.795	454.06
570.007	463.06
570.218	485.06
570.43	481.06
570.641	442.06
570.853	422.06
571.064	422.06
571.276	413.06
571.487	425.06
571.698	399.06
571.91	405.06
572.121	390.06
572.333	396.06
572.544	399.06
572.755	389.06
572.966	383.06
573.178	396.06
573.389	379.06
573.6	367.06
573.811	357.06
574.023	351.06
574.234	361.06
574.445	382.06
574.656	377.06
574.867	365.06
575.078	380.06
575.289	356.06
575.501	365.06
575.712	367.06
575.923	359.06
576.134	370.06
576.345	362.06
576.556	348.06
576.767	347.06
576.978	361.06
577.188	364.06
577.399	360.06
577.61	361.06
577.821	347.06
578.032	340.06
578.243	377.06
578.454	574.06
578.665	464.06
578.875	378.06
579.086	337.06
579.297	337.06
579.508	341.06
579.718	325.06
579.929	337.06
580.14	330.06
580.35	344.06
580.561	337.06
580.772	336.06
580.982	334.06
581.193	331.06
581.403	328.06
581.614	322.06
581.825	343.06
582.035	316.06
582.246	345.06
582.456	316.06
582.667	345.06
582.877	324.06
583.087	328.06
583.298	332.06
583.508	344.06
583.719	345.06
583.929	335.06
584.139	339.06
584.35	334.06
584.56	322.06
584.77	315.06
584.981	316.06
585.191	342.06
585.401	325.06
585.611	324.06
585.821	321.06
586.032	313.06
586.242	305.06
586.452	316.06
586.662	324.06
586.872	319.06
587.082	324.06
587.292	300.06
587.502	306.06
587.713	332.06
587.923	321.06
588.133	321.06
588.343	337.06
588.553	321.06
588.762	315.06
588.972	340.06
589.182	357.06
589.392	331.06
589.602	320.06
589.812	357.06
590.022	341.06
590.232	344.06
590.441	321.06
590.651	320.06
590.861	312.06
591.071	316.06
591.281	335.06
591.49	331.06
591.7	337.06
591.91	322.06
592.119	316.06
592.329	336.06
592.539	339.06
592.748	335.06
592.958	352.06
593.167	327.06
593.377	336.06
593.587	364.06
593.796	343.06
594.006	334.06
594.215	350.06
594.424	351.06
594.634	340.06
594.843	346.06
595.053	338.06
595.262	323.06
595.472	316.06
595.681	314.06
595.89	305.06
596.1	319.06
596.309	310.06
596.518	306.06
596.727	310.06
596.937	299.06
597.146	308.06
597.355	293.06
597.564	294.06
597.774	320.06
597.983	280.06
598.192	290.06
598.401	303.06
598.61	310.06
598.819	304.06
599.028	286.06
599.237	300.06
599.446	279.06
599.655	304.06
599.864	286.06
600.073	283.06
600.282	293.06
600.491	273.06
600.7	272.06
600.909	262.06
601.118	280.06
601.327	280.06
601.536	281.06
601.745	268.06
601.953	286.06
602.162	291.06
602.371	274.06
602.58	283.06
602.789	272.06
602.997	266.06
603.206	278.06
603.415	283.06
603.623	255.06
603.832	245.06
604.041	284.06
604.249	258.06
604.458	290.06
604.666	257.06
604.875	262.06
605.084	277.06
605.292	265.06
605.501	273.06
605.709	267.06
605.918	261.06
606.126	262.06
606.334	273.06
606.543	251.06
606.751	257.06
606.96	265.06
607.168	266.06
607.376	255.06
607.585	264.06
607.793	277.06
608.001	266.06
608.21	258.06
608.418	245.06
608.626	241.06
608.834	247.06
609.043	262.06
609.251	250.06
609.459	244.06
609.667	268.06
609.875	254.06
610.083	265.06
610.291	251.06
610.499	254.06
610.707	239.06
610.916	255.06
611.124	264.06
611.332	254.06
611.54	269.06
611.748	259.06
611.955	249.06
612.163	272.06
612.371	260.06
612.579	265.06
612.787	243.06
612.995	247.06
613.203	248.06
613.411	257.06
613.618	260.06
613.826	244.06
614.034	235.06
614.242	256.06
614.449	259.06
614.657	254.06
614.865	267.06
615.072	262.06
615.28	248.06
615.488	241.06
615.695	267.06
615.903	239.06
616.111	259.06
616.318	254.06
616.526	257.06
616.733	252.06
616.941	253.06
617.148	244.06
617.356	237.06
617.563	252.06
617.771	241.06
617.978	242.06
618.185	246.06
618.393	259.06
618.6	236.06
618.807	240.06
619.015	248.06
619.222	235.06
619.429	247.06
619.637	231.06
619.844	227.06
620.051	268.06
620.258	246.06
620.466	245.06
620.673	237.06
620.88	227.06
621.087	238.06
621.294	227.06
621.501	234.06
621.708	243.06
621.915	240.06
622.122	246.06
622.329	252.06
622.536	227.06
622.743	230.06
622.95	249.06
623.157	230.06
623.364	230.06
623.571	225.06
623.778	234.06
623.985	230.06
624.192	223.06
624.399	239.06
624.606	216.06
624.812	215.06
625.019	231.06
625.226	232.06
625.433	233.06
625.639	205.06
625.846	216.06
626.053	222.06
626.259	225.06
626.466	222.06
626.673	217.06
626.879	224.06
627.086	220.06
627.293	210.06
627.499	222.06
627.706	202.06
627.912	212.06
628.119	220.06
628.325	203.06
628.532	212.06
628.738	208.06
628.945	207.06
629.151	202.06
629.357	208.06
629.564	204.06
629.77	221.06
629.976	216.06
630.183	206.06
630.389	201.06
630.595	213.06
630.802	204.06
631.008	206.06
631.214	191.06
631.42	200.06
631.627	201.06
631.833	208.06
632.039	205.06
632.245	213.06
632.451	216.06
632.657	213.06
632.863	206.06
633.069	202.06
633.275	188.06
633.481	195.06
633.688	188.06
633.893	192.06
634.099	185.06
634.305	180.06
634.511	208.06
634.717	202.06
634.923	181.06
635.129	183.06
635.335	193.06
635.541	186.06
635.747	196.06
635.952	192.06
636.158	204.06
636.364	193.06
636.57	200.06
636.775	184.06
636.981	193.06
637.187	181.06
637.392	187.06
637.598	191.06
637.804	191.06
638.009	197.06
638.215	188.06
638.421	191.06
638.626	182.06
638.832	172.06
639.037	164.06
639.243	189.06
639.448	186.06
639.654	182.06
639.859	189.06
640.065	177.06
640.27	195.06
640.475	193.06
640.681	174.06
640.886	188.06
641.091	205.06
641.297	188.06
641.502	181.06
641.707	165.06
641.913	198.06
642.118	170.06
642.323	165.06
642.528	172.06
642.733	173.06
642.939	163.06
643.144	172.06
643.349	182.06
643.554	188.06
643.759	178.06
643.964	170.06
644.169	163.06
644.374	172.06
644.579	183.06
644.784	184.06
644.989	168.06
645.194	173.06
645.399	184.06
645.604	164.06
645.809	163.06
646.014	175.06
646.219	167.06
646.423	184.06
646.628	178.06
646.833	161.06
647.038	166.06
647.243	194.06
647.447	176.06
647.652	176.06
647.857	178.06
648.062	191.06
648.266	180.06
648.471	162.06
648.676	174.06
648.88	186.06
649.085	199.06
649.289	180.06
649.494	174.06
649.698	205.06
649.903	197.06
650.107	185.06
650.312	172.06
650.516	172.06
650.721	159.06
650.925	173.06
651.13	163.06
651.334	152.06
651.539	166.06
651.743	174.06
651.947	164.06
652.152	157.06
652.356	162.06
652.56	164.06
652.764	168.06
652.969	160.06
653.173	138.06
653.377	145.06
653.581	154.06
653.785	147.06
653.99	145.06
654.194	145.06
654.398	136.06
654.602	152.06
654.806	141.06
655.01	140.06
655.214	128.06
655.418	141.06
655.622	142.06
655.826	137.06
656.03	142.06
656.234	122.06
656.438	148.06
656.642	154.06
656.846	128.06
657.049	135.06
657.253	127.06
657.457	121.06
657.661	117.06
657.865	126.06
658.068	109.06
658.272	120.06
658.476	118.06
658.68	110.06
658.883	106.06
659.087	113.06
659.291	112.06
659.494	113.06
659.698	100.06
659.901	100.06
660.105	103.06
660.309	105.06
660.512	94.06
660.716	110.06
660.919	114.06
661.123	115.06
661.326	102.06
661.53	92.06
661.733	101.06
661.936	100.06
662.14	95.06
662.343	89.06
662.546	88.06
662.75	90.06
662.953	92.06
663.156	93.06
663.36	92.06
663.563	103.06
663.766	100.06
663.969	92.06
664.173	85.06
664.376	88.06
664.579	91.06
664.782	89.06
664.985	87.06
665.188	89.06
665.391	79.06
665.594	84.06
665.797	80.06
666	88.06
666.203	84.06
666.406	84.06
666.609	85.06
666.812	82.06
667.015	100.06
667.218	77.06
667.421	85.06
667.624	96.06
667.827	80.06
668.03	85.06
668.232	97.06
668.435	96.06
668.638	80.06
668.841	97.06
669.043	75.06
669.246	92.06
669.449	94.06
669.651	85.06
669.854	97.06
670.057	79.06
670.259	90.06
670.462	86.06
670.665	81.06
670.867	73.06
671.07	81.06
671.272	101.06
671.475	94.06
671.677	101.06
671.88	82.06
672.082	100.06
672.284	96.06
672.487	94.06
672.689	79.06
672.892	90.06
