Data from 1979.PennyLincolnUp.Lamp.En5.5.200Scan.071719.P1_HRD10591_16-19-21-863.txt Node
Date: Thu Jul 18 16:19:21 EDT 2019
User: cochatt
Spectrometer: HR+D1059
Trigger mode: 1
Integration Time (sec): 1.000000E-1
Scans to average: 1
Electric dark correction enabled: true
Nonlinearity correction enabled: false
Boxcar width: 0
XAxis mode: Wavelengths
Number of Pixels in Spectrum: 2048
>>>>>Begin Spectral Data<<<<<
223.165	-19.94
223.4	-19.94
223.635	-19.94
223.869	-12.94
224.104	-15.94
224.338	-17.94
224.573	-15.94
224.808	-15.94
225.042	-5.94
225.277	2.06
225.511	8.06
225.746	0.06
225.98	3.06
226.215	22.06
226.449	0.06
226.683	20.06
226.918	24.06
227.152	25.06
227.387	42.06
227.621	48.06
227.856	50.06
228.09	40.06
228.324	50.06
228.559	50.06
228.793	64.06
229.027	93.06
229.262	104.06
229.496	120.06
229.73	116.06
229.964	147.06
230.199	134.06
230.433	102.06
230.667	108.06
230.901	115.06
231.136	110.06
231.37	112.06
231.604	109.06
231.838	111.06
232.072	115.06
232.306	100.06
232.541	111.06
232.775	109.06
233.009	121.06
233.243	118.06
233.477	132.06
233.711	126.06
233.945	107.06
234.179	104.06
234.413	100.06
234.647	119.06
234.881	104.06
235.115	92.06
235.349	115.06
235.583	118.06
235.817	115.06
236.051	114.06
236.285	109.06
236.519	113.06
236.753	128.06
236.987	134.06
237.221	177.06
237.455	214.06
237.689	156.06
237.922	128.06
238.156	134.06
238.39	120.06
238.624	130.06
238.858	130.06
239.091	118.06
239.325	130.06
239.559	133.06
239.793	133.06
240.027	131.06
240.26	134.06
240.494	143.06
240.728	151.06
240.961	152.06
241.195	131.06
241.429	125.06
241.662	125.06
241.896	123.06
242.13	129.06
242.363	143.06
242.597	139.06
242.83	135.06
243.064	138.06
243.298	126.06
243.531	126.06
243.765	128.06
243.998	138.06
244.232	139.06
244.465	132.06
244.699	141.06
244.932	138.06
245.166	139.06
245.399	138.06
245.633	128.06
245.866	141.06
246.099	136.06
246.333	144.06
246.566	125.06
246.8	156.06
247.033	156.06
247.266	148.06
247.5	161.06
247.733	181.06
247.966	172.06
248.2	168.06
248.433	171.06
248.666	163.06
248.899	179.06
249.133	186.06
249.366	189.06
249.599	192.06
249.832	175.06
250.066	165.06
250.299	174.06
250.532	195.06
250.765	200.06
250.998	204.06
251.231	220.06
251.465	193.06
251.698	200.06
251.931	182.06
252.164	178.06
252.397	173.06
252.63	186.06
252.863	193.06
253.096	200.06
253.329	212.06
253.562	197.06
253.795	215.06
254.028	204.06
254.261	203.06
254.494	213.06
254.727	227.06
254.96	249.06
255.193	231.06
255.426	202.06
255.659	192.06
255.892	226.06
256.124	226.06
256.357	234.06
256.59	217.06
256.823	205.06
257.056	189.06
257.289	216.06
257.521	189.06
257.754	184.06
257.987	176.06
258.22	189.06
258.452	203.06
258.685	212.06
258.918	209.06
259.151	192.06
259.383	200.06
259.616	210.06
259.849	208.06
260.081	225.06
260.314	256.06
260.547	247.06
260.779	225.06
261.012	218.06
261.244	212.06
261.477	226.06
261.71	192.06
261.942	206.06
262.175	222.06
262.407	203.06
262.64	194.06
262.872	212.06
263.105	205.06
263.337	208.06
263.57	209.06
263.802	197.06
264.035	223.06
264.267	206.06
264.499	209.06
264.732	210.06
264.964	209.06
265.197	219.06
265.429	233.06
265.661	208.06
265.894	193.06
266.126	216.06
266.358	200.06
266.591	209.06
266.823	208.06
267.055	215.06
267.287	221.06
267.52	226.06
267.752	231.06
267.984	211.06
268.216	248.06
268.448	226.06
268.681	220.06
268.913	225.06
269.145	231.06
269.377	257.06
269.609	245.06
269.841	240.06
270.073	242.06
270.306	253.06
270.538	278.06
270.77	278.06
271.002	277.06
271.234	256.06
271.466	261.06
271.698	290.06
271.93	315.06
272.162	304.06
272.394	275.06
272.626	274.06
272.858	270.06
273.09	257.06
273.322	261.06
273.553	248.06
273.785	245.06
274.017	237.06
274.249	251.06
274.481	253.06
274.713	250.06
274.945	272.06
275.176	259.06
275.408	269.06
275.64	261.06
275.872	257.06
276.104	249.06
276.335	265.06
276.567	257.06
276.799	283.06
277.031	295.06
277.262	302.06
277.494	311.06
277.726	274.06
277.957	254.06
278.189	274.06
278.421	261.06
278.652	252.06
278.884	252.06
279.115	262.06
279.347	251.06
279.579	249.06
279.81	269.06
280.042	253.06
280.273	265.06
280.505	265.06
280.736	258.06
280.968	268.06
281.199	254.06
281.431	243.06
281.662	234.06
281.894	251.06
282.125	252.06
282.356	271.06
282.588	301.06
282.819	319.06
283.051	280.06
283.282	280.06
283.513	253.06
283.745	260.06
283.976	267.06
284.207	273.06
284.439	282.06
284.67	277.06
284.901	274.06
285.132	258.06
285.364	266.06
285.595	285.06
285.826	261.06
286.057	282.06
286.288	290.06
286.52	270.06
286.751	271.06
286.982	280.06
287.213	273.06
287.444	272.06
287.675	294.06
287.906	290.06
288.138	286.06
288.369	309.06
288.6	276.06
288.831	297.06
289.062	292.06
289.293	293.06
289.524	285.06
289.755	305.06
289.986	291.06
290.217	280.06
290.448	278.06
290.679	276.06
290.91	299.06
291.141	273.06
291.371	294.06
291.602	276.06
291.833	277.06
292.064	285.06
292.295	295.06
292.526	298.06
292.757	286.06
292.987	283.06
293.218	284.06
293.449	297.06
293.68	297.06
293.91	291.06
294.141	288.06
294.372	268.06
294.603	308.06
294.833	297.06
295.064	298.06
295.295	291.06
295.525	302.06
295.756	286.06
295.987	283.06
296.217	310.06
296.448	323.06
296.679	323.06
296.909	278.06
297.14	289.06
297.37	317.06
297.601	308.06
297.831	300.06
298.062	316.06
298.292	300.06
298.523	323.06
298.753	322.06
298.984	310.06
299.214	312.06
299.445	318.06
299.675	311.06
299.905	293.06
300.136	322.06
300.366	315.06
300.597	302.06
300.827	316.06
301.057	325.06
301.288	338.06
301.518	339.06
301.748	347.06
301.979	333.06
302.209	334.06
302.439	317.06
302.669	318.06
302.9	331.06
303.13	299.06
303.36	320.06
303.59	342.06
303.82	357.06
304.051	338.06
304.281	321.06
304.511	334.06
304.741	321.06
304.971	326.06
305.201	325.06
305.431	322.06
305.661	326.06
305.891	328.06
306.121	322.06
306.352	336.06
306.582	339.06
306.812	333.06
307.042	346.06
307.272	331.06
307.502	320.06
307.731	332.06
307.961	309.06
308.191	322.06
308.421	329.06
308.651	325.06
308.881	348.06
309.111	344.06
309.341	344.06
309.571	342.06
309.8	348.06
310.03	361.06
310.26	380.06
310.49	376.06
310.72	363.06
310.949	374.06
311.179	379.06
311.409	363.06
311.639	363.06
311.868	370.06
312.098	381.06
312.328	377.06
312.557	395.06
312.787	389.06
313.017	388.06
313.246	381.06
313.476	356.06
313.706	376.06
313.935	390.06
314.165	378.06
314.394	373.06
314.624	386.06
314.853	382.06
315.083	363.06
315.312	379.06
315.542	364.06
315.771	372.06
316.001	377.06
316.23	379.06
316.46	363.06
316.689	372.06
316.919	368.06
317.148	378.06
317.377	393.06
317.607	374.06
317.836	376.06
318.065	388.06
318.295	372.06
318.524	388.06
318.753	385.06
318.983	375.06
319.212	384.06
319.441	371.06
319.67	371.06
319.9	384.06
320.129	380.06
320.358	394.06
320.587	376.06
320.816	381.06
321.046	368.06
321.275	375.06
321.504	402.06
321.733	396.06
321.962	423.06
322.191	392.06
322.42	421.06
322.649	439.06
322.878	442.06
323.108	443.06
323.337	465.06
323.566	457.06
323.795	503.06
324.024	556.06
324.253	653.06
324.482	886.06
324.71	1398.06
324.939	2084.06
325.168	1760.06
325.397	887.06
325.626	600.06
325.855	516.06
326.084	458.06
326.313	470.06
326.542	490.06
326.77	530.06
326.999	609.06
327.228	833.06
327.457	1295.06
327.686	1589.06
327.914	1012.06
328.143	660.06
328.372	582.06
328.6	553.06
328.829	509.06
329.058	536.06
329.287	565.06
329.515	516.06
329.744	476.06
329.972	475.06
330.201	513.06
330.43	549.06
330.658	578.06
330.887	583.06
331.115	554.06
331.344	514.06
331.572	484.06
331.801	484.06
332.03	463.06
332.258	446.06
332.486	469.06
332.715	445.06
332.943	474.06
333.172	486.06
333.4	484.06
333.629	460.06
333.857	483.06
334.085	484.06
334.314	521.06
334.542	541.06
334.771	573.06
334.999	518.06
335.227	480.06
335.455	477.06
335.684	463.06
335.912	450.06
336.14	469.06
336.369	462.06
336.597	443.06
336.825	459.06
337.053	442.06
337.281	442.06
337.51	448.06
337.738	457.06
337.966	456.06
338.194	436.06
338.422	446.06
338.65	461.06
338.878	451.06
339.106	429.06
339.334	429.06
339.562	430.06
339.79	437.06
340.018	440.06
340.246	429.06
340.474	444.06
340.702	455.06
340.93	445.06
341.158	461.06
341.386	432.06
341.614	430.06
341.842	436.06
342.07	422.06
342.298	429.06
342.526	408.06
342.754	416.06
342.981	418.06
343.209	423.06
343.437	423.06
343.665	449.06
343.893	448.06
344.12	461.06
344.348	466.06
344.576	432.06
344.804	442.06
345.031	438.06
345.259	456.06
345.487	457.06
345.714	444.06
345.942	432.06
346.17	411.06
346.397	427.06
346.625	416.06
346.853	403.06
347.08	410.06
347.308	436.06
347.535	448.06
347.763	433.06
347.99	427.06
348.218	432.06
348.445	434.06
348.673	437.06
348.9	439.06
349.128	416.06
349.355	405.06
349.583	412.06
349.81	402.06
350.037	418.06
350.265	410.06
350.492	397.06
350.72	399.06
350.947	423.06
351.174	414.06
351.402	421.06
351.629	429.06
351.856	415.06
352.083	434.06
352.311	426.06
352.538	410.06
352.765	420.06
352.992	398.06
353.22	411.06
353.447	422.06
353.674	397.06
353.901	413.06
354.128	395.06
354.355	407.06
354.583	392.06
354.81	403.06
355.037	390.06
355.264	388.06
355.491	398.06
355.718	392.06
355.945	398.06
356.172	381.06
356.399	411.06
356.626	400.06
356.853	402.06
357.08	409.06
357.307	392.06
357.534	402.06
357.761	410.06
357.988	399.06
358.215	389.06
358.441	405.06
358.668	398.06
358.895	390.06
359.122	419.06
359.349	402.06
359.576	420.06
359.802	446.06
360.029	454.06
360.256	475.06
360.483	433.06
360.709	428.06
360.936	419.06
361.163	425.06
361.39	422.06
361.616	438.06
361.843	409.06
362.07	408.06
362.296	411.06
362.523	406.06
362.749	411.06
362.976	421.06
363.203	430.06
363.429	402.06
363.656	407.06
363.882	406.06
364.109	430.06
364.335	414.06
364.562	406.06
364.788	418.06
365.015	410.06
365.241	408.06
365.468	405.06
365.694	406.06
365.92	409.06
366.147	409.06
366.373	413.06
366.599	404.06
366.826	409.06
367.052	412.06
367.278	421.06
367.505	393.06
367.731	413.06
367.957	419.06
368.184	404.06
368.41	404.06
368.636	424.06
368.862	446.06
369.089	427.06
369.315	424.06
369.541	421.06
369.767	423.06
369.993	406.06
370.219	421.06
370.445	427.06
370.672	408.06
370.898	402.06
371.124	418.06
371.35	425.06
371.576	398.06
371.802	431.06
372.028	432.06
372.254	440.06
372.48	420.06
372.706	407.06
372.932	428.06
373.158	425.06
373.384	435.06
373.61	429.06
373.835	432.06
374.061	424.06
374.287	434.06
374.513	442.06
374.739	419.06
374.965	430.06
375.191	447.06
375.416	446.06
375.642	434.06
375.868	439.06
376.094	417.06
376.319	418.06
376.545	425.06
376.771	430.06
376.997	416.06
377.222	409.06
377.448	421.06
377.674	426.06
377.899	428.06
378.125	422.06
378.35	432.06
378.576	421.06
378.802	418.06
379.027	422.06
379.253	437.06
379.478	418.06
379.704	412.06
379.929	416.06
380.155	428.06
380.38	432.06
380.606	449.06
380.831	430.06
381.057	418.06
381.282	422.06
381.507	429.06
381.733	422.06
381.958	442.06
382.184	442.06
382.409	437.06
382.634	441.06
382.86	444.06
383.085	441.06
383.31	454.06
383.535	439.06
383.761	436.06
383.986	436.06
384.211	445.06
384.436	456.06
384.662	485.06
384.887	458.06
385.112	466.06
385.337	463.06
385.562	484.06
385.787	457.06
386.013	468.06
386.238	484.06
386.463	489.06
386.688	472.06
386.913	477.06
387.138	457.06
387.363	472.06
387.588	472.06
387.813	496.06
388.038	487.06
388.263	463.06
388.488	486.06
388.713	476.06
388.938	486.06
389.163	459.06
389.387	475.06
389.612	476.06
389.837	471.06
390.062	448.06
390.287	459.06
390.512	459.06
390.736	491.06
390.961	478.06
391.186	480.06
391.411	496.06
391.636	475.06
391.86	488.06
392.085	512.06
392.31	509.06
392.534	496.06
392.759	482.06
392.984	486.06
393.208	484.06
393.433	486.06
393.658	480.06
393.882	492.06
394.107	485.06
394.331	500.06
394.556	482.06
394.78	469.06
395.005	486.06
395.229	500.06
395.454	486.06
395.678	520.06
395.903	514.06
396.127	526.06
396.352	533.06
396.576	527.06
396.801	500.06
397.025	498.06
397.249	513.06
397.474	541.06
397.698	507.06
397.922	519.06
398.147	544.06
398.371	542.06
398.595	553.06
398.82	548.06
399.044	586.06
399.268	588.06
399.492	602.06
399.717	641.06
399.941	714.06
400.165	683.06
400.389	707.06
400.613	660.06
400.837	606.06
401.062	590.06
401.286	582.06
401.51	564.06
401.734	565.06
401.958	580.06
402.182	550.06
402.406	590.06
402.63	586.06
402.854	573.06
403.078	569.06
403.302	577.06
403.526	597.06
403.75	595.06
403.974	594.06
404.198	581.06
404.422	574.06
404.645	585.06
404.869	605.06
405.093	621.06
405.317	677.06
405.541	692.06
405.765	642.06
405.988	603.06
406.212	628.06
406.436	653.06
406.66	670.06
406.883	643.06
407.107	649.06
407.331	692.06
407.555	753.06
407.778	764.06
408.002	720.06
408.226	651.06
408.449	652.06
408.673	661.06
408.896	664.06
409.12	698.06
409.344	689.06
409.567	624.06
409.791	592.06
410.014	606.06
410.238	588.06
410.461	617.06
410.685	608.06
410.908	604.06
411.132	651.06
411.355	668.06
411.578	620.06
411.802	604.06
412.025	574.06
412.249	605.06
412.472	614.06
412.695	656.06
412.919	656.06
413.142	585.06
413.365	576.06
413.589	576.06
413.812	559.06
414.035	577.06
414.258	553.06
414.482	566.06
414.705	539.06
414.928	558.06
415.151	549.06
415.374	562.06
415.597	555.06
415.821	539.06
416.044	576.06
416.267	555.06
416.49	552.06
416.713	557.06
416.936	579.06
417.159	560.06
417.382	570.06
417.605	551.06
417.828	587.06
418.051	584.06
418.274	561.06
418.497	568.06
418.72	557.06
418.943	546.06
419.166	580.06
419.389	619.06
419.611	593.06
419.834	588.06
420.057	596.06
420.28	571.06
420.503	570.06
420.726	573.06
420.948	596.06
421.171	644.06
421.394	660.06
421.617	591.06
421.839	575.06
422.062	571.06
422.285	601.06
422.507	637.06
422.73	708.06
422.953	704.06
423.175	607.06
423.398	618.06
423.621	620.06
423.843	622.06
424.066	614.06
424.288	601.06
424.511	620.06
424.733	681.06
424.956	788.06
425.178	722.06
425.401	725.06
425.623	745.06
425.846	642.06
426.068	641.06
426.291	604.06
426.513	594.06
426.735	619.06
426.958	645.06
427.18	752.06
427.402	857.06
427.625	954.06
427.847	805.06
428.069	731.06
428.292	652.06
428.514	617.06
428.736	586.06
428.958	586.06
429.181	573.06
429.403	563.06
429.625	565.06
429.847	596.06
430.069	661.06
430.292	646.06
430.514	582.06
430.736	553.06
430.958	549.06
431.18	554.06
431.402	540.06
431.624	536.06
431.846	554.06
432.068	562.06
432.29	548.06
432.512	550.06
432.734	557.06
432.956	581.06
433.178	544.06
433.4	566.06
433.622	541.06
433.844	545.06
434.066	548.06
434.287	534.06
434.509	583.06
434.731	564.06
434.953	582.06
435.175	596.06
435.397	612.06
435.618	609.06
435.84	649.06
436.062	755.06
436.284	802.06
436.505	677.06
436.727	616.06
436.949	582.06
437.17	600.06
437.392	574.06
437.614	586.06
437.835	612.06
438.057	680.06
438.278	790.06
438.5	779.06
438.721	852.06
438.943	814.06
439.165	666.06
439.386	614.06
439.608	605.06
439.829	626.06
440.05	634.06
440.272	678.06
440.493	645.06
440.715	609.06
440.936	582.06
441.158	553.06
441.379	566.06
441.6	626.06
441.822	606.06
442.043	658.06
442.264	726.06
442.486	768.06
442.707	672.06
442.928	610.06
443.149	633.06
443.371	658.06
443.592	704.06
443.813	766.06
444.034	837.06
444.255	703.06
444.476	629.06
444.698	638.06
444.919	619.06
445.14	686.06
445.361	677.06
445.582	663.06
445.803	714.06
446.024	794.06
446.245	807.06
446.466	762.06
446.687	628.06
446.908	638.06
447.129	586.06
447.35	576.06
447.571	580.06
447.792	536.06
448.013	564.06
448.234	566.06
448.455	594.06
448.675	718.06
448.896	864.06
449.117	713.06
449.338	664.06
449.559	785.06
449.779	874.06
450	752.06
450.221	596.06
450.442	551.06
450.662	516.06
450.883	568.06
451.104	539.06
451.324	564.06
451.545	530.06
451.766	519.06
451.986	502.06
452.207	496.06
452.428	498.06
452.648	498.06
452.869	482.06
453.089	532.06
453.31	547.06
453.53	516.06
453.751	506.06
453.971	499.06
454.192	534.06
454.412	511.06
454.633	492.06
454.853	489.06
455.073	488.06
455.294	537.06
455.514	566.06
455.734	571.06
455.955	528.06
456.175	493.06
456.395	487.06
456.616	488.06
456.836	470.06
457.056	440.06
457.276	481.06
457.497	484.06
457.717	496.06
457.937	481.06
458.157	488.06
458.377	510.06
458.598	514.06
458.818	564.06
459.038	648.06
459.258	661.06
459.478	586.06
459.698	547.06
459.918	538.06
460.138	571.06
460.358	569.06
460.578	567.06
460.798	598.06
461.018	566.06
461.238	573.06
461.458	564.06
461.678	561.06
461.898	568.06
462.118	599.06
462.338	579.06
462.558	588.06
462.777	602.06
462.997	619.06
463.217	629.06
463.437	654.06
463.657	626.06
463.876	601.06
464.096	619.06
464.316	634.06
464.536	624.06
464.755	610.06
464.975	605.06
465.195	644.06
465.414	700.06
465.634	616.06
465.854	595.06
466.073	582.06
466.293	539.06
466.512	549.06
466.732	545.06
466.951	531.06
467.171	535.06
467.391	534.06
467.61	532.06
467.829	545.06
468.049	532.06
468.268	532.06
468.488	519.06
468.707	505.06
468.927	512.06
469.146	528.06
469.365	548.06
469.585	518.06
469.804	534.06
470.023	537.06
470.243	544.06
470.462	544.06
470.681	555.06
470.901	530.06
471.12	523.06
471.339	534.06
471.558	527.06
471.777	546.06
471.997	525.06
472.216	533.06
472.435	561.06
472.654	573.06
472.873	538.06
473.092	537.06
473.311	518.06
473.53	535.06
473.749	534.06
473.968	560.06
474.187	668.06
474.406	674.06
474.625	571.06
474.844	548.06
475.063	530.06
475.282	530.06
475.501	530.06
475.72	541.06
475.939	544.06
476.158	562.06
476.377	546.06
476.596	564.06
476.814	552.06
477.033	555.06
477.252	544.06
477.471	562.06
477.69	566.06
477.908	576.06
478.127	575.06
478.346	587.06
478.564	583.06
478.783	606.06
479.002	618.06
479.22	610.06
479.439	642.06
479.658	652.06
479.876	654.06
480.095	654.06
480.313	698.06
480.532	658.06
480.751	664.06
480.969	660.06
481.188	722.06
481.406	745.06
481.624	682.06
481.843	650.06
482.061	638.06
482.28	625.06
482.498	624.06
482.717	626.06
482.935	615.06
483.153	630.06
483.372	617.06
483.59	617.06
483.808	642.06
484.027	609.06
484.245	633.06
484.463	618.06
484.681	636.06
484.9	640.06
485.118	635.06
485.336	643.06
485.554	651.06
485.772	655.06
485.99	621.06
486.209	648.06
486.427	636.06
486.645	666.06
486.863	677.06
487.081	674.06
487.299	675.06
487.517	677.06
487.735	650.06
487.953	658.06
488.171	668.06
488.389	653.06
488.607	688.06
488.825	674.06
489.043	670.06
489.261	669.06
489.479	669.06
489.696	673.06
489.914	688.06
490.132	675.06
490.35	699.06
490.568	694.06
490.786	698.06
491.003	718.06
491.221	741.06
491.439	728.06
491.657	700.06
491.874	744.06
492.092	758.06
492.31	759.06
492.527	732.06
492.745	741.06
492.963	769.06
493.18	772.06
493.398	769.06
493.615	775.06
493.833	768.06
494.05	771.06
494.268	765.06
494.485	747.06
494.703	763.06
494.92	777.06
495.138	786.06
495.355	769.06
495.573	773.06
495.79	773.06
496.008	783.06
496.225	771.06
496.442	778.06
496.66	781.06
496.877	774.06
497.094	771.06
497.312	804.06
497.529	829.06
497.746	817.06
497.963	822.06
498.181	887.06
498.398	866.06
498.615	889.06
498.832	919.06
499.049	937.06
499.267	968.06
499.484	1022.06
499.701	1067.06
499.918	1128.06
500.135	1162.06
500.352	1219.06
500.569	1274.06
500.786	1270.06
501.003	1249.06
501.22	1200.06
501.437	1146.06
501.654	1068.06
501.871	1046.06
502.088	1010.06
502.305	958.06
502.522	924.06
502.739	892.06
502.956	894.06
503.172	866.06
503.389	836.06
503.606	832.06
503.823	837.06
504.04	823.06
504.256	816.06
504.473	813.06
504.69	792.06
504.907	802.06
505.123	773.06
505.34	774.06
505.557	765.06
505.773	768.06
505.99	748.06
506.207	770.06
506.423	763.06
506.64	744.06
506.856	711.06
507.073	705.06
507.289	723.06
507.506	709.06
507.722	699.06
507.939	742.06
508.155	704.06
508.372	684.06
508.588	692.06
508.805	693.06
509.021	681.06
509.238	704.06
509.454	701.06
509.67	710.06
509.887	684.06
510.103	686.06
510.319	710.06
510.536	778.06
510.752	1260.06
510.968	1050.06
511.184	713.06
511.401	675.06
511.617	660.06
511.833	679.06
512.049	667.06
512.265	634.06
512.481	662.06
512.698	636.06
512.914	614.06
513.13	640.06
513.346	654.06
513.562	670.06
513.778	670.06
513.994	660.06
514.21	682.06
514.426	720.06
514.642	729.06
514.858	756.06
515.074	768.06
515.29	911.06
515.506	1304.06
515.721	1115.06
515.937	788.06
516.153	729.06
516.369	708.06
516.585	709.06
516.801	705.06
517.016	690.06
517.232	702.06
517.448	693.06
517.664	710.06
517.879	733.06
518.095	715.06
518.311	730.06
518.527	715.06
518.742	705.06
518.958	668.06
519.173	693.06
519.389	690.06
519.605	667.06
519.82	702.06
520.036	686.06
520.251	689.06
520.467	742.06
520.682	717.06
520.898	717.06
521.113	711.06
521.329	771.06
521.544	830.06
521.76	1039.06
521.975	1648.06
522.19	1682.06
522.406	934.06
522.621	742.06
522.836	680.06
523.052	655.06
523.267	633.06
523.482	647.06
523.698	630.06
523.913	616.06
524.128	618.06
524.343	613.06
524.559	624.06
524.774	572.06
524.989	581.06
525.204	594.06
525.419	586.06
525.634	580.06
525.849	576.06
526.064	596.06
526.28	566.06
526.495	570.06
526.71	560.06
526.925	563.06
527.14	543.06
527.355	568.06
527.57	556.06
527.785	555.06
527.999	543.06
528.214	554.06
528.429	548.06
528.644	533.06
528.859	571.06
529.074	580.06
529.289	567.06
529.503	633.06
529.718	635.06
529.933	573.06
530.148	550.06
530.363	566.06
530.577	560.06
530.792	557.06
531.007	551.06
531.221	553.06
531.436	529.06
531.651	560.06
531.865	563.06
532.08	548.06
532.295	561.06
532.509	556.06
532.724	530.06
532.938	555.06
533.153	555.06
533.367	552.06
533.582	544.06
533.796	528.06
534.011	551.06
534.225	536.06
534.44	546.06
534.654	535.06
534.868	530.06
535.083	547.06
535.297	531.06
535.511	538.06
535.726	532.06
535.94	524.06
536.154	513.06
536.369	493.06
536.583	507.06
536.797	504.06
537.011	510.06
537.225	519.06
537.44	505.06
537.654	507.06
537.868	508.06
538.082	503.06
538.296	533.06
538.51	497.06
538.724	514.06
538.938	501.06
539.153	504.06
539.367	530.06
539.581	510.06
539.795	524.06
540.009	492.06
540.222	509.06
540.436	492.06
540.65	516.06
540.864	494.06
541.078	517.06
541.292	517.06
541.506	521.06
541.72	491.06
541.934	491.06
542.147	524.06
542.361	490.06
542.575	518.06
542.789	490.06
543.002	480.06
543.216	497.06
543.43	510.06
543.644	522.06
543.857	492.06
544.071	507.06
544.285	497.06
544.498	508.06
544.712	514.06
544.925	489.06
545.139	480.06
545.352	473.06
545.566	501.06
545.779	490.06
545.993	525.06
546.206	512.06
546.42	486.06
546.633	475.06
546.847	496.06
547.06	527.06
547.274	500.06
547.487	479.06
547.7	502.06
547.914	513.06
548.127	484.06
548.34	507.06
548.554	498.06
548.767	499.06
548.98	485.06
549.193	490.06
549.407	487.06
549.62	483.06
549.833	520.06
550.046	511.06
550.259	492.06
550.473	485.06
550.686	504.06
550.899	507.06
551.112	498.06
551.325	490.06
551.538	477.06
551.751	488.06
551.964	472.06
552.177	480.06
552.39	486.06
552.603	504.06
552.816	490.06
553.029	488.06
553.242	488.06
553.455	508.06
553.667	537.06
553.88	547.06
554.093	525.06
554.306	517.06
554.519	484.06
554.732	514.06
554.944	479.06
555.157	472.06
555.37	459.06
555.583	491.06
555.795	479.06
556.008	476.06
556.221	448.06
556.433	456.06
556.646	456.06
556.859	463.06
557.071	460.06
557.284	440.06
557.496	434.06
557.709	418.06
557.921	445.06
558.134	444.06
558.346	444.06
558.559	439.06
558.771	434.06
558.984	427.06
559.196	447.06
559.409	444.06
559.621	444.06
559.833	439.06
560.046	442.06
560.258	450.06
560.47	430.06
560.683	429.06
560.895	437.06
561.107	446.06
561.32	440.06
561.532	444.06
561.744	420.06
561.956	419.06
562.168	424.06
562.381	446.06
562.593	432.06
562.805	457.06
563.017	440.06
563.229	420.06
563.441	470.06
563.653	426.06
563.865	441.06
564.077	435.06
564.289	452.06
564.501	462.06
564.713	458.06
564.925	459.06
565.137	485.06
565.349	468.06
565.561	485.06
565.773	492.06
565.985	511.06
566.197	502.06
566.408	516.06
566.62	533.06
566.832	541.06
567.044	563.06
567.255	565.06
567.467	578.06
567.679	600.06
567.891	613.06
568.102	596.06
568.314	596.06
568.526	547.06
568.737	530.06
568.949	526.06
569.161	506.06
569.372	489.06
569.584	492.06
569.795	473.06
570.007	456.06
570.218	501.06
570.43	468.06
570.641	434.06
570.853	424.06
571.064	424.06
571.276	441.06
571.487	450.06
571.698	426.06
571.91	414.06
572.121	416.06
572.333	372.06
572.544	381.06
572.755	367.06
572.966	402.06
573.178	408.06
573.389	396.06
573.6	394.06
573.811	378.06
574.023	369.06
574.234	386.06
574.445	388.06
574.656	374.06
574.867	356.06
575.078	364.06
575.289	360.06
575.501	376.06
575.712	368.06
575.923	377.06
576.134	379.06
576.345	360.06
576.556	350.06
576.767	358.06
576.978	368.06
577.188	380.06
577.399	381.06
577.61	356.06
577.821	342.06
578.032	369.06
578.243	400.06
578.454	580.06
578.665	453.06
578.875	376.06
579.086	361.06
579.297	349.06
579.508	348.06
579.718	344.06
579.929	359.06
580.14	339.06
580.35	329.06
580.561	358.06
580.772	333.06
580.982	333.06
581.193	341.06
581.403	346.06
581.614	350.06
581.825	340.06
582.035	322.06
582.246	330.06
582.456	331.06
582.667	346.06
582.877	338.06
583.087	326.06
583.298	338.06
583.508	328.06
583.719	328.06
583.929	343.06
584.139	340.06
584.35	354.06
584.56	336.06
584.77	330.06
584.981	349.06
585.191	363.06
585.401	334.06
585.611	330.06
585.821	335.06
586.032	324.06
586.242	328.06
586.452	333.06
586.662	322.06
586.872	314.06
587.082	321.06
587.292	313.06
587.502	318.06
587.713	329.06
587.923	336.06
588.133	337.06
588.343	312.06
588.553	317.06
588.762	335.06
588.972	314.06
589.182	354.06
589.392	345.06
589.602	325.06
589.812	331.06
590.022	335.06
590.232	326.06
590.441	333.06
590.651	317.06
590.861	327.06
591.071	333.06
591.281	315.06
591.49	313.06
591.7	341.06
591.91	351.06
592.119	327.06
592.329	336.06
592.539	333.06
592.748	344.06
592.958	357.06
593.167	358.06
593.377	358.06
593.587	361.06
593.796	347.06
594.006	364.06
594.215	364.06
594.424	353.06
594.634	338.06
594.843	345.06
595.053	349.06
595.262	346.06
595.472	330.06
595.681	347.06
595.89	345.06
596.1	344.06
596.309	323.06
596.518	317.06
596.727	325.06
596.937	325.06
597.146	315.06
597.355	310.06
597.564	290.06
597.774	329.06
597.983	293.06
598.192	289.06
598.401	293.06
598.61	286.06
598.819	292.06
599.028	305.06
599.237	280.06
599.446	272.06
599.655	287.06
599.864	291.06
600.073	295.06
600.282	279.06
600.491	294.06
600.7	289.06
600.909	264.06
601.118	284.06
601.327	280.06
601.536	282.06
601.745	292.06
601.953	289.06
602.162	270.06
602.371	276.06
602.58	272.06
602.789	281.06
602.997	288.06
603.206	295.06
603.415	276.06
603.623	267.06
603.832	269.06
604.041	266.06
604.249	260.06
604.458	270.06
604.666	280.06
604.875	262.06
605.084	272.06
605.292	269.06
605.501	280.06
605.709	271.06
605.918	260.06
606.126	261.06
606.334	261.06
606.543	270.06
606.751	272.06
606.96	265.06
607.168	269.06
607.376	245.06
607.585	276.06
607.793	290.06
608.001	249.06
608.21	258.06
608.418	260.06
608.626	281.06
608.834	258.06
609.043	261.06
609.251	265.06
609.459	265.06
609.667	256.06
609.875	260.06
610.083	265.06
610.291	269.06
610.499	270.06
610.707	277.06
610.916	257.06
611.124	258.06
611.332	272.06
611.54	281.06
611.748	274.06
611.955	268.06
612.163	257.06
612.371	252.06
612.579	252.06
612.787	270.06
612.995	248.06
613.203	259.06
613.411	256.06
613.618	246.06
613.826	253.06
614.034	264.06
614.242	247.06
614.449	249.06
614.657	254.06
614.865	251.06
615.072	261.06
615.28	264.06
615.488	256.06
615.695	243.06
615.903	243.06
616.111	265.06
616.318	247.06
616.526	257.06
616.733	247.06
616.941	231.06
617.148	260.06
617.356	246.06
617.563	246.06
617.771	251.06
617.978	245.06
618.185	245.06
618.393	240.06
618.6	253.06
618.807	254.06
619.015	241.06
619.222	260.06
619.429	225.06
619.637	234.06
619.844	262.06
620.051	259.06
620.258	244.06
620.466	235.06
620.673	219.06
620.88	232.06
621.087	240.06
621.294	234.06
621.501	220.06
621.708	247.06
621.915	238.06
622.122	231.06
622.329	227.06
622.536	227.06
622.743	251.06
622.95	225.06
623.157	212.06
623.364	225.06
623.571	243.06
623.778	224.06
623.985	233.06
624.192	237.06
624.399	227.06
624.606	233.06
624.812	220.06
625.019	217.06
625.226	237.06
625.433	229.06
625.639	227.06
625.846	205.06
626.053	229.06
626.259	235.06
626.466	233.06
626.673	222.06
626.879	208.06
627.086	213.06
627.293	211.06
627.499	206.06
627.706	233.06
627.912	213.06
628.119	208.06
628.325	213.06
628.532	216.06
628.738	222.06
628.945	212.06
629.151	238.06
629.357	221.06
629.564	210.06
629.77	214.06
629.976	213.06
630.183	216.06
630.389	206.06
630.595	218.06
630.802	216.06
631.008	205.06
631.214	207.06
631.42	209.06
631.627	223.06
631.833	211.06
632.039	211.06
632.245	211.06
632.451	196.06
632.657	200.06
632.863	203.06
633.069	197.06
633.275	189.06
633.481	197.06
633.688	204.06
633.893	209.06
634.099	199.06
634.305	204.06
634.511	199.06
634.717	181.06
634.923	173.06
635.129	202.06
635.335	186.06
635.541	197.06
635.747	205.06
635.952	200.06
636.158	189.06
636.364	186.06
636.57	218.06
636.775	203.06
636.981	198.06
637.187	196.06
637.392	186.06
637.598	196.06
637.804	193.06
638.009	180.06
638.215	178.06
638.421	186.06
638.626	156.06
638.832	177.06
639.037	186.06
639.243	181.06
639.448	184.06
639.654	175.06
639.859	179.06
640.065	181.06
640.27	195.06
640.475	173.06
640.681	183.06
640.886	183.06
641.091	188.06
641.297	185.06
641.502	171.06
641.707	174.06
641.913	191.06
642.118	170.06
642.323	174.06
642.528	172.06
642.733	182.06
642.939	186.06
643.144	173.06
643.349	200.06
643.554	186.06
643.759	173.06
643.964	181.06
644.169	175.06
644.374	177.06
644.579	170.06
644.784	173.06
644.989	189.06
645.194	173.06
645.399	170.06
645.604	165.06
645.809	163.06
646.014	175.06
646.219	181.06
646.423	173.06
646.628	186.06
646.833	170.06
647.038	187.06
647.243	181.06
647.447	163.06
647.652	165.06
647.857	173.06
648.062	174.06
648.266	182.06
648.471	198.06
648.676	196.06
648.88	180.06
649.085	172.06
649.289	173.06
649.494	188.06
649.698	202.06
649.903	190.06
650.107	193.06
650.312	186.06
650.516	166.06
650.721	172.06
650.925	142.06
651.13	172.06
651.334	140.06
651.539	158.06
651.743	145.06
651.947	156.06
652.152	156.06
652.356	180.06
652.56	153.06
652.764	143.06
652.969	143.06
653.173	155.06
653.377	136.06
653.581	154.06
653.785	125.06
653.99	136.06
654.194	143.06
654.398	143.06
654.602	130.06
654.806	138.06
655.01	136.06
655.214	166.06
655.418	124.06
655.622	136.06
655.826	137.06
656.03	155.06
656.234	154.06
656.438	142.06
656.642	125.06
656.846	134.06
657.049	126.06
657.253	131.06
657.457	129.06
657.661	127.06
657.865	100.06
658.068	122.06
658.272	114.06
658.476	117.06
658.68	101.06
658.883	106.06
659.087	85.06
659.291	92.06
659.494	90.06
659.698	107.06
659.901	106.06
660.105	84.06
660.309	92.06
660.512	95.06
660.716	88.06
660.919	96.06
661.123	105.06
661.326	99.06
661.53	98.06
661.733	96.06
661.936	81.06
662.14	85.06
662.343	99.06
662.546	84.06
662.75	83.06
662.953	90.06
663.156	91.06
663.36	79.06
663.563	96.06
663.766	75.06
663.969	84.06
664.173	86.06
664.376	82.06
664.579	92.06
664.782	91.06
664.985	83.06
665.188	88.06
665.391	99.06
665.594	85.06
665.797	93.06
666	91.06
666.203	78.06
666.406	82.06
666.609	85.06
666.812	82.06
667.015	87.06
667.218	68.06
667.421	86.06
667.624	78.06
667.827	88.06
668.03	90.06
668.232	75.06
668.435	77.06
668.638	82.06
668.841	84.06
669.043	91.06
669.246	80.06
669.449	77.06
669.651	96.06
669.854	85.06
670.057	78.06
670.259	86.06
670.462	88.06
670.665	75.06
670.867	76.06
671.07	82.06
671.272	82.06
671.475	79.06
671.677	78.06
671.88	66.06
672.082	82.06
672.284	76.06
672.487	82.06
672.689	88.06
672.892	84.06
