Data from 1979.PennyLincolnUp.Lamp.En5.5.200Scan.071719.P1_HRD10591_16-19-53-863.txt Node
Date: Thu Jul 18 16:19:53 EDT 2019
User: cochatt
Spectrometer: HR+D1059
Trigger mode: 1
Integration Time (sec): 1.000000E-1
Scans to average: 1
Electric dark correction enabled: true
Nonlinearity correction enabled: false
Boxcar width: 0
XAxis mode: Wavelengths
Number of Pixels in Spectrum: 2048
>>>>>Begin Spectral Data<<<<<
223.165	-12.12
223.4	-12.12
223.635	-12.12
223.869	-22.12
224.104	-27.12
224.338	-3.12
224.573	-2.12
224.808	-17.12
225.042	-10.12
225.277	2.88
225.511	2.88
225.746	3.88
225.98	6.88
226.215	1.88
226.449	5.88
226.683	25.88
226.918	22.88
227.152	20.88
227.387	47.88
227.621	34.88
227.856	37.88
228.09	40.88
228.324	55.88
228.559	47.88
228.793	46.88
229.027	90.88
229.262	107.88
229.496	103.88
229.73	142.88
229.964	142.88
230.199	117.88
230.433	115.88
230.667	121.88
230.901	112.88
231.136	111.88
231.37	117.88
231.604	102.88
231.838	111.88
232.072	115.88
232.306	123.88
232.541	125.88
232.775	137.88
233.009	120.88
233.243	103.88
233.477	120.88
233.711	106.88
233.945	120.88
234.179	117.88
234.413	103.88
234.647	124.88
234.881	114.88
235.115	111.88
235.349	112.88
235.583	100.88
235.817	126.88
236.051	130.88
236.285	112.88
236.519	126.88
236.753	142.88
236.987	144.88
237.221	182.88
237.455	218.88
237.689	182.88
237.922	147.88
238.156	140.88
238.39	125.88
238.624	130.88
238.858	128.88
239.091	130.88
239.325	122.88
239.559	134.88
239.793	114.88
240.027	142.88
240.26	125.88
240.494	157.88
240.728	144.88
240.961	142.88
241.195	129.88
241.429	141.88
241.662	142.88
241.896	134.88
242.13	141.88
242.363	133.88
242.597	129.88
242.83	139.88
243.064	157.88
243.298	143.88
243.531	131.88
243.765	145.88
243.998	138.88
244.232	143.88
244.465	155.88
244.699	137.88
244.932	134.88
245.166	151.88
245.399	149.88
245.633	156.88
245.866	161.88
246.099	162.88
246.333	144.88
246.566	158.88
246.8	167.88
247.033	158.88
247.266	144.88
247.5	160.88
247.733	166.88
247.966	167.88
248.2	160.88
248.433	162.88
248.666	181.88
248.899	173.88
249.133	169.88
249.366	205.88
249.599	199.88
249.832	176.88
250.066	183.88
250.299	174.88
250.532	184.88
250.765	198.88
250.998	202.88
251.231	205.88
251.465	196.88
251.698	182.88
251.931	170.88
252.164	204.88
252.397	200.88
252.63	198.88
252.863	184.88
253.096	189.88
253.329	226.88
253.562	208.88
253.795	211.88
254.028	215.88
254.261	198.88
254.494	218.88
254.727	246.88
254.96	263.88
255.193	260.88
255.426	229.88
255.659	208.88
255.892	220.88
256.124	217.88
256.357	223.88
256.59	207.88
256.823	201.88
257.056	211.88
257.289	204.88
257.521	198.88
257.754	207.88
257.987	208.88
258.22	218.88
258.452	214.88
258.685	195.88
258.918	208.88
259.151	210.88
259.383	207.88
259.616	216.88
259.849	206.88
260.081	208.88
260.314	252.88
260.547	245.88
260.779	223.88
261.012	217.88
261.244	215.88
261.477	219.88
261.71	220.88
261.942	216.88
262.175	231.88
262.407	209.88
262.64	203.88
262.872	200.88
263.105	204.88
263.337	223.88
263.57	216.88
263.802	227.88
264.035	200.88
264.267	207.88
264.499	222.88
264.732	213.88
264.964	211.88
265.197	211.88
265.429	224.88
265.661	204.88
265.894	231.88
266.126	214.88
266.358	210.88
266.591	204.88
266.823	219.88
267.055	228.88
267.287	220.88
267.52	220.88
267.752	231.88
267.984	213.88
268.216	202.88
268.448	230.88
268.681	223.88
268.913	229.88
269.145	237.88
269.377	252.88
269.609	273.88
269.841	253.88
270.073	268.88
270.306	276.88
270.538	301.88
270.77	278.88
271.002	298.88
271.234	273.88
271.466	279.88
271.698	278.88
271.93	302.88
272.162	281.88
272.394	291.88
272.626	280.88
272.858	264.88
273.09	252.88
273.322	273.88
273.553	250.88
273.785	241.88
274.017	237.88
274.249	244.88
274.481	262.88
274.713	266.88
274.945	268.88
275.176	247.88
275.408	268.88
275.64	256.88
275.872	267.88
276.104	266.88
276.335	265.88
276.567	265.88
276.799	271.88
277.031	300.88
277.262	278.88
277.494	311.88
277.726	308.88
277.957	283.88
278.189	272.88
278.421	246.88
278.652	258.88
278.884	250.88
279.115	237.88
279.347	272.88
279.579	261.88
279.81	254.88
280.042	255.88
280.273	266.88
280.505	258.88
280.736	264.88
280.968	263.88
281.199	245.88
281.431	262.88
281.662	262.88
281.894	289.88
282.125	283.88
282.356	277.88
282.588	312.88
282.819	301.88
283.051	291.88
283.282	275.88
283.513	271.88
283.745	275.88
283.976	277.88
284.207	283.88
284.439	293.88
284.67	268.88
284.901	276.88
285.132	271.88
285.364	280.88
285.595	283.88
285.826	276.88
286.057	273.88
286.288	276.88
286.52	280.88
286.751	287.88
286.982	300.88
287.213	278.88
287.444	282.88
287.675	283.88
287.906	299.88
288.138	306.88
288.369	283.88
288.6	274.88
288.831	294.88
289.062	288.88
289.293	276.88
289.524	286.88
289.755	298.88
289.986	275.88
290.217	267.88
290.448	283.88
290.679	282.88
290.91	281.88
291.141	283.88
291.371	286.88
291.602	286.88
291.833	303.88
292.064	275.88
292.295	292.88
292.526	301.88
292.757	289.88
292.987	293.88
293.218	270.88
293.449	302.88
293.68	295.88
293.91	276.88
294.141	290.88
294.372	287.88
294.603	292.88
294.833	294.88
295.064	294.88
295.295	300.88
295.525	290.88
295.756	282.88
295.987	303.88
296.217	332.88
296.448	324.88
296.679	311.88
296.909	297.88
297.14	298.88
297.37	308.88
297.601	302.88
297.831	303.88
298.062	307.88
298.292	332.88
298.523	311.88
298.753	327.88
298.984	293.88
299.214	315.88
299.445	312.88
299.675	302.88
299.905	297.88
300.136	311.88
300.366	302.88
300.597	306.88
300.827	316.88
301.057	317.88
301.288	331.88
301.518	318.88
301.748	328.88
301.979	331.88
302.209	326.88
302.439	315.88
302.669	335.88
302.9	324.88
303.13	334.88
303.36	343.88
303.59	336.88
303.82	345.88
304.051	323.88
304.281	314.88
304.511	337.88
304.741	327.88
304.971	335.88
305.201	327.88
305.431	335.88
305.661	334.88
305.891	344.88
306.121	333.88
306.352	322.88
306.582	335.88
306.812	342.88
307.042	318.88
307.272	337.88
307.502	336.88
307.731	355.88
307.961	336.88
308.191	334.88
308.421	345.88
308.651	343.88
308.881	336.88
309.111	327.88
309.341	361.88
309.571	350.88
309.8	351.88
310.03	347.88
310.26	371.88
310.49	374.88
310.72	386.88
310.949	380.88
311.179	393.88
311.409	379.88
311.639	379.88
311.868	364.88
312.098	373.88
312.328	386.88
312.557	403.88
312.787	406.88
313.017	407.88
313.246	379.88
313.476	379.88
313.706	370.88
313.935	384.88
314.165	385.88
314.394	391.88
314.624	374.88
314.853	385.88
315.083	385.88
315.312	385.88
315.542	360.88
315.771	359.88
316.001	371.88
316.23	379.88
316.46	384.88
316.689	360.88
316.919	380.88
317.148	386.88
317.377	390.88
317.607	391.88
317.836	372.88
318.065	395.88
318.295	366.88
318.524	355.88
318.753	374.88
318.983	384.88
319.212	381.88
319.441	364.88
319.67	382.88
319.9	380.88
320.129	403.88
320.358	382.88
320.587	356.88
320.816	403.88
321.046	400.88
321.275	414.88
321.504	400.88
321.733	393.88
321.962	388.88
322.191	405.88
322.42	418.88
322.649	433.88
322.878	442.88
323.108	453.88
323.337	440.88
323.566	485.88
323.795	510.88
324.024	515.88
324.253	639.88
324.482	902.88
324.71	1422.88
324.939	2178.88
325.168	1892.88
325.397	898.88
325.626	638.88
325.855	537.88
326.084	487.88
326.313	474.88
326.542	504.88
326.77	500.88
326.999	611.88
327.228	851.88
327.457	1311.88
327.686	1634.88
327.914	1028.88
328.143	698.88
328.372	613.88
328.6	560.88
328.829	543.88
329.058	550.88
329.287	563.88
329.515	533.88
329.744	518.88
329.972	473.88
330.201	493.88
330.43	545.88
330.658	555.88
330.887	588.88
331.115	573.88
331.344	504.88
331.572	489.88
331.801	486.88
332.03	495.88
332.258	459.88
332.486	446.88
332.715	424.88
332.943	456.88
333.172	455.88
333.4	461.88
333.629	491.88
333.857	480.88
334.085	506.88
334.314	509.88
334.542	547.88
334.771	553.88
334.999	512.88
335.227	490.88
335.455	464.88
335.684	477.88
335.912	446.88
336.14	471.88
336.369	440.88
336.597	446.88
336.825	461.88
337.053	464.88
337.281	441.88
337.51	447.88
337.738	434.88
337.966	444.88
338.194	459.88
338.422	445.88
338.65	451.88
338.878	423.88
339.106	444.88
339.334	444.88
339.562	441.88
339.79	410.88
340.018	449.88
340.246	445.88
340.474	428.88
340.702	454.88
340.93	453.88
341.158	443.88
341.386	437.88
341.614	435.88
341.842	428.88
342.07	442.88
342.298	440.88
342.526	412.88
342.754	427.88
342.981	453.88
343.209	446.88
343.437	448.88
343.665	446.88
343.893	462.88
344.12	476.88
344.348	468.88
344.576	441.88
344.804	455.88
345.031	463.88
345.259	454.88
345.487	441.88
345.714	427.88
345.942	429.88
346.17	426.88
346.397	419.88
346.625	429.88
346.853	411.88
347.08	411.88
347.308	431.88
347.535	414.88
347.763	444.88
347.99	412.88
348.218	427.88
348.445	443.88
348.673	418.88
348.9	446.88
349.128	427.88
349.355	411.88
349.583	399.88
349.81	404.88
350.037	415.88
350.265	387.88
350.492	410.88
350.72	411.88
350.947	395.88
351.174	403.88
351.402	422.88
351.629	407.88
351.856	455.88
352.083	439.88
352.311	430.88
352.538	436.88
352.765	451.88
352.992	438.88
353.22	420.88
353.447	414.88
353.674	415.88
353.901	424.88
354.128	419.88
354.355	402.88
354.583	375.88
354.81	404.88
355.037	398.88
355.264	410.88
355.491	403.88
355.718	419.88
355.945	414.88
356.172	396.88
356.399	410.88
356.626	390.88
356.853	396.88
357.08	379.88
357.307	410.88
357.534	420.88
357.761	391.88
357.988	401.88
358.215	404.88
358.441	397.88
358.668	403.88
358.895	417.88
359.122	415.88
359.349	397.88
359.576	418.88
359.802	449.88
360.029	462.88
360.256	476.88
360.483	460.88
360.709	442.88
360.936	416.88
361.163	416.88
361.39	438.88
361.616	440.88
361.843	438.88
362.07	425.88
362.296	443.88
362.523	430.88
362.749	426.88
362.976	422.88
363.203	407.88
363.429	418.88
363.656	414.88
363.882	391.88
364.109	402.88
364.335	420.88
364.562	413.88
364.788	411.88
365.015	405.88
365.241	422.88
365.468	416.88
365.694	432.88
365.92	413.88
366.147	396.88
366.373	421.88
366.599	422.88
366.826	410.88
367.052	423.88
367.278	434.88
367.505	396.88
367.731	414.88
367.957	428.88
368.184	429.88
368.41	432.88
368.636	412.88
368.862	420.88
369.089	422.88
369.315	425.88
369.541	418.88
369.767	397.88
369.993	412.88
370.219	429.88
370.445	418.88
370.672	403.88
370.898	413.88
371.124	428.88
371.35	426.88
371.576	431.88
371.802	419.88
372.028	413.88
372.254	420.88
372.48	449.88
372.706	413.88
372.932	403.88
373.158	411.88
373.384	421.88
373.61	431.88
373.835	438.88
374.061	432.88
374.287	434.88
374.513	436.88
374.739	424.88
374.965	428.88
375.191	432.88
375.416	440.88
375.642	431.88
375.868	439.88
376.094	438.88
376.319	430.88
376.545	428.88
376.771	420.88
376.997	417.88
377.222	405.88
377.448	423.88
377.674	415.88
377.899	406.88
378.125	418.88
378.35	432.88
378.576	411.88
378.802	426.88
379.027	434.88
379.253	412.88
379.478	425.88
379.704	411.88
379.929	402.88
380.155	432.88
380.38	432.88
380.606	437.88
380.831	434.88
381.057	439.88
381.282	425.88
381.507	428.88
381.733	408.88
381.958	435.88
382.184	453.88
382.409	442.88
382.634	427.88
382.86	443.88
383.085	448.88
383.31	444.88
383.535	442.88
383.761	437.88
383.986	462.88
384.211	459.88
384.436	448.88
384.662	454.88
384.887	456.88
385.112	453.88
385.337	440.88
385.562	438.88
385.787	450.88
386.013	497.88
386.238	489.88
386.463	478.88
386.688	463.88
386.913	480.88
387.138	456.88
387.363	460.88
387.588	503.88
387.813	472.88
388.038	471.88
388.263	466.88
388.488	480.88
388.713	489.88
388.938	471.88
389.163	481.88
389.387	487.88
389.612	462.88
389.837	480.88
390.062	467.88
390.287	478.88
390.512	456.88
390.736	479.88
390.961	468.88
391.186	470.88
391.411	475.88
391.636	477.88
391.86	491.88
392.085	488.88
392.31	482.88
392.534	498.88
392.759	500.88
392.984	503.88
393.208	463.88
393.433	478.88
393.658	486.88
393.882	476.88
394.107	467.88
394.331	477.88
394.556	484.88
394.78	474.88
395.005	483.88
395.229	498.88
395.454	477.88
395.678	500.88
395.903	517.88
396.127	531.88
396.352	525.88
396.576	491.88
396.801	503.88
397.025	488.88
397.249	482.88
397.474	512.88
397.698	536.88
397.922	536.88
398.147	547.88
398.371	527.88
398.595	552.88
398.82	547.88
399.044	536.88
399.268	604.88
399.492	615.88
399.717	653.88
399.941	663.88
400.165	680.88
400.389	703.88
400.613	630.88
400.837	591.88
401.062	566.88
401.286	568.88
401.51	556.88
401.734	562.88
401.958	570.88
402.182	566.88
402.406	591.88
402.63	575.88
402.854	574.88
403.078	581.88
403.302	597.88
403.526	607.88
403.75	594.88
403.974	586.88
404.198	595.88
404.422	583.88
404.645	578.88
404.869	598.88
405.093	641.88
405.317	634.88
405.541	695.88
405.765	626.88
405.988	616.88
406.212	627.88
406.436	642.88
406.66	676.88
406.883	627.88
407.107	650.88
407.331	678.88
407.555	780.88
407.778	758.88
408.002	700.88
408.226	649.88
408.449	638.88
408.673	671.88
408.896	657.88
409.12	712.88
409.344	688.88
409.567	624.88
409.791	628.88
410.014	589.88
410.238	586.88
410.461	615.88
410.685	621.88
410.908	599.88
411.132	612.88
411.355	672.88
411.578	672.88
411.802	613.88
412.025	576.88
412.249	607.88
412.472	639.88
412.695	627.88
412.919	653.88
413.142	611.88
413.365	578.88
413.589	566.88
413.812	561.88
414.035	553.88
414.258	566.88
414.482	552.88
414.705	539.88
414.928	559.88
415.151	542.88
415.374	558.88
415.597	550.88
415.821	560.88
416.044	583.88
416.267	554.88
416.49	574.88
416.713	563.88
416.936	550.88
417.159	564.88
417.382	556.88
417.605	555.88
417.828	583.88
418.051	588.88
418.274	572.88
418.497	559.88
418.72	541.88
418.943	538.88
419.166	568.88
419.389	608.88
419.611	610.88
419.834	596.88
420.057	589.88
420.28	578.88
420.503	580.88
420.726	562.88
420.948	601.88
421.171	623.88
421.394	648.88
421.617	616.88
421.839	584.88
422.062	587.88
422.285	586.88
422.507	623.88
422.73	730.88
422.953	704.88
423.175	622.88
423.398	618.88
423.621	604.88
423.843	625.88
424.066	608.88
424.288	614.88
424.511	630.88
424.733	658.88
424.956	759.88
425.178	733.88
425.401	730.88
425.623	752.88
425.846	685.88
426.068	604.88
426.291	616.88
426.513	590.88
426.735	607.88
426.958	681.88
427.18	751.88
427.402	882.88
427.625	966.88
427.847	841.88
428.069	715.88
428.292	626.88
428.514	603.88
428.736	582.88
428.958	584.88
429.181	558.88
429.403	578.88
429.625	581.88
429.847	586.88
430.069	674.88
430.292	661.88
430.514	585.88
430.736	580.88
430.958	551.88
431.18	560.88
431.402	556.88
431.624	550.88
431.846	543.88
432.068	534.88
432.29	555.88
432.512	554.88
432.734	543.88
432.956	548.88
433.178	571.88
433.4	571.88
433.622	572.88
433.844	562.88
434.066	551.88
434.287	566.88
434.509	550.88
434.731	559.88
434.953	570.88
435.175	591.88
435.397	608.88
435.618	620.88
435.84	642.88
436.062	751.88
436.284	820.88
436.505	686.88
436.727	638.88
436.949	583.88
437.17	584.88
437.392	575.88
437.614	593.88
437.835	609.88
438.057	692.88
438.278	814.88
438.5	802.88
438.721	866.88
438.943	844.88
439.165	685.88
439.386	630.88
439.608	602.88
439.829	610.88
440.05	628.88
440.272	692.88
440.493	629.88
440.715	614.88
440.936	569.88
441.158	567.88
441.379	568.88
441.6	591.88
441.822	616.88
442.043	670.88
442.264	726.88
442.486	781.88
442.707	685.88
442.928	621.88
443.149	629.88
443.371	651.88
443.592	649.88
443.813	790.88
444.034	852.88
444.255	746.88
444.476	657.88
444.698	635.88
444.919	656.88
445.14	714.88
445.361	700.88
445.582	678.88
445.803	718.88
446.024	837.88
446.245	838.88
446.466	773.88
446.687	651.88
446.908	611.88
447.129	576.88
447.35	538.88
447.571	573.88
447.792	544.88
448.013	578.88
448.234	620.88
448.455	632.88
448.675	744.88
448.896	844.88
449.117	732.88
449.338	675.88
449.559	774.88
449.779	904.88
450	717.88
450.221	614.88
450.442	572.88
450.662	574.88
450.883	569.88
451.104	576.88
451.324	575.88
451.545	542.88
451.766	535.88
451.986	533.88
452.207	501.88
452.428	507.88
452.648	516.88
452.869	509.88
453.089	532.88
453.31	537.88
453.53	535.88
453.751	530.88
453.971	489.88
454.192	528.88
454.412	535.88
454.633	490.88
454.853	496.88
455.073	492.88
455.294	522.88
455.514	574.88
455.734	568.88
455.955	512.88
456.175	490.88
456.395	495.88
456.616	484.88
456.836	486.88
457.056	482.88
457.276	452.88
457.497	468.88
457.717	493.88
457.937	484.88
458.157	509.88
458.377	495.88
458.598	522.88
458.818	566.88
459.038	648.88
459.258	664.88
459.478	585.88
459.698	568.88
459.918	560.88
460.138	541.88
460.358	543.88
460.578	569.88
460.798	566.88
461.018	583.88
461.238	579.88
461.458	570.88
461.678	550.88
461.898	580.88
462.118	553.88
462.338	562.88
462.558	582.88
462.777	585.88
462.997	624.88
463.217	634.88
463.437	644.88
463.657	632.88
463.876	619.88
464.096	632.88
464.316	616.88
464.536	604.88
464.755	646.88
464.975	595.88
465.195	637.88
465.414	737.88
465.634	631.88
465.854	586.88
466.073	557.88
466.293	548.88
466.512	544.88
466.732	541.88
466.951	547.88
467.171	525.88
467.391	524.88
467.61	547.88
467.829	549.88
468.049	539.88
468.268	567.88
468.488	530.88
468.707	538.88
468.927	522.88
469.146	517.88
469.365	495.88
469.585	512.88
469.804	502.88
470.023	533.88
470.243	533.88
470.462	547.88
470.681	578.88
470.901	550.88
471.12	544.88
471.339	534.88
471.558	525.88
471.777	514.88
471.997	518.88
472.216	530.88
472.435	573.88
472.654	548.88
472.873	523.88
473.092	524.88
473.311	539.88
473.53	524.88
473.749	523.88
473.968	562.88
474.187	664.88
474.406	691.88
474.625	580.88
474.844	535.88
475.063	543.88
475.282	536.88
475.501	559.88
475.72	571.88
475.939	522.88
476.158	534.88
476.377	544.88
476.596	544.88
476.814	544.88
477.033	558.88
477.252	560.88
477.471	587.88
477.69	586.88
477.908	593.88
478.127	583.88
478.346	601.88
478.564	581.88
478.783	599.88
479.002	634.88
479.22	622.88
479.439	626.88
479.658	633.88
479.876	622.88
480.095	652.88
480.313	694.88
480.532	667.88
480.751	680.88
480.969	679.88
481.188	719.88
481.406	748.88
481.624	699.88
481.843	640.88
482.061	634.88
482.28	628.88
482.498	595.88
482.717	623.88
482.935	604.88
483.153	613.88
483.372	623.88
483.59	624.88
483.808	632.88
484.027	624.88
484.245	610.88
484.463	619.88
484.681	640.88
484.9	629.88
485.118	620.88
485.336	646.88
485.554	636.88
485.772	646.88
485.99	648.88
486.209	647.88
486.427	652.88
486.645	660.88
486.863	709.88
487.081	667.88
487.299	665.88
487.517	643.88
487.735	650.88
487.953	646.88
488.171	675.88
488.389	666.88
488.607	667.88
488.825	693.88
489.043	686.88
489.261	651.88
489.479	694.88
489.696	688.88
489.914	673.88
490.132	699.88
490.35	709.88
490.568	684.88
490.786	703.88
491.003	708.88
491.221	724.88
491.439	745.88
491.657	736.88
491.874	755.88
492.092	763.88
492.31	749.88
492.527	758.88
492.745	759.88
492.963	750.88
493.18	754.88
493.398	776.88
493.615	782.88
493.833	765.88
494.05	770.88
494.268	772.88
494.485	774.88
494.703	760.88
494.92	792.88
495.138	781.88
495.355	759.88
495.573	806.88
495.79	780.88
496.008	788.88
496.225	783.88
496.442	778.88
496.66	794.88
496.877	801.88
497.094	811.88
497.312	808.88
497.529	786.88
497.746	819.88
497.963	834.88
498.181	865.88
498.398	889.88
498.615	897.88
498.832	921.88
499.049	942.88
499.267	999.88
499.484	1022.88
499.701	1061.88
499.918	1096.88
500.135	1170.88
500.352	1199.88
500.569	1243.88
500.786	1215.88
501.003	1189.88
501.22	1173.88
501.437	1110.88
501.654	1101.88
501.871	1027.88
502.088	992.88
502.305	971.88
502.522	956.88
502.739	902.88
502.956	891.88
503.172	878.88
503.389	844.88
503.606	853.88
503.823	836.88
504.04	829.88
504.256	844.88
504.473	806.88
504.69	830.88
504.907	813.88
505.123	793.88
505.34	754.88
505.557	785.88
505.773	767.88
505.99	748.88
506.207	754.88
506.423	750.88
506.64	736.88
506.856	722.88
507.073	735.88
507.289	740.88
507.506	717.88
507.722	740.88
507.939	763.88
508.155	708.88
508.372	714.88
508.588	679.88
508.805	708.88
509.021	703.88
509.238	692.88
509.454	738.88
509.67	720.88
509.887	702.88
510.103	679.88
510.319	681.88
510.536	799.88
510.752	1323.88
510.968	1055.88
511.184	720.88
511.401	712.88
511.617	676.88
511.833	669.88
512.049	670.88
512.265	672.88
512.481	648.88
512.698	660.88
512.914	669.88
513.13	663.88
513.346	659.88
513.562	659.88
513.778	675.88
513.994	671.88
514.21	703.88
514.426	702.88
514.642	748.88
514.858	748.88
515.074	823.88
515.29	920.88
515.506	1372.88
515.721	1154.88
515.937	799.88
516.153	730.88
516.369	714.88
516.585	728.88
516.801	725.88
517.016	724.88
517.232	725.88
517.448	747.88
517.664	727.88
517.879	716.88
518.095	719.88
518.311	719.88
518.527	709.88
518.742	706.88
518.958	694.88
519.173	703.88
519.389	674.88
519.605	678.88
519.82	695.88
520.036	698.88
520.251	700.88
520.467	728.88
520.682	712.88
520.898	734.88
521.113	717.88
521.329	760.88
521.544	834.88
521.76	1053.88
521.975	1750.88
522.19	1738.88
522.406	951.88
522.621	772.88
522.836	684.88
523.052	636.88
523.267	637.88
523.482	627.88
523.698	624.88
523.913	627.88
524.128	615.88
524.343	628.88
524.559	604.88
524.774	586.88
524.989	597.88
525.204	579.88
525.419	600.88
525.634	564.88
525.849	574.88
526.064	566.88
526.28	565.88
526.495	558.88
526.71	532.88
526.925	557.88
527.14	566.88
527.355	559.88
527.57	566.88
527.785	542.88
527.999	578.88
528.214	574.88
528.429	563.88
528.644	568.88
528.859	556.88
529.074	564.88
529.289	572.88
529.503	662.88
529.718	621.88
529.933	603.88
530.148	575.88
530.363	579.88
530.577	569.88
530.792	569.88
531.007	543.88
531.221	548.88
531.436	547.88
531.651	526.88
531.865	547.88
532.08	526.88
532.295	551.88
532.509	530.88
532.724	531.88
532.938	537.88
533.153	540.88
533.367	536.88
533.582	553.88
533.796	539.88
534.011	541.88
534.225	531.88
534.44	530.88
534.654	525.88
534.868	550.88
535.083	536.88
535.297	545.88
535.511	536.88
535.726	527.88
535.94	536.88
536.154	542.88
536.369	512.88
536.583	549.88
536.797	520.88
537.011	528.88
537.225	505.88
537.44	505.88
537.654	507.88
537.868	513.88
538.082	502.88
538.296	502.88
538.51	536.88
538.724	507.88
538.938	538.88
539.153	509.88
539.367	532.88
539.581	532.88
539.795	502.88
540.009	525.88
540.222	512.88
540.436	532.88
540.65	495.88
540.864	500.88
541.078	506.88
541.292	533.88
541.506	528.88
541.72	509.88
541.934	522.88
542.147	518.88
542.361	508.88
542.575	502.88
542.789	513.88
543.002	498.88
543.216	505.88
543.43	506.88
543.644	502.88
543.857	506.88
544.071	498.88
544.285	510.88
544.498	487.88
544.712	490.88
544.925	487.88
545.139	500.88
545.352	502.88
545.566	483.88
545.779	520.88
545.993	517.88
546.206	507.88
546.42	513.88
546.633	508.88
546.847	482.88
547.06	477.88
547.274	483.88
547.487	500.88
547.7	474.88
547.914	482.88
548.127	494.88
548.34	518.88
548.554	487.88
548.767	486.88
548.98	518.88
549.193	488.88
549.407	492.88
549.62	509.88
549.833	485.88
550.046	500.88
550.259	479.88
550.473	504.88
550.686	493.88
550.899	502.88
551.112	464.88
551.325	493.88
551.538	488.88
551.751	490.88
551.964	466.88
552.177	494.88
552.39	485.88
552.603	494.88
552.816	489.88
553.029	481.88
553.242	494.88
553.455	528.88
553.667	546.88
553.88	505.88
554.093	511.88
554.306	522.88
554.519	490.88
554.732	488.88
554.944	468.88
555.157	493.88
555.37	475.88
555.583	487.88
555.795	457.88
556.008	454.88
556.221	452.88
556.433	459.88
556.646	460.88
556.859	443.88
557.071	447.88
557.284	449.88
557.496	444.88
557.709	450.88
557.921	440.88
558.134	446.88
558.346	447.88
558.559	439.88
558.771	420.88
558.984	429.88
559.196	425.88
559.409	430.88
559.621	441.88
559.833	431.88
560.046	436.88
560.258	444.88
560.47	449.88
560.683	435.88
560.895	436.88
561.107	415.88
561.32	427.88
561.532	422.88
561.744	440.88
561.956	419.88
562.168	433.88
562.381	425.88
562.593	430.88
562.805	444.88
563.017	439.88
563.229	428.88
563.441	443.88
563.653	444.88
563.865	435.88
564.077	460.88
564.289	451.88
564.501	453.88
564.713	448.88
564.925	464.88
565.137	455.88
565.349	482.88
565.561	482.88
565.773	490.88
565.985	498.88
566.197	500.88
566.408	536.88
566.62	544.88
566.832	563.88
567.044	567.88
567.255	570.88
567.467	580.88
567.679	583.88
567.891	605.88
568.102	599.88
568.314	595.88
568.526	553.88
568.737	518.88
568.949	509.88
569.161	504.88
569.372	475.88
569.584	468.88
569.795	452.88
570.007	444.88
570.218	498.88
570.43	482.88
570.641	434.88
570.853	440.88
571.064	426.88
571.276	428.88
571.487	411.88
571.698	397.88
571.91	394.88
572.121	418.88
572.333	413.88
572.544	409.88
572.755	396.88
572.966	376.88
573.178	408.88
573.389	390.88
573.6	397.88
573.811	395.88
574.023	395.88
574.234	384.88
574.445	383.88
574.656	377.88
574.867	375.88
575.078	393.88
575.289	364.88
575.501	358.88
575.712	379.88
575.923	372.88
576.134	363.88
576.345	378.88
576.556	374.88
576.767	367.88
576.978	360.88
577.188	351.88
577.399	380.88
577.61	350.88
577.821	362.88
578.032	359.88
578.243	420.88
578.454	600.88
578.665	481.88
578.875	360.88
579.086	334.88
579.297	362.88
579.508	348.88
579.718	344.88
579.929	357.88
580.14	328.88
580.35	342.88
580.561	339.88
580.772	345.88
580.982	346.88
581.193	333.88
581.403	328.88
581.614	344.88
581.825	336.88
582.035	328.88
582.246	318.88
582.456	350.88
582.667	322.88
582.877	368.88
583.087	330.88
583.298	320.88
583.508	330.88
583.719	344.88
583.929	325.88
584.139	334.88
584.35	345.88
584.56	340.88
584.77	351.88
584.981	332.88
585.191	324.88
585.401	333.88
585.611	312.88
585.821	350.88
586.032	326.88
586.242	328.88
586.452	326.88
586.662	341.88
586.872	323.88
587.082	340.88
587.292	328.88
587.502	312.88
587.713	323.88
587.923	326.88
588.133	310.88
588.343	330.88
588.553	330.88
588.762	314.88
588.972	312.88
589.182	326.88
589.392	350.88
589.602	318.88
589.812	323.88
590.022	325.88
590.232	328.88
590.441	333.88
590.651	320.88
590.861	346.88
591.071	336.88
591.281	338.88
591.49	334.88
591.7	350.88
591.91	343.88
592.119	342.88
592.329	354.88
592.539	357.88
592.748	337.88
592.958	366.88
593.167	342.88
593.377	340.88
593.587	355.88
593.796	353.88
594.006	356.88
594.215	369.88
594.424	350.88
594.634	350.88
594.843	361.88
595.053	336.88
595.262	332.88
595.472	321.88
595.681	343.88
595.89	333.88
596.1	322.88
596.309	332.88
596.518	299.88
596.727	319.88
596.937	314.88
597.146	303.88
597.355	317.88
597.564	301.88
597.774	303.88
597.983	301.88
598.192	296.88
598.401	293.88
598.61	299.88
598.819	291.88
599.028	283.88
599.237	292.88
599.446	297.88
599.655	292.88
599.864	285.88
600.073	289.88
600.282	294.88
600.491	296.88
600.7	303.88
600.909	279.88
601.118	284.88
601.327	284.88
601.536	282.88
601.745	276.88
601.953	294.88
602.162	287.88
602.371	273.88
602.58	297.88
602.789	272.88
602.997	286.88
603.206	286.88
603.415	269.88
603.623	271.88
603.832	270.88
604.041	278.88
604.249	260.88
604.458	267.88
604.666	270.88
604.875	275.88
605.084	278.88
605.292	267.88
605.501	268.88
605.709	271.88
605.918	272.88
606.126	246.88
606.334	278.88
606.543	278.88
606.751	268.88
606.96	269.88
607.168	252.88
607.376	241.88
607.585	271.88
607.793	274.88
608.001	280.88
608.21	250.88
608.418	255.88
608.626	270.88
608.834	268.88
609.043	266.88
609.251	253.88
609.459	256.88
609.667	259.88
609.875	258.88
610.083	275.88
610.291	277.88
610.499	268.88
610.707	266.88
610.916	258.88
611.124	254.88
611.332	276.88
611.54	264.88
611.748	257.88
611.955	288.88
612.163	261.88
612.371	252.88
612.579	283.88
612.787	267.88
612.995	258.88
613.203	264.88
613.411	252.88
613.618	261.88
613.826	244.88
614.034	259.88
614.242	254.88
614.449	258.88
614.657	239.88
614.865	248.88
615.072	243.88
615.28	255.88
615.488	259.88
615.695	247.88
615.903	239.88
616.111	237.88
616.318	264.88
616.526	278.88
616.733	268.88
616.941	270.88
617.148	247.88
617.356	251.88
617.563	256.88
617.771	244.88
617.978	239.88
618.185	236.88
618.393	244.88
618.6	270.88
618.807	239.88
619.015	258.88
619.222	237.88
619.429	234.88
619.637	262.88
619.844	246.88
620.051	239.88
620.258	230.88
620.466	228.88
620.673	223.88
620.88	237.88
621.087	235.88
621.294	228.88
621.501	227.88
621.708	243.88
621.915	250.88
622.122	251.88
622.329	245.88
622.536	259.88
622.743	244.88
622.95	233.88
623.157	234.88
623.364	256.88
623.571	221.88
623.778	226.88
623.985	224.88
624.192	243.88
624.399	218.88
624.606	233.88
624.812	215.88
625.019	248.88
625.226	235.88
625.433	237.88
625.639	213.88
625.846	210.88
626.053	210.88
626.259	226.88
626.466	229.88
626.673	220.88
626.879	226.88
627.086	235.88
627.293	229.88
627.499	235.88
627.706	230.88
627.912	223.88
628.119	218.88
628.325	206.88
628.532	214.88
628.738	200.88
628.945	204.88
629.151	211.88
629.357	222.88
629.564	217.88
629.77	206.88
629.976	189.88
630.183	208.88
630.389	217.88
630.595	206.88
630.802	208.88
631.008	208.88
631.214	218.88
631.42	193.88
631.627	208.88
631.833	210.88
632.039	209.88
632.245	215.88
632.451	214.88
632.657	208.88
632.863	206.88
633.069	211.88
633.275	218.88
633.481	192.88
633.688	204.88
633.893	186.88
634.099	208.88
634.305	202.88
634.511	179.88
634.717	187.88
634.923	192.88
635.129	183.88
635.335	183.88
635.541	200.88
635.747	198.88
635.952	194.88
636.158	208.88
636.364	203.88
636.57	210.88
636.775	206.88
636.981	202.88
637.187	203.88
637.392	184.88
637.598	176.88
637.804	191.88
638.009	195.88
638.215	187.88
638.421	188.88
638.626	203.88
638.832	180.88
639.037	197.88
639.243	168.88
639.448	212.88
639.654	179.88
639.859	178.88
640.065	192.88
640.27	181.88
640.475	191.88
640.681	182.88
640.886	184.88
641.091	181.88
641.297	181.88
641.502	177.88
641.707	192.88
641.913	196.88
642.118	178.88
642.323	187.88
642.528	166.88
642.733	178.88
642.939	175.88
643.144	184.88
643.349	184.88
643.554	176.88
643.759	170.88
643.964	168.88
644.169	153.88
644.374	175.88
644.579	166.88
644.784	173.88
644.989	188.88
645.194	171.88
645.399	168.88
645.604	174.88
645.809	177.88
646.014	174.88
646.219	165.88
646.423	171.88
646.628	170.88
646.833	178.88
647.038	168.88
647.243	176.88
647.447	182.88
647.652	183.88
647.857	175.88
648.062	188.88
648.266	187.88
648.471	186.88
648.676	183.88
648.88	183.88
649.085	173.88
649.289	183.88
649.494	191.88
649.698	217.88
649.903	199.88
650.107	178.88
650.312	190.88
650.516	170.88
650.721	166.88
650.925	169.88
651.13	169.88
651.334	159.88
651.539	147.88
651.743	159.88
651.947	167.88
652.152	167.88
652.356	141.88
652.56	168.88
652.764	166.88
652.969	147.88
653.173	154.88
653.377	150.88
653.581	143.88
653.785	162.88
653.99	162.88
654.194	123.88
654.398	141.88
654.602	148.88
654.806	142.88
655.01	150.88
655.214	150.88
655.418	147.88
655.622	149.88
655.826	140.88
656.03	134.88
656.234	149.88
656.438	156.88
656.642	144.88
656.846	146.88
657.049	134.88
657.253	124.88
657.457	132.88
657.661	125.88
657.865	120.88
658.068	115.88
658.272	115.88
658.476	105.88
658.68	93.88
658.883	99.88
659.087	110.88
659.291	99.88
659.494	101.88
659.698	98.88
659.901	113.88
660.105	99.88
660.309	111.88
660.512	91.88
660.716	96.88
660.919	92.88
661.123	90.88
661.326	100.88
661.53	102.88
661.733	87.88
661.936	90.88
662.14	91.88
662.343	91.88
662.546	90.88
662.75	91.88
662.953	85.88
663.156	94.88
663.36	86.88
663.563	84.88
663.766	86.88
663.969	71.88
664.173	82.88
664.376	90.88
664.579	92.88
664.782	76.88
664.985	84.88
665.188	84.88
665.391	73.88
665.594	86.88
665.797	90.88
666	96.88
666.203	91.88
666.406	87.88
666.609	80.88
666.812	93.88
667.015	90.88
667.218	95.88
667.421	74.88
667.624	69.88
667.827	88.88
668.03	83.88
668.232	72.88
668.435	91.88
668.638	80.88
668.841	82.88
669.043	79.88
669.246	79.88
669.449	87.88
669.651	83.88
669.854	92.88
670.057	72.88
670.259	86.88
670.462	76.88
670.665	88.88
670.867	92.88
671.07	77.88
671.272	90.88
671.475	95.88
671.677	82.88
671.88	84.88
672.082	79.88
672.284	76.88
672.487	88.88
672.689	94.88
672.892	92.88
