Data from 1979.PennyLincolnUp.Lamp.En5.5.200Scan.071719.P1_HRD10591_16-19-10-864.txt Node
Date: Thu Jul 18 16:19:10 EDT 2019
User: cochatt
Spectrometer: HR+D1059
Trigger mode: 1
Integration Time (sec): 1.000000E-1
Scans to average: 1
Electric dark correction enabled: true
Nonlinearity correction enabled: false
Boxcar width: 0
XAxis mode: Wavelengths
Number of Pixels in Spectrum: 2048
>>>>>Begin Spectral Data<<<<<
223.165	-20.75
223.4	-20.75
223.635	-20.75
223.869	-24.75
224.104	-12.75
224.338	-20.75
224.573	-9.75
224.808	-10.75
225.042	-5.75
225.277	-13.75
225.511	-12.75
225.746	11.25
225.98	17.25
226.215	14.25
226.449	20.25
226.683	24.25
226.918	16.25
227.152	28.25
227.387	30.25
227.621	51.25
227.856	53.25
228.09	41.25
228.324	50.25
228.559	53.25
228.793	60.25
229.027	90.25
229.262	101.25
229.496	88.25
229.73	121.25
229.964	138.25
230.199	119.25
230.433	110.25
230.667	116.25
230.901	93.25
231.136	105.25
231.37	96.25
231.604	106.25
231.838	118.25
232.072	126.25
232.306	115.25
232.541	116.25
232.775	123.25
233.009	98.25
233.243	116.25
233.477	103.25
233.711	109.25
233.945	117.25
234.179	116.25
234.413	111.25
234.647	98.25
234.881	108.25
235.115	121.25
235.349	130.25
235.583	120.25
235.817	111.25
236.051	128.25
236.285	109.25
236.519	122.25
236.753	134.25
236.987	138.25
237.221	167.25
237.455	213.25
237.689	169.25
237.922	129.25
238.156	127.25
238.39	114.25
238.624	119.25
238.858	117.25
239.091	136.25
239.325	134.25
239.559	111.25
239.793	122.25
240.027	144.25
240.26	154.25
240.494	151.25
240.728	131.25
240.961	143.25
241.195	156.25
241.429	138.25
241.662	123.25
241.896	119.25
242.13	135.25
242.363	120.25
242.597	123.25
242.83	137.25
243.064	135.25
243.298	145.25
243.531	132.25
243.765	138.25
243.998	137.25
244.232	132.25
244.465	121.25
244.699	148.25
244.932	142.25
245.166	136.25
245.399	135.25
245.633	133.25
245.866	148.25
246.099	138.25
246.333	141.25
246.566	143.25
246.8	149.25
247.033	155.25
247.266	155.25
247.5	147.25
247.733	152.25
247.966	164.25
248.2	156.25
248.433	157.25
248.666	168.25
248.899	176.25
249.133	178.25
249.366	184.25
249.599	184.25
249.832	168.25
250.066	159.25
250.299	165.25
250.532	181.25
250.765	201.25
250.998	190.25
251.231	213.25
251.465	190.25
251.698	199.25
251.931	181.25
252.164	178.25
252.397	162.25
252.63	183.25
252.863	193.25
253.096	200.25
253.329	198.25
253.562	202.25
253.795	191.25
254.028	207.25
254.261	185.25
254.494	202.25
254.727	231.25
254.96	229.25
255.193	248.25
255.426	220.25
255.659	206.25
255.892	236.25
256.124	211.25
256.357	200.25
256.59	199.25
256.823	196.25
257.056	192.25
257.289	198.25
257.521	184.25
257.754	180.25
257.987	209.25
258.22	198.25
258.452	193.25
258.685	194.25
258.918	203.25
259.151	203.25
259.383	214.25
259.616	189.25
259.849	190.25
260.081	229.25
260.314	220.25
260.547	237.25
260.779	216.25
261.012	213.25
261.244	205.25
261.477	197.25
261.71	187.25
261.942	224.25
262.175	218.25
262.407	211.25
262.64	187.25
262.872	198.25
263.105	180.25
263.337	214.25
263.57	200.25
263.802	212.25
264.035	208.25
264.267	201.25
264.499	198.25
264.732	200.25
264.964	222.25
265.197	207.25
265.429	205.25
265.661	200.25
265.894	206.25
266.126	195.25
266.358	181.25
266.591	206.25
266.823	227.25
267.055	202.25
267.287	195.25
267.52	208.25
267.752	207.25
267.984	202.25
268.216	199.25
268.448	205.25
268.681	202.25
268.913	246.25
269.145	234.25
269.377	242.25
269.609	226.25
269.841	246.25
270.073	251.25
270.306	250.25
270.538	278.25
270.77	275.25
271.002	262.25
271.234	238.25
271.466	273.25
271.698	263.25
271.93	258.25
272.162	263.25
272.394	295.25
272.626	270.25
272.858	263.25
273.09	250.25
273.322	243.25
273.553	257.25
273.785	255.25
274.017	249.25
274.249	248.25
274.481	239.25
274.713	244.25
274.945	247.25
275.176	238.25
275.408	220.25
275.64	244.25
275.872	247.25
276.104	247.25
276.335	258.25
276.567	279.25
276.799	276.25
277.031	292.25
277.262	289.25
277.494	282.25
277.726	280.25
277.957	252.25
278.189	258.25
278.421	251.25
278.652	253.25
278.884	242.25
279.115	244.25
279.347	231.25
279.579	264.25
279.81	251.25
280.042	256.25
280.273	238.25
280.505	240.25
280.736	250.25
280.968	255.25
281.199	257.25
281.431	247.25
281.662	264.25
281.894	235.25
282.125	258.25
282.356	271.25
282.588	298.25
282.819	294.25
283.051	267.25
283.282	264.25
283.513	272.25
283.745	244.25
283.976	262.25
284.207	261.25
284.439	269.25
284.67	255.25
284.901	268.25
285.132	271.25
285.364	264.25
285.595	256.25
285.826	263.25
286.057	266.25
286.288	272.25
286.52	268.25
286.751	262.25
286.982	270.25
287.213	261.25
287.444	252.25
287.675	271.25
287.906	286.25
288.138	291.25
288.369	278.25
288.6	297.25
288.831	270.25
289.062	257.25
289.293	296.25
289.524	285.25
289.755	283.25
289.986	284.25
290.217	290.25
290.448	282.25
290.679	271.25
290.91	272.25
291.141	254.25
291.371	270.25
291.602	262.25
291.833	272.25
292.064	290.25
292.295	277.25
292.526	274.25
292.757	285.25
292.987	280.25
293.218	265.25
293.449	279.25
293.68	275.25
293.91	274.25
294.141	263.25
294.372	258.25
294.603	266.25
294.833	278.25
295.064	259.25
295.295	277.25
295.525	280.25
295.756	286.25
295.987	292.25
296.217	308.25
296.448	311.25
296.679	303.25
296.909	289.25
297.14	283.25
297.37	283.25
297.601	282.25
297.831	303.25
298.062	285.25
298.292	285.25
298.523	297.25
298.753	283.25
298.984	304.25
299.214	278.25
299.445	281.25
299.675	302.25
299.905	302.25
300.136	293.25
300.366	296.25
300.597	295.25
300.827	307.25
301.057	320.25
301.288	296.25
301.518	318.25
301.748	317.25
301.979	310.25
302.209	311.25
302.439	308.25
302.669	310.25
302.9	309.25
303.13	308.25
303.36	326.25
303.59	311.25
303.82	331.25
304.051	319.25
304.281	314.25
304.511	325.25
304.741	295.25
304.971	324.25
305.201	308.25
305.431	325.25
305.661	326.25
305.891	326.25
306.121	311.25
306.352	330.25
306.582	328.25
306.812	335.25
307.042	332.25
307.272	330.25
307.502	309.25
307.731	330.25
307.961	310.25
308.191	326.25
308.421	340.25
308.651	324.25
308.881	328.25
309.111	329.25
309.341	331.25
309.571	320.25
309.8	351.25
310.03	342.25
310.26	336.25
310.49	349.25
310.72	327.25
310.949	364.25
311.179	350.25
311.409	362.25
311.639	364.25
311.868	377.25
312.098	362.25
312.328	347.25
312.557	375.25
312.787	374.25
313.017	383.25
313.246	375.25
313.476	354.25
313.706	364.25
313.935	367.25
314.165	365.25
314.394	369.25
314.624	362.25
314.853	355.25
315.083	370.25
315.312	346.25
315.542	342.25
315.771	365.25
316.001	349.25
316.23	351.25
316.46	363.25
316.689	363.25
316.919	375.25
317.148	379.25
317.377	387.25
317.607	371.25
317.836	381.25
318.065	356.25
318.295	372.25
318.524	352.25
318.753	362.25
318.983	367.25
319.212	367.25
319.441	380.25
319.67	378.25
319.9	347.25
320.129	344.25
320.358	366.25
320.587	373.25
320.816	388.25
321.046	372.25
321.275	365.25
321.504	384.25
321.733	380.25
321.962	401.25
322.191	399.25
322.42	402.25
322.649	406.25
322.878	414.25
323.108	422.25
323.337	439.25
323.566	446.25
323.795	454.25
324.024	511.25
324.253	598.25
324.482	846.25
324.71	1346.25
324.939	1958.25
325.168	1684.25
325.397	838.25
325.626	578.25
325.855	482.25
326.084	478.25
326.313	452.25
326.542	461.25
326.77	508.25
326.999	582.25
327.228	778.25
327.457	1204.25
327.686	1528.25
327.914	964.25
328.143	651.25
328.372	562.25
328.6	522.25
328.829	487.25
329.058	512.25
329.287	527.25
329.515	484.25
329.744	465.25
329.972	490.25
330.201	485.25
330.43	508.25
330.658	530.25
330.887	516.25
331.115	534.25
331.344	482.25
331.572	462.25
331.801	464.25
332.03	469.25
332.258	444.25
332.486	436.25
332.715	424.25
332.943	451.25
333.172	437.25
333.4	429.25
333.629	457.25
333.857	444.25
334.085	481.25
334.314	498.25
334.542	483.25
334.771	496.25
334.999	475.25
335.227	469.25
335.455	456.25
335.684	431.25
335.912	448.25
336.14	428.25
336.369	436.25
336.597	462.25
336.825	436.25
337.053	409.25
337.281	415.25
337.51	420.25
337.738	436.25
337.966	433.25
338.194	424.25
338.422	419.25
338.65	414.25
338.878	438.25
339.106	419.25
339.334	429.25
339.562	406.25
339.79	428.25
340.018	426.25
340.246	408.25
340.474	421.25
340.702	433.25
340.93	431.25
341.158	413.25
341.386	403.25
341.614	408.25
341.842	427.25
342.07	410.25
342.298	410.25
342.526	403.25
342.754	404.25
342.981	394.25
343.209	388.25
343.437	410.25
343.665	420.25
343.893	424.25
344.12	435.25
344.348	438.25
344.576	426.25
344.804	430.25
345.031	427.25
345.259	446.25
345.487	440.25
345.714	430.25
345.942	410.25
346.17	406.25
346.397	384.25
346.625	396.25
346.853	398.25
347.08	414.25
347.308	426.25
347.535	403.25
347.763	404.25
347.99	397.25
348.218	395.25
348.445	430.25
348.673	411.25
348.9	414.25
349.128	378.25
349.355	396.25
349.583	387.25
349.81	393.25
350.037	390.25
350.265	390.25
350.492	386.25
350.72	381.25
350.947	383.25
351.174	401.25
351.402	422.25
351.629	411.25
351.856	404.25
352.083	414.25
352.311	422.25
352.538	442.25
352.765	419.25
352.992	415.25
353.22	406.25
353.447	411.25
353.674	414.25
353.901	385.25
354.128	382.25
354.355	382.25
354.583	378.25
354.81	382.25
355.037	394.25
355.264	368.25
355.491	382.25
355.718	374.25
355.945	363.25
356.172	377.25
356.399	390.25
356.626	381.25
356.853	374.25
357.08	385.25
357.307	377.25
357.534	385.25
357.761	387.25
357.988	378.25
358.215	383.25
358.441	387.25
358.668	386.25
358.895	415.25
359.122	392.25
359.349	434.25
359.576	398.25
359.802	422.25
360.029	442.25
360.256	439.25
360.483	444.25
360.709	424.25
360.936	422.25
361.163	407.25
361.39	411.25
361.616	418.25
361.843	390.25
362.07	399.25
362.296	407.25
362.523	420.25
362.749	420.25
362.976	431.25
363.203	412.25
363.429	387.25
363.656	390.25
363.882	398.25
364.109	380.25
364.335	370.25
364.562	376.25
364.788	400.25
365.015	420.25
365.241	380.25
365.468	398.25
365.694	392.25
365.92	397.25
366.147	409.25
366.373	409.25
366.599	403.25
366.826	397.25
367.052	375.25
367.278	391.25
367.505	402.25
367.731	401.25
367.957	396.25
368.184	397.25
368.41	406.25
368.636	386.25
368.862	410.25
369.089	409.25
369.315	371.25
369.541	399.25
369.767	392.25
369.993	392.25
370.219	429.25
370.445	406.25
370.672	414.25
370.898	405.25
371.124	400.25
371.35	395.25
371.576	394.25
371.802	406.25
372.028	416.25
372.254	419.25
372.48	418.25
372.706	402.25
372.932	409.25
373.158	406.25
373.384	408.25
373.61	419.25
373.835	428.25
374.061	397.25
374.287	406.25
374.513	408.25
374.739	413.25
374.965	414.25
375.191	422.25
375.416	420.25
375.642	446.25
375.868	418.25
376.094	420.25
376.319	423.25
376.545	400.25
376.771	427.25
376.997	403.25
377.222	399.25
377.448	413.25
377.674	404.25
377.899	394.25
378.125	404.25
378.35	401.25
378.576	425.25
378.802	411.25
379.027	414.25
379.253	384.25
379.478	397.25
379.704	395.25
379.929	417.25
380.155	412.25
380.38	403.25
380.606	387.25
380.831	401.25
381.057	425.25
381.282	420.25
381.507	418.25
381.733	407.25
381.958	409.25
382.184	422.25
382.409	406.25
382.634	416.25
382.86	419.25
383.085	417.25
383.31	409.25
383.535	420.25
383.761	422.25
383.986	414.25
384.211	434.25
384.436	446.25
384.662	430.25
384.887	428.25
385.112	442.25
385.337	426.25
385.562	450.25
385.787	450.25
386.013	463.25
386.238	459.25
386.463	450.25
386.688	451.25
386.913	448.25
387.138	450.25
387.363	446.25
387.588	442.25
387.813	449.25
388.038	445.25
388.263	445.25
388.488	452.25
388.713	456.25
388.938	465.25
389.163	446.25
389.387	451.25
389.612	448.25
389.837	454.25
390.062	454.25
390.287	456.25
390.512	470.25
390.736	469.25
390.961	444.25
391.186	453.25
391.411	475.25
391.636	469.25
391.86	460.25
392.085	464.25
392.31	464.25
392.534	467.25
392.759	475.25
392.984	472.25
393.208	466.25
393.433	468.25
393.658	483.25
393.882	477.25
394.107	451.25
394.331	464.25
394.556	462.25
394.78	459.25
395.005	470.25
395.229	475.25
395.454	479.25
395.678	465.25
395.903	478.25
396.127	507.25
396.352	494.25
396.576	487.25
396.801	481.25
397.025	488.25
397.249	502.25
397.474	498.25
397.698	502.25
397.922	494.25
398.147	504.25
398.371	527.25
398.595	500.25
398.82	512.25
399.044	541.25
399.268	568.25
399.492	598.25
399.717	636.25
399.941	658.25
400.165	654.25
400.389	652.25
400.613	625.25
400.837	597.25
401.062	546.25
401.286	560.25
401.51	549.25
401.734	528.25
401.958	530.25
402.182	556.25
402.406	560.25
402.63	573.25
402.854	552.25
403.078	544.25
403.302	568.25
403.526	544.25
403.75	571.25
403.974	554.25
404.198	563.25
404.422	550.25
404.645	573.25
404.869	566.25
405.093	615.25
405.317	635.25
405.541	676.25
405.765	617.25
405.988	584.25
406.212	610.25
406.436	602.25
406.66	637.25
406.883	593.25
407.107	654.25
407.331	649.25
407.555	724.25
407.778	714.25
408.002	684.25
408.226	618.25
408.449	633.25
408.673	606.25
408.896	662.25
409.12	668.25
409.344	636.25
409.567	594.25
409.791	574.25
410.014	576.25
410.238	539.25
410.461	574.25
410.685	574.25
410.908	562.25
411.132	599.25
411.355	640.25
411.578	602.25
411.802	574.25
412.025	574.25
412.249	579.25
412.472	579.25
412.695	637.25
412.919	603.25
413.142	588.25
413.365	561.25
413.589	536.25
413.812	542.25
414.035	537.25
414.258	536.25
414.482	537.25
414.705	538.25
414.928	552.25
415.151	524.25
415.374	555.25
415.597	544.25
415.821	536.25
416.044	529.25
416.267	523.25
416.49	518.25
416.713	539.25
416.936	527.25
417.159	532.25
417.382	542.25
417.605	545.25
417.828	534.25
418.051	549.25
418.274	529.25
418.497	535.25
418.72	531.25
418.943	539.25
419.166	543.25
419.389	568.25
419.611	591.25
419.834	579.25
420.057	544.25
420.28	566.25
420.503	548.25
420.726	557.25
420.948	563.25
421.171	600.25
421.394	631.25
421.617	564.25
421.839	564.25
422.062	560.25
422.285	569.25
422.507	617.25
422.73	682.25
422.953	666.25
423.175	615.25
423.398	604.25
423.621	567.25
423.843	555.25
424.066	559.25
424.288	587.25
424.511	621.25
424.733	646.25
424.956	729.25
425.178	658.25
425.401	706.25
425.623	726.25
425.846	623.25
426.068	575.25
426.291	574.25
426.513	590.25
426.735	601.25
426.958	601.25
427.18	715.25
427.402	830.25
427.625	894.25
427.847	793.25
428.069	664.25
428.292	614.25
428.514	586.25
428.736	550.25
428.958	558.25
429.181	547.25
429.403	512.25
429.625	562.25
429.847	560.25
430.069	641.25
430.292	611.25
430.514	556.25
430.736	532.25
430.958	548.25
431.18	533.25
431.402	512.25
431.624	514.25
431.846	514.25
432.068	520.25
432.29	511.25
432.512	511.25
432.734	514.25
432.956	525.25
433.178	551.25
433.4	540.25
433.622	549.25
433.844	507.25
434.066	506.25
434.287	506.25
434.509	535.25
434.731	527.25
434.953	543.25
435.175	560.25
435.397	588.25
435.618	575.25
435.84	619.25
436.062	702.25
436.284	751.25
436.505	630.25
436.727	582.25
436.949	548.25
437.17	540.25
437.392	549.25
437.614	544.25
437.835	598.25
438.057	644.25
438.278	774.25
438.5	752.25
438.721	818.25
438.943	787.25
439.165	632.25
439.386	600.25
439.608	588.25
439.829	562.25
440.05	614.25
440.272	676.25
440.493	619.25
440.715	564.25
440.936	554.25
441.158	563.25
441.379	537.25
441.6	569.25
441.822	587.25
442.043	627.25
442.264	675.25
442.486	742.25
442.707	638.25
442.928	602.25
443.149	612.25
443.371	610.25
443.592	654.25
443.813	711.25
444.034	796.25
444.255	676.25
444.476	623.25
444.698	604.25
444.919	592.25
445.14	672.25
445.361	618.25
445.582	630.25
445.803	701.25
446.024	741.25
446.245	772.25
446.466	724.25
446.687	599.25
446.908	568.25
447.129	554.25
447.35	533.25
447.571	531.25
447.792	536.25
448.013	525.25
448.234	555.25
448.455	569.25
448.675	691.25
448.896	805.25
449.117	688.25
449.338	642.25
449.559	750.25
449.779	874.25
450	697.25
450.221	586.25
450.442	518.25
450.662	516.25
450.883	535.25
451.104	552.25
451.324	526.25
451.545	519.25
451.766	513.25
451.986	522.25
452.207	470.25
452.428	476.25
452.648	489.25
452.869	489.25
453.089	484.25
453.31	488.25
453.53	472.25
453.751	490.25
453.971	483.25
454.192	488.25
454.412	490.25
454.633	492.25
454.853	455.25
455.073	483.25
455.294	498.25
455.514	572.25
455.734	546.25
455.955	493.25
456.175	461.25
456.395	455.25
456.616	452.25
456.836	427.25
457.056	460.25
457.276	455.25
457.497	451.25
457.717	461.25
457.937	473.25
458.157	465.25
458.377	482.25
458.598	517.25
458.818	548.25
459.038	599.25
459.258	634.25
459.478	545.25
459.698	514.25
459.918	549.25
460.138	526.25
460.358	524.25
460.578	531.25
460.798	558.25
461.018	544.25
461.238	557.25
461.458	552.25
461.678	559.25
461.898	533.25
462.118	559.25
462.338	548.25
462.558	566.25
462.777	562.25
462.997	554.25
463.217	601.25
463.437	597.25
463.657	591.25
463.876	584.25
464.096	576.25
464.316	581.25
464.536	575.25
464.755	576.25
464.975	603.25
465.195	630.25
465.414	684.25
465.634	589.25
465.854	565.25
466.073	534.25
466.293	520.25
466.512	527.25
466.732	502.25
466.951	513.25
467.171	512.25
467.391	508.25
467.61	506.25
467.829	525.25
468.049	519.25
468.268	533.25
468.488	513.25
468.707	491.25
468.927	491.25
469.146	500.25
469.365	509.25
469.585	481.25
469.804	499.25
470.023	527.25
470.243	508.25
470.462	526.25
470.681	527.25
470.901	544.25
471.12	527.25
471.339	520.25
471.558	512.25
471.777	508.25
471.997	492.25
472.216	511.25
472.435	566.25
472.654	534.25
472.873	519.25
473.092	522.25
473.311	503.25
473.53	510.25
473.749	503.25
473.968	538.25
474.187	631.25
474.406	620.25
474.625	546.25
474.844	527.25
475.063	527.25
475.282	514.25
475.501	537.25
475.72	499.25
475.939	523.25
476.158	521.25
476.377	523.25
476.596	534.25
476.814	537.25
477.033	536.25
477.252	544.25
477.471	536.25
477.69	539.25
477.908	556.25
478.127	548.25
478.346	572.25
478.564	579.25
478.783	578.25
479.002	571.25
479.22	591.25
479.439	597.25
479.658	623.25
479.876	615.25
480.095	617.25
480.313	642.25
480.532	640.25
480.751	616.25
480.969	631.25
481.188	651.25
481.406	711.25
481.624	628.25
481.843	602.25
482.061	612.25
482.28	589.25
482.498	589.25
482.717	595.25
482.935	599.25
483.153	579.25
483.372	611.25
483.59	605.25
483.808	558.25
484.027	585.25
484.245	581.25
484.463	627.25
484.681	621.25
484.9	602.25
485.118	600.25
485.336	630.25
485.554	631.25
485.772	628.25
485.99	600.25
486.209	605.25
486.427	618.25
486.645	631.25
486.863	629.25
487.081	650.25
487.299	646.25
487.517	630.25
487.735	647.25
487.953	636.25
488.171	631.25
488.389	629.25
488.607	646.25
488.825	612.25
489.043	631.25
489.261	646.25
489.479	641.25
489.696	638.25
489.914	618.25
490.132	683.25
490.35	654.25
490.568	658.25
490.786	672.25
491.003	683.25
491.221	688.25
491.439	723.25
491.657	702.25
491.874	698.25
492.092	720.25
492.31	706.25
492.527	703.25
492.745	723.25
492.963	724.25
493.18	727.25
493.398	730.25
493.615	751.25
493.833	742.25
494.05	734.25
494.268	714.25
494.485	754.25
494.703	746.25
494.92	735.25
495.138	736.25
495.355	762.25
495.573	739.25
495.79	749.25
496.008	737.25
496.225	738.25
496.442	737.25
496.66	742.25
496.877	760.25
497.094	770.25
497.312	760.25
497.529	776.25
497.746	808.25
497.963	798.25
498.181	838.25
498.398	848.25
498.615	862.25
498.832	895.25
499.049	895.25
499.267	927.25
499.484	959.25
499.701	1011.25
499.918	1048.25
500.135	1098.25
500.352	1181.25
500.569	1188.25
500.786	1198.25
501.003	1150.25
501.22	1119.25
501.437	1090.25
501.654	1050.25
501.871	992.25
502.088	955.25
502.305	943.25
502.522	880.25
502.739	854.25
502.956	862.25
503.172	837.25
503.389	836.25
503.606	819.25
503.823	785.25
504.04	815.25
504.256	795.25
504.473	765.25
504.69	783.25
504.907	763.25
505.123	751.25
505.34	721.25
505.557	732.25
505.773	754.25
505.99	761.25
506.207	694.25
506.423	708.25
506.64	704.25
506.856	693.25
507.073	685.25
507.289	675.25
507.506	675.25
507.722	710.25
507.939	742.25
508.155	676.25
508.372	683.25
508.588	659.25
508.805	654.25
509.021	640.25
509.238	674.25
509.454	669.25
509.67	663.25
509.887	654.25
510.103	675.25
510.319	660.25
510.536	736.25
510.752	1221.25
510.968	994.25
511.184	678.25
511.401	632.25
511.617	662.25
511.833	635.25
512.049	658.25
512.265	636.25
512.481	647.25
512.698	607.25
512.914	615.25
513.13	622.25
513.346	619.25
513.562	639.25
513.778	613.25
513.994	646.25
514.21	646.25
514.426	660.25
514.642	687.25
514.858	699.25
515.074	743.25
515.29	872.25
515.506	1225.25
515.721	1050.25
515.937	755.25
516.153	716.25
516.369	670.25
516.585	682.25
516.801	656.25
517.016	672.25
517.232	692.25
517.448	670.25
517.664	695.25
517.879	695.25
518.095	692.25
518.311	696.25
518.527	696.25
518.742	679.25
518.958	664.25
519.173	667.25
519.389	659.25
519.605	646.25
519.82	626.25
520.036	658.25
520.251	660.25
520.467	670.25
520.682	687.25
520.898	687.25
521.113	727.25
521.329	752.25
521.544	797.25
521.76	970.25
521.975	1581.25
522.19	1616.25
522.406	904.25
522.621	690.25
522.836	629.25
523.052	630.25
523.267	583.25
523.482	607.25
523.698	572.25
523.913	596.25
524.128	603.25
524.343	576.25
524.559	569.25
524.774	568.25
524.989	563.25
525.204	563.25
525.419	543.25
525.634	591.25
525.849	548.25
526.064	554.25
526.28	546.25
526.495	543.25
526.71	554.25
526.925	537.25
527.14	527.25
527.355	532.25
527.57	517.25
527.785	543.25
527.999	532.25
528.214	533.25
528.429	527.25
528.644	545.25
528.859	541.25
529.074	537.25
529.289	555.25
529.503	631.25
529.718	603.25
529.933	558.25
530.148	528.25
530.363	551.25
530.577	527.25
530.792	534.25
531.007	532.25
531.221	527.25
531.436	529.25
531.651	529.25
531.865	519.25
532.08	524.25
532.295	519.25
532.509	520.25
532.724	510.25
532.938	526.25
533.153	515.25
533.367	518.25
533.582	516.25
533.796	514.25
534.011	514.25
534.225	525.25
534.44	509.25
534.654	524.25
534.868	513.25
535.083	509.25
535.297	523.25
535.511	527.25
535.726	523.25
535.94	496.25
536.154	514.25
536.369	509.25
536.583	493.25
536.797	501.25
537.011	499.25
537.225	500.25
537.44	503.25
537.654	506.25
537.868	478.25
538.082	469.25
538.296	494.25
538.51	503.25
538.724	494.25
538.938	470.25
539.153	495.25
539.367	512.25
539.581	499.25
539.795	484.25
540.009	504.25
540.222	494.25
540.436	510.25
540.65	468.25
540.864	491.25
541.078	492.25
541.292	488.25
541.506	491.25
541.72	473.25
541.934	467.25
542.147	481.25
542.361	482.25
542.575	509.25
542.789	524.25
543.002	484.25
543.216	501.25
543.43	470.25
543.644	485.25
543.857	497.25
544.071	480.25
544.285	477.25
544.498	480.25
544.712	492.25
544.925	498.25
545.139	486.25
545.352	482.25
545.566	483.25
545.779	456.25
545.993	485.25
546.206	486.25
546.42	488.25
546.633	478.25
546.847	481.25
547.06	470.25
547.274	483.25
547.487	479.25
547.7	505.25
547.914	474.25
548.127	476.25
548.34	480.25
548.554	475.25
548.767	480.25
548.98	459.25
549.193	448.25
549.407	484.25
549.62	480.25
549.833	467.25
550.046	484.25
550.259	463.25
550.473	479.25
550.686	473.25
550.899	472.25
551.112	461.25
551.325	468.25
551.538	445.25
551.751	462.25
551.964	461.25
552.177	482.25
552.39	461.25
552.603	456.25
552.816	474.25
553.029	476.25
553.242	492.25
553.455	475.25
553.667	485.25
553.88	483.25
554.093	483.25
554.306	475.25
554.519	470.25
554.732	463.25
554.944	451.25
555.157	455.25
555.37	452.25
555.583	453.25
555.795	454.25
556.008	435.25
556.221	424.25
556.433	430.25
556.646	436.25
556.859	422.25
557.071	441.25
557.284	437.25
557.496	454.25
557.709	443.25
557.921	421.25
558.134	424.25
558.346	442.25
558.559	409.25
558.771	411.25
558.984	424.25
559.196	436.25
559.409	422.25
559.621	438.25
559.833	401.25
560.046	422.25
560.258	425.25
560.47	421.25
560.683	415.25
560.895	423.25
561.107	411.25
561.32	423.25
561.532	427.25
561.744	445.25
561.956	438.25
562.168	420.25
562.381	438.25
562.593	422.25
562.805	414.25
563.017	425.25
563.229	431.25
563.441	438.25
563.653	440.25
563.865	417.25
564.077	430.25
564.289	462.25
564.501	435.25
564.713	444.25
564.925	458.25
565.137	464.25
565.349	473.25
565.561	463.25
565.773	475.25
565.985	477.25
566.197	508.25
566.408	509.25
566.62	534.25
566.832	533.25
567.044	556.25
567.255	550.25
567.467	545.25
567.679	570.25
567.891	588.25
568.102	576.25
568.314	544.25
568.526	523.25
568.737	523.25
568.949	491.25
569.161	487.25
569.372	450.25
569.584	438.25
569.795	441.25
570.007	442.25
570.218	464.25
570.43	464.25
570.641	452.25
570.853	436.25
571.064	422.25
571.276	410.25
571.487	414.25
571.698	401.25
571.91	395.25
572.121	378.25
572.333	403.25
572.544	392.25
572.755	379.25
572.966	382.25
573.178	372.25
573.389	390.25
573.6	378.25
573.811	360.25
574.023	366.25
574.234	362.25
574.445	361.25
574.656	363.25
574.867	376.25
575.078	370.25
575.289	367.25
575.501	373.25
575.712	356.25
575.923	359.25
576.134	364.25
576.345	364.25
576.556	349.25
576.767	359.25
576.978	332.25
577.188	335.25
577.399	360.25
577.61	358.25
577.821	343.25
578.032	348.25
578.243	376.25
578.454	581.25
578.665	424.25
578.875	353.25
579.086	368.25
579.297	352.25
579.508	357.25
579.718	347.25
579.929	323.25
580.14	356.25
580.35	334.25
580.561	342.25
580.772	320.25
580.982	334.25
581.193	332.25
581.403	322.25
581.614	330.25
581.825	309.25
582.035	334.25
582.246	324.25
582.456	319.25
582.667	316.25
582.877	319.25
583.087	322.25
583.298	330.25
583.508	341.25
583.719	332.25
583.929	340.25
584.139	323.25
584.35	320.25
584.56	336.25
584.77	337.25
584.981	333.25
585.191	332.25
585.401	325.25
585.611	327.25
585.821	317.25
586.032	349.25
586.242	335.25
586.452	299.25
586.662	293.25
586.872	317.25
587.082	302.25
587.292	308.25
587.502	318.25
587.713	319.25
587.923	317.25
588.133	318.25
588.343	316.25
588.553	318.25
588.762	317.25
588.972	341.25
589.182	345.25
589.392	342.25
589.602	326.25
589.812	329.25
590.022	326.25
590.232	326.25
590.441	312.25
590.651	325.25
590.861	311.25
591.071	328.25
591.281	319.25
591.49	325.25
591.7	312.25
591.91	323.25
592.119	301.25
592.329	322.25
592.539	358.25
592.748	334.25
592.958	337.25
593.167	357.25
593.377	362.25
593.587	345.25
593.796	340.25
594.006	338.25
594.215	344.25
594.424	342.25
594.634	342.25
594.843	343.25
595.053	335.25
595.262	323.25
595.472	318.25
595.681	310.25
595.89	328.25
596.1	307.25
596.309	300.25
596.518	293.25
596.727	318.25
596.937	310.25
597.146	279.25
597.355	288.25
597.564	303.25
597.774	286.25
597.983	300.25
598.192	284.25
598.401	278.25
598.61	280.25
598.819	298.25
599.028	299.25
599.237	284.25
599.446	294.25
599.655	271.25
599.864	297.25
600.073	276.25
600.282	282.25
600.491	286.25
600.7	280.25
600.909	286.25
601.118	287.25
601.327	277.25
601.536	270.25
601.745	267.25
601.953	275.25
602.162	270.25
602.371	267.25
602.58	252.25
602.789	266.25
602.997	265.25
603.206	258.25
603.415	273.25
603.623	264.25
603.832	257.25
604.041	262.25
604.249	240.25
604.458	274.25
604.666	268.25
604.875	268.25
605.084	262.25
605.292	264.25
605.501	263.25
605.709	247.25
605.918	257.25
606.126	234.25
606.334	263.25
606.543	254.25
606.751	263.25
606.96	249.25
607.168	251.25
607.376	235.25
607.585	272.25
607.793	263.25
608.001	248.25
608.21	246.25
608.418	252.25
608.626	259.25
608.834	262.25
609.043	258.25
609.251	238.25
609.459	263.25
609.667	248.25
609.875	254.25
610.083	242.25
610.291	292.25
610.499	253.25
610.707	251.25
610.916	246.25
611.124	244.25
611.332	267.25
611.54	244.25
611.748	260.25
611.955	259.25
612.163	252.25
612.371	256.25
612.579	249.25
612.787	255.25
612.995	238.25
613.203	246.25
613.411	235.25
613.618	242.25
613.826	261.25
614.034	246.25
614.242	249.25
614.449	248.25
614.657	262.25
614.865	251.25
615.072	274.25
615.28	256.25
615.488	257.25
615.695	262.25
615.903	250.25
616.111	255.25
616.318	245.25
616.526	239.25
616.733	246.25
616.941	246.25
617.148	264.25
617.356	246.25
617.563	238.25
617.771	235.25
617.978	245.25
618.185	246.25
618.393	246.25
618.6	246.25
618.807	246.25
619.015	259.25
619.222	253.25
619.429	234.25
619.637	238.25
619.844	252.25
620.051	231.25
620.258	245.25
620.466	230.25
620.673	211.25
620.88	225.25
621.087	227.25
621.294	233.25
621.501	226.25
621.708	236.25
621.915	228.25
622.122	226.25
622.329	244.25
622.536	236.25
622.743	223.25
622.95	243.25
623.157	226.25
623.364	223.25
623.571	232.25
623.778	217.25
623.985	218.25
624.192	227.25
624.399	213.25
624.606	218.25
624.812	237.25
625.019	215.25
625.226	232.25
625.433	226.25
625.639	228.25
625.846	222.25
626.053	218.25
626.259	212.25
626.466	205.25
626.673	214.25
626.879	218.25
627.086	219.25
627.293	224.25
627.499	223.25
627.706	222.25
627.912	228.25
628.119	205.25
628.325	214.25
628.532	198.25
628.738	200.25
628.945	205.25
629.151	207.25
629.357	201.25
629.564	187.25
629.77	204.25
629.976	206.25
630.183	218.25
630.389	219.25
630.595	191.25
630.802	226.25
631.008	206.25
631.214	212.25
631.42	211.25
631.627	211.25
631.833	215.25
632.039	203.25
632.245	194.25
632.451	190.25
632.657	207.25
632.863	191.25
633.069	194.25
633.275	210.25
633.481	200.25
633.688	186.25
633.893	210.25
634.099	196.25
634.305	197.25
634.511	191.25
634.717	175.25
634.923	184.25
635.129	185.25
635.335	184.25
635.541	198.25
635.747	188.25
635.952	184.25
636.158	189.25
636.364	200.25
636.57	185.25
636.775	185.25
636.981	180.25
637.187	196.25
637.392	178.25
637.598	186.25
637.804	171.25
638.009	202.25
638.215	193.25
638.421	190.25
638.626	168.25
638.832	179.25
639.037	200.25
639.243	178.25
639.448	184.25
639.654	178.25
639.859	190.25
640.065	174.25
640.27	182.25
640.475	173.25
640.681	175.25
640.886	197.25
641.091	179.25
641.297	172.25
641.502	175.25
641.707	171.25
641.913	200.25
642.118	171.25
642.323	162.25
642.528	188.25
642.733	168.25
642.939	155.25
643.144	168.25
643.349	176.25
643.554	181.25
643.759	190.25
643.964	176.25
644.169	180.25
644.374	182.25
644.579	167.25
644.784	145.25
644.989	174.25
645.194	168.25
645.399	182.25
645.604	164.25
645.809	167.25
646.014	168.25
646.219	176.25
646.423	178.25
646.628	175.25
646.833	176.25
647.038	165.25
647.243	178.25
647.447	189.25
647.652	180.25
647.857	175.25
648.062	158.25
648.266	167.25
648.471	174.25
648.676	182.25
648.88	187.25
649.085	180.25
649.289	194.25
649.494	172.25
649.698	188.25
649.903	182.25
650.107	178.25
650.312	184.25
650.516	157.25
650.721	164.25
650.925	159.25
651.13	153.25
651.334	181.25
651.539	138.25
651.743	140.25
651.947	151.25
652.152	135.25
652.356	145.25
652.56	166.25
652.764	150.25
652.969	148.25
653.173	134.25
653.377	153.25
653.581	122.25
653.785	151.25
653.99	151.25
654.194	136.25
654.398	154.25
654.602	134.25
654.806	145.25
655.01	148.25
655.214	146.25
655.418	138.25
655.622	136.25
655.826	137.25
656.03	135.25
656.234	152.25
656.438	130.25
656.642	144.25
656.846	138.25
657.049	142.25
657.253	122.25
657.457	125.25
657.661	134.25
657.865	116.25
658.068	126.25
658.272	115.25
658.476	122.25
658.68	127.25
658.883	94.25
659.087	111.25
659.291	119.25
659.494	99.25
659.698	101.25
659.901	107.25
660.105	101.25
660.309	106.25
660.512	102.25
660.716	98.25
660.919	89.25
661.123	105.25
661.326	89.25
661.53	72.25
661.733	82.25
661.936	111.25
662.14	84.25
662.343	95.25
662.546	99.25
662.75	100.25
662.953	91.25
663.156	91.25
663.36	100.25
663.563	95.25
663.766	86.25
663.969	92.25
664.173	83.25
664.376	96.25
664.579	80.25
664.782	92.25
664.985	90.25
665.188	84.25
665.391	81.25
665.594	81.25
665.797	89.25
666	90.25
666.203	85.25
666.406	92.25
666.609	80.25
666.812	72.25
667.015	80.25
667.218	77.25
667.421	74.25
667.624	89.25
667.827	69.25
668.03	79.25
668.232	88.25
668.435	74.25
668.638	78.25
668.841	99.25
669.043	87.25
669.246	75.25
669.449	77.25
669.651	86.25
669.854	91.25
670.057	70.25
670.259	82.25
670.462	75.25
670.665	84.25
670.867	90.25
671.07	104.25
671.272	94.25
671.475	81.25
671.677	78.25
671.88	79.25
672.082	78.25
672.284	80.25
672.487	79.25
672.689	75.25
672.892	74.25
