Data from 1979.PennyLincolnUp.Lamp.En5.5.200Scan.071719.P1_HRD10591_16-19-19-863.txt Node
Date: Thu Jul 18 16:19:19 EDT 2019
User: cochatt
Spectrometer: HR+D1059
Trigger mode: 1
Integration Time (sec): 1.000000E-1
Scans to average: 1
Electric dark correction enabled: true
Nonlinearity correction enabled: false
Boxcar width: 0
XAxis mode: Wavelengths
Number of Pixels in Spectrum: 2048
>>>>>Begin Spectral Data<<<<<
223.165	-7.94
223.4	-7.94
223.635	-7.94
223.869	-9.94
224.104	-23.94
224.338	-12.94
224.573	-11.94
224.808	-6.94
225.042	-4.94
225.277	-4.94
225.511	-11.94
225.746	1.06
225.98	-2.94
226.215	15.06
226.449	22.06
226.683	10.06
226.918	27.06
227.152	23.06
227.387	41.06
227.621	45.06
227.856	44.06
228.09	52.06
228.324	49.06
228.559	62.06
228.793	61.06
229.027	96.06
229.262	114.06
229.496	120.06
229.73	127.06
229.964	138.06
230.199	109.06
230.433	115.06
230.667	102.06
230.901	103.06
231.136	107.06
231.37	107.06
231.604	114.06
231.838	95.06
232.072	107.06
232.306	117.06
232.541	112.06
232.775	116.06
233.009	112.06
233.243	117.06
233.477	115.06
233.711	122.06
233.945	122.06
234.179	118.06
234.413	112.06
234.647	123.06
234.881	110.06
235.115	117.06
235.349	122.06
235.583	131.06
235.817	140.06
236.051	128.06
236.285	126.06
236.519	135.06
236.753	130.06
236.987	150.06
237.221	189.06
237.455	215.06
237.689	167.06
237.922	154.06
238.156	127.06
238.39	122.06
238.624	134.06
238.858	129.06
239.091	118.06
239.325	111.06
239.559	138.06
239.793	125.06
240.027	132.06
240.26	131.06
240.494	174.06
240.728	142.06
240.961	125.06
241.195	140.06
241.429	142.06
241.662	137.06
241.896	134.06
242.13	131.06
242.363	140.06
242.597	134.06
242.83	153.06
243.064	147.06
243.298	139.06
243.531	147.06
243.765	124.06
243.998	126.06
244.232	132.06
244.465	130.06
244.699	128.06
244.932	144.06
245.166	139.06
245.399	125.06
245.633	158.06
245.866	149.06
246.099	138.06
246.333	154.06
246.566	144.06
246.8	147.06
247.033	152.06
247.266	169.06
247.5	169.06
247.733	164.06
247.966	157.06
248.2	157.06
248.433	175.06
248.666	167.06
248.899	153.06
249.133	188.06
249.366	199.06
249.599	206.06
249.832	184.06
250.066	166.06
250.299	170.06
250.532	180.06
250.765	196.06
250.998	211.06
251.231	213.06
251.465	199.06
251.698	198.06
251.931	186.06
252.164	188.06
252.397	190.06
252.63	183.06
252.863	188.06
253.096	203.06
253.329	211.06
253.562	228.06
253.795	211.06
254.028	208.06
254.261	210.06
254.494	214.06
254.727	228.06
254.96	258.06
255.193	261.06
255.426	213.06
255.659	229.06
255.892	197.06
256.124	226.06
256.357	208.06
256.59	213.06
256.823	198.06
257.056	206.06
257.289	210.06
257.521	206.06
257.754	180.06
257.987	200.06
258.22	199.06
258.452	187.06
258.685	203.06
258.918	192.06
259.151	210.06
259.383	217.06
259.616	203.06
259.849	208.06
260.081	224.06
260.314	248.06
260.547	249.06
260.779	230.06
261.012	212.06
261.244	216.06
261.477	231.06
261.71	218.06
261.942	229.06
262.175	226.06
262.407	208.06
262.64	204.06
262.872	204.06
263.105	194.06
263.337	211.06
263.57	215.06
263.802	216.06
264.035	216.06
264.267	214.06
264.499	193.06
264.732	218.06
264.964	206.06
265.197	213.06
265.429	200.06
265.661	203.06
265.894	209.06
266.126	203.06
266.358	220.06
266.591	211.06
266.823	213.06
267.055	223.06
267.287	225.06
267.52	216.06
267.752	222.06
267.984	243.06
268.216	227.06
268.448	221.06
268.681	227.06
268.913	237.06
269.145	235.06
269.377	275.06
269.609	260.06
269.841	240.06
270.073	256.06
270.306	282.06
270.538	283.06
270.77	295.06
271.002	284.06
271.234	276.06
271.466	290.06
271.698	294.06
271.93	286.06
272.162	291.06
272.394	288.06
272.626	285.06
272.858	267.06
273.09	262.06
273.322	272.06
273.553	264.06
273.785	256.06
274.017	248.06
274.249	245.06
274.481	251.06
274.713	248.06
274.945	264.06
275.176	266.06
275.408	262.06
275.64	256.06
275.872	257.06
276.104	250.06
276.335	261.06
276.567	266.06
276.799	276.06
277.031	282.06
277.262	299.06
277.494	304.06
277.726	289.06
277.957	271.06
278.189	255.06
278.421	273.06
278.652	265.06
278.884	271.06
279.115	263.06
279.347	264.06
279.579	274.06
279.81	272.06
280.042	274.06
280.273	274.06
280.505	283.06
280.736	251.06
280.968	277.06
281.199	259.06
281.431	260.06
281.662	256.06
281.894	258.06
282.125	281.06
282.356	284.06
282.588	298.06
282.819	286.06
283.051	274.06
283.282	260.06
283.513	277.06
283.745	278.06
283.976	277.06
284.207	275.06
284.439	277.06
284.67	274.06
284.901	261.06
285.132	272.06
285.364	270.06
285.595	258.06
285.826	271.06
286.057	292.06
286.288	270.06
286.52	297.06
286.751	293.06
286.982	276.06
287.213	287.06
287.444	298.06
287.675	290.06
287.906	279.06
288.138	310.06
288.369	318.06
288.6	291.06
288.831	312.06
289.062	298.06
289.293	291.06
289.524	271.06
289.755	303.06
289.986	278.06
290.217	280.06
290.448	275.06
290.679	297.06
290.91	290.06
291.141	287.06
291.371	293.06
291.602	283.06
291.833	287.06
292.064	286.06
292.295	286.06
292.526	315.06
292.757	287.06
292.987	297.06
293.218	288.06
293.449	282.06
293.68	298.06
293.91	291.06
294.141	290.06
294.372	285.06
294.603	284.06
294.833	299.06
295.064	301.06
295.295	308.06
295.525	291.06
295.756	295.06
295.987	319.06
296.217	316.06
296.448	329.06
296.679	316.06
296.909	304.06
297.14	312.06
297.37	326.06
297.601	307.06
297.831	295.06
298.062	301.06
298.292	296.06
298.523	294.06
298.753	308.06
298.984	309.06
299.214	314.06
299.445	320.06
299.675	324.06
299.905	315.06
300.136	319.06
300.366	321.06
300.597	311.06
300.827	328.06
301.057	331.06
301.288	333.06
301.518	322.06
301.748	325.06
301.979	335.06
302.209	332.06
302.439	335.06
302.669	332.06
302.9	325.06
303.13	326.06
303.36	325.06
303.59	341.06
303.82	335.06
304.051	320.06
304.281	354.06
304.511	351.06
304.741	339.06
304.971	316.06
305.201	331.06
305.431	329.06
305.661	327.06
305.891	329.06
306.121	327.06
306.352	354.06
306.582	326.06
306.812	344.06
307.042	324.06
307.272	333.06
307.502	329.06
307.731	345.06
307.961	330.06
308.191	322.06
308.421	317.06
308.651	344.06
308.881	336.06
309.111	366.06
309.341	343.06
309.571	364.06
309.8	320.06
310.03	354.06
310.26	354.06
310.49	355.06
310.72	384.06
310.949	386.06
311.179	378.06
311.409	364.06
311.639	383.06
311.868	377.06
312.098	374.06
312.328	390.06
312.557	398.06
312.787	391.06
313.017	384.06
313.246	397.06
313.476	377.06
313.706	373.06
313.935	367.06
314.165	390.06
314.394	390.06
314.624	388.06
314.853	372.06
315.083	376.06
315.312	378.06
315.542	376.06
315.771	372.06
316.001	375.06
316.23	374.06
316.46	358.06
316.689	370.06
316.919	379.06
317.148	386.06
317.377	389.06
317.607	388.06
317.836	371.06
318.065	373.06
318.295	384.06
318.524	365.06
318.753	392.06
318.983	396.06
319.212	382.06
319.441	376.06
319.67	395.06
319.9	386.06
320.129	364.06
320.358	388.06
320.587	392.06
320.816	393.06
321.046	385.06
321.275	382.06
321.504	388.06
321.733	410.06
321.962	404.06
322.191	421.06
322.42	411.06
322.649	440.06
322.878	414.06
323.108	424.06
323.337	467.06
323.566	459.06
323.795	487.06
324.024	553.06
324.253	646.06
324.482	870.06
324.71	1362.06
324.939	2065.06
325.168	1779.06
325.397	896.06
325.626	608.06
325.855	506.06
326.084	462.06
326.313	491.06
326.542	478.06
326.77	538.06
326.999	612.06
327.228	836.06
327.457	1255.06
327.686	1574.06
327.914	1018.06
328.143	661.06
328.372	589.06
328.6	555.06
328.829	534.06
329.058	545.06
329.287	552.06
329.515	522.06
329.744	474.06
329.972	472.06
330.201	504.06
330.43	538.06
330.658	543.06
330.887	598.06
331.115	552.06
331.344	505.06
331.572	456.06
331.801	477.06
332.03	464.06
332.258	457.06
332.486	468.06
332.715	462.06
332.943	446.06
333.172	471.06
333.4	458.06
333.629	493.06
333.857	469.06
334.085	478.06
334.314	515.06
334.542	542.06
334.771	558.06
334.999	488.06
335.227	477.06
335.455	448.06
335.684	462.06
335.912	487.06
336.14	437.06
336.369	440.06
336.597	457.06
336.825	465.06
337.053	447.06
337.281	479.06
337.51	454.06
337.738	450.06
337.966	449.06
338.194	461.06
338.422	438.06
338.65	446.06
338.878	444.06
339.106	445.06
339.334	419.06
339.562	416.06
339.79	412.06
340.018	427.06
340.246	420.06
340.474	449.06
340.702	436.06
340.93	435.06
341.158	436.06
341.386	434.06
341.614	431.06
341.842	429.06
342.07	419.06
342.298	450.06
342.526	441.06
342.754	424.06
342.981	415.06
343.209	416.06
343.437	443.06
343.665	455.06
343.893	460.06
344.12	447.06
344.348	453.06
344.576	430.06
344.804	442.06
345.031	445.06
345.259	450.06
345.487	456.06
345.714	432.06
345.942	440.06
346.17	429.06
346.397	428.06
346.625	446.06
346.853	435.06
347.08	428.06
347.308	399.06
347.535	423.06
347.763	439.06
347.99	421.06
348.218	430.06
348.445	432.06
348.673	443.06
348.9	401.06
349.128	424.06
349.355	416.06
349.583	403.06
349.81	418.06
350.037	388.06
350.265	408.06
350.492	418.06
350.72	383.06
350.947	408.06
351.174	444.06
351.402	429.06
351.629	416.06
351.856	391.06
352.083	417.06
352.311	445.06
352.538	449.06
352.765	451.06
352.992	421.06
353.22	426.06
353.447	391.06
353.674	392.06
353.901	398.06
354.128	415.06
354.355	415.06
354.583	394.06
354.81	420.06
355.037	418.06
355.264	392.06
355.491	401.06
355.718	409.06
355.945	394.06
356.172	411.06
356.399	406.06
356.626	388.06
356.853	417.06
357.08	414.06
357.307	393.06
357.534	409.06
357.761	393.06
357.988	409.06
358.215	413.06
358.441	390.06
358.668	390.06
358.895	429.06
359.122	394.06
359.349	418.06
359.576	413.06
359.802	414.06
360.029	472.06
360.256	477.06
360.483	471.06
360.709	439.06
360.936	428.06
361.163	420.06
361.39	428.06
361.616	416.06
361.843	444.06
362.07	403.06
362.296	412.06
362.523	422.06
362.749	418.06
362.976	435.06
363.203	427.06
363.429	416.06
363.656	414.06
363.882	379.06
364.109	416.06
364.335	402.06
364.562	414.06
364.788	435.06
365.015	436.06
365.241	409.06
365.468	430.06
365.694	425.06
365.92	447.06
366.147	406.06
366.373	402.06
366.599	381.06
366.826	407.06
367.052	403.06
367.278	418.06
367.505	413.06
367.731	424.06
367.957	415.06
368.184	411.06
368.41	422.06
368.636	429.06
368.862	417.06
369.089	423.06
369.315	421.06
369.541	410.06
369.767	416.06
369.993	420.06
370.219	414.06
370.445	411.06
370.672	413.06
370.898	424.06
371.124	408.06
371.35	422.06
371.576	436.06
371.802	424.06
372.028	415.06
372.254	411.06
372.48	428.06
372.706	434.06
372.932	419.06
373.158	438.06
373.384	408.06
373.61	415.06
373.835	431.06
374.061	414.06
374.287	423.06
374.513	439.06
374.739	456.06
374.965	441.06
375.191	425.06
375.416	421.06
375.642	422.06
375.868	451.06
376.094	446.06
376.319	427.06
376.545	422.06
376.771	441.06
376.997	413.06
377.222	427.06
377.448	418.06
377.674	420.06
377.899	426.06
378.125	423.06
378.35	412.06
378.576	438.06
378.802	408.06
379.027	408.06
379.253	422.06
379.478	430.06
379.704	424.06
379.929	416.06
380.155	422.06
380.38	441.06
380.606	427.06
380.831	439.06
381.057	420.06
381.282	422.06
381.507	436.06
381.733	450.06
381.958	421.06
382.184	440.06
382.409	409.06
382.634	438.06
382.86	432.06
383.085	447.06
383.31	446.06
383.535	456.06
383.761	450.06
383.986	461.06
384.211	443.06
384.436	422.06
384.662	444.06
384.887	476.06
385.112	453.06
385.337	457.06
385.562	468.06
385.787	471.06
386.013	464.06
386.238	484.06
386.463	490.06
386.688	486.06
386.913	461.06
387.138	476.06
387.363	476.06
387.588	481.06
387.813	454.06
388.038	470.06
388.263	459.06
388.488	473.06
388.713	464.06
388.938	489.06
389.163	488.06
389.387	486.06
389.612	474.06
389.837	475.06
390.062	474.06
390.287	461.06
390.512	482.06
390.736	471.06
390.961	482.06
391.186	471.06
391.411	467.06
391.636	488.06
391.86	498.06
392.085	493.06
392.31	493.06
392.534	500.06
392.759	470.06
392.984	492.06
393.208	468.06
393.433	487.06
393.658	483.06
393.882	484.06
394.107	484.06
394.331	479.06
394.556	495.06
394.78	483.06
395.005	485.06
395.229	488.06
395.454	515.06
395.678	515.06
395.903	509.06
396.127	533.06
396.352	513.06
396.576	495.06
396.801	496.06
397.025	507.06
397.249	508.06
397.474	511.06
397.698	490.06
397.922	529.06
398.147	514.06
398.371	560.06
398.595	537.06
398.82	547.06
399.044	576.06
399.268	592.06
399.492	612.06
399.717	687.06
399.941	704.06
400.165	696.06
400.389	714.06
400.613	646.06
400.837	600.06
401.062	592.06
401.286	581.06
401.51	589.06
401.734	567.06
401.958	601.06
402.182	585.06
402.406	586.06
402.63	622.06
402.854	555.06
403.078	588.06
403.302	584.06
403.526	608.06
403.75	615.06
403.974	602.06
404.198	605.06
404.422	601.06
404.645	609.06
404.869	611.06
405.093	623.06
405.317	669.06
405.541	691.06
405.765	655.06
405.988	613.06
406.212	616.06
406.436	637.06
406.66	648.06
406.883	650.06
407.107	678.06
407.331	693.06
407.555	783.06
407.778	749.06
408.002	698.06
408.226	667.06
408.449	664.06
408.673	662.06
408.896	649.06
409.12	714.06
409.344	681.06
409.567	648.06
409.791	623.06
410.014	593.06
410.238	583.06
410.461	589.06
410.685	598.06
410.908	619.06
411.132	638.06
411.355	663.06
411.578	634.06
411.802	591.06
412.025	574.06
412.249	612.06
412.472	652.06
412.695	634.06
412.919	636.06
413.142	584.06
413.365	596.06
413.589	574.06
413.812	560.06
414.035	557.06
414.258	552.06
414.482	553.06
414.705	544.06
414.928	581.06
415.151	570.06
415.374	566.06
415.597	567.06
415.821	564.06
416.044	582.06
416.267	553.06
416.49	566.06
416.713	570.06
416.936	562.06
417.159	581.06
417.382	563.06
417.605	566.06
417.828	569.06
418.051	584.06
418.274	569.06
418.497	566.06
418.72	574.06
418.943	555.06
419.166	572.06
419.389	622.06
419.611	611.06
419.834	607.06
420.057	598.06
420.28	580.06
420.503	568.06
420.726	578.06
420.948	611.06
421.171	608.06
421.394	669.06
421.617	603.06
421.839	552.06
422.062	593.06
422.285	590.06
422.507	638.06
422.73	743.06
422.953	696.06
423.175	609.06
423.398	600.06
423.621	606.06
423.843	612.06
424.066	626.06
424.288	617.06
424.511	642.06
424.733	682.06
424.956	756.06
425.178	724.06
425.401	721.06
425.623	769.06
425.846	659.06
426.068	631.06
426.291	601.06
426.513	610.06
426.735	614.06
426.958	643.06
427.18	715.06
427.402	861.06
427.625	932.06
427.847	815.06
428.069	702.06
428.292	656.06
428.514	610.06
428.736	582.06
428.958	578.06
429.181	553.06
429.403	559.06
429.625	585.06
429.847	600.06
430.069	682.06
430.292	652.06
430.514	596.06
430.736	538.06
430.958	570.06
431.18	541.06
431.402	542.06
431.624	544.06
431.846	541.06
432.068	556.06
432.29	546.06
432.512	531.06
432.734	557.06
432.956	546.06
433.178	545.06
433.4	548.06
433.622	549.06
433.844	563.06
434.066	564.06
434.287	569.06
434.509	555.06
434.731	569.06
434.953	555.06
435.175	570.06
435.397	598.06
435.618	619.06
435.84	666.06
436.062	759.06
436.284	815.06
436.505	679.06
436.727	643.06
436.949	585.06
437.17	564.06
437.392	562.06
437.614	589.06
437.835	613.06
438.057	707.06
438.278	790.06
438.5	782.06
438.721	870.06
438.943	831.06
439.165	668.06
439.386	617.06
439.608	618.06
439.829	629.06
440.05	632.06
440.272	660.06
440.493	639.06
440.715	617.06
440.936	578.06
441.158	583.06
441.379	563.06
441.6	584.06
441.822	628.06
442.043	654.06
442.264	750.06
442.486	763.06
442.707	652.06
442.928	642.06
443.149	632.06
443.371	645.06
443.592	670.06
443.813	799.06
444.034	827.06
444.255	707.06
444.476	670.06
444.698	629.06
444.919	628.06
445.14	731.06
445.361	680.06
445.582	690.06
445.803	711.06
446.024	833.06
446.245	822.06
446.466	756.06
446.687	664.06
446.908	602.06
447.129	573.06
447.35	566.06
447.571	552.06
447.792	539.06
448.013	575.06
448.234	568.06
448.455	627.06
448.675	735.06
448.896	852.06
449.117	734.06
449.338	683.06
449.559	783.06
449.779	901.06
450	724.06
450.221	610.06
450.442	574.06
450.662	552.06
450.883	566.06
451.104	567.06
451.324	566.06
451.545	537.06
451.766	527.06
451.986	522.06
452.207	508.06
452.428	496.06
452.648	508.06
452.869	505.06
453.089	513.06
453.31	538.06
453.53	511.06
453.751	495.06
453.971	523.06
454.192	557.06
454.412	526.06
454.633	483.06
454.853	500.06
455.073	498.06
455.294	538.06
455.514	577.06
455.734	576.06
455.955	510.06
456.175	485.06
456.395	488.06
456.616	491.06
456.836	468.06
457.056	464.06
457.276	462.06
457.497	486.06
457.717	485.06
457.937	478.06
458.157	489.06
458.377	492.06
458.598	528.06
458.818	580.06
459.038	630.06
459.258	681.06
459.478	578.06
459.698	554.06
459.918	570.06
460.138	555.06
460.358	543.06
460.578	578.06
460.798	612.06
461.018	596.06
461.238	580.06
461.458	559.06
461.678	558.06
461.898	580.06
462.118	572.06
462.338	602.06
462.558	583.06
462.777	630.06
462.997	629.06
463.217	658.06
463.437	630.06
463.657	600.06
463.876	626.06
464.096	624.06
464.316	611.06
464.536	632.06
464.755	662.06
464.975	605.06
465.195	615.06
465.414	712.06
465.634	633.06
465.854	580.06
466.073	569.06
466.293	539.06
466.512	536.06
466.732	529.06
466.951	525.06
467.171	530.06
467.391	536.06
467.61	540.06
467.829	560.06
468.049	552.06
468.268	542.06
468.488	524.06
468.707	539.06
468.927	540.06
469.146	496.06
469.365	511.06
469.585	506.06
469.804	546.06
470.023	535.06
470.243	527.06
470.462	539.06
470.681	579.06
470.901	588.06
471.12	534.06
471.339	522.06
471.558	549.06
471.777	523.06
471.997	547.06
472.216	552.06
472.435	568.06
472.654	580.06
472.873	520.06
473.092	534.06
473.311	527.06
473.53	544.06
473.749	550.06
473.968	574.06
474.187	668.06
474.406	670.06
474.625	584.06
474.844	552.06
475.063	530.06
475.282	552.06
475.501	549.06
475.72	554.06
475.939	538.06
476.158	553.06
476.377	551.06
476.596	557.06
476.814	578.06
477.033	572.06
477.252	562.06
477.471	589.06
477.69	572.06
477.908	603.06
478.127	599.06
478.346	596.06
478.564	598.06
478.783	608.06
479.002	616.06
479.22	628.06
479.439	650.06
479.658	642.06
479.876	639.06
480.095	653.06
480.313	668.06
480.532	648.06
480.751	665.06
480.969	668.06
481.188	690.06
481.406	738.06
481.624	680.06
481.843	651.06
482.061	622.06
482.28	617.06
482.498	618.06
482.717	619.06
482.935	629.06
483.153	637.06
483.372	616.06
483.59	616.06
483.808	649.06
484.027	620.06
484.245	638.06
484.463	614.06
484.681	664.06
484.9	644.06
485.118	643.06
485.336	635.06
485.554	646.06
485.772	644.06
485.99	650.06
486.209	669.06
486.427	638.06
486.645	642.06
486.863	647.06
487.081	670.06
487.299	678.06
487.517	692.06
487.735	692.06
487.953	664.06
488.171	684.06
488.389	655.06
488.607	661.06
488.825	661.06
489.043	680.06
489.261	687.06
489.479	679.06
489.696	674.06
489.914	666.06
490.132	703.06
490.35	692.06
490.568	697.06
490.786	690.06
491.003	696.06
491.221	721.06
491.439	718.06
491.657	739.06
491.874	749.06
492.092	758.06
492.31	754.06
492.527	749.06
492.745	734.06
492.963	772.06
493.18	747.06
493.398	781.06
493.615	771.06
493.833	780.06
494.05	783.06
494.268	780.06
494.485	752.06
494.703	774.06
494.92	771.06
495.138	762.06
495.355	780.06
495.573	779.06
495.79	789.06
496.008	812.06
496.225	779.06
496.442	779.06
496.66	775.06
496.877	794.06
497.094	821.06
497.312	811.06
497.529	816.06
497.746	832.06
497.963	863.06
498.181	887.06
498.398	877.06
498.615	890.06
498.832	936.06
499.049	940.06
499.267	985.06
499.484	1013.06
499.701	1019.06
499.918	1083.06
500.135	1149.06
500.352	1231.06
500.569	1257.06
500.786	1271.06
501.003	1204.06
501.22	1150.06
501.437	1126.06
501.654	1075.06
501.871	1052.06
502.088	1003.06
502.305	946.06
502.522	921.06
502.739	911.06
502.956	900.06
503.172	853.06
503.389	856.06
503.606	825.06
503.823	834.06
504.04	818.06
504.256	805.06
504.473	789.06
504.69	803.06
504.907	819.06
505.123	782.06
505.34	775.06
505.557	754.06
505.773	761.06
505.99	782.06
506.207	767.06
506.423	762.06
506.64	732.06
506.856	739.06
507.073	709.06
507.289	726.06
507.506	722.06
507.722	718.06
507.939	743.06
508.155	697.06
508.372	674.06
508.588	710.06
508.805	700.06
509.021	706.06
509.238	701.06
509.454	698.06
509.67	696.06
509.887	713.06
510.103	697.06
510.319	701.06
510.536	822.06
510.752	1285.06
510.968	1028.06
511.184	723.06
511.401	673.06
511.617	681.06
511.833	688.06
512.049	662.06
512.265	656.06
512.481	650.06
512.698	674.06
512.914	645.06
513.13	655.06
513.346	655.06
513.562	631.06
513.778	657.06
513.994	672.06
514.21	687.06
514.426	691.06
514.642	717.06
514.858	761.06
515.074	782.06
515.29	904.06
515.506	1265.06
515.721	1098.06
515.937	777.06
516.153	723.06
516.369	711.06
516.585	726.06
516.801	684.06
517.016	719.06
517.232	729.06
517.448	719.06
517.664	718.06
517.879	719.06
518.095	745.06
518.311	732.06
518.527	715.06
518.742	683.06
518.958	686.06
519.173	693.06
519.389	691.06
519.605	686.06
519.82	670.06
520.036	699.06
520.251	669.06
520.467	713.06
520.682	679.06
520.898	693.06
521.113	721.06
521.329	765.06
521.544	809.06
521.76	1031.06
521.975	1594.06
522.19	1672.06
522.406	933.06
522.621	742.06
522.836	690.06
523.052	645.06
523.267	629.06
523.482	634.06
523.698	610.06
523.913	616.06
524.128	617.06
524.343	584.06
524.559	570.06
524.774	580.06
524.989	592.06
525.204	616.06
525.419	588.06
525.634	572.06
525.849	567.06
526.064	553.06
526.28	572.06
526.495	573.06
526.71	573.06
526.925	554.06
527.14	558.06
527.355	581.06
527.57	555.06
527.785	544.06
527.999	578.06
528.214	554.06
528.429	550.06
528.644	559.06
528.859	569.06
529.074	584.06
529.289	584.06
529.503	646.06
529.718	635.06
529.933	575.06
530.148	569.06
530.363	551.06
530.577	577.06
530.792	553.06
531.007	548.06
531.221	548.06
531.436	541.06
531.651	562.06
531.865	533.06
532.08	555.06
532.295	515.06
532.509	525.06
532.724	558.06
532.938	558.06
533.153	547.06
533.367	549.06
533.582	537.06
533.796	554.06
534.011	540.06
534.225	540.06
534.44	507.06
534.654	548.06
534.868	556.06
535.083	533.06
535.297	531.06
535.511	537.06
535.726	537.06
535.94	542.06
536.154	541.06
536.369	551.06
536.583	506.06
536.797	516.06
537.011	523.06
537.225	523.06
537.44	504.06
537.654	527.06
537.868	514.06
538.082	499.06
538.296	529.06
538.51	520.06
538.724	494.06
538.938	498.06
539.153	520.06
539.367	531.06
539.581	518.06
539.795	522.06
540.009	528.06
540.222	502.06
540.436	507.06
540.65	527.06
540.864	520.06
541.078	513.06
541.292	526.06
541.506	515.06
541.72	508.06
541.934	488.06
542.147	490.06
542.361	511.06
542.575	505.06
542.789	508.06
543.002	525.06
543.216	519.06
543.43	514.06
543.644	501.06
543.857	532.06
544.071	527.06
544.285	512.06
544.498	516.06
544.712	518.06
544.925	528.06
545.139	524.06
545.352	535.06
545.566	508.06
545.779	503.06
545.993	490.06
546.206	520.06
546.42	529.06
546.633	496.06
546.847	477.06
547.06	476.06
547.274	521.06
547.487	486.06
547.7	504.06
547.914	516.06
548.127	500.06
548.34	514.06
548.554	516.06
548.767	514.06
548.98	485.06
549.193	490.06
549.407	514.06
549.62	492.06
549.833	494.06
550.046	487.06
550.259	482.06
550.473	501.06
550.686	477.06
550.899	529.06
551.112	474.06
551.325	493.06
551.538	506.06
551.751	488.06
551.964	487.06
552.177	488.06
552.39	478.06
552.603	519.06
552.816	501.06
553.029	507.06
553.242	516.06
553.455	523.06
553.667	529.06
553.88	518.06
554.093	511.06
554.306	527.06
554.519	503.06
554.732	481.06
554.944	496.06
555.157	482.06
555.37	467.06
555.583	472.06
555.795	472.06
556.008	473.06
556.221	470.06
556.433	463.06
556.646	442.06
556.859	443.06
557.071	475.06
557.284	451.06
557.496	459.06
557.709	443.06
557.921	439.06
558.134	450.06
558.346	450.06
558.559	467.06
558.771	435.06
558.984	447.06
559.196	438.06
559.409	436.06
559.621	450.06
559.833	429.06
560.046	427.06
560.258	443.06
560.47	442.06
560.683	430.06
560.895	431.06
561.107	428.06
561.32	442.06
561.532	429.06
561.744	455.06
561.956	444.06
562.168	431.06
562.381	436.06
562.593	453.06
562.805	442.06
563.017	443.06
563.229	443.06
563.441	426.06
563.653	445.06
563.865	441.06
564.077	443.06
564.289	453.06
564.501	456.06
564.713	455.06
564.925	458.06
565.137	491.06
565.349	488.06
565.561	485.06
565.773	508.06
565.985	520.06
566.197	543.06
566.408	512.06
566.62	516.06
566.832	555.06
567.044	576.06
567.255	573.06
567.467	575.06
567.679	584.06
567.891	612.06
568.102	588.06
568.314	578.06
568.526	548.06
568.737	554.06
568.949	547.06
569.161	495.06
569.372	491.06
569.584	467.06
569.795	469.06
570.007	463.06
570.218	511.06
570.43	484.06
570.641	436.06
570.853	455.06
571.064	431.06
571.276	456.06
571.487	448.06
571.698	428.06
571.91	423.06
572.121	418.06
572.333	403.06
572.544	417.06
572.755	406.06
572.966	404.06
573.178	393.06
573.389	402.06
573.6	380.06
573.811	388.06
574.023	396.06
574.234	398.06
574.445	392.06
574.656	381.06
574.867	381.06
575.078	380.06
575.289	355.06
575.501	378.06
575.712	377.06
575.923	374.06
576.134	372.06
576.345	363.06
576.556	382.06
576.767	362.06
576.978	365.06
577.188	383.06
577.399	370.06
577.61	345.06
577.821	358.06
578.032	390.06
578.243	384.06
578.454	581.06
578.665	456.06
578.875	373.06
579.086	351.06
579.297	360.06
579.508	372.06
579.718	362.06
579.929	348.06
580.14	354.06
580.35	350.06
580.561	354.06
580.772	339.06
580.982	324.06
581.193	359.06
581.403	349.06
581.614	348.06
581.825	362.06
582.035	326.06
582.246	335.06
582.456	332.06
582.667	325.06
582.877	337.06
583.087	324.06
583.298	326.06
583.508	332.06
583.719	331.06
583.929	340.06
584.139	349.06
584.35	327.06
584.56	343.06
584.77	334.06
584.981	329.06
585.191	346.06
585.401	337.06
585.611	357.06
585.821	346.06
586.032	346.06
586.242	335.06
586.452	344.06
586.662	317.06
586.872	340.06
587.082	342.06
587.292	336.06
587.502	337.06
587.713	334.06
587.923	333.06
588.133	313.06
588.343	312.06
588.553	318.06
588.762	334.06
588.972	334.06
589.182	336.06
589.392	346.06
589.602	351.06
589.812	359.06
590.022	328.06
590.232	297.06
590.441	325.06
590.651	326.06
590.861	320.06
591.071	358.06
591.281	310.06
591.49	336.06
591.7	341.06
591.91	362.06
592.119	330.06
592.329	351.06
592.539	350.06
592.748	346.06
592.958	371.06
593.167	352.06
593.377	363.06
593.587	370.06
593.796	376.06
594.006	379.06
594.215	355.06
594.424	370.06
594.634	350.06
594.843	357.06
595.053	348.06
595.262	332.06
595.472	334.06
595.681	351.06
595.89	326.06
596.1	306.06
596.309	326.06
596.518	322.06
596.727	296.06
596.937	317.06
597.146	306.06
597.355	328.06
597.564	310.06
597.774	305.06
597.983	313.06
598.192	296.06
598.401	312.06
598.61	293.06
598.819	286.06
599.028	303.06
599.237	292.06
599.446	299.06
599.655	286.06
599.864	285.06
600.073	278.06
600.282	281.06
600.491	289.06
600.7	299.06
600.909	287.06
601.118	296.06
601.327	295.06
601.536	261.06
601.745	282.06
601.953	274.06
602.162	285.06
602.371	290.06
602.58	274.06
602.789	268.06
602.997	267.06
603.206	277.06
603.415	272.06
603.623	277.06
603.832	284.06
604.041	290.06
604.249	261.06
604.458	279.06
604.666	296.06
604.875	276.06
605.084	264.06
605.292	263.06
605.501	259.06
605.709	261.06
605.918	285.06
606.126	253.06
606.334	247.06
606.543	258.06
606.751	276.06
606.96	246.06
607.168	254.06
607.376	268.06
607.585	263.06
607.793	258.06
608.001	270.06
608.21	269.06
608.418	262.06
608.626	266.06
608.834	276.06
609.043	269.06
609.251	276.06
609.459	254.06
609.667	247.06
609.875	245.06
610.083	280.06
610.291	282.06
610.499	276.06
610.707	256.06
610.916	250.06
611.124	273.06
611.332	283.06
611.54	275.06
611.748	266.06
611.955	252.06
612.163	272.06
612.371	273.06
612.579	253.06
612.787	261.06
612.995	269.06
613.203	266.06
613.411	265.06
613.618	263.06
613.826	261.06
614.034	271.06
614.242	263.06
614.449	264.06
614.657	266.06
614.865	255.06
615.072	257.06
615.28	266.06
615.488	253.06
615.695	263.06
615.903	268.06
616.111	251.06
616.318	254.06
616.526	259.06
616.733	271.06
616.941	253.06
617.148	270.06
617.356	240.06
617.563	242.06
617.771	254.06
617.978	264.06
618.185	232.06
618.393	246.06
618.6	256.06
618.807	266.06
619.015	276.06
619.222	253.06
619.429	266.06
619.637	253.06
619.844	251.06
620.051	237.06
620.258	231.06
620.466	227.06
620.673	235.06
620.88	261.06
621.087	247.06
621.294	224.06
621.501	258.06
621.708	231.06
621.915	240.06
622.122	251.06
622.329	247.06
622.536	256.06
622.743	248.06
622.95	259.06
623.157	229.06
623.364	222.06
623.571	248.06
623.778	244.06
623.985	227.06
624.192	230.06
624.399	222.06
624.606	236.06
624.812	226.06
625.019	240.06
625.226	225.06
625.433	231.06
625.639	227.06
625.846	236.06
626.053	247.06
626.259	237.06
626.466	219.06
626.673	235.06
626.879	231.06
627.086	216.06
627.293	215.06
627.499	231.06
627.706	220.06
627.912	230.06
628.119	211.06
628.325	219.06
628.532	225.06
628.738	201.06
628.945	224.06
629.151	225.06
629.357	218.06
629.564	210.06
629.77	214.06
629.976	213.06
630.183	224.06
630.389	221.06
630.595	213.06
630.802	202.06
631.008	206.06
631.214	214.06
631.42	219.06
631.627	212.06
631.833	203.06
632.039	230.06
632.245	199.06
632.451	198.06
632.657	214.06
632.863	191.06
633.069	212.06
633.275	206.06
633.481	194.06
633.688	197.06
633.893	199.06
634.099	198.06
634.305	206.06
634.511	206.06
634.717	191.06
634.923	203.06
635.129	202.06
635.335	198.06
635.541	208.06
635.747	189.06
635.952	185.06
636.158	190.06
636.364	202.06
636.57	198.06
636.775	186.06
636.981	196.06
637.187	197.06
637.392	183.06
637.598	199.06
637.804	208.06
638.009	197.06
638.215	201.06
638.421	199.06
638.626	186.06
638.832	175.06
639.037	201.06
639.243	170.06
639.448	190.06
639.654	194.06
639.859	210.06
640.065	202.06
640.27	196.06
640.475	160.06
640.681	195.06
640.886	181.06
641.091	194.06
641.297	186.06
641.502	182.06
641.707	180.06
641.913	194.06
642.118	198.06
642.323	179.06
642.528	178.06
642.733	177.06
642.939	181.06
643.144	197.06
643.349	169.06
643.554	166.06
643.759	202.06
643.964	174.06
644.169	186.06
644.374	187.06
644.579	183.06
644.784	182.06
644.989	179.06
645.194	171.06
645.399	180.06
645.604	176.06
645.809	174.06
646.014	182.06
646.219	188.06
646.423	180.06
646.628	171.06
646.833	196.06
647.038	182.06
647.243	174.06
647.447	179.06
647.652	181.06
647.857	186.06
648.062	184.06
648.266	187.06
648.471	195.06
648.676	200.06
648.88	180.06
649.085	168.06
649.289	168.06
649.494	198.06
649.698	211.06
649.903	209.06
650.107	174.06
650.312	168.06
650.516	173.06
650.721	156.06
650.925	170.06
651.13	155.06
651.334	162.06
651.539	155.06
651.743	147.06
651.947	178.06
652.152	149.06
652.356	152.06
652.56	144.06
652.764	148.06
652.969	142.06
653.173	162.06
653.377	158.06
653.581	149.06
653.785	149.06
653.99	141.06
654.194	147.06
654.398	144.06
654.602	151.06
654.806	138.06
655.01	159.06
655.214	167.06
655.418	153.06
655.622	154.06
655.826	144.06
656.03	144.06
656.234	136.06
656.438	150.06
656.642	149.06
656.846	149.06
657.049	126.06
657.253	141.06
657.457	144.06
657.661	124.06
657.865	119.06
658.068	117.06
658.272	110.06
658.476	105.06
658.68	123.06
658.883	109.06
659.087	98.06
659.291	115.06
659.494	92.06
659.698	92.06
659.901	105.06
660.105	111.06
660.309	97.06
660.512	91.06
660.716	95.06
660.919	99.06
661.123	102.06
661.326	88.06
661.53	98.06
661.733	86.06
661.936	82.06
662.14	92.06
662.343	94.06
662.546	98.06
662.75	79.06
662.953	88.06
663.156	98.06
663.36	92.06
663.563	95.06
663.766	96.06
663.969	98.06
664.173	94.06
664.376	89.06
664.579	95.06
664.782	101.06
664.985	91.06
665.188	83.06
665.391	79.06
665.594	92.06
665.797	78.06
666	85.06
666.203	86.06
666.406	72.06
666.609	76.06
666.812	86.06
667.015	81.06
667.218	91.06
667.421	83.06
667.624	74.06
667.827	92.06
668.03	80.06
668.232	78.06
668.435	81.06
668.638	79.06
668.841	82.06
669.043	82.06
669.246	74.06
669.449	90.06
669.651	75.06
669.854	93.06
670.057	90.06
670.259	92.06
670.462	87.06
670.665	81.06
670.867	86.06
671.07	79.06
671.272	93.06
671.475	81.06
671.677	80.06
671.88	94.06
672.082	82.06
672.284	83.06
672.487	92.06
672.689	80.06
672.892	76.06
