Data from 1979.PennyLincolnUp.Lamp.En5.5.200Scan.071719.P1_HRD10591_16-20-01-863.txt Node
Date: Thu Jul 18 16:20:01 EDT 2019
User: cochatt
Spectrometer: HR+D1059
Trigger mode: 1
Integration Time (sec): 1.000000E-1
Scans to average: 1
Electric dark correction enabled: true
Nonlinearity correction enabled: false
Boxcar width: 0
XAxis mode: Wavelengths
Number of Pixels in Spectrum: 2048
>>>>>Begin Spectral Data<<<<<
223.165	-16.12
223.4	-16.12
223.635	-16.12
223.869	-14.12
224.104	-12.12
224.338	-3.12
224.573	1.88
224.808	-35.12
225.042	-16.12
225.277	-4.12
225.511	-5.12
225.746	2.88
225.98	10.88
226.215	12.88
226.449	19.88
226.683	12.88
226.918	25.88
227.152	18.88
227.387	26.88
227.621	23.88
227.856	48.88
228.09	26.88
228.324	44.88
228.559	45.88
228.793	71.88
229.027	90.88
229.262	111.88
229.496	118.88
229.73	117.88
229.964	134.88
230.199	113.88
230.433	95.88
230.667	98.88
230.901	107.88
231.136	112.88
231.37	121.88
231.604	104.88
231.838	102.88
232.072	99.88
232.306	126.88
232.541	118.88
232.775	109.88
233.009	118.88
233.243	111.88
233.477	129.88
233.711	113.88
233.945	91.88
234.179	101.88
234.413	113.88
234.647	113.88
234.881	127.88
235.115	111.88
235.349	107.88
235.583	116.88
235.817	118.88
236.051	121.88
236.285	118.88
236.519	100.88
236.753	127.88
236.987	130.88
237.221	153.88
237.455	203.88
237.689	177.88
237.922	126.88
238.156	109.88
238.39	130.88
238.624	125.88
238.858	123.88
239.091	109.88
239.325	119.88
239.559	128.88
239.793	121.88
240.027	124.88
240.26	128.88
240.494	149.88
240.728	137.88
240.961	151.88
241.195	139.88
241.429	142.88
241.662	129.88
241.896	127.88
242.13	120.88
242.363	126.88
242.597	114.88
242.83	125.88
243.064	127.88
243.298	121.88
243.531	145.88
243.765	130.88
243.998	137.88
244.232	135.88
244.465	126.88
244.699	145.88
244.932	133.88
245.166	138.88
245.399	132.88
245.633	139.88
245.866	136.88
246.099	134.88
246.333	138.88
246.566	136.88
246.8	148.88
247.033	150.88
247.266	153.88
247.5	153.88
247.733	156.88
247.966	159.88
248.2	149.88
248.433	161.88
248.666	159.88
248.899	184.88
249.133	186.88
249.366	195.88
249.599	202.88
249.832	168.88
250.066	166.88
250.299	170.88
250.532	185.88
250.765	186.88
250.998	203.88
251.231	204.88
251.465	190.88
251.698	207.88
251.931	182.88
252.164	178.88
252.397	189.88
252.63	177.88
252.863	179.88
253.096	206.88
253.329	202.88
253.562	214.88
253.795	199.88
254.028	182.88
254.261	202.88
254.494	209.88
254.727	233.88
254.96	261.88
255.193	235.88
255.426	228.88
255.659	214.88
255.892	218.88
256.124	210.88
256.357	225.88
256.59	206.88
256.823	203.88
257.056	208.88
257.289	202.88
257.521	219.88
257.754	210.88
257.987	188.88
258.22	197.88
258.452	185.88
258.685	210.88
258.918	195.88
259.151	217.88
259.383	223.88
259.616	202.88
259.849	211.88
260.081	231.88
260.314	218.88
260.547	230.88
260.779	239.88
261.012	220.88
261.244	222.88
261.477	230.88
261.71	198.88
261.942	196.88
262.175	228.88
262.407	209.88
262.64	208.88
262.872	206.88
263.105	203.88
263.337	213.88
263.57	194.88
263.802	195.88
264.035	185.88
264.267	199.88
264.499	204.88
264.732	201.88
264.964	193.88
265.197	197.88
265.429	208.88
265.661	222.88
265.894	208.88
266.126	214.88
266.358	217.88
266.591	206.88
266.823	207.88
267.055	220.88
267.287	214.88
267.52	221.88
267.752	236.88
267.984	226.88
268.216	225.88
268.448	221.88
268.681	205.88
268.913	218.88
269.145	240.88
269.377	251.88
269.609	257.88
269.841	250.88
270.073	240.88
270.306	263.88
270.538	273.88
270.77	286.88
271.002	265.88
271.234	277.88
271.466	279.88
271.698	264.88
271.93	275.88
272.162	294.88
272.394	281.88
272.626	277.88
272.858	271.88
273.09	255.88
273.322	267.88
273.553	253.88
273.785	245.88
274.017	240.88
274.249	263.88
274.481	261.88
274.713	246.88
274.945	248.88
275.176	250.88
275.408	259.88
275.64	246.88
275.872	238.88
276.104	250.88
276.335	257.88
276.567	265.88
276.799	271.88
277.031	288.88
277.262	281.88
277.494	288.88
277.726	246.88
277.957	262.88
278.189	262.88
278.421	248.88
278.652	257.88
278.884	257.88
279.115	246.88
279.347	256.88
279.579	253.88
279.81	254.88
280.042	250.88
280.273	281.88
280.505	247.88
280.736	249.88
280.968	259.88
281.199	257.88
281.431	264.88
281.662	253.88
281.894	255.88
282.125	253.88
282.356	289.88
282.588	289.88
282.819	294.88
283.051	277.88
283.282	266.88
283.513	241.88
283.745	264.88
283.976	258.88
284.207	281.88
284.439	255.88
284.67	270.88
284.901	273.88
285.132	264.88
285.364	279.88
285.595	277.88
285.826	269.88
286.057	263.88
286.288	272.88
286.52	306.88
286.751	266.88
286.982	257.88
287.213	281.88
287.444	281.88
287.675	275.88
287.906	285.88
288.138	299.88
288.369	276.88
288.6	302.88
288.831	278.88
289.062	287.88
289.293	285.88
289.524	298.88
289.755	278.88
289.986	276.88
290.217	274.88
290.448	267.88
290.679	286.88
290.91	289.88
291.141	284.88
291.371	303.88
291.602	294.88
291.833	265.88
292.064	279.88
292.295	269.88
292.526	278.88
292.757	270.88
292.987	294.88
293.218	279.88
293.449	286.88
293.68	299.88
293.91	283.88
294.141	289.88
294.372	282.88
294.603	289.88
294.833	286.88
295.064	306.88
295.295	291.88
295.525	274.88
295.756	276.88
295.987	305.88
296.217	315.88
296.448	316.88
296.679	289.88
296.909	275.88
297.14	301.88
297.37	301.88
297.601	303.88
297.831	282.88
298.062	276.88
298.292	294.88
298.523	295.88
298.753	294.88
298.984	295.88
299.214	314.88
299.445	313.88
299.675	297.88
299.905	319.88
300.136	304.88
300.366	294.88
300.597	302.88
300.827	294.88
301.057	309.88
301.288	322.88
301.518	322.88
301.748	308.88
301.979	324.88
302.209	326.88
302.439	318.88
302.669	335.88
302.9	331.88
303.13	327.88
303.36	336.88
303.59	323.88
303.82	318.88
304.051	345.88
304.281	323.88
304.511	297.88
304.741	330.88
304.971	338.88
305.201	324.88
305.431	327.88
305.661	344.88
305.891	314.88
306.121	330.88
306.352	316.88
306.582	335.88
306.812	317.88
307.042	335.88
307.272	325.88
307.502	328.88
307.731	336.88
307.961	326.88
308.191	338.88
308.421	323.88
308.651	342.88
308.881	333.88
309.111	322.88
309.341	335.88
309.571	362.88
309.8	343.88
310.03	352.88
310.26	356.88
310.49	363.88
310.72	373.88
310.949	381.88
311.179	384.88
311.409	372.88
311.639	353.88
311.868	353.88
312.098	367.88
312.328	369.88
312.557	368.88
312.787	393.88
313.017	387.88
313.246	367.88
313.476	367.88
313.706	370.88
313.935	368.88
314.165	382.88
314.394	365.88
314.624	384.88
314.853	372.88
315.083	383.88
315.312	367.88
315.542	354.88
315.771	346.88
316.001	362.88
316.23	364.88
316.46	349.88
316.689	365.88
316.919	386.88
317.148	400.88
317.377	378.88
317.607	358.88
317.836	353.88
318.065	365.88
318.295	358.88
318.524	345.88
318.753	347.88
318.983	368.88
319.212	366.88
319.441	372.88
319.67	386.88
319.9	363.88
320.129	383.88
320.358	364.88
320.587	371.88
320.816	402.88
321.046	381.88
321.275	393.88
321.504	366.88
321.733	379.88
321.962	400.88
322.191	407.88
322.42	418.88
322.649	422.88
322.878	424.88
323.108	422.88
323.337	464.88
323.566	497.88
323.795	492.88
324.024	554.88
324.253	626.88
324.482	891.88
324.71	1385.88
324.939	2097.88
325.168	1753.88
325.397	893.88
325.626	594.88
325.855	516.88
326.084	501.88
326.313	479.88
326.542	493.88
326.77	510.88
326.999	598.88
327.228	802.88
327.457	1298.88
327.686	1577.88
327.914	1013.88
328.143	669.88
328.372	589.88
328.6	583.88
328.829	534.88
329.058	543.88
329.287	536.88
329.515	542.88
329.744	476.88
329.972	479.88
330.201	511.88
330.43	551.88
330.658	570.88
330.887	589.88
331.115	557.88
331.344	483.88
331.572	487.88
331.801	486.88
332.03	495.88
332.258	464.88
332.486	463.88
332.715	459.88
332.943	443.88
333.172	449.88
333.4	468.88
333.629	460.88
333.857	483.88
334.085	487.88
334.314	503.88
334.542	519.88
334.771	541.88
334.999	519.88
335.227	476.88
335.455	460.88
335.684	451.88
335.912	455.88
336.14	427.88
336.369	431.88
336.597	427.88
336.825	460.88
337.053	457.88
337.281	426.88
337.51	439.88
337.738	434.88
337.966	430.88
338.194	433.88
338.422	461.88
338.65	450.88
338.878	417.88
339.106	422.88
339.334	426.88
339.562	430.88
339.79	426.88
340.018	405.88
340.246	435.88
340.474	424.88
340.702	404.88
340.93	430.88
341.158	415.88
341.386	429.88
341.614	446.88
341.842	422.88
342.07	416.88
342.298	412.88
342.526	398.88
342.754	406.88
342.981	429.88
343.209	407.88
343.437	425.88
343.665	430.88
343.893	441.88
344.12	446.88
344.348	445.88
344.576	451.88
344.804	457.88
345.031	460.88
345.259	444.88
345.487	442.88
345.714	434.88
345.942	432.88
346.17	404.88
346.397	407.88
346.625	419.88
346.853	395.88
347.08	414.88
347.308	420.88
347.535	407.88
347.763	437.88
347.99	427.88
348.218	408.88
348.445	410.88
348.673	416.88
348.9	416.88
349.128	413.88
349.355	406.88
349.583	406.88
349.81	406.88
350.037	400.88
350.265	403.88
350.492	402.88
350.72	385.88
350.947	391.88
351.174	430.88
351.402	429.88
351.629	409.88
351.856	419.88
352.083	406.88
352.311	425.88
352.538	420.88
352.765	445.88
352.992	416.88
353.22	425.88
353.447	403.88
353.674	392.88
353.901	387.88
354.128	420.88
354.355	408.88
354.583	392.88
354.81	396.88
355.037	387.88
355.264	391.88
355.491	382.88
355.718	385.88
355.945	386.88
356.172	400.88
356.399	387.88
356.626	393.88
356.853	384.88
357.08	395.88
357.307	395.88
357.534	395.88
357.761	409.88
357.988	421.88
358.215	371.88
358.441	401.88
358.668	395.88
358.895	426.88
359.122	400.88
359.349	422.88
359.576	413.88
359.802	450.88
360.029	434.88
360.256	464.88
360.483	463.88
360.709	406.88
360.936	413.88
361.163	417.88
361.39	425.88
361.616	423.88
361.843	415.88
362.07	400.88
362.296	423.88
362.523	424.88
362.749	430.88
362.976	417.88
363.203	417.88
363.429	394.88
363.656	392.88
363.882	402.88
364.109	411.88
364.335	405.88
364.562	403.88
364.788	400.88
365.015	400.88
365.241	405.88
365.468	402.88
365.694	396.88
365.92	411.88
366.147	412.88
366.373	412.88
366.599	410.88
366.826	417.88
367.052	395.88
367.278	415.88
367.505	398.88
367.731	425.88
367.957	414.88
368.184	422.88
368.41	409.88
368.636	446.88
368.862	438.88
369.089	411.88
369.315	419.88
369.541	398.88
369.767	401.88
369.993	405.88
370.219	393.88
370.445	421.88
370.672	394.88
370.898	409.88
371.124	401.88
371.35	409.88
371.576	392.88
371.802	405.88
372.028	410.88
372.254	404.88
372.48	402.88
372.706	407.88
372.932	415.88
373.158	424.88
373.384	427.88
373.61	420.88
373.835	415.88
374.061	396.88
374.287	416.88
374.513	415.88
374.739	420.88
374.965	429.88
375.191	409.88
375.416	422.88
375.642	437.88
375.868	423.88
376.094	419.88
376.319	414.88
376.545	408.88
376.771	407.88
376.997	411.88
377.222	416.88
377.448	402.88
377.674	416.88
377.899	408.88
378.125	390.88
378.35	404.88
378.576	393.88
378.802	409.88
379.027	405.88
379.253	407.88
379.478	419.88
379.704	422.88
379.929	425.88
380.155	401.88
380.38	409.88
380.606	429.88
380.831	410.88
381.057	432.88
381.282	391.88
381.507	417.88
381.733	438.88
381.958	419.88
382.184	433.88
382.409	425.88
382.634	436.88
382.86	425.88
383.085	427.88
383.31	436.88
383.535	432.88
383.761	454.88
383.986	450.88
384.211	437.88
384.436	437.88
384.662	454.88
384.887	433.88
385.112	460.88
385.337	455.88
385.562	457.88
385.787	442.88
386.013	479.88
386.238	468.88
386.463	463.88
386.688	478.88
386.913	465.88
387.138	467.88
387.363	459.88
387.588	452.88
387.813	484.88
388.038	453.88
388.263	466.88
388.488	453.88
388.713	458.88
388.938	478.88
389.163	463.88
389.387	464.88
389.612	433.88
389.837	451.88
390.062	467.88
390.287	467.88
390.512	479.88
390.736	454.88
390.961	486.88
391.186	477.88
391.411	463.88
391.636	475.88
391.86	493.88
392.085	499.88
392.31	494.88
392.534	498.88
392.759	486.88
392.984	481.88
393.208	465.88
393.433	505.88
393.658	477.88
393.882	480.88
394.107	461.88
394.331	459.88
394.556	485.88
394.78	502.88
395.005	472.88
395.229	484.88
395.454	498.88
395.678	481.88
395.903	513.88
396.127	539.88
396.352	534.88
396.576	510.88
396.801	501.88
397.025	493.88
397.249	496.88
397.474	500.88
397.698	493.88
397.922	513.88
398.147	529.88
398.371	557.88
398.595	534.88
398.82	561.88
399.044	561.88
399.268	582.88
399.492	619.88
399.717	646.88
399.941	673.88
400.165	687.88
400.389	699.88
400.613	610.88
400.837	573.88
401.062	585.88
401.286	549.88
401.51	569.88
401.734	557.88
401.958	538.88
402.182	559.88
402.406	576.88
402.63	583.88
402.854	563.88
403.078	576.88
403.302	575.88
403.526	580.88
403.75	607.88
403.974	598.88
404.198	589.88
404.422	552.88
404.645	589.88
404.869	590.88
405.093	610.88
405.317	652.88
405.541	685.88
405.765	638.88
405.988	597.88
406.212	611.88
406.436	631.88
406.66	642.88
406.883	625.88
407.107	657.88
407.331	693.88
407.555	739.88
407.778	742.88
408.002	715.88
408.226	664.88
408.449	629.88
408.673	659.88
408.896	658.88
409.12	697.88
409.344	669.88
409.567	616.88
409.791	607.88
410.014	599.88
410.238	596.88
410.461	598.88
410.685	587.88
410.908	582.88
411.132	641.88
411.355	627.88
411.578	647.88
411.802	611.88
412.025	585.88
412.249	592.88
412.472	622.88
412.695	650.88
412.919	633.88
413.142	584.88
413.365	586.88
413.589	559.88
413.812	571.88
414.035	576.88
414.258	559.88
414.482	586.88
414.705	560.88
414.928	557.88
415.151	583.88
415.374	561.88
415.597	535.88
415.821	544.88
416.044	537.88
416.267	543.88
416.49	551.88
416.713	555.88
416.936	547.88
417.159	538.88
417.382	531.88
417.605	558.88
417.828	573.88
418.051	562.88
418.274	574.88
418.497	563.88
418.72	560.88
418.943	548.88
419.166	589.88
419.389	592.88
419.611	579.88
419.834	580.88
420.057	579.88
420.28	577.88
420.503	556.88
420.726	559.88
420.948	590.88
421.171	602.88
421.394	637.88
421.617	593.88
421.839	569.88
422.062	550.88
422.285	586.88
422.507	641.88
422.73	721.88
422.953	686.88
423.175	629.88
423.398	591.88
423.621	580.88
423.843	619.88
424.066	614.88
424.288	617.88
424.511	616.88
424.733	679.88
424.956	755.88
425.178	706.88
425.401	717.88
425.623	745.88
425.846	671.88
426.068	641.88
426.291	591.88
426.513	570.88
426.735	581.88
426.958	611.88
427.18	720.88
427.402	862.88
427.625	907.88
427.847	833.88
428.069	711.88
428.292	665.88
428.514	575.88
428.736	583.88
428.958	574.88
429.181	553.88
429.403	551.88
429.625	559.88
429.847	606.88
430.069	674.88
430.292	669.88
430.514	593.88
430.736	582.88
430.958	575.88
431.18	522.88
431.402	532.88
431.624	516.88
431.846	504.88
432.068	496.88
432.29	545.88
432.512	522.88
432.734	546.88
432.956	541.88
433.178	555.88
433.4	552.88
433.622	538.88
433.844	527.88
434.066	528.88
434.287	545.88
434.509	535.88
434.731	544.88
434.953	555.88
435.175	566.88
435.397	597.88
435.618	598.88
435.84	655.88
436.062	724.88
436.284	810.88
436.505	678.88
436.727	603.88
436.949	587.88
437.17	570.88
437.392	555.88
437.614	567.88
437.835	580.88
438.057	674.88
438.278	786.88
438.5	785.88
438.721	872.88
438.943	808.88
439.165	669.88
439.386	614.88
439.608	585.88
439.829	613.88
440.05	641.88
440.272	678.88
440.493	634.88
440.715	585.88
440.936	584.88
441.158	563.88
441.379	550.88
441.6	594.88
441.822	610.88
442.043	645.88
442.264	706.88
442.486	767.88
442.707	659.88
442.928	631.88
443.149	614.88
443.371	659.88
443.592	693.88
443.813	787.88
444.034	851.88
444.255	722.88
444.476	633.88
444.698	637.88
444.919	628.88
445.14	720.88
445.361	662.88
445.582	659.88
445.803	701.88
446.024	825.88
446.245	809.88
446.466	759.88
446.687	647.88
446.908	604.88
447.129	558.88
447.35	564.88
447.571	563.88
447.792	539.88
448.013	561.88
448.234	557.88
448.455	624.88
448.675	711.88
448.896	859.88
449.117	714.88
449.338	664.88
449.559	781.88
449.779	884.88
450	712.88
450.221	598.88
450.442	566.88
450.662	546.88
450.883	536.88
451.104	546.88
451.324	551.88
451.545	528.88
451.766	512.88
451.986	498.88
452.207	506.88
452.428	497.88
452.648	509.88
452.869	497.88
453.089	499.88
453.31	508.88
453.53	509.88
453.751	499.88
453.971	509.88
454.192	503.88
454.412	489.88
454.633	486.88
454.853	491.88
455.073	487.88
455.294	528.88
455.514	565.88
455.734	565.88
455.955	481.88
456.175	471.88
456.395	451.88
456.616	470.88
456.836	462.88
457.056	477.88
457.276	469.88
457.497	461.88
457.717	457.88
457.937	474.88
458.157	482.88
458.377	489.88
458.598	510.88
458.818	549.88
459.038	662.88
459.258	667.88
459.478	568.88
459.698	566.88
459.918	525.88
460.138	552.88
460.358	558.88
460.578	547.88
460.798	577.88
461.018	545.88
461.238	569.88
461.458	579.88
461.678	531.88
461.898	563.88
462.118	547.88
462.338	576.88
462.558	590.88
462.777	596.88
462.997	615.88
463.217	625.88
463.437	638.88
463.657	617.88
463.876	613.88
464.096	606.88
464.316	595.88
464.536	611.88
464.755	622.88
464.975	595.88
465.195	635.88
465.414	679.88
465.634	595.88
465.854	591.88
466.073	564.88
466.293	539.88
466.512	513.88
466.732	534.88
466.951	529.88
467.171	545.88
467.391	528.88
467.61	540.88
467.829	549.88
468.049	532.88
468.268	526.88
468.488	515.88
468.707	490.88
468.927	506.88
469.146	518.88
469.365	499.88
469.585	502.88
469.804	540.88
470.023	536.88
470.243	502.88
470.462	531.88
470.681	534.88
470.901	545.88
471.12	534.88
471.339	519.88
471.558	526.88
471.777	534.88
471.997	513.88
472.216	540.88
472.435	552.88
472.654	543.88
472.873	539.88
473.092	521.88
473.311	521.88
473.53	515.88
473.749	532.88
473.968	564.88
474.187	650.88
474.406	657.88
474.625	563.88
474.844	527.88
475.063	520.88
475.282	532.88
475.501	529.88
475.72	541.88
475.939	527.88
476.158	536.88
476.377	524.88
476.596	559.88
476.814	543.88
477.033	556.88
477.252	559.88
477.471	558.88
477.69	593.88
477.908	571.88
478.127	571.88
478.346	581.88
478.564	602.88
478.783	580.88
479.002	597.88
479.22	616.88
479.439	621.88
479.658	636.88
479.876	618.88
480.095	642.88
480.313	685.88
480.532	661.88
480.751	628.88
480.969	670.88
481.188	716.88
481.406	742.88
481.624	671.88
481.843	627.88
482.061	641.88
482.28	646.88
482.498	593.88
482.717	616.88
482.935	610.88
483.153	615.88
483.372	633.88
483.59	599.88
483.808	613.88
484.027	601.88
484.245	611.88
484.463	605.88
484.681	637.88
484.9	633.88
485.118	627.88
485.336	643.88
485.554	636.88
485.772	606.88
485.99	623.88
486.209	643.88
486.427	633.88
486.645	663.88
486.863	667.88
487.081	652.88
487.299	661.88
487.517	638.88
487.735	650.88
487.953	664.88
488.171	681.88
488.389	657.88
488.607	611.88
488.825	652.88
489.043	635.88
489.261	643.88
489.479	642.88
489.696	661.88
489.914	652.88
490.132	659.88
490.35	685.88
490.568	694.88
490.786	690.88
491.003	683.88
491.221	695.88
491.439	729.88
491.657	750.88
491.874	758.88
492.092	747.88
492.31	739.88
492.527	747.88
492.745	787.88
492.963	755.88
493.18	745.88
493.398	760.88
493.615	776.88
493.833	788.88
494.05	777.88
494.268	787.88
494.485	770.88
494.703	759.88
494.92	757.88
495.138	758.88
495.355	767.88
495.573	773.88
495.79	778.88
496.008	786.88
496.225	778.88
496.442	785.88
496.66	787.88
496.877	818.88
497.094	815.88
497.312	807.88
497.529	794.88
497.746	795.88
497.963	842.88
498.181	855.88
498.398	859.88
498.615	863.88
498.832	891.88
499.049	939.88
499.267	961.88
499.484	1018.88
499.701	1070.88
499.918	1053.88
500.135	1161.88
500.352	1203.88
500.569	1234.88
500.786	1246.88
501.003	1195.88
501.22	1146.88
501.437	1137.88
501.654	1075.88
501.871	1039.88
502.088	997.88
502.305	970.88
502.522	933.88
502.739	920.88
502.956	866.88
503.172	850.88
503.389	835.88
503.606	847.88
503.823	809.88
504.04	812.88
504.256	815.88
504.473	774.88
504.69	804.88
504.907	845.88
505.123	790.88
505.34	786.88
505.557	769.88
505.773	738.88
505.99	776.88
506.207	758.88
506.423	753.88
506.64	730.88
506.856	705.88
507.073	688.88
507.289	722.88
507.506	731.88
507.722	692.88
507.939	726.88
508.155	681.88
508.372	691.88
508.588	665.88
508.805	703.88
509.021	697.88
509.238	679.88
509.454	692.88
509.67	695.88
509.887	670.88
510.103	666.88
510.319	706.88
510.536	777.88
510.752	1238.88
510.968	1017.88
511.184	705.88
511.401	660.88
511.617	659.88
511.833	637.88
512.049	646.88
512.265	637.88
512.481	659.88
512.698	661.88
512.914	668.88
513.13	646.88
513.346	653.88
513.562	665.88
513.778	667.88
513.994	669.88
514.21	682.88
514.426	696.88
514.642	752.88
514.858	740.88
515.074	783.88
515.29	893.88
515.506	1304.88
515.721	1077.88
515.937	797.88
516.153	727.88
516.369	697.88
516.585	687.88
516.801	701.88
517.016	673.88
517.232	715.88
517.448	720.88
517.664	719.88
517.879	727.88
518.095	710.88
518.311	668.88
518.527	701.88
518.742	681.88
518.958	735.88
519.173	679.88
519.389	672.88
519.605	659.88
519.82	655.88
520.036	690.88
520.251	702.88
520.467	697.88
520.682	690.88
520.898	703.88
521.113	695.88
521.329	745.88
521.544	842.88
521.76	1025.88
521.975	1671.88
522.19	1620.88
522.406	919.88
522.621	740.88
522.836	641.88
523.052	629.88
523.267	621.88
523.482	608.88
523.698	601.88
523.913	603.88
524.128	606.88
524.343	582.88
524.559	585.88
524.774	585.88
524.989	591.88
525.204	565.88
525.419	596.88
525.634	583.88
525.849	553.88
526.064	545.88
526.28	566.88
526.495	557.88
526.71	564.88
526.925	533.88
527.14	542.88
527.355	538.88
527.57	536.88
527.785	557.88
527.999	538.88
528.214	544.88
528.429	547.88
528.644	550.88
528.859	554.88
529.074	546.88
529.289	582.88
529.503	639.88
529.718	615.88
529.933	579.88
530.148	549.88
530.363	549.88
530.577	556.88
530.792	559.88
531.007	534.88
531.221	538.88
531.436	540.88
531.651	529.88
531.865	537.88
532.08	511.88
532.295	534.88
532.509	525.88
532.724	528.88
532.938	536.88
533.153	522.88
533.367	541.88
533.582	518.88
533.796	548.88
534.011	522.88
534.225	535.88
534.44	528.88
534.654	533.88
534.868	527.88
535.083	528.88
535.297	522.88
535.511	531.88
535.726	522.88
535.94	535.88
536.154	541.88
536.369	516.88
536.583	523.88
536.797	495.88
537.011	522.88
537.225	522.88
537.44	511.88
537.654	523.88
537.868	513.88
538.082	527.88
538.296	506.88
538.51	509.88
538.724	501.88
538.938	489.88
539.153	486.88
539.367	508.88
539.581	528.88
539.795	525.88
540.009	489.88
540.222	495.88
540.436	519.88
540.65	517.88
540.864	523.88
541.078	518.88
541.292	494.88
541.506	490.88
541.72	507.88
541.934	507.88
542.147	501.88
542.361	513.88
542.575	490.88
542.789	499.88
543.002	497.88
543.216	496.88
543.43	496.88
543.644	498.88
543.857	511.88
544.071	523.88
544.285	508.88
544.498	488.88
544.712	479.88
544.925	503.88
545.139	513.88
545.352	498.88
545.566	488.88
545.779	483.88
545.993	494.88
546.206	509.88
546.42	527.88
546.633	504.88
546.847	485.88
547.06	481.88
547.274	476.88
547.487	480.88
547.7	501.88
547.914	478.88
548.127	473.88
548.34	481.88
548.554	488.88
548.767	490.88
548.98	494.88
549.193	487.88
549.407	494.88
549.62	489.88
549.833	507.88
550.046	494.88
550.259	507.88
550.473	502.88
550.686	482.88
550.899	477.88
551.112	475.88
551.325	482.88
551.538	472.88
551.751	465.88
551.964	479.88
552.177	463.88
552.39	494.88
552.603	503.88
552.816	506.88
553.029	516.88
553.242	491.88
553.455	512.88
553.667	500.88
553.88	514.88
554.093	490.88
554.306	509.88
554.519	478.88
554.732	497.88
554.944	493.88
555.157	473.88
555.37	464.88
555.583	463.88
555.795	447.88
556.008	453.88
556.221	432.88
556.433	454.88
556.646	446.88
556.859	450.88
557.071	424.88
557.284	439.88
557.496	458.88
557.709	422.88
557.921	423.88
558.134	449.88
558.346	437.88
558.559	419.88
558.771	425.88
558.984	434.88
559.196	431.88
559.409	445.88
559.621	430.88
559.833	421.88
560.046	431.88
560.258	413.88
560.47	437.88
560.683	426.88
560.895	416.88
561.107	430.88
561.32	434.88
561.532	421.88
561.744	433.88
561.956	446.88
562.168	435.88
562.381	440.88
562.593	419.88
562.805	425.88
563.017	445.88
563.229	426.88
563.441	456.88
563.653	436.88
563.865	442.88
564.077	449.88
564.289	447.88
564.501	447.88
564.713	438.88
564.925	454.88
565.137	457.88
565.349	497.88
565.561	464.88
565.773	463.88
565.985	477.88
566.197	505.88
566.408	516.88
566.62	543.88
566.832	560.88
567.044	541.88
567.255	561.88
567.467	566.88
567.679	571.88
567.891	598.88
568.102	583.88
568.314	570.88
568.526	564.88
568.737	567.88
568.949	513.88
569.161	473.88
569.372	459.88
569.584	472.88
569.795	458.88
570.007	438.88
570.218	480.88
570.43	502.88
570.641	437.88
570.853	403.88
571.064	415.88
571.276	412.88
571.487	424.88
571.698	430.88
571.91	413.88
572.121	394.88
572.333	413.88
572.544	399.88
572.755	394.88
572.966	386.88
573.178	395.88
573.389	378.88
573.6	382.88
573.811	381.88
574.023	394.88
574.234	379.88
574.445	371.88
574.656	370.88
574.867	370.88
575.078	373.88
575.289	357.88
575.501	352.88
575.712	367.88
575.923	355.88
576.134	357.88
576.345	349.88
576.556	376.88
576.767	362.88
576.978	367.88
577.188	351.88
577.399	359.88
577.61	362.88
577.821	360.88
578.032	349.88
578.243	381.88
578.454	597.88
578.665	458.88
578.875	369.88
579.086	350.88
579.297	345.88
579.508	349.88
579.718	338.88
579.929	333.88
580.14	343.88
580.35	329.88
580.561	344.88
580.772	345.88
580.982	341.88
581.193	335.88
581.403	333.88
581.614	344.88
581.825	354.88
582.035	327.88
582.246	334.88
582.456	323.88
582.667	335.88
582.877	330.88
583.087	337.88
583.298	344.88
583.508	342.88
583.719	336.88
583.929	325.88
584.139	341.88
584.35	338.88
584.56	329.88
584.77	328.88
584.981	341.88
585.191	340.88
585.401	328.88
585.611	318.88
585.821	333.88
586.032	322.88
586.242	329.88
586.452	332.88
586.662	339.88
586.872	317.88
587.082	340.88
587.292	335.88
587.502	323.88
587.713	326.88
587.923	324.88
588.133	308.88
588.343	339.88
588.553	314.88
588.762	323.88
588.972	325.88
589.182	348.88
589.392	344.88
589.602	323.88
589.812	336.88
590.022	326.88
590.232	320.88
590.441	308.88
590.651	319.88
590.861	327.88
591.071	321.88
591.281	331.88
591.49	330.88
591.7	327.88
591.91	334.88
592.119	327.88
592.329	329.88
592.539	355.88
592.748	352.88
592.958	336.88
593.167	314.88
593.377	340.88
593.587	378.88
593.796	311.88
594.006	346.88
594.215	367.88
594.424	342.88
594.634	333.88
594.843	316.88
595.053	329.88
595.262	347.88
595.472	341.88
595.681	329.88
595.89	307.88
596.1	330.88
596.309	315.88
596.518	311.88
596.727	314.88
596.937	310.88
597.146	291.88
597.355	319.88
597.564	301.88
597.774	302.88
597.983	295.88
598.192	304.88
598.401	305.88
598.61	281.88
598.819	275.88
599.028	287.88
599.237	262.88
599.446	279.88
599.655	274.88
599.864	279.88
600.073	285.88
600.282	280.88
600.491	278.88
600.7	287.88
600.909	278.88
601.118	281.88
601.327	271.88
601.536	272.88
601.745	279.88
601.953	271.88
602.162	276.88
602.371	272.88
602.58	269.88
602.789	271.88
602.997	275.88
603.206	259.88
603.415	275.88
603.623	268.88
603.832	268.88
604.041	281.88
604.249	275.88
604.458	254.88
604.666	278.88
604.875	259.88
605.084	257.88
605.292	273.88
605.501	265.88
605.709	273.88
605.918	262.88
606.126	252.88
606.334	273.88
606.543	266.88
606.751	263.88
606.96	261.88
607.168	240.88
607.376	259.88
607.585	262.88
607.793	245.88
608.001	249.88
608.21	261.88
608.418	243.88
608.626	243.88
608.834	266.88
609.043	243.88
609.251	270.88
609.459	228.88
609.667	246.88
609.875	250.88
610.083	266.88
610.291	258.88
610.499	274.88
610.707	259.88
610.916	250.88
611.124	269.88
611.332	259.88
611.54	269.88
611.748	260.88
611.955	253.88
612.163	267.88
612.371	251.88
612.579	249.88
612.787	250.88
612.995	256.88
613.203	259.88
613.411	255.88
613.618	253.88
613.826	256.88
614.034	255.88
614.242	226.88
614.449	259.88
614.657	239.88
614.865	261.88
615.072	257.88
615.28	256.88
615.488	247.88
615.695	263.88
615.903	262.88
616.111	274.88
616.318	243.88
616.526	253.88
616.733	258.88
616.941	243.88
617.148	251.88
617.356	232.88
617.563	232.88
617.771	221.88
617.978	233.88
618.185	239.88
618.393	253.88
618.6	253.88
618.807	250.88
619.015	253.88
619.222	237.88
619.429	237.88
619.637	265.88
619.844	237.88
620.051	241.88
620.258	234.88
620.466	244.88
620.673	237.88
620.88	232.88
621.087	249.88
621.294	240.88
621.501	239.88
621.708	237.88
621.915	243.88
622.122	220.88
622.329	237.88
622.536	233.88
622.743	235.88
622.95	235.88
623.157	234.88
623.364	221.88
623.571	238.88
623.778	213.88
623.985	227.88
624.192	233.88
624.399	213.88
624.606	239.88
624.812	222.88
625.019	244.88
625.226	212.88
625.433	226.88
625.639	223.88
625.846	213.88
626.053	231.88
626.259	209.88
626.466	218.88
626.673	208.88
626.879	206.88
627.086	206.88
627.293	214.88
627.499	210.88
627.706	233.88
627.912	223.88
628.119	215.88
628.325	226.88
628.532	216.88
628.738	199.88
628.945	214.88
629.151	214.88
629.357	197.88
629.564	202.88
629.77	207.88
629.976	216.88
630.183	211.88
630.389	210.88
630.595	208.88
630.802	204.88
631.008	185.88
631.214	190.88
631.42	206.88
631.627	194.88
631.833	193.88
632.039	192.88
632.245	208.88
632.451	193.88
632.657	188.88
632.863	173.88
633.069	181.88
633.275	194.88
633.481	202.88
633.688	213.88
633.893	177.88
634.099	198.88
634.305	197.88
634.511	198.88
634.717	177.88
634.923	191.88
635.129	183.88
635.335	176.88
635.541	191.88
635.747	173.88
635.952	191.88
636.158	199.88
636.364	200.88
636.57	209.88
636.775	196.88
636.981	198.88
637.187	187.88
637.392	189.88
637.598	192.88
637.804	181.88
638.009	193.88
638.215	194.88
638.421	178.88
638.626	181.88
638.832	181.88
639.037	189.88
639.243	191.88
639.448	193.88
639.654	169.88
639.859	169.88
640.065	183.88
640.27	194.88
640.475	199.88
640.681	176.88
640.886	181.88
641.091	184.88
641.297	179.88
641.502	189.88
641.707	171.88
641.913	181.88
642.118	176.88
642.323	179.88
642.528	171.88
642.733	178.88
642.939	183.88
643.144	166.88
643.349	161.88
643.554	165.88
643.759	180.88
643.964	161.88
644.169	162.88
644.374	164.88
644.579	192.88
644.784	174.88
644.989	192.88
645.194	176.88
645.399	177.88
645.604	178.88
645.809	170.88
646.014	166.88
646.219	182.88
646.423	180.88
646.628	171.88
646.833	184.88
647.038	181.88
647.243	163.88
647.447	168.88
647.652	190.88
647.857	200.88
648.062	177.88
648.266	169.88
648.471	185.88
648.676	191.88
648.88	180.88
649.085	182.88
649.289	167.88
649.494	176.88
649.698	168.88
649.903	201.88
650.107	170.88
650.312	176.88
650.516	145.88
650.721	151.88
650.925	169.88
651.13	150.88
651.334	148.88
651.539	152.88
651.743	151.88
651.947	160.88
652.152	167.88
652.356	157.88
652.56	141.88
652.764	140.88
652.969	149.88
653.173	154.88
653.377	136.88
653.581	150.88
653.785	143.88
653.99	149.88
654.194	124.88
654.398	131.88
654.602	139.88
654.806	149.88
655.01	158.88
655.214	145.88
655.418	130.88
655.622	140.88
655.826	130.88
656.03	140.88
656.234	143.88
656.438	142.88
656.642	137.88
656.846	129.88
657.049	125.88
657.253	130.88
657.457	121.88
657.661	118.88
657.865	108.88
658.068	119.88
658.272	114.88
658.476	111.88
658.68	96.88
658.883	104.88
659.087	101.88
659.291	99.88
659.494	91.88
659.698	91.88
659.901	90.88
660.105	94.88
660.309	88.88
660.512	103.88
660.716	93.88
660.919	100.88
661.123	103.88
661.326	96.88
661.53	89.88
661.733	82.88
661.936	84.88
662.14	78.88
662.343	80.88
662.546	79.88
662.75	86.88
662.953	89.88
663.156	85.88
663.36	87.88
663.563	90.88
663.766	80.88
663.969	83.88
664.173	74.88
664.376	74.88
664.579	79.88
664.782	78.88
664.985	84.88
665.188	71.88
665.391	65.88
665.594	87.88
665.797	74.88
666	90.88
666.203	78.88
666.406	81.88
666.609	83.88
666.812	88.88
667.015	69.88
667.218	97.88
667.421	78.88
667.624	85.88
667.827	87.88
668.03	66.88
668.232	85.88
668.435	98.88
668.638	79.88
668.841	91.88
669.043	87.88
669.246	94.88
669.449	86.88
669.651	94.88
669.854	81.88
670.057	78.88
670.259	83.88
670.462	75.88
670.665	75.88
670.867	68.88
671.07	92.88
671.272	78.88
671.475	89.88
671.677	93.88
671.88	99.88
672.082	83.88
672.284	86.88
672.487	74.88
672.689	81.88
672.892	80.88
