Data from 1979.PennyLincolnUp.Lamp.En5.5.200Scan.071719.P1_HRD10591_16-18-23-863.txt Node
Date: Thu Jul 18 16:18:23 EDT 2019
User: cochatt
Spectrometer: HR+D1059
Trigger mode: 1
Integration Time (sec): 1.000000E-1
Scans to average: 1
Electric dark correction enabled: true
Nonlinearity correction enabled: false
Boxcar width: 0
XAxis mode: Wavelengths
Number of Pixels in Spectrum: 2048
>>>>>Begin Spectral Data<<<<<
223.165	-17.31
223.4	-17.31
223.635	-17.31
223.869	-6.31
224.104	-14.31
224.338	-29.31
224.573	-17.31
224.808	-21.31
225.042	2.69
225.277	-4.31
225.511	0.69
225.746	9.69
225.98	2.69
226.215	-0.31
226.449	-1.31
226.683	25.69
226.918	29.69
227.152	40.69
227.387	32.69
227.621	33.69
227.856	51.69
228.09	37.69
228.324	36.69
228.559	53.69
228.793	81.69
229.027	93.69
229.262	84.69
229.496	112.69
229.73	110.69
229.964	120.69
230.199	112.69
230.433	110.69
230.667	109.69
230.901	110.69
231.136	97.69
231.37	103.69
231.604	94.69
231.838	116.69
232.072	112.69
232.306	110.69
232.541	96.69
232.775	113.69
233.009	110.69
233.243	120.69
233.477	106.69
233.711	108.69
233.945	114.69
234.179	116.69
234.413	111.69
234.647	108.69
234.881	117.69
235.115	114.69
235.349	105.69
235.583	109.69
235.817	118.69
236.051	117.69
236.285	116.69
236.519	109.69
236.753	97.69
236.987	120.69
237.221	159.69
237.455	196.69
237.689	164.69
237.922	121.69
238.156	128.69
238.39	111.69
238.624	108.69
238.858	111.69
239.091	125.69
239.325	111.69
239.559	118.69
239.793	121.69
240.027	115.69
240.26	126.69
240.494	156.69
240.728	128.69
240.961	136.69
241.195	149.69
241.429	124.69
241.662	129.69
241.896	119.69
242.13	113.69
242.363	113.69
242.597	138.69
242.83	125.69
243.064	124.69
243.298	130.69
243.531	125.69
243.765	137.69
243.998	135.69
244.232	136.69
244.465	134.69
244.699	137.69
244.932	139.69
245.166	142.69
245.399	127.69
245.633	141.69
245.866	136.69
246.099	122.69
246.333	141.69
246.566	161.69
246.8	137.69
247.033	138.69
247.266	146.69
247.5	153.69
247.733	158.69
247.966	166.69
248.2	168.69
248.433	157.69
248.666	164.69
248.899	169.69
249.133	166.69
249.366	180.69
249.599	185.69
249.832	169.69
250.066	150.69
250.299	166.69
250.532	174.69
250.765	174.69
250.998	186.69
251.231	201.69
251.465	186.69
251.698	167.69
251.931	172.69
252.164	172.69
252.397	181.69
252.63	166.69
252.863	173.69
253.096	195.69
253.329	191.69
253.562	209.69
253.795	217.69
254.028	217.69
254.261	201.69
254.494	193.69
254.727	223.69
254.96	232.69
255.193	224.69
255.426	201.69
255.659	200.69
255.892	181.69
256.124	202.69
256.357	222.69
256.59	196.69
256.823	189.69
257.056	182.69
257.289	172.69
257.521	169.69
257.754	196.69
257.987	180.69
258.22	194.69
258.452	177.69
258.685	206.69
258.918	181.69
259.151	190.69
259.383	206.69
259.616	214.69
259.849	201.69
260.081	202.69
260.314	217.69
260.547	216.69
260.779	190.69
261.012	199.69
261.244	201.69
261.477	208.69
261.71	197.69
261.942	195.69
262.175	207.69
262.407	202.69
262.64	196.69
262.872	195.69
263.105	190.69
263.337	203.69
263.57	212.69
263.802	194.69
264.035	209.69
264.267	198.69
264.499	206.69
264.732	177.69
264.964	197.69
265.197	193.69
265.429	204.69
265.661	191.69
265.894	186.69
266.126	192.69
266.358	202.69
266.591	206.69
266.823	205.69
267.055	197.69
267.287	213.69
267.52	197.69
267.752	202.69
267.984	209.69
268.216	198.69
268.448	193.69
268.681	207.69
268.913	220.69
269.145	223.69
269.377	233.69
269.609	237.69
269.841	220.69
270.073	225.69
270.306	254.69
270.538	279.69
270.77	280.69
271.002	242.69
271.234	233.69
271.466	238.69
271.698	268.69
271.93	263.69
272.162	262.69
272.394	250.69
272.626	256.69
272.858	249.69
273.09	242.69
273.322	245.69
273.553	229.69
273.785	237.69
274.017	230.69
274.249	242.69
274.481	248.69
274.713	222.69
274.945	246.69
275.176	231.69
275.408	223.69
275.64	230.69
275.872	222.69
276.104	238.69
276.335	236.69
276.567	233.69
276.799	243.69
277.031	265.69
277.262	282.69
277.494	288.69
277.726	269.69
277.957	273.69
278.189	256.69
278.421	260.69
278.652	248.69
278.884	232.69
279.115	229.69
279.347	236.69
279.579	246.69
279.81	239.69
280.042	235.69
280.273	250.69
280.505	250.69
280.736	255.69
280.968	230.69
281.199	243.69
281.431	245.69
281.662	270.69
281.894	265.69
282.125	272.69
282.356	272.69
282.588	256.69
282.819	260.69
283.051	262.69
283.282	248.69
283.513	242.69
283.745	265.69
283.976	260.69
284.207	254.69
284.439	247.69
284.67	271.69
284.901	247.69
285.132	270.69
285.364	266.69
285.595	258.69
285.826	265.69
286.057	274.69
286.288	255.69
286.52	250.69
286.751	268.69
286.982	254.69
287.213	276.69
287.444	285.69
287.675	255.69
287.906	260.69
288.138	272.69
288.369	268.69
288.6	290.69
288.831	274.69
289.062	267.69
289.293	281.69
289.524	264.69
289.755	281.69
289.986	263.69
290.217	255.69
290.448	265.69
290.679	287.69
290.91	258.69
291.141	264.69
291.371	279.69
291.602	283.69
291.833	276.69
292.064	263.69
292.295	281.69
292.526	278.69
292.757	275.69
292.987	273.69
293.218	281.69
293.449	275.69
293.68	276.69
293.91	261.69
294.141	268.69
294.372	276.69
294.603	278.69
294.833	291.69
295.064	271.69
295.295	277.69
295.525	269.69
295.756	278.69
295.987	286.69
296.217	295.69
296.448	313.69
296.679	281.69
296.909	286.69
297.14	276.69
297.37	265.69
297.601	276.69
297.831	270.69
298.062	293.69
298.292	295.69
298.523	291.69
298.753	286.69
298.984	276.69
299.214	278.69
299.445	303.69
299.675	292.69
299.905	304.69
300.136	277.69
300.366	302.69
300.597	291.69
300.827	289.69
301.057	307.69
301.288	304.69
301.518	302.69
301.748	315.69
301.979	312.69
302.209	316.69
302.439	309.69
302.669	316.69
302.9	308.69
303.13	298.69
303.36	307.69
303.59	319.69
303.82	311.69
304.051	319.69
304.281	302.69
304.511	312.69
304.741	293.69
304.971	318.69
305.201	294.69
305.431	295.69
305.661	315.69
305.891	318.69
306.121	320.69
306.352	319.69
306.582	305.69
306.812	316.69
307.042	319.69
307.272	316.69
307.502	307.69
307.731	322.69
307.961	303.69
308.191	324.69
308.421	304.69
308.651	312.69
308.881	319.69
309.111	308.69
309.341	307.69
309.571	315.69
309.8	329.69
310.03	334.69
310.26	334.69
310.49	332.69
310.72	348.69
310.949	366.69
311.179	369.69
311.409	346.69
311.639	349.69
311.868	344.69
312.098	332.69
312.328	358.69
312.557	375.69
312.787	364.69
313.017	361.69
313.246	374.69
313.476	337.69
313.706	339.69
313.935	354.69
314.165	344.69
314.394	360.69
314.624	361.69
314.853	355.69
315.083	352.69
315.312	347.69
315.542	350.69
315.771	350.69
316.001	328.69
316.23	334.69
316.46	365.69
316.689	368.69
316.919	377.69
317.148	367.69
317.377	358.69
317.607	358.69
317.836	352.69
318.065	352.69
318.295	345.69
318.524	358.69
318.753	364.69
318.983	340.69
319.212	352.69
319.441	331.69
319.67	371.69
319.9	376.69
320.129	368.69
320.358	363.69
320.587	338.69
320.816	373.69
321.046	374.69
321.275	370.69
321.504	360.69
321.733	341.69
321.962	370.69
322.191	391.69
322.42	377.69
322.649	418.69
322.878	408.69
323.108	406.69
323.337	428.69
323.566	446.69
323.795	465.69
324.024	483.69
324.253	600.69
324.482	841.69
324.71	1280.69
324.939	1959.69
325.168	1684.69
325.397	828.69
325.626	564.69
325.855	523.69
326.084	448.69
326.313	455.69
326.542	461.69
326.77	486.69
326.999	571.69
327.228	776.69
327.457	1196.69
327.686	1490.69
327.914	950.69
328.143	624.69
328.372	537.69
328.6	512.69
328.829	496.69
329.058	504.69
329.287	508.69
329.515	478.69
329.744	456.69
329.972	440.69
330.201	470.69
330.43	494.69
330.658	522.69
330.887	535.69
331.115	544.69
331.344	495.69
331.572	472.69
331.801	451.69
332.03	469.69
332.258	418.69
332.486	427.69
332.715	420.69
332.943	440.69
333.172	440.69
333.4	419.69
333.629	440.69
333.857	455.69
334.085	468.69
334.314	459.69
334.542	494.69
334.771	510.69
334.999	457.69
335.227	446.69
335.455	454.69
335.684	410.69
335.912	431.69
336.14	406.69
336.369	417.69
336.597	446.69
336.825	429.69
337.053	450.69
337.281	419.69
337.51	413.69
337.738	414.69
337.966	419.69
338.194	443.69
338.422	425.69
338.65	422.69
338.878	441.69
339.106	399.69
339.334	404.69
339.562	402.69
339.79	416.69
340.018	407.69
340.246	407.69
340.474	409.69
340.702	425.69
340.93	394.69
341.158	404.69
341.386	405.69
341.614	411.69
341.842	407.69
342.07	393.69
342.298	411.69
342.526	404.69
342.754	406.69
342.981	402.69
343.209	394.69
343.437	409.69
343.665	404.69
343.893	425.69
344.12	441.69
344.348	428.69
344.576	407.69
344.804	417.69
345.031	410.69
345.259	422.69
345.487	414.69
345.714	417.69
345.942	391.69
346.17	396.69
346.397	402.69
346.625	385.69
346.853	398.69
347.08	393.69
347.308	391.69
347.535	394.69
347.763	383.69
347.99	393.69
348.218	405.69
348.445	404.69
348.673	393.69
348.9	404.69
349.128	395.69
349.355	386.69
349.583	405.69
349.81	387.69
350.037	380.69
350.265	397.69
350.492	387.69
350.72	409.69
350.947	402.69
351.174	401.69
351.402	405.69
351.629	416.69
351.856	398.69
352.083	411.69
352.311	421.69
352.538	384.69
352.765	409.69
352.992	401.69
353.22	400.69
353.447	419.69
353.674	394.69
353.901	392.69
354.128	386.69
354.355	367.69
354.583	388.69
354.81	373.69
355.037	378.69
355.264	375.69
355.491	354.69
355.718	370.69
355.945	376.69
356.172	375.69
356.399	387.69
356.626	374.69
356.853	376.69
357.08	357.69
357.307	367.69
357.534	364.69
357.761	360.69
357.988	371.69
358.215	398.69
358.441	385.69
358.668	376.69
358.895	376.69
359.122	380.69
359.349	379.69
359.576	391.69
359.802	419.69
360.029	437.69
360.256	439.69
360.483	431.69
360.709	419.69
360.936	419.69
361.163	412.69
361.39	402.69
361.616	388.69
361.843	393.69
362.07	402.69
362.296	388.69
362.523	400.69
362.749	382.69
362.976	410.69
363.203	369.69
363.429	400.69
363.656	395.69
363.882	364.69
364.109	388.69
364.335	382.69
364.562	395.69
364.788	380.69
365.015	382.69
365.241	384.69
365.468	374.69
365.694	386.69
365.92	387.69
366.147	400.69
366.373	388.69
366.599	373.69
366.826	384.69
367.052	384.69
367.278	398.69
367.505	402.69
367.731	380.69
367.957	388.69
368.184	389.69
368.41	392.69
368.636	392.69
368.862	394.69
369.089	415.69
369.315	399.69
369.541	387.69
369.767	404.69
369.993	395.69
370.219	392.69
370.445	394.69
370.672	394.69
370.898	406.69
371.124	378.69
371.35	384.69
371.576	375.69
371.802	391.69
372.028	414.69
372.254	394.69
372.48	393.69
372.706	377.69
372.932	400.69
373.158	383.69
373.384	404.69
373.61	404.69
373.835	395.69
374.061	410.69
374.287	405.69
374.513	421.69
374.739	400.69
374.965	414.69
375.191	414.69
375.416	409.69
375.642	403.69
375.868	402.69
376.094	402.69
376.319	393.69
376.545	401.69
376.771	422.69
376.997	398.69
377.222	388.69
377.448	375.69
377.674	392.69
377.899	377.69
378.125	378.69
378.35	384.69
378.576	413.69
378.802	392.69
379.027	388.69
379.253	379.69
379.478	396.69
379.704	399.69
379.929	378.69
380.155	390.69
380.38	368.69
380.606	399.69
380.831	395.69
381.057	398.69
381.282	400.69
381.507	416.69
381.733	388.69
381.958	401.69
382.184	401.69
382.409	412.69
382.634	415.69
382.86	415.69
383.085	419.69
383.31	411.69
383.535	398.69
383.761	416.69
383.986	421.69
384.211	429.69
384.436	438.69
384.662	428.69
384.887	443.69
385.112	418.69
385.337	431.69
385.562	430.69
385.787	444.69
386.013	464.69
386.238	467.69
386.463	456.69
386.688	445.69
386.913	448.69
387.138	439.69
387.363	455.69
387.588	453.69
387.813	437.69
388.038	467.69
388.263	441.69
388.488	431.69
388.713	442.69
388.938	426.69
389.163	453.69
389.387	455.69
389.612	429.69
389.837	451.69
390.062	440.69
390.287	452.69
390.512	463.69
390.736	451.69
390.961	445.69
391.186	447.69
391.411	453.69
391.636	439.69
391.86	469.69
392.085	461.69
392.31	484.69
392.534	452.69
392.759	446.69
392.984	454.69
393.208	467.69
393.433	469.69
393.658	457.69
393.882	456.69
394.107	450.69
394.331	468.69
394.556	449.69
394.78	455.69
395.005	467.69
395.229	448.69
395.454	458.69
395.678	473.69
395.903	479.69
396.127	485.69
396.352	523.69
396.576	486.69
396.801	476.69
397.025	490.69
397.249	480.69
397.474	496.69
397.698	501.69
397.922	522.69
398.147	489.69
398.371	529.69
398.595	507.69
398.82	496.69
399.044	550.69
399.268	561.69
399.492	577.69
399.717	635.69
399.941	636.69
400.165	679.69
400.389	654.69
400.613	599.69
400.837	580.69
401.062	553.69
401.286	540.69
401.51	541.69
401.734	513.69
401.958	529.69
402.182	540.69
402.406	561.69
402.63	548.69
402.854	550.69
403.078	552.69
403.302	557.69
403.526	549.69
403.75	582.69
403.974	528.69
404.198	549.69
404.422	557.69
404.645	541.69
404.869	570.69
405.093	578.69
405.317	626.69
405.541	644.69
405.765	601.69
405.988	597.69
406.212	578.69
406.436	594.69
406.66	608.69
406.883	580.69
407.107	623.69
407.331	661.69
407.555	703.69
407.778	735.69
408.002	692.69
408.226	637.69
408.449	593.69
408.673	588.69
408.896	624.69
409.12	681.69
409.344	629.69
409.567	609.69
409.791	589.69
410.014	575.69
410.238	560.69
410.461	550.69
410.685	571.69
410.908	573.69
411.132	610.69
411.355	639.69
411.578	596.69
411.802	558.69
412.025	548.69
412.249	578.69
412.472	595.69
412.695	636.69
412.919	601.69
413.142	568.69
413.365	538.69
413.589	549.69
413.812	528.69
414.035	529.69
414.258	540.69
414.482	549.69
414.705	541.69
414.928	540.69
415.151	538.69
415.374	521.69
415.597	518.69
415.821	506.69
416.044	536.69
416.267	523.69
416.49	532.69
416.713	535.69
416.936	521.69
417.159	520.69
417.382	520.69
417.605	517.69
417.828	544.69
418.051	540.69
418.274	542.69
418.497	494.69
418.72	551.69
418.943	526.69
419.166	519.69
419.389	581.69
419.611	570.69
419.834	554.69
420.057	534.69
420.28	549.69
420.503	534.69
420.726	537.69
420.948	547.69
421.171	576.69
421.394	617.69
421.617	559.69
421.839	553.69
422.062	539.69
422.285	549.69
422.507	605.69
422.73	662.69
422.953	674.69
423.175	591.69
423.398	564.69
423.621	542.69
423.843	595.69
424.066	582.69
424.288	581.69
424.511	587.69
424.733	636.69
424.956	715.69
425.178	688.69
425.401	677.69
425.623	708.69
425.846	633.69
426.068	573.69
426.291	558.69
426.513	554.69
426.735	574.69
426.958	631.69
427.18	670.69
427.402	795.69
427.625	878.69
427.847	744.69
428.069	676.69
428.292	636.69
428.514	569.69
428.736	558.69
428.958	549.69
429.181	513.69
429.403	536.69
429.625	540.69
429.847	566.69
430.069	621.69
430.292	623.69
430.514	536.69
430.736	516.69
430.958	514.69
431.18	537.69
431.402	529.69
431.624	519.69
431.846	511.69
432.068	521.69
432.29	529.69
432.512	512.69
432.734	508.69
432.956	525.69
433.178	523.69
433.4	523.69
433.622	526.69
433.844	527.69
434.066	501.69
434.287	547.69
434.509	499.69
434.731	536.69
434.953	537.69
435.175	579.69
435.397	565.69
435.618	577.69
435.84	604.69
436.062	669.69
436.284	749.69
436.505	631.69
436.727	559.69
436.949	566.69
437.17	561.69
437.392	553.69
437.614	540.69
437.835	567.69
438.057	650.69
438.278	745.69
438.5	726.69
438.721	818.69
438.943	776.69
439.165	635.69
439.386	568.69
439.608	585.69
439.829	536.69
440.05	598.69
440.272	632.69
440.493	630.69
440.715	565.69
440.936	542.69
441.158	560.69
441.379	544.69
441.6	554.69
441.822	587.69
442.043	608.69
442.264	665.69
442.486	712.69
442.707	614.69
442.928	598.69
443.149	603.69
443.371	646.69
443.592	652.69
443.813	740.69
444.034	761.69
444.255	661.69
444.476	595.69
444.698	603.69
444.919	581.69
445.14	700.69
445.361	642.69
445.582	628.69
445.803	661.69
446.024	765.69
446.245	781.69
446.466	681.69
446.687	600.69
446.908	566.69
447.129	547.69
447.35	530.69
447.571	524.69
447.792	510.69
448.013	511.69
448.234	525.69
448.455	567.69
448.675	692.69
448.896	805.69
449.117	649.69
449.338	649.69
449.559	735.69
449.779	846.69
450	672.69
450.221	566.69
450.442	533.69
450.662	518.69
450.883	502.69
451.104	534.69
451.324	527.69
451.545	507.69
451.766	489.69
451.986	496.69
452.207	480.69
452.428	502.69
452.648	480.69
452.869	465.69
453.089	461.69
453.31	514.69
453.53	485.69
453.751	486.69
453.971	479.69
454.192	502.69
454.412	492.69
454.633	487.69
454.853	477.69
455.073	464.69
455.294	489.69
455.514	542.69
455.734	537.69
455.955	485.69
456.175	474.69
456.395	439.69
456.616	454.69
456.836	453.69
457.056	458.69
457.276	437.69
457.497	454.69
457.717	444.69
457.937	461.69
458.157	477.69
458.377	458.69
458.598	462.69
458.818	555.69
459.038	618.69
459.258	620.69
459.478	563.69
459.698	536.69
459.918	540.69
460.138	515.69
460.358	531.69
460.578	536.69
460.798	543.69
461.018	537.69
461.238	520.69
461.458	529.69
461.678	527.69
461.898	547.69
462.118	518.69
462.338	558.69
462.558	554.69
462.777	577.69
462.997	606.69
463.217	621.69
463.437	615.69
463.657	605.69
463.876	567.69
464.096	598.69
464.316	580.69
464.536	594.69
464.755	596.69
464.975	580.69
465.195	615.69
465.414	674.69
465.634	605.69
465.854	548.69
466.073	552.69
466.293	502.69
466.512	519.69
466.732	503.69
466.951	511.69
467.171	489.69
467.391	518.69
467.61	517.69
467.829	527.69
468.049	489.69
468.268	491.69
468.488	511.69
468.707	493.69
468.927	498.69
469.146	480.69
469.365	484.69
469.585	485.69
469.804	466.69
470.023	510.69
470.243	501.69
470.462	492.69
470.681	534.69
470.901	523.69
471.12	484.69
471.339	523.69
471.558	496.69
471.777	509.69
471.997	479.69
472.216	512.69
472.435	531.69
472.654	527.69
472.873	497.69
473.092	498.69
473.311	492.69
473.53	490.69
473.749	493.69
473.968	542.69
474.187	608.69
474.406	621.69
474.625	548.69
474.844	531.69
475.063	492.69
475.282	520.69
475.501	496.69
475.72	505.69
475.939	519.69
476.158	509.69
476.377	496.69
476.596	522.69
476.814	517.69
477.033	521.69
477.252	542.69
477.471	553.69
477.69	540.69
477.908	538.69
478.127	538.69
478.346	571.69
478.564	560.69
478.783	555.69
479.002	571.69
479.22	561.69
479.439	598.69
479.658	626.69
479.876	610.69
480.095	613.69
480.313	633.69
480.532	633.69
480.751	590.69
480.969	625.69
481.188	645.69
481.406	688.69
481.624	626.69
481.843	614.69
482.061	597.69
482.28	606.69
482.498	572.69
482.717	579.69
482.935	593.69
483.153	584.69
483.372	586.69
483.59	576.69
483.808	594.69
484.027	603.69
484.245	580.69
484.463	592.69
484.681	596.69
484.9	577.69
485.118	630.69
485.336	603.69
485.554	605.69
485.772	608.69
485.99	595.69
486.209	621.69
486.427	608.69
486.645	624.69
486.863	620.69
487.081	666.69
487.299	626.69
487.517	620.69
487.735	616.69
487.953	628.69
488.171	615.69
488.389	614.69
488.607	610.69
488.825	628.69
489.043	631.69
489.261	632.69
489.479	632.69
489.696	613.69
489.914	629.69
490.132	654.69
490.35	650.69
490.568	649.69
490.786	652.69
491.003	694.69
491.221	687.69
491.439	702.69
491.657	681.69
491.874	694.69
492.092	697.69
492.31	703.69
492.527	704.69
492.745	698.69
492.963	721.69
493.18	708.69
493.398	722.69
493.615	723.69
493.833	730.69
494.05	730.69
494.268	718.69
494.485	714.69
494.703	729.69
494.92	733.69
495.138	740.69
495.355	760.69
495.573	720.69
495.79	751.69
496.008	753.69
496.225	744.69
496.442	724.69
496.66	751.69
496.877	738.69
497.094	756.69
497.312	756.69
497.529	748.69
497.746	823.69
497.963	818.69
498.181	815.69
498.398	832.69
498.615	805.69
498.832	887.69
499.049	884.69
499.267	896.69
499.484	940.69
499.701	993.69
499.918	1026.69
500.135	1091.69
500.352	1158.69
500.569	1168.69
500.786	1173.69
501.003	1168.69
501.22	1130.69
501.437	1052.69
501.654	1020.69
501.871	999.69
502.088	928.69
502.305	925.69
502.522	908.69
502.739	849.69
502.956	840.69
503.172	817.69
503.389	788.69
503.606	789.69
503.823	797.69
504.04	774.69
504.256	799.69
504.473	796.69
504.69	771.69
504.907	767.69
505.123	764.69
505.34	740.69
505.557	721.69
505.773	717.69
505.99	708.69
506.207	696.69
506.423	709.69
506.64	660.69
506.856	679.69
507.073	672.69
507.289	690.69
507.506	701.69
507.722	660.69
507.939	718.69
508.155	675.69
508.372	648.69
508.588	678.69
508.805	632.69
509.021	642.69
509.238	662.69
509.454	677.69
509.67	670.69
509.887	649.69
510.103	672.69
510.319	657.69
510.536	754.69
510.752	1170.69
510.968	1008.69
511.184	668.69
511.401	631.69
511.617	626.69
511.833	628.69
512.049	616.69
512.265	621.69
512.481	612.69
512.698	615.69
512.914	610.69
513.13	613.69
513.346	620.69
513.562	613.69
513.778	620.69
513.994	632.69
514.21	640.69
514.426	653.69
514.642	689.69
514.858	723.69
515.074	742.69
515.29	885.69
515.506	1215.69
515.721	1036.69
515.937	760.69
516.153	686.69
516.369	660.69
516.585	665.69
516.801	653.69
517.016	677.69
517.232	707.69
517.448	684.69
517.664	681.69
517.879	663.69
518.095	705.69
518.311	674.69
518.527	669.69
518.742	661.69
518.958	647.69
519.173	638.69
519.389	654.69
519.605	662.69
519.82	640.69
520.036	633.69
520.251	662.69
520.467	677.69
520.682	668.69
520.898	681.69
521.113	707.69
521.329	720.69
521.544	780.69
521.76	974.69
521.975	1589.69
522.19	1576.69
522.406	896.69
522.621	683.69
522.836	640.69
523.052	631.69
523.267	605.69
523.482	601.69
523.698	579.69
523.913	572.69
524.128	584.69
524.343	572.69
524.559	548.69
524.774	541.69
524.989	575.69
525.204	554.69
525.419	570.69
525.634	576.69
525.849	544.69
526.064	558.69
526.28	547.69
526.495	535.69
526.71	534.69
526.925	538.69
527.14	519.69
527.355	540.69
527.57	523.69
527.785	545.69
527.999	520.69
528.214	528.69
528.429	530.69
528.644	529.69
528.859	532.69
529.074	522.69
529.289	561.69
529.503	631.69
529.718	576.69
529.933	540.69
530.148	550.69
530.363	535.69
530.577	520.69
530.792	511.69
531.007	533.69
531.221	517.69
531.436	506.69
531.651	501.69
531.865	506.69
532.08	500.69
532.295	502.69
532.509	496.69
532.724	489.69
532.938	507.69
533.153	526.69
533.367	510.69
533.582	508.69
533.796	495.69
534.011	489.69
534.225	505.69
534.44	489.69
534.654	491.69
534.868	495.69
535.083	476.69
535.297	501.69
535.511	501.69
535.726	533.69
535.94	510.69
536.154	505.69
536.369	489.69
536.583	487.69
536.797	493.69
537.011	488.69
537.225	505.69
537.44	493.69
537.654	468.69
537.868	485.69
538.082	484.69
538.296	489.69
538.51	478.69
538.724	492.69
538.938	478.69
539.153	500.69
539.367	488.69
539.581	485.69
539.795	496.69
540.009	475.69
540.222	483.69
540.436	470.69
540.65	477.69
540.864	470.69
541.078	484.69
541.292	483.69
541.506	481.69
541.72	502.69
541.934	495.69
542.147	490.69
542.361	501.69
542.575	456.69
542.789	471.69
543.002	484.69
543.216	486.69
543.43	487.69
543.644	486.69
543.857	471.69
544.071	496.69
544.285	481.69
544.498	483.69
544.712	486.69
544.925	480.69
545.139	471.69
545.352	499.69
545.566	495.69
545.779	472.69
545.993	481.69
546.206	479.69
546.42	467.69
546.633	469.69
546.847	479.69
547.06	456.69
547.274	465.69
547.487	463.69
547.7	454.69
547.914	475.69
548.127	484.69
548.34	467.69
548.554	476.69
548.767	465.69
548.98	476.69
549.193	460.69
549.407	457.69
549.62	487.69
549.833	470.69
550.046	461.69
550.259	473.69
550.473	450.69
550.686	453.69
550.899	482.69
551.112	466.69
551.325	465.69
551.538	458.69
551.751	446.69
551.964	447.69
552.177	455.69
552.39	462.69
552.603	497.69
552.816	464.69
553.029	453.69
553.242	462.69
553.455	468.69
553.667	481.69
553.88	467.69
554.093	491.69
554.306	458.69
554.519	473.69
554.732	466.69
554.944	450.69
555.157	436.69
555.37	445.69
555.583	433.69
555.795	452.69
556.008	440.69
556.221	429.69
556.433	420.69
556.646	426.69
556.859	426.69
557.071	430.69
557.284	423.69
557.496	442.69
557.709	419.69
557.921	431.69
558.134	411.69
558.346	404.69
558.559	412.69
558.771	418.69
558.984	428.69
559.196	412.69
559.409	408.69
559.621	429.69
559.833	406.69
560.046	416.69
560.258	439.69
560.47	438.69
560.683	400.69
560.895	421.69
561.107	438.69
561.32	402.69
561.532	421.69
561.744	415.69
561.956	430.69
562.168	404.69
562.381	424.69
562.593	406.69
562.805	430.69
563.017	433.69
563.229	392.69
563.441	409.69
563.653	413.69
563.865	418.69
564.077	414.69
564.289	424.69
564.501	429.69
564.713	430.69
564.925	454.69
565.137	471.69
565.349	462.69
565.561	476.69
565.773	461.69
565.985	480.69
566.197	490.69
566.408	474.69
566.62	513.69
566.832	504.69
567.044	553.69
567.255	522.69
567.467	529.69
567.679	557.69
567.891	584.69
568.102	573.69
568.314	562.69
568.526	537.69
568.737	497.69
568.949	485.69
569.161	476.69
569.372	444.69
569.584	446.69
569.795	456.69
570.007	435.69
570.218	434.69
570.43	453.69
570.641	419.69
570.853	398.69
571.064	424.69
571.276	421.69
571.487	409.69
571.698	407.69
571.91	406.69
572.121	426.69
572.333	397.69
572.544	377.69
572.755	362.69
572.966	374.69
573.178	380.69
573.389	370.69
573.6	370.69
573.811	367.69
574.023	370.69
574.234	351.69
574.445	360.69
574.656	368.69
574.867	378.69
575.078	360.69
575.289	359.69
575.501	359.69
575.712	350.69
575.923	358.69
576.134	347.69
576.345	352.69
576.556	349.69
576.767	325.69
576.978	351.69
577.188	356.69
577.399	342.69
577.61	337.69
577.821	341.69
578.032	338.69
578.243	361.69
578.454	587.69
578.665	456.69
578.875	364.69
579.086	349.69
579.297	336.69
579.508	337.69
579.718	338.69
579.929	324.69
580.14	297.69
580.35	325.69
580.561	333.69
580.772	340.69
580.982	322.69
581.193	325.69
581.403	333.69
581.614	309.69
581.825	325.69
582.035	320.69
582.246	327.69
582.456	303.69
582.667	322.69
582.877	328.69
583.087	319.69
583.298	318.69
583.508	328.69
583.719	322.69
583.929	310.69
584.139	329.69
584.35	305.69
584.56	308.69
584.77	319.69
584.981	310.69
585.191	303.69
585.401	313.69
585.611	297.69
585.821	322.69
586.032	314.69
586.242	319.69
586.452	327.69
586.662	305.69
586.872	317.69
587.082	310.69
587.292	311.69
587.502	326.69
587.713	309.69
587.923	302.69
588.133	304.69
588.343	312.69
588.553	321.69
588.762	296.69
588.972	316.69
589.182	349.69
589.392	352.69
589.602	318.69
589.812	335.69
590.022	322.69
590.232	314.69
590.441	315.69
590.651	307.69
590.861	301.69
591.071	308.69
591.281	322.69
591.49	323.69
591.7	312.69
591.91	319.69
592.119	318.69
592.329	309.69
592.539	336.69
592.748	333.69
592.958	349.69
593.167	345.69
593.377	317.69
593.587	350.69
593.796	352.69
594.006	337.69
594.215	346.69
594.424	346.69
594.634	326.69
594.843	337.69
595.053	339.69
595.262	321.69
595.472	307.69
595.681	309.69
595.89	295.69
596.1	296.69
596.309	315.69
596.518	298.69
596.727	314.69
596.937	303.69
597.146	295.69
597.355	293.69
597.564	290.69
597.774	288.69
597.983	294.69
598.192	290.69
598.401	287.69
598.61	274.69
598.819	278.69
599.028	285.69
599.237	286.69
599.446	275.69
599.655	279.69
599.864	287.69
600.073	285.69
600.282	281.69
600.491	271.69
600.7	279.69
600.909	276.69
601.118	264.69
601.327	266.69
601.536	261.69
601.745	284.69
601.953	261.69
602.162	265.69
602.371	277.69
602.58	255.69
602.789	255.69
602.997	246.69
603.206	244.69
603.415	269.69
603.623	270.69
603.832	259.69
604.041	266.69
604.249	257.69
604.458	273.69
604.666	255.69
604.875	248.69
605.084	259.69
605.292	255.69
605.501	254.69
605.709	247.69
605.918	244.69
606.126	255.69
606.334	239.69
606.543	251.69
606.751	239.69
606.96	259.69
607.168	251.69
607.376	238.69
607.585	232.69
607.793	249.69
608.001	242.69
608.21	242.69
608.418	253.69
608.626	240.69
608.834	244.69
609.043	259.69
609.251	242.69
609.459	246.69
609.667	247.69
609.875	258.69
610.083	248.69
610.291	272.69
610.499	259.69
610.707	269.69
610.916	261.69
611.124	250.69
611.332	249.69
611.54	262.69
611.748	253.69
611.955	265.69
612.163	240.69
612.371	235.69
612.579	252.69
612.787	236.69
612.995	238.69
613.203	263.69
613.411	231.69
613.618	249.69
613.826	218.69
614.034	253.69
614.242	231.69
614.449	244.69
614.657	226.69
614.865	246.69
615.072	244.69
615.28	261.69
615.488	242.69
615.695	252.69
615.903	272.69
616.111	226.69
616.318	232.69
616.526	244.69
616.733	252.69
616.941	239.69
617.148	239.69
617.356	243.69
617.563	253.69
617.771	253.69
617.978	220.69
618.185	222.69
618.393	239.69
618.6	252.69
618.807	253.69
619.015	242.69
619.222	253.69
619.429	239.69
619.637	249.69
619.844	221.69
620.051	238.69
620.258	212.69
620.466	228.69
620.673	242.69
620.88	220.69
621.087	225.69
621.294	225.69
621.501	243.69
621.708	240.69
621.915	224.69
622.122	207.69
622.329	254.69
622.536	243.69
622.743	239.69
622.95	233.69
623.157	227.69
623.364	210.69
623.571	228.69
623.778	198.69
623.985	209.69
624.192	216.69
624.399	218.69
624.606	201.69
624.812	210.69
625.019	218.69
625.226	226.69
625.433	218.69
625.639	219.69
625.846	211.69
626.053	213.69
626.259	214.69
626.466	209.69
626.673	210.69
626.879	214.69
627.086	208.69
627.293	219.69
627.499	200.69
627.706	222.69
627.912	202.69
628.119	212.69
628.325	213.69
628.532	200.69
628.738	205.69
628.945	213.69
629.151	211.69
629.357	200.69
629.564	208.69
629.77	211.69
629.976	204.69
630.183	197.69
630.389	188.69
630.595	215.69
630.802	209.69
631.008	192.69
631.214	187.69
631.42	212.69
631.627	211.69
631.833	188.69
632.039	190.69
632.245	191.69
632.451	209.69
632.657	197.69
632.863	191.69
633.069	175.69
633.275	200.69
633.481	179.69
633.688	183.69
633.893	200.69
634.099	176.69
634.305	190.69
634.511	176.69
634.717	185.69
634.923	185.69
635.129	181.69
635.335	178.69
635.541	180.69
635.747	198.69
635.952	175.69
636.158	189.69
636.364	192.69
636.57	182.69
636.775	188.69
636.981	185.69
637.187	181.69
637.392	169.69
637.598	189.69
637.804	204.69
638.009	167.69
638.215	198.69
638.421	189.69
638.626	186.69
638.832	166.69
639.037	172.69
639.243	182.69
639.448	176.69
639.654	173.69
639.859	172.69
640.065	182.69
640.27	176.69
640.475	155.69
640.681	166.69
640.886	151.69
641.091	168.69
641.297	169.69
641.502	175.69
641.707	167.69
641.913	176.69
642.118	165.69
642.323	184.69
642.528	167.69
642.733	170.69
642.939	166.69
643.144	173.69
643.349	167.69
643.554	188.69
643.759	169.69
643.964	182.69
644.169	179.69
644.374	185.69
644.579	152.69
644.784	162.69
644.989	180.69
645.194	166.69
645.399	171.69
645.604	170.69
645.809	158.69
646.014	162.69
646.219	167.69
646.423	164.69
646.628	166.69
646.833	168.69
647.038	167.69
647.243	178.69
647.447	180.69
647.652	168.69
647.857	180.69
648.062	158.69
648.266	162.69
648.471	173.69
648.676	168.69
648.88	152.69
649.085	164.69
649.289	162.69
649.494	177.69
649.698	177.69
649.903	173.69
650.107	183.69
650.312	172.69
650.516	162.69
650.721	156.69
650.925	138.69
651.13	148.69
651.334	148.69
651.539	144.69
651.743	153.69
651.947	150.69
652.152	150.69
652.356	153.69
652.56	151.69
652.764	156.69
652.969	154.69
653.173	140.69
653.377	140.69
653.581	136.69
653.785	148.69
653.99	137.69
654.194	166.69
654.398	127.69
654.602	133.69
654.806	132.69
655.01	144.69
655.214	146.69
655.418	141.69
655.622	132.69
655.826	121.69
656.03	132.69
656.234	126.69
656.438	137.69
656.642	124.69
656.846	124.69
657.049	136.69
657.253	127.69
657.457	126.69
657.661	115.69
657.865	105.69
658.068	122.69
658.272	113.69
658.476	112.69
658.68	106.69
658.883	97.69
659.087	109.69
659.291	104.69
659.494	87.69
659.698	101.69
659.901	93.69
660.105	82.69
660.309	91.69
660.512	83.69
660.716	81.69
660.919	75.69
661.123	80.69
661.326	88.69
661.53	89.69
661.733	96.69
661.936	87.69
662.14	84.69
662.343	87.69
662.546	71.69
662.75	89.69
662.953	86.69
663.156	73.69
663.36	74.69
663.563	80.69
663.766	76.69
663.969	74.69
664.173	85.69
664.376	86.69
664.579	76.69
664.782	82.69
664.985	73.69
665.188	87.69
665.391	78.69
665.594	77.69
665.797	77.69
666	80.69
666.203	66.69
666.406	77.69
666.609	80.69
666.812	85.69
667.015	68.69
667.218	64.69
667.421	75.69
667.624	79.69
667.827	84.69
668.03	88.69
668.232	67.69
668.435	73.69
668.638	74.69
668.841	101.69
669.043	74.69
669.246	72.69
669.449	83.69
669.651	83.69
669.854	89.69
670.057	72.69
670.259	79.69
670.462	67.69
670.665	102.69
670.867	73.69
671.07	79.69
671.272	81.69
671.475	62.69
671.677	66.69
671.88	73.69
672.082	68.69
672.284	78.69
672.487	83.69
672.689	87.69
672.892	80.69
