Data from 1979.PennyLincolnUp.Lamp.En5.5.200Scan.071719.P1_HRD10591_16-18-26-863.txt Node
Date: Thu Jul 18 16:18:26 EDT 2019
User: cochatt
Spectrometer: HR+D1059
Trigger mode: 1
Integration Time (sec): 1.000000E-1
Scans to average: 1
Electric dark correction enabled: true
Nonlinearity correction enabled: false
Boxcar width: 0
XAxis mode: Wavelengths
Number of Pixels in Spectrum: 2048
>>>>>Begin Spectral Data<<<<<
223.165	-10.31
223.4	-10.31
223.635	-10.31
223.869	-26.31
224.104	-23.31
224.338	-14.31
224.573	-22.31
224.808	-10.31
225.042	-15.31
225.277	3.69
225.511	1.69
225.746	7.69
225.98	13.69
226.215	14.69
226.449	14.69
226.683	23.69
226.918	24.69
227.152	17.69
227.387	32.69
227.621	41.69
227.856	52.69
228.09	41.69
228.324	50.69
228.559	61.69
228.793	76.69
229.027	94.69
229.262	96.69
229.496	103.69
229.73	103.69
229.964	127.69
230.199	119.69
230.433	106.69
230.667	112.69
230.901	104.69
231.136	105.69
231.37	109.69
231.604	101.69
231.838	126.69
232.072	108.69
232.306	92.69
232.541	110.69
232.775	114.69
233.009	102.69
233.243	93.69
233.477	102.69
233.711	108.69
233.945	103.69
234.179	116.69
234.413	115.69
234.647	116.69
234.881	113.69
235.115	105.69
235.349	108.69
235.583	114.69
235.817	115.69
236.051	119.69
236.285	120.69
236.519	126.69
236.753	124.69
236.987	129.69
237.221	146.69
237.455	195.69
237.689	154.69
237.922	128.69
238.156	124.69
238.39	126.69
238.624	106.69
238.858	114.69
239.091	114.69
239.325	109.69
239.559	114.69
239.793	114.69
240.027	131.69
240.26	132.69
240.494	139.69
240.728	125.69
240.961	128.69
241.195	132.69
241.429	132.69
241.662	120.69
241.896	113.69
242.13	124.69
242.363	134.69
242.597	124.69
242.83	123.69
243.064	131.69
243.298	124.69
243.531	131.69
243.765	134.69
243.998	124.69
244.232	135.69
244.465	124.69
244.699	145.69
244.932	134.69
245.166	136.69
245.399	123.69
245.633	159.69
245.866	146.69
246.099	174.69
246.333	149.69
246.566	146.69
246.8	123.69
247.033	152.69
247.266	149.69
247.5	151.69
247.733	159.69
247.966	162.69
248.2	137.69
248.433	162.69
248.666	166.69
248.899	166.69
249.133	172.69
249.366	181.69
249.599	178.69
249.832	171.69
250.066	155.69
250.299	170.69
250.532	189.69
250.765	189.69
250.998	198.69
251.231	184.69
251.465	182.69
251.698	189.69
251.931	180.69
252.164	181.69
252.397	181.69
252.63	178.69
252.863	185.69
253.096	204.69
253.329	194.69
253.562	198.69
253.795	187.69
254.028	195.69
254.261	194.69
254.494	200.69
254.727	220.69
254.96	241.69
255.193	230.69
255.426	206.69
255.659	216.69
255.892	210.69
256.124	204.69
256.357	197.69
256.59	211.69
256.823	197.69
257.056	188.69
257.289	178.69
257.521	193.69
257.754	184.69
257.987	214.69
258.22	197.69
258.452	180.69
258.685	182.69
258.918	189.69
259.151	192.69
259.383	192.69
259.616	198.69
259.849	216.69
260.081	198.69
260.314	208.69
260.547	223.69
260.779	213.69
261.012	212.69
261.244	212.69
261.477	208.69
261.71	201.69
261.942	207.69
262.175	225.69
262.407	229.69
262.64	200.69
262.872	182.69
263.105	202.69
263.337	191.69
263.57	217.69
263.802	198.69
264.035	187.69
264.267	207.69
264.499	214.69
264.732	210.69
264.964	198.69
265.197	211.69
265.429	188.69
265.661	194.69
265.894	203.69
266.126	198.69
266.358	196.69
266.591	201.69
266.823	207.69
267.055	207.69
267.287	219.69
267.52	215.69
267.752	197.69
267.984	200.69
268.216	215.69
268.448	202.69
268.681	219.69
268.913	216.69
269.145	217.69
269.377	212.69
269.609	253.69
269.841	226.69
270.073	230.69
270.306	232.69
270.538	272.69
270.77	271.69
271.002	288.69
271.234	248.69
271.466	245.69
271.698	265.69
271.93	259.69
272.162	261.69
272.394	268.69
272.626	281.69
272.858	266.69
273.09	259.69
273.322	235.69
273.553	227.69
273.785	242.69
274.017	237.69
274.249	239.69
274.481	211.69
274.713	217.69
274.945	254.69
275.176	243.69
275.408	242.69
275.64	243.69
275.872	235.69
276.104	237.69
276.335	235.69
276.567	244.69
276.799	258.69
277.031	273.69
277.262	281.69
277.494	280.69
277.726	268.69
277.957	259.69
278.189	241.69
278.421	258.69
278.652	231.69
278.884	230.69
279.115	238.69
279.347	252.69
279.579	251.69
279.81	244.69
280.042	243.69
280.273	253.69
280.505	261.69
280.736	276.69
280.968	263.69
281.199	247.69
281.431	229.69
281.662	253.69
281.894	260.69
282.125	249.69
282.356	252.69
282.588	270.69
282.819	273.69
283.051	268.69
283.282	250.69
283.513	257.69
283.745	252.69
283.976	242.69
284.207	264.69
284.439	256.69
284.67	244.69
284.901	258.69
285.132	256.69
285.364	260.69
285.595	278.69
285.826	267.69
286.057	263.69
286.288	270.69
286.52	263.69
286.751	274.69
286.982	252.69
287.213	248.69
287.444	270.69
287.675	258.69
287.906	264.69
288.138	273.69
288.369	276.69
288.6	285.69
288.831	266.69
289.062	288.69
289.293	287.69
289.524	267.69
289.755	270.69
289.986	279.69
290.217	268.69
290.448	264.69
290.679	263.69
290.91	287.69
291.141	285.69
291.371	270.69
291.602	257.69
291.833	284.69
292.064	262.69
292.295	267.69
292.526	277.69
292.757	279.69
292.987	280.69
293.218	258.69
293.449	277.69
293.68	262.69
293.91	271.69
294.141	279.69
294.372	263.69
294.603	268.69
294.833	282.69
295.064	274.69
295.295	280.69
295.525	275.69
295.756	278.69
295.987	270.69
296.217	288.69
296.448	313.69
296.679	293.69
296.909	293.69
297.14	276.69
297.37	281.69
297.601	284.69
297.831	286.69
298.062	277.69
298.292	283.69
298.523	294.69
298.753	292.69
298.984	286.69
299.214	288.69
299.445	285.69
299.675	284.69
299.905	306.69
300.136	294.69
300.366	312.69
300.597	309.69
300.827	310.69
301.057	316.69
301.288	307.69
301.518	304.69
301.748	302.69
301.979	325.69
302.209	328.69
302.439	302.69
302.669	310.69
302.9	328.69
303.13	307.69
303.36	303.69
303.59	308.69
303.82	312.69
304.051	340.69
304.281	321.69
304.511	308.69
304.741	291.69
304.971	311.69
305.201	308.69
305.431	312.69
305.661	312.69
305.891	319.69
306.121	324.69
306.352	328.69
306.582	317.69
306.812	317.69
307.042	295.69
307.272	310.69
307.502	310.69
307.731	302.69
307.961	297.69
308.191	313.69
308.421	309.69
308.651	311.69
308.881	320.69
309.111	312.69
309.341	320.69
309.571	324.69
309.8	324.69
310.03	348.69
310.26	333.69
310.49	332.69
310.72	347.69
310.949	338.69
311.179	361.69
311.409	341.69
311.639	342.69
311.868	331.69
312.098	359.69
312.328	368.69
312.557	345.69
312.787	381.69
313.017	375.69
313.246	350.69
313.476	356.69
313.706	343.69
313.935	363.69
314.165	347.69
314.394	364.69
314.624	350.69
314.853	353.69
315.083	388.69
315.312	353.69
315.542	356.69
315.771	332.69
316.001	340.69
316.23	350.69
316.46	357.69
316.689	357.69
316.919	340.69
317.148	370.69
317.377	374.69
317.607	353.69
317.836	359.69
318.065	358.69
318.295	349.69
318.524	346.69
318.753	363.69
318.983	351.69
319.212	361.69
319.441	363.69
319.67	380.69
319.9	338.69
320.129	360.69
320.358	373.69
320.587	388.69
320.816	359.69
321.046	363.69
321.275	374.69
321.504	360.69
321.733	354.69
321.962	376.69
322.191	392.69
322.42	393.69
322.649	404.69
322.878	409.69
323.108	389.69
323.337	423.69
323.566	434.69
323.795	463.69
324.024	489.69
324.253	593.69
324.482	808.69
324.71	1280.69
324.939	1886.69
325.168	1635.69
325.397	824.69
325.626	581.69
325.855	513.69
326.084	462.69
326.313	451.69
326.542	448.69
326.77	478.69
326.999	567.69
327.228	760.69
327.457	1161.69
327.686	1493.69
327.914	948.69
328.143	614.69
328.372	536.69
328.6	518.69
328.829	483.69
329.058	502.69
329.287	520.69
329.515	496.69
329.744	463.69
329.972	453.69
330.201	465.69
330.43	512.69
330.658	509.69
330.887	546.69
331.115	523.69
331.344	474.69
331.572	446.69
331.801	462.69
332.03	439.69
332.258	442.69
332.486	426.69
332.715	423.69
332.943	444.69
333.172	452.69
333.4	467.69
333.629	445.69
333.857	469.69
334.085	490.69
334.314	500.69
334.542	487.69
334.771	532.69
334.999	464.69
335.227	470.69
335.455	439.69
335.684	431.69
335.912	415.69
336.14	433.69
336.369	426.69
336.597	434.69
336.825	448.69
337.053	412.69
337.281	408.69
337.51	420.69
337.738	433.69
337.966	438.69
338.194	419.69
338.422	434.69
338.65	418.69
338.878	408.69
339.106	400.69
339.334	416.69
339.562	420.69
339.79	391.69
340.018	402.69
340.246	411.69
340.474	438.69
340.702	425.69
340.93	416.69
341.158	411.69
341.386	405.69
341.614	422.69
341.842	382.69
342.07	398.69
342.298	399.69
342.526	417.69
342.754	384.69
342.981	393.69
343.209	393.69
343.437	409.69
343.665	409.69
343.893	430.69
344.12	422.69
344.348	434.69
344.576	429.69
344.804	417.69
345.031	426.69
345.259	411.69
345.487	427.69
345.714	414.69
345.942	389.69
346.17	413.69
346.397	408.69
346.625	389.69
346.853	408.69
347.08	383.69
347.308	389.69
347.535	402.69
347.763	406.69
347.99	434.69
348.218	405.69
348.445	398.69
348.673	409.69
348.9	406.69
349.128	386.69
349.355	376.69
349.583	394.69
349.81	409.69
350.037	396.69
350.265	380.69
350.492	384.69
350.72	392.69
350.947	388.69
351.174	377.69
351.402	407.69
351.629	404.69
351.856	393.69
352.083	406.69
352.311	405.69
352.538	404.69
352.765	407.69
352.992	401.69
353.22	402.69
353.447	408.69
353.674	378.69
353.901	377.69
354.128	377.69
354.355	379.69
354.583	389.69
354.81	380.69
355.037	368.69
355.264	389.69
355.491	373.69
355.718	383.69
355.945	383.69
356.172	388.69
356.399	369.69
356.626	403.69
356.853	377.69
357.08	370.69
357.307	372.69
357.534	383.69
357.761	377.69
357.988	400.69
358.215	371.69
358.441	366.69
358.668	376.69
358.895	373.69
359.122	369.69
359.349	412.69
359.576	412.69
359.802	423.69
360.029	441.69
360.256	449.69
360.483	427.69
360.709	429.69
360.936	407.69
361.163	396.69
361.39	407.69
361.616	419.69
361.843	397.69
362.07	400.69
362.296	392.69
362.523	412.69
362.749	388.69
362.976	404.69
363.203	385.69
363.429	411.69
363.656	404.69
363.882	405.69
364.109	386.69
364.335	413.69
364.562	387.69
364.788	369.69
365.015	404.69
365.241	401.69
365.468	392.69
365.694	397.69
365.92	410.69
366.147	404.69
366.373	410.69
366.599	399.69
366.826	390.69
367.052	381.69
367.278	403.69
367.505	377.69
367.731	386.69
367.957	392.69
368.184	386.69
368.41	390.69
368.636	416.69
368.862	411.69
369.089	388.69
369.315	376.69
369.541	395.69
369.767	389.69
369.993	397.69
370.219	377.69
370.445	419.69
370.672	396.69
370.898	380.69
371.124	388.69
371.35	401.69
371.576	391.69
371.802	401.69
372.028	397.69
372.254	404.69
372.48	396.69
372.706	396.69
372.932	397.69
373.158	409.69
373.384	393.69
373.61	397.69
373.835	411.69
374.061	412.69
374.287	382.69
374.513	402.69
374.739	400.69
374.965	407.69
375.191	407.69
375.416	410.69
375.642	435.69
375.868	412.69
376.094	405.69
376.319	401.69
376.545	398.69
376.771	398.69
376.997	382.69
377.222	394.69
377.448	395.69
377.674	412.69
377.899	391.69
378.125	388.69
378.35	395.69
378.576	406.69
378.802	396.69
379.027	404.69
379.253	410.69
379.478	401.69
379.704	380.69
379.929	401.69
380.155	421.69
380.38	407.69
380.606	399.69
380.831	404.69
381.057	416.69
381.282	396.69
381.507	404.69
381.733	413.69
381.958	416.69
382.184	413.69
382.409	411.69
382.634	406.69
382.86	406.69
383.085	407.69
383.31	420.69
383.535	429.69
383.761	427.69
383.986	437.69
384.211	436.69
384.436	434.69
384.662	429.69
384.887	423.69
385.112	433.69
385.337	443.69
385.562	432.69
385.787	453.69
386.013	446.69
386.238	470.69
386.463	453.69
386.688	439.69
386.913	448.69
387.138	445.69
387.363	444.69
387.588	436.69
387.813	465.69
388.038	461.69
388.263	453.69
388.488	440.69
388.713	449.69
388.938	474.69
389.163	444.69
389.387	456.69
389.612	438.69
389.837	425.69
390.062	477.69
390.287	448.69
390.512	462.69
390.736	468.69
390.961	447.69
391.186	461.69
391.411	468.69
391.636	469.69
391.86	462.69
392.085	473.69
392.31	477.69
392.534	470.69
392.759	465.69
392.984	449.69
393.208	457.69
393.433	464.69
393.658	473.69
393.882	477.69
394.107	478.69
394.331	454.69
394.556	468.69
394.78	489.69
395.005	481.69
395.229	450.69
395.454	458.69
395.678	468.69
395.903	490.69
396.127	492.69
396.352	504.69
396.576	492.69
396.801	493.69
397.025	474.69
397.249	500.69
397.474	484.69
397.698	483.69
397.922	502.69
398.147	494.69
398.371	538.69
398.595	526.69
398.82	526.69
399.044	540.69
399.268	568.69
399.492	598.69
399.717	630.69
399.941	665.69
400.165	672.69
400.389	669.69
400.613	608.69
400.837	551.69
401.062	551.69
401.286	546.69
401.51	544.69
401.734	536.69
401.958	527.69
402.182	551.69
402.406	546.69
402.63	539.69
402.854	536.69
403.078	549.69
403.302	557.69
403.526	559.69
403.75	574.69
403.974	548.69
404.198	542.69
404.422	557.69
404.645	584.69
404.869	571.69
405.093	582.69
405.317	601.69
405.541	674.69
405.765	620.69
405.988	596.69
406.212	579.69
406.436	610.69
406.66	615.69
406.883	640.69
407.107	609.69
407.331	664.69
407.555	745.69
407.778	714.69
408.002	656.69
408.226	630.69
408.449	629.69
408.673	620.69
408.896	636.69
409.12	673.69
409.344	610.69
409.567	592.69
409.791	566.69
410.014	566.69
410.238	571.69
410.461	567.69
410.685	569.69
410.908	571.69
411.132	593.69
411.355	644.69
411.578	604.69
411.802	571.69
412.025	579.69
412.249	565.69
412.472	581.69
412.695	631.69
412.919	603.69
413.142	544.69
413.365	568.69
413.589	574.69
413.812	522.69
414.035	547.69
414.258	549.69
414.482	518.69
414.705	531.69
414.928	534.69
415.151	537.69
415.374	539.69
415.597	518.69
415.821	522.69
416.044	516.69
416.267	526.69
416.49	534.69
416.713	524.69
416.936	532.69
417.159	516.69
417.382	504.69
417.605	535.69
417.828	542.69
418.051	518.69
418.274	528.69
418.497	504.69
418.72	505.69
418.943	531.69
419.166	535.69
419.389	583.69
419.611	600.69
419.834	562.69
420.057	546.69
420.28	558.69
420.503	527.69
420.726	555.69
420.948	556.69
421.171	605.69
421.394	597.69
421.617	586.69
421.839	535.69
422.062	545.69
422.285	553.69
422.507	615.69
422.73	684.69
422.953	685.69
423.175	574.69
423.398	579.69
423.621	582.69
423.843	588.69
424.066	575.69
424.288	574.69
424.511	626.69
424.733	655.69
424.956	707.69
425.178	681.69
425.401	681.69
425.623	715.69
425.846	612.69
426.068	589.69
426.291	565.69
426.513	593.69
426.735	581.69
426.958	602.69
427.18	677.69
427.402	800.69
427.625	887.69
427.847	762.69
428.069	668.69
428.292	608.69
428.514	573.69
428.736	562.69
428.958	541.69
429.181	536.69
429.403	532.69
429.625	544.69
429.847	582.69
430.069	661.69
430.292	628.69
430.514	549.69
430.736	536.69
430.958	566.69
431.18	515.69
431.402	517.69
431.624	497.69
431.846	517.69
432.068	508.69
432.29	525.69
432.512	511.69
432.734	536.69
432.956	524.69
433.178	547.69
433.4	529.69
433.622	514.69
433.844	525.69
434.066	532.69
434.287	520.69
434.509	536.69
434.731	522.69
434.953	540.69
435.175	569.69
435.397	585.69
435.618	600.69
435.84	631.69
436.062	679.69
436.284	777.69
436.505	662.69
436.727	594.69
436.949	564.69
437.17	567.69
437.392	549.69
437.614	533.69
437.835	575.69
438.057	668.69
438.278	737.69
438.5	730.69
438.721	809.69
438.943	752.69
439.165	638.69
439.386	598.69
439.608	588.69
439.829	564.69
440.05	591.69
440.272	634.69
440.493	628.69
440.715	568.69
440.936	533.69
441.158	545.69
441.379	547.69
441.6	567.69
441.822	566.69
442.043	604.69
442.264	683.69
442.486	737.69
442.707	636.69
442.928	580.69
443.149	616.69
443.371	606.69
443.592	646.69
443.813	738.69
444.034	792.69
444.255	653.69
444.476	615.69
444.698	627.69
444.919	594.69
445.14	713.69
445.361	631.69
445.582	613.69
445.803	668.69
446.024	754.69
446.245	760.69
446.466	691.69
446.687	593.69
446.908	574.69
447.129	563.69
447.35	552.69
447.571	532.69
447.792	512.69
448.013	545.69
448.234	548.69
448.455	570.69
448.675	675.69
448.896	796.69
449.117	667.69
449.338	615.69
449.559	736.69
449.779	824.69
450	652.69
450.221	541.69
450.442	540.69
450.662	522.69
450.883	535.69
451.104	548.69
451.324	532.69
451.545	494.69
451.766	506.69
451.986	477.69
452.207	493.69
452.428	485.69
452.648	478.69
452.869	495.69
453.089	484.69
453.31	494.69
453.53	478.69
453.751	469.69
453.971	489.69
454.192	491.69
454.412	476.69
454.633	475.69
454.853	444.69
455.073	484.69
455.294	494.69
455.514	552.69
455.734	556.69
455.955	478.69
456.175	460.69
456.395	451.69
456.616	469.69
456.836	459.69
457.056	453.69
457.276	469.69
457.497	468.69
457.717	462.69
457.937	467.69
458.157	464.69
458.377	468.69
458.598	489.69
458.818	537.69
459.038	612.69
459.258	622.69
459.478	550.69
459.698	531.69
459.918	500.69
460.138	514.69
460.358	524.69
460.578	532.69
460.798	520.69
461.018	530.69
461.238	529.69
461.458	553.69
461.678	530.69
461.898	533.69
462.118	556.69
462.338	567.69
462.558	575.69
462.777	587.69
462.997	590.69
463.217	596.69
463.437	630.69
463.657	599.69
463.876	594.69
464.096	598.69
464.316	584.69
464.536	572.69
464.755	590.69
464.975	587.69
465.195	604.69
465.414	665.69
465.634	622.69
465.854	573.69
466.073	543.69
466.293	514.69
466.512	516.69
466.732	505.69
466.951	523.69
467.171	505.69
467.391	517.69
467.61	502.69
467.829	532.69
468.049	507.69
468.268	493.69
468.488	506.69
468.707	486.69
468.927	470.69
469.146	485.69
469.365	499.69
469.585	478.69
469.804	496.69
470.023	505.69
470.243	512.69
470.462	510.69
470.681	534.69
470.901	526.69
471.12	527.69
471.339	500.69
471.558	500.69
471.777	503.69
471.997	478.69
472.216	508.69
472.435	540.69
472.654	547.69
472.873	503.69
473.092	485.69
473.311	510.69
473.53	504.69
473.749	487.69
473.968	537.69
474.187	647.69
474.406	639.69
474.625	537.69
474.844	510.69
475.063	509.69
475.282	518.69
475.501	534.69
475.72	508.69
475.939	521.69
476.158	536.69
476.377	530.69
476.596	516.69
476.814	531.69
477.033	536.69
477.252	540.69
477.471	534.69
477.69	557.69
477.908	556.69
478.127	544.69
478.346	554.69
478.564	566.69
478.783	576.69
479.002	569.69
479.22	569.69
479.439	609.69
479.658	618.69
479.876	613.69
480.095	591.69
480.313	635.69
480.532	634.69
480.751	634.69
480.969	635.69
481.188	679.69
481.406	713.69
481.624	638.69
481.843	602.69
482.061	584.69
482.28	571.69
482.498	590.69
482.717	565.69
482.935	595.69
483.153	593.69
483.372	590.69
483.59	581.69
483.808	600.69
484.027	604.69
484.245	611.69
484.463	598.69
484.681	618.69
484.9	608.69
485.118	610.69
485.336	608.69
485.554	610.69
485.772	615.69
485.99	610.69
486.209	591.69
486.427	628.69
486.645	624.69
486.863	629.69
487.081	625.69
487.299	634.69
487.517	637.69
487.735	626.69
487.953	645.69
488.171	635.69
488.389	630.69
488.607	627.69
488.825	620.69
489.043	643.69
489.261	622.69
489.479	665.69
489.696	644.69
489.914	654.69
490.132	628.69
490.35	647.69
490.568	676.69
490.786	669.69
491.003	665.69
491.221	696.69
491.439	696.69
491.657	714.69
491.874	697.69
492.092	700.69
492.31	718.69
492.527	703.69
492.745	694.69
492.963	729.69
493.18	720.69
493.398	721.69
493.615	734.69
493.833	753.69
494.05	732.69
494.268	704.69
494.485	748.69
494.703	725.69
494.92	718.69
495.138	689.69
495.355	742.69
495.573	717.69
495.79	724.69
496.008	715.69
496.225	752.69
496.442	748.69
496.66	748.69
496.877	741.69
497.094	758.69
497.312	754.69
497.529	773.69
497.746	783.69
497.963	777.69
498.181	803.69
498.398	841.69
498.615	860.69
498.832	881.69
499.049	884.69
499.267	912.69
499.484	974.69
499.701	997.69
499.918	1049.69
500.135	1099.69
500.352	1173.69
500.569	1196.69
500.786	1149.69
501.003	1125.69
501.22	1109.69
501.437	1065.69
501.654	1020.69
501.871	1032.69
502.088	950.69
502.305	928.69
502.522	887.69
502.739	844.69
502.956	849.69
503.172	807.69
503.389	802.69
503.606	808.69
503.823	772.69
504.04	781.69
504.256	769.69
504.473	779.69
504.69	765.69
504.907	757.69
505.123	747.69
505.34	736.69
505.557	746.69
505.773	734.69
505.99	726.69
506.207	716.69
506.423	712.69
506.64	705.69
506.856	695.69
507.073	666.69
507.289	674.69
507.506	676.69
507.722	702.69
507.939	698.69
508.155	685.69
508.372	658.69
508.588	678.69
508.805	659.69
509.021	652.69
509.238	659.69
509.454	654.69
509.67	662.69
509.887	657.69
510.103	652.69
510.319	670.69
510.536	709.69
510.752	1190.69
510.968	982.69
511.184	673.69
511.401	648.69
511.617	628.69
511.833	622.69
512.049	612.69
512.265	630.69
512.481	613.69
512.698	629.69
512.914	627.69
513.13	607.69
513.346	628.69
513.562	641.69
513.778	633.69
513.994	637.69
514.21	625.69
514.426	658.69
514.642	647.69
514.858	712.69
515.074	716.69
515.29	839.69
515.506	1183.69
515.721	1020.69
515.937	790.69
516.153	669.69
516.369	661.69
516.585	648.69
516.801	656.69
517.016	666.69
517.232	675.69
517.448	673.69
517.664	690.69
517.879	678.69
518.095	694.69
518.311	700.69
518.527	672.69
518.742	678.69
518.958	655.69
519.173	654.69
519.389	675.69
519.605	659.69
519.82	668.69
520.036	668.69
520.251	651.69
520.467	681.69
520.682	667.69
520.898	685.69
521.113	676.69
521.329	719.69
521.544	790.69
521.76	942.69
521.975	1517.69
522.19	1544.69
522.406	859.69
522.621	678.69
522.836	659.69
523.052	605.69
523.267	598.69
523.482	584.69
523.698	601.69
523.913	582.69
524.128	585.69
524.343	589.69
524.559	560.69
524.774	552.69
524.989	572.69
525.204	580.69
525.419	571.69
525.634	541.69
525.849	569.69
526.064	570.69
526.28	548.69
526.495	549.69
526.71	541.69
526.925	546.69
527.14	541.69
527.355	520.69
527.57	526.69
527.785	527.69
527.999	534.69
528.214	526.69
528.429	559.69
528.644	538.69
528.859	522.69
529.074	538.69
529.289	557.69
529.503	601.69
529.718	589.69
529.933	549.69
530.148	531.69
530.363	547.69
530.577	538.69
530.792	531.69
531.007	516.69
531.221	526.69
531.436	518.69
531.651	520.69
531.865	502.69
532.08	510.69
532.295	501.69
532.509	496.69
532.724	518.69
532.938	512.69
533.153	533.69
533.367	512.69
533.582	483.69
533.796	512.69
534.011	524.69
534.225	520.69
534.44	497.69
534.654	494.69
534.868	499.69
535.083	506.69
535.297	497.69
535.511	498.69
535.726	504.69
535.94	521.69
536.154	506.69
536.369	514.69
536.583	492.69
536.797	507.69
537.011	510.69
537.225	486.69
537.44	497.69
537.654	505.69
537.868	492.69
538.082	510.69
538.296	509.69
538.51	470.69
538.724	487.69
538.938	481.69
539.153	488.69
539.367	507.69
539.581	502.69
539.795	502.69
540.009	484.69
540.222	476.69
540.436	483.69
540.65	479.69
540.864	483.69
541.078	501.69
541.292	490.69
541.506	464.69
541.72	464.69
541.934	470.69
542.147	465.69
542.361	488.69
542.575	479.69
542.789	472.69
543.002	477.69
543.216	478.69
543.43	487.69
543.644	462.69
543.857	481.69
544.071	474.69
544.285	477.69
544.498	499.69
544.712	480.69
544.925	487.69
545.139	488.69
545.352	479.69
545.566	463.69
545.779	489.69
545.993	499.69
546.206	500.69
546.42	494.69
546.633	468.69
546.847	465.69
547.06	453.69
547.274	467.69
547.487	468.69
547.7	473.69
547.914	492.69
548.127	483.69
548.34	464.69
548.554	484.69
548.767	490.69
548.98	489.69
549.193	460.69
549.407	476.69
549.62	482.69
549.833	483.69
550.046	451.69
550.259	480.69
550.473	471.69
550.686	467.69
550.899	451.69
551.112	474.69
551.325	448.69
551.538	455.69
551.751	458.69
551.964	447.69
552.177	479.69
552.39	465.69
552.603	475.69
552.816	490.69
553.029	464.69
553.242	476.69
553.455	458.69
553.667	482.69
553.88	494.69
554.093	489.69
554.306	487.69
554.519	466.69
554.732	461.69
554.944	448.69
555.157	477.69
555.37	451.69
555.583	436.69
555.795	438.69
556.008	434.69
556.221	425.69
556.433	445.69
556.646	414.69
556.859	415.69
557.071	437.69
557.284	440.69
557.496	444.69
557.709	426.69
557.921	417.69
558.134	421.69
558.346	429.69
558.559	428.69
558.771	435.69
558.984	421.69
559.196	404.69
559.409	423.69
559.621	428.69
559.833	414.69
560.046	405.69
560.258	420.69
560.47	418.69
560.683	425.69
560.895	404.69
561.107	413.69
561.32	418.69
561.532	461.69
561.744	419.69
561.956	396.69
562.168	404.69
562.381	416.69
562.593	427.69
562.805	425.69
563.017	408.69
563.229	413.69
563.441	422.69
563.653	436.69
563.865	413.69
564.077	418.69
564.289	433.69
564.501	429.69
564.713	448.69
564.925	449.69
565.137	454.69
565.349	468.69
565.561	472.69
565.773	461.69
565.985	471.69
566.197	502.69
566.408	529.69
566.62	517.69
566.832	530.69
567.044	539.69
567.255	554.69
567.467	545.69
567.679	547.69
567.891	556.69
568.102	565.69
568.314	569.69
568.526	542.69
568.737	528.69
568.949	502.69
569.161	479.69
569.372	460.69
569.584	452.69
569.795	431.69
570.007	448.69
570.218	460.69
570.43	461.69
570.641	436.69
570.853	411.69
571.064	427.69
571.276	426.69
571.487	415.69
571.698	403.69
571.91	400.69
572.121	398.69
572.333	394.69
572.544	362.69
572.755	384.69
572.966	366.69
573.178	384.69
573.389	369.69
573.6	376.69
573.811	370.69
574.023	378.69
574.234	362.69
574.445	357.69
574.656	364.69
574.867	363.69
575.078	360.69
575.289	350.69
575.501	348.69
575.712	363.69
575.923	361.69
576.134	361.69
576.345	354.69
576.556	341.69
576.767	358.69
576.978	340.69
577.188	365.69
577.399	348.69
577.61	357.69
577.821	352.69
578.032	346.69
578.243	380.69
578.454	573.69
578.665	432.69
578.875	366.69
579.086	331.69
579.297	339.69
579.508	344.69
579.718	352.69
579.929	343.69
580.14	334.69
580.35	329.69
580.561	333.69
580.772	318.69
580.982	316.69
581.193	305.69
581.403	339.69
581.614	317.69
581.825	329.69
582.035	330.69
582.246	342.69
582.456	318.69
582.667	329.69
582.877	328.69
583.087	305.69
583.298	324.69
583.508	316.69
583.719	327.69
583.929	315.69
584.139	329.69
584.35	312.69
584.56	312.69
584.77	321.69
584.981	306.69
585.191	326.69
585.401	308.69
585.611	340.69
585.821	317.69
586.032	315.69
586.242	345.69
586.452	308.69
586.662	310.69
586.872	320.69
587.082	302.69
587.292	310.69
587.502	311.69
587.713	320.69
587.923	317.69
588.133	312.69
588.343	317.69
588.553	324.69
588.762	325.69
588.972	301.69
589.182	355.69
589.392	353.69
589.602	331.69
589.812	353.69
590.022	328.69
590.232	327.69
590.441	308.69
590.651	330.69
590.861	324.69
591.071	317.69
591.281	302.69
591.49	314.69
591.7	308.69
591.91	329.69
592.119	330.69
592.329	324.69
592.539	331.69
592.748	347.69
592.958	344.69
593.167	324.69
593.377	342.69
593.587	353.69
593.796	347.69
594.006	348.69
594.215	339.69
594.424	343.69
594.634	336.69
594.843	352.69
595.053	336.69
595.262	317.69
595.472	312.69
595.681	314.69
595.89	326.69
596.1	316.69
596.309	288.69
596.518	296.69
596.727	305.69
596.937	306.69
597.146	300.69
597.355	299.69
597.564	292.69
597.774	277.69
597.983	282.69
598.192	299.69
598.401	284.69
598.61	294.69
598.819	288.69
599.028	287.69
599.237	290.69
599.446	283.69
599.655	277.69
599.864	268.69
600.073	280.69
600.282	268.69
600.491	284.69
600.7	286.69
600.909	281.69
601.118	282.69
601.327	277.69
601.536	244.69
601.745	290.69
601.953	278.69
602.162	280.69
602.371	278.69
602.58	278.69
602.789	282.69
602.997	276.69
603.206	278.69
603.415	272.69
603.623	262.69
603.832	260.69
604.041	263.69
604.249	258.69
604.458	262.69
604.666	264.69
604.875	277.69
605.084	260.69
605.292	254.69
605.501	260.69
605.709	249.69
605.918	256.69
606.126	259.69
606.334	247.69
606.543	264.69
606.751	246.69
606.96	264.69
607.168	261.69
607.376	268.69
607.585	256.69
607.793	261.69
608.001	251.69
608.21	256.69
608.418	245.69
608.626	232.69
608.834	240.69
609.043	252.69
609.251	259.69
609.459	245.69
609.667	256.69
609.875	232.69
610.083	245.69
610.291	256.69
610.499	242.69
610.707	249.69
610.916	243.69
611.124	265.69
611.332	256.69
611.54	271.69
611.748	271.69
611.955	273.69
612.163	248.69
612.371	255.69
612.579	255.69
612.787	265.69
612.995	238.69
613.203	236.69
613.411	245.69
613.618	234.69
613.826	236.69
614.034	240.69
614.242	249.69
614.449	258.69
614.657	215.69
614.865	244.69
615.072	250.69
615.28	258.69
615.488	241.69
615.695	246.69
615.903	229.69
616.111	237.69
616.318	254.69
616.526	244.69
616.733	268.69
616.941	262.69
617.148	244.69
617.356	260.69
617.563	245.69
617.771	240.69
617.978	245.69
618.185	248.69
618.393	248.69
618.6	237.69
618.807	242.69
619.015	252.69
619.222	243.69
619.429	236.69
619.637	247.69
619.844	232.69
620.051	230.69
620.258	215.69
620.466	238.69
620.673	221.69
620.88	237.69
621.087	231.69
621.294	234.69
621.501	250.69
621.708	222.69
621.915	226.69
622.122	236.69
622.329	224.69
622.536	242.69
622.743	237.69
622.95	220.69
623.157	227.69
623.364	223.69
623.571	250.69
623.778	212.69
623.985	210.69
624.192	224.69
624.399	217.69
624.606	230.69
624.812	218.69
625.019	222.69
625.226	211.69
625.433	232.69
625.639	222.69
625.846	211.69
626.053	214.69
626.259	212.69
626.466	224.69
626.673	218.69
626.879	210.69
627.086	212.69
627.293	204.69
627.499	220.69
627.706	212.69
627.912	227.69
628.119	209.69
628.325	216.69
628.532	205.69
628.738	208.69
628.945	190.69
629.151	204.69
629.357	199.69
629.564	206.69
629.77	225.69
629.976	196.69
630.183	197.69
630.389	197.69
630.595	192.69
630.802	188.69
631.008	197.69
631.214	192.69
631.42	205.69
631.627	200.69
631.833	194.69
632.039	213.69
632.245	200.69
632.451	184.69
632.657	191.69
632.863	195.69
633.069	188.69
633.275	203.69
633.481	205.69
633.688	186.69
633.893	204.69
634.099	184.69
634.305	196.69
634.511	190.69
634.717	201.69
634.923	196.69
635.129	196.69
635.335	183.69
635.541	189.69
635.747	196.69
635.952	181.69
636.158	168.69
636.364	186.69
636.57	182.69
636.775	197.69
636.981	172.69
637.187	185.69
637.392	176.69
637.598	185.69
637.804	185.69
638.009	203.69
638.215	193.69
638.421	183.69
638.626	182.69
638.832	177.69
639.037	189.69
639.243	185.69
639.448	182.69
639.654	173.69
639.859	183.69
640.065	182.69
640.27	189.69
640.475	188.69
640.681	173.69
640.886	169.69
641.091	168.69
641.297	186.69
641.502	165.69
641.707	168.69
641.913	171.69
642.118	180.69
642.323	186.69
642.528	165.69
642.733	186.69
642.939	183.69
643.144	165.69
643.349	173.69
643.554	184.69
643.759	171.69
643.964	171.69
644.169	168.69
644.374	177.69
644.579	172.69
644.784	170.69
644.989	166.69
645.194	189.69
645.399	178.69
645.604	167.69
645.809	165.69
646.014	172.69
646.219	176.69
646.423	156.69
646.628	151.69
646.833	171.69
647.038	168.69
647.243	170.69
647.447	187.69
647.652	169.69
647.857	169.69
648.062	156.69
648.266	158.69
648.471	171.69
648.676	175.69
648.88	175.69
649.085	180.69
649.289	171.69
649.494	181.69
649.698	193.69
649.903	189.69
650.107	187.69
650.312	167.69
650.516	161.69
650.721	150.69
650.925	143.69
651.13	165.69
651.334	152.69
651.539	155.69
651.743	151.69
651.947	150.69
652.152	158.69
652.356	152.69
652.56	157.69
652.764	139.69
652.969	148.69
653.173	140.69
653.377	149.69
653.581	148.69
653.785	149.69
653.99	139.69
654.194	154.69
654.398	132.69
654.602	135.69
654.806	137.69
655.01	136.69
655.214	125.69
655.418	146.69
655.622	161.69
655.826	132.69
656.03	135.69
656.234	151.69
656.438	128.69
656.642	138.69
656.846	136.69
657.049	118.69
657.253	123.69
657.457	134.69
657.661	130.69
657.865	118.69
658.068	120.69
658.272	117.69
658.476	113.69
658.68	101.69
658.883	107.69
659.087	108.69
659.291	116.69
659.494	106.69
659.698	96.69
659.901	97.69
660.105	103.69
660.309	96.69
660.512	94.69
660.716	85.69
660.919	81.69
661.123	93.69
661.326	90.69
661.53	92.69
661.733	78.69
661.936	94.69
662.14	85.69
662.343	85.69
662.546	100.69
662.75	95.69
662.953	78.69
663.156	72.69
663.36	70.69
663.563	83.69
663.766	94.69
663.969	73.69
664.173	76.69
664.376	92.69
664.579	87.69
664.782	88.69
664.985	79.69
665.188	74.69
665.391	91.69
665.594	82.69
665.797	82.69
666	86.69
666.203	92.69
666.406	76.69
666.609	85.69
666.812	84.69
667.015	74.69
667.218	86.69
667.421	80.69
667.624	87.69
667.827	82.69
668.03	83.69
668.232	82.69
668.435	87.69
668.638	72.69
668.841	81.69
669.043	92.69
669.246	81.69
669.449	85.69
669.651	76.69
669.854	72.69
670.057	82.69
670.259	84.69
670.462	84.69
670.665	82.69
670.867	85.69
671.07	88.69
671.272	76.69
671.475	81.69
671.677	81.69
671.88	80.69
672.082	68.69
672.284	82.69
672.487	77.69
672.689	76.69
672.892	74.69
