Data from 1979.PennyLincolnUp.Lamp.En5.5.200Scan.071719.P1_HRD10591_16-19-51-862.txt Node
Date: Thu Jul 18 16:19:51 EDT 2019
User: cochatt
Spectrometer: HR+D1059
Trigger mode: 1
Integration Time (sec): 1.000000E-1
Scans to average: 1
Electric dark correction enabled: true
Nonlinearity correction enabled: false
Boxcar width: 0
XAxis mode: Wavelengths
Number of Pixels in Spectrum: 2048
>>>>>Begin Spectral Data<<<<<
223.165	-11.25
223.4	-11.25
223.635	-11.25
223.869	-20.25
224.104	-21.25
224.338	-14.25
224.573	-21.25
224.808	-14.25
225.042	-10.25
225.277	-11.25
225.511	3.75
225.746	6.75
225.98	8.75
226.215	21.75
226.449	12.75
226.683	17.75
226.918	28.75
227.152	23.75
227.387	27.75
227.621	34.75
227.856	31.75
228.09	45.75
228.324	42.75
228.559	49.75
228.793	72.75
229.027	89.75
229.262	101.75
229.496	111.75
229.73	121.75
229.964	161.75
230.199	125.75
230.433	113.75
230.667	110.75
230.901	108.75
231.136	117.75
231.37	117.75
231.604	99.75
231.838	123.75
232.072	124.75
232.306	114.75
232.541	112.75
232.775	117.75
233.009	109.75
233.243	113.75
233.477	125.75
233.711	113.75
233.945	109.75
234.179	112.75
234.413	106.75
234.647	113.75
234.881	107.75
235.115	111.75
235.349	120.75
235.583	127.75
235.817	113.75
236.051	137.75
236.285	123.75
236.519	134.75
236.753	135.75
236.987	121.75
237.221	173.75
237.455	219.75
237.689	164.75
237.922	131.75
238.156	137.75
238.39	121.75
238.624	125.75
238.858	134.75
239.091	117.75
239.325	126.75
239.559	133.75
239.793	139.75
240.027	138.75
240.26	131.75
240.494	166.75
240.728	165.75
240.961	169.75
241.195	155.75
241.429	151.75
241.662	131.75
241.896	119.75
242.13	133.75
242.363	133.75
242.597	136.75
242.83	147.75
243.064	154.75
243.298	132.75
243.531	140.75
243.765	154.75
243.998	155.75
244.232	139.75
244.465	138.75
244.699	133.75
244.932	129.75
245.166	144.75
245.399	156.75
245.633	139.75
245.866	161.75
246.099	148.75
246.333	146.75
246.566	170.75
246.8	149.75
247.033	167.75
247.266	157.75
247.5	156.75
247.733	159.75
247.966	171.75
248.2	178.75
248.433	176.75
248.666	184.75
248.899	185.75
249.133	193.75
249.366	198.75
249.599	197.75
249.832	168.75
250.066	188.75
250.299	184.75
250.532	194.75
250.765	194.75
250.998	210.75
251.231	215.75
251.465	218.75
251.698	200.75
251.931	206.75
252.164	223.75
252.397	188.75
252.63	197.75
252.863	191.75
253.096	207.75
253.329	218.75
253.562	213.75
253.795	192.75
254.028	205.75
254.261	227.75
254.494	207.75
254.727	228.75
254.96	238.75
255.193	263.75
255.426	239.75
255.659	204.75
255.892	219.75
256.124	227.75
256.357	229.75
256.59	195.75
256.823	195.75
257.056	208.75
257.289	195.75
257.521	204.75
257.754	210.75
257.987	210.75
258.22	208.75
258.452	206.75
258.685	201.75
258.918	215.75
259.151	200.75
259.383	217.75
259.616	212.75
259.849	226.75
260.081	230.75
260.314	259.75
260.547	242.75
260.779	236.75
261.012	230.75
261.244	231.75
261.477	233.75
261.71	226.75
261.942	224.75
262.175	237.75
262.407	231.75
262.64	219.75
262.872	213.75
263.105	205.75
263.337	213.75
263.57	210.75
263.802	210.75
264.035	212.75
264.267	194.75
264.499	220.75
264.732	232.75
264.964	217.75
265.197	203.75
265.429	221.75
265.661	205.75
265.894	219.75
266.126	216.75
266.358	212.75
266.591	215.75
266.823	204.75
267.055	227.75
267.287	230.75
267.52	216.75
267.752	216.75
267.984	235.75
268.216	238.75
268.448	229.75
268.681	241.75
268.913	233.75
269.145	249.75
269.377	257.75
269.609	258.75
269.841	263.75
270.073	261.75
270.306	272.75
270.538	307.75
270.77	301.75
271.002	288.75
271.234	272.75
271.466	289.75
271.698	305.75
271.93	291.75
272.162	286.75
272.394	298.75
272.626	278.75
272.858	255.75
273.09	259.75
273.322	272.75
273.553	266.75
273.785	242.75
274.017	247.75
274.249	259.75
274.481	247.75
274.713	258.75
274.945	245.75
275.176	265.75
275.408	274.75
275.64	241.75
275.872	248.75
276.104	267.75
276.335	264.75
276.567	270.75
276.799	275.75
277.031	291.75
277.262	300.75
277.494	327.75
277.726	305.75
277.957	275.75
278.189	276.75
278.421	267.75
278.652	254.75
278.884	267.75
279.115	253.75
279.347	285.75
279.579	274.75
279.81	271.75
280.042	255.75
280.273	254.75
280.505	278.75
280.736	245.75
280.968	241.75
281.199	259.75
281.431	267.75
281.662	269.75
281.894	261.75
282.125	286.75
282.356	285.75
282.588	295.75
282.819	297.75
283.051	260.75
283.282	281.75
283.513	283.75
283.745	264.75
283.976	264.75
284.207	287.75
284.439	258.75
284.67	265.75
284.901	288.75
285.132	275.75
285.364	282.75
285.595	285.75
285.826	267.75
286.057	267.75
286.288	261.75
286.52	297.75
286.751	284.75
286.982	291.75
287.213	278.75
287.444	287.75
287.675	288.75
287.906	281.75
288.138	276.75
288.369	319.75
288.6	307.75
288.831	292.75
289.062	275.75
289.293	298.75
289.524	306.75
289.755	281.75
289.986	265.75
290.217	313.75
290.448	288.75
290.679	270.75
290.91	283.75
291.141	281.75
291.371	284.75
291.602	281.75
291.833	305.75
292.064	277.75
292.295	306.75
292.526	311.75
292.757	292.75
292.987	291.75
293.218	284.75
293.449	296.75
293.68	278.75
293.91	286.75
294.141	301.75
294.372	281.75
294.603	319.75
294.833	283.75
295.064	285.75
295.295	291.75
295.525	305.75
295.756	296.75
295.987	314.75
296.217	319.75
296.448	327.75
296.679	305.75
296.909	307.75
297.14	316.75
297.37	315.75
297.601	288.75
297.831	303.75
298.062	291.75
298.292	311.75
298.523	293.75
298.753	320.75
298.984	306.75
299.214	309.75
299.445	318.75
299.675	303.75
299.905	323.75
300.136	323.75
300.366	327.75
300.597	316.75
300.827	313.75
301.057	332.75
301.288	337.75
301.518	323.75
301.748	313.75
301.979	315.75
302.209	338.75
302.439	334.75
302.669	344.75
302.9	332.75
303.13	331.75
303.36	342.75
303.59	329.75
303.82	329.75
304.051	339.75
304.281	329.75
304.511	340.75
304.741	329.75
304.971	317.75
305.201	325.75
305.431	315.75
305.661	342.75
305.891	328.75
306.121	335.75
306.352	336.75
306.582	332.75
306.812	328.75
307.042	338.75
307.272	327.75
307.502	315.75
307.731	335.75
307.961	341.75
308.191	345.75
308.421	327.75
308.651	347.75
308.881	351.75
309.111	342.75
309.341	344.75
309.571	355.75
309.8	374.75
310.03	375.75
310.26	353.75
310.49	358.75
310.72	363.75
310.949	381.75
311.179	406.75
311.409	373.75
311.639	364.75
311.868	379.75
312.098	384.75
312.328	380.75
312.557	392.75
312.787	415.75
313.017	410.75
313.246	388.75
313.476	361.75
313.706	376.75
313.935	376.75
314.165	398.75
314.394	399.75
314.624	399.75
314.853	387.75
315.083	370.75
315.312	381.75
315.542	390.75
315.771	363.75
316.001	371.75
316.23	382.75
316.46	377.75
316.689	388.75
316.919	385.75
317.148	387.75
317.377	389.75
317.607	376.75
317.836	380.75
318.065	380.75
318.295	375.75
318.524	377.75
318.753	377.75
318.983	379.75
319.212	379.75
319.441	395.75
319.67	412.75
319.9	393.75
320.129	380.75
320.358	397.75
320.587	393.75
320.816	396.75
321.046	381.75
321.275	389.75
321.504	391.75
321.733	406.75
321.962	403.75
322.191	405.75
322.42	441.75
322.649	429.75
322.878	422.75
323.108	449.75
323.337	476.75
323.566	492.75
323.795	516.75
324.024	556.75
324.253	652.75
324.482	958.75
324.71	1463.75
324.939	2248.75
325.168	1886.75
325.397	922.75
325.626	621.75
325.855	535.75
326.084	502.75
326.313	480.75
326.542	479.75
326.77	541.75
326.999	615.75
327.228	864.75
327.457	1328.75
327.686	1658.75
327.914	1033.75
328.143	691.75
328.372	616.75
328.6	580.75
328.829	570.75
329.058	563.75
329.287	555.75
329.515	520.75
329.744	497.75
329.972	509.75
330.201	518.75
330.43	556.75
330.658	584.75
330.887	587.75
331.115	582.75
331.344	522.75
331.572	493.75
331.801	506.75
332.03	488.75
332.258	453.75
332.486	460.75
332.715	453.75
332.943	470.75
333.172	464.75
333.4	482.75
333.629	475.75
333.857	493.75
334.085	502.75
334.314	516.75
334.542	540.75
334.771	567.75
334.999	521.75
335.227	505.75
335.455	463.75
335.684	475.75
335.912	470.75
336.14	467.75
336.369	468.75
336.597	475.75
336.825	485.75
337.053	470.75
337.281	452.75
337.51	431.75
337.738	448.75
337.966	444.75
338.194	444.75
338.422	454.75
338.65	456.75
338.878	459.75
339.106	453.75
339.334	446.75
339.562	438.75
339.79	440.75
340.018	454.75
340.246	435.75
340.474	443.75
340.702	444.75
340.93	423.75
341.158	430.75
341.386	437.75
341.614	439.75
341.842	423.75
342.07	434.75
342.298	418.75
342.526	437.75
342.754	426.75
342.981	406.75
343.209	430.75
343.437	429.75
343.665	434.75
343.893	455.75
344.12	448.75
344.348	458.75
344.576	439.75
344.804	455.75
345.031	454.75
345.259	462.75
345.487	456.75
345.714	438.75
345.942	440.75
346.17	426.75
346.397	434.75
346.625	443.75
346.853	434.75
347.08	428.75
347.308	445.75
347.535	429.75
347.763	445.75
347.99	434.75
348.218	422.75
348.445	437.75
348.673	433.75
348.9	429.75
349.128	407.75
349.355	421.75
349.583	422.75
349.81	421.75
350.037	442.75
350.265	424.75
350.492	425.75
350.72	401.75
350.947	409.75
351.174	449.75
351.402	452.75
351.629	425.75
351.856	433.75
352.083	445.75
352.311	451.75
352.538	460.75
352.765	449.75
352.992	439.75
353.22	437.75
353.447	430.75
353.674	425.75
353.901	429.75
354.128	406.75
354.355	390.75
354.583	406.75
354.81	416.75
355.037	410.75
355.264	399.75
355.491	409.75
355.718	393.75
355.945	402.75
356.172	399.75
356.399	395.75
356.626	414.75
356.853	399.75
357.08	395.75
357.307	432.75
357.534	415.75
357.761	414.75
357.988	413.75
358.215	423.75
358.441	414.75
358.668	421.75
358.895	395.75
359.122	408.75
359.349	406.75
359.576	428.75
359.802	449.75
360.029	469.75
360.256	485.75
360.483	474.75
360.709	421.75
360.936	434.75
361.163	433.75
361.39	432.75
361.616	426.75
361.843	419.75
362.07	454.75
362.296	419.75
362.523	436.75
362.749	428.75
362.976	427.75
363.203	398.75
363.429	404.75
363.656	418.75
363.882	436.75
364.109	418.75
364.335	415.75
364.562	405.75
364.788	413.75
365.015	397.75
365.241	395.75
365.468	416.75
365.694	427.75
365.92	431.75
366.147	399.75
366.373	421.75
366.599	417.75
366.826	412.75
367.052	426.75
367.278	407.75
367.505	425.75
367.731	409.75
367.957	430.75
368.184	405.75
368.41	430.75
368.636	454.75
368.862	449.75
369.089	438.75
369.315	407.75
369.541	432.75
369.767	409.75
369.993	434.75
370.219	413.75
370.445	421.75
370.672	445.75
370.898	425.75
371.124	415.75
371.35	428.75
371.576	424.75
371.802	415.75
372.028	430.75
372.254	456.75
372.48	449.75
372.706	440.75
372.932	442.75
373.158	419.75
373.384	430.75
373.61	428.75
373.835	435.75
374.061	441.75
374.287	431.75
374.513	436.75
374.739	455.75
374.965	460.75
375.191	447.75
375.416	434.75
375.642	425.75
375.868	462.75
376.094	413.75
376.319	422.75
376.545	444.75
376.771	435.75
376.997	453.75
377.222	413.75
377.448	429.75
377.674	418.75
377.899	404.75
378.125	413.75
378.35	423.75
378.576	427.75
378.802	424.75
379.027	425.75
379.253	433.75
379.478	433.75
379.704	435.75
379.929	436.75
380.155	420.75
380.38	433.75
380.606	433.75
380.831	428.75
381.057	445.75
381.282	420.75
381.507	436.75
381.733	429.75
381.958	421.75
382.184	434.75
382.409	442.75
382.634	421.75
382.86	441.75
383.085	425.75
383.31	421.75
383.535	468.75
383.761	429.75
383.986	441.75
384.211	446.75
384.436	468.75
384.662	471.75
384.887	468.75
385.112	465.75
385.337	444.75
385.562	469.75
385.787	469.75
386.013	478.75
386.238	491.75
386.463	472.75
386.688	486.75
386.913	470.75
387.138	469.75
387.363	469.75
387.588	469.75
387.813	453.75
388.038	488.75
388.263	499.75
388.488	499.75
388.713	473.75
388.938	484.75
389.163	464.75
389.387	478.75
389.612	482.75
389.837	486.75
390.062	469.75
390.287	485.75
390.512	490.75
390.736	490.75
390.961	473.75
391.186	484.75
391.411	499.75
391.636	495.75
391.86	510.75
392.085	515.75
392.31	507.75
392.534	513.75
392.759	506.75
392.984	485.75
393.208	481.75
393.433	490.75
393.658	486.75
393.882	484.75
394.107	484.75
394.331	456.75
394.556	472.75
394.78	474.75
395.005	485.75
395.229	515.75
395.454	513.75
395.678	495.75
395.903	502.75
396.127	546.75
396.352	529.75
396.576	503.75
396.801	501.75
397.025	498.75
397.249	511.75
397.474	518.75
397.698	531.75
397.922	550.75
398.147	550.75
398.371	559.75
398.595	540.75
398.82	550.75
399.044	563.75
399.268	584.75
399.492	632.75
399.717	666.75
399.941	673.75
400.165	701.75
400.389	704.75
400.613	633.75
400.837	589.75
401.062	602.75
401.286	582.75
401.51	567.75
401.734	591.75
401.958	597.75
402.182	566.75
402.406	606.75
402.63	597.75
402.854	576.75
403.078	588.75
403.302	594.75
403.526	611.75
403.75	601.75
403.974	597.75
404.198	621.75
404.422	628.75
404.645	605.75
404.869	595.75
405.093	617.75
405.317	652.75
405.541	705.75
405.765	655.75
405.988	609.75
406.212	638.75
406.436	673.75
406.66	667.75
406.883	650.75
407.107	659.75
407.331	703.75
407.555	773.75
407.778	773.75
408.002	732.75
408.226	689.75
408.449	665.75
408.673	659.75
408.896	666.75
409.12	685.75
409.344	690.75
409.567	637.75
409.791	626.75
410.014	605.75
410.238	589.75
410.461	618.75
410.685	612.75
410.908	600.75
411.132	654.75
411.355	689.75
411.578	646.75
411.802	631.75
412.025	601.75
412.249	619.75
412.472	632.75
412.695	681.75
412.919	641.75
413.142	596.75
413.365	604.75
413.589	598.75
413.812	571.75
414.035	583.75
414.258	580.75
414.482	567.75
414.705	562.75
414.928	575.75
415.151	587.75
415.374	567.75
415.597	549.75
415.821	563.75
416.044	572.75
416.267	568.75
416.49	564.75
416.713	583.75
416.936	541.75
417.159	565.75
417.382	571.75
417.605	566.75
417.828	593.75
418.051	595.75
418.274	588.75
418.497	560.75
418.72	550.75
418.943	565.75
419.166	580.75
419.389	583.75
419.611	606.75
419.834	589.75
420.057	585.75
420.28	571.75
420.503	570.75
420.726	588.75
420.948	582.75
421.171	642.75
421.394	659.75
421.617	612.75
421.839	609.75
422.062	611.75
422.285	588.75
422.507	662.75
422.73	727.75
422.953	686.75
423.175	625.75
423.398	606.75
423.621	615.75
423.843	609.75
424.066	645.75
424.288	648.75
424.511	635.75
424.733	703.75
424.956	774.75
425.178	746.75
425.401	751.75
425.623	771.75
425.846	677.75
426.068	612.75
426.291	602.75
426.513	621.75
426.735	609.75
426.958	679.75
427.18	741.75
427.402	881.75
427.625	953.75
427.847	850.75
428.069	756.75
428.292	655.75
428.514	616.75
428.736	577.75
428.958	587.75
429.181	588.75
429.403	581.75
429.625	568.75
429.847	605.75
430.069	687.75
430.292	659.75
430.514	600.75
430.736	577.75
430.958	579.75
431.18	545.75
431.402	537.75
431.624	555.75
431.846	543.75
432.068	558.75
432.29	555.75
432.512	551.75
432.734	566.75
432.956	552.75
433.178	557.75
433.4	582.75
433.622	570.75
433.844	574.75
434.066	536.75
434.287	557.75
434.509	559.75
434.731	561.75
434.953	569.75
435.175	603.75
435.397	618.75
435.618	618.75
435.84	670.75
436.062	765.75
436.284	831.75
436.505	689.75
436.727	633.75
436.949	585.75
437.17	583.75
437.392	569.75
437.614	588.75
437.835	617.75
438.057	701.75
438.278	812.75
438.5	781.75
438.721	866.75
438.943	830.75
439.165	678.75
439.386	643.75
439.608	628.75
439.829	606.75
440.05	666.75
440.272	719.75
440.493	669.75
440.715	630.75
440.936	590.75
441.158	588.75
441.379	607.75
441.6	599.75
441.822	630.75
442.043	637.75
442.264	740.75
442.486	776.75
442.707	681.75
442.928	643.75
443.149	663.75
443.371	667.75
443.592	712.75
443.813	813.75
444.034	869.75
444.255	716.75
444.476	662.75
444.698	619.75
444.919	640.75
445.14	737.75
445.361	679.75
445.582	685.75
445.803	756.75
446.024	837.75
446.245	844.75
446.466	767.75
446.687	677.75
446.908	614.75
447.129	593.75
447.35	583.75
447.571	573.75
447.792	560.75
448.013	544.75
448.234	581.75
448.455	639.75
448.675	746.75
448.896	862.75
449.117	733.75
449.338	694.75
449.559	782.75
449.779	903.75
450	733.75
450.221	607.75
450.442	593.75
450.662	556.75
450.883	556.75
451.104	568.75
451.324	580.75
451.545	528.75
451.766	554.75
451.986	513.75
452.207	511.75
452.428	518.75
452.648	511.75
452.869	531.75
453.089	531.75
453.31	524.75
453.53	517.75
453.751	518.75
453.971	521.75
454.192	542.75
454.412	525.75
454.633	517.75
454.853	485.75
455.073	518.75
455.294	503.75
455.514	570.75
455.734	556.75
455.955	510.75
456.175	470.75
456.395	479.75
456.616	475.75
456.836	489.75
457.056	490.75
457.276	459.75
457.497	489.75
457.717	486.75
457.937	487.75
458.157	504.75
458.377	494.75
458.598	554.75
458.818	587.75
459.038	668.75
459.258	679.75
459.478	609.75
459.698	578.75
459.918	573.75
460.138	550.75
460.358	582.75
460.578	559.75
460.798	575.75
461.018	584.75
461.238	569.75
461.458	577.75
461.678	596.75
461.898	584.75
462.118	591.75
462.338	588.75
462.558	587.75
462.777	608.75
462.997	617.75
463.217	661.75
463.437	664.75
463.657	636.75
463.876	601.75
464.096	616.75
464.316	630.75
464.536	611.75
464.755	627.75
464.975	641.75
465.195	640.75
465.414	738.75
465.634	651.75
465.854	589.75
466.073	585.75
466.293	553.75
466.512	537.75
466.732	557.75
466.951	513.75
467.171	514.75
467.391	542.75
467.61	527.75
467.829	560.75
468.049	534.75
468.268	540.75
468.488	528.75
468.707	522.75
468.927	508.75
469.146	522.75
469.365	525.75
469.585	531.75
469.804	517.75
470.023	532.75
470.243	558.75
470.462	553.75
470.681	562.75
470.901	552.75
471.12	540.75
471.339	557.75
471.558	546.75
471.777	552.75
471.997	525.75
472.216	541.75
472.435	581.75
472.654	565.75
472.873	519.75
473.092	531.75
473.311	513.75
473.53	533.75
473.749	531.75
473.968	564.75
474.187	678.75
474.406	713.75
474.625	585.75
474.844	547.75
475.063	552.75
475.282	548.75
475.501	549.75
475.72	532.75
475.939	525.75
476.158	534.75
476.377	568.75
476.596	552.75
476.814	578.75
477.033	559.75
477.252	578.75
477.471	574.75
477.69	575.75
477.908	583.75
478.127	608.75
478.346	607.75
478.564	595.75
478.783	603.75
479.002	634.75
479.22	627.75
479.439	641.75
479.658	671.75
479.876	649.75
480.095	652.75
480.313	697.75
480.532	682.75
480.751	667.75
480.969	707.75
481.188	734.75
481.406	771.75
481.624	685.75
481.843	635.75
482.061	652.75
482.28	642.75
482.498	625.75
482.717	648.75
482.935	650.75
483.153	634.75
483.372	616.75
483.59	633.75
483.808	637.75
484.027	616.75
484.245	635.75
484.463	631.75
484.681	647.75
484.9	625.75
485.118	637.75
485.336	635.75
485.554	641.75
485.772	656.75
485.99	652.75
486.209	659.75
486.427	672.75
486.645	683.75
486.863	674.75
487.081	660.75
487.299	673.75
487.517	667.75
487.735	663.75
487.953	667.75
488.171	683.75
488.389	692.75
488.607	674.75
488.825	686.75
489.043	685.75
489.261	691.75
489.479	687.75
489.696	667.75
489.914	682.75
490.132	681.75
490.35	715.75
490.568	712.75
490.786	709.75
491.003	706.75
491.221	750.75
491.439	740.75
491.657	761.75
491.874	775.75
492.092	748.75
492.31	777.75
492.527	781.75
492.745	761.75
492.963	781.75
493.18	761.75
493.398	786.75
493.615	825.75
493.833	777.75
494.05	776.75
494.268	778.75
494.485	777.75
494.703	757.75
494.92	761.75
495.138	796.75
495.355	814.75
495.573	768.75
495.79	780.75
496.008	802.75
496.225	792.75
496.442	809.75
496.66	775.75
496.877	811.75
497.094	807.75
497.312	820.75
497.529	815.75
497.746	863.75
497.963	867.75
498.181	873.75
498.398	876.75
498.615	913.75
498.832	926.75
499.049	973.75
499.267	980.75
499.484	1021.75
499.701	1089.75
499.918	1118.75
500.135	1182.75
500.352	1232.75
500.569	1242.75
500.786	1286.75
501.003	1195.75
501.22	1207.75
501.437	1154.75
501.654	1085.75
501.871	1057.75
502.088	1046.75
502.305	990.75
502.522	948.75
502.739	917.75
502.956	897.75
503.172	856.75
503.389	829.75
503.606	850.75
503.823	856.75
504.04	827.75
504.256	812.75
504.473	821.75
504.69	827.75
504.907	825.75
505.123	815.75
505.34	788.75
505.557	786.75
505.773	787.75
505.99	771.75
506.207	739.75
506.423	771.75
506.64	755.75
506.856	731.75
507.073	715.75
507.289	717.75
507.506	718.75
507.722	761.75
507.939	756.75
508.155	723.75
508.372	721.75
508.588	704.75
508.805	733.75
509.021	710.75
509.238	716.75
509.454	714.75
509.67	712.75
509.887	703.75
510.103	693.75
510.319	694.75
510.536	816.75
510.752	1331.75
510.968	1070.75
511.184	726.75
511.401	699.75
511.617	678.75
511.833	680.75
512.049	693.75
512.265	669.75
512.481	679.75
512.698	673.75
512.914	684.75
513.13	673.75
513.346	650.75
513.562	649.75
513.778	662.75
513.994	683.75
514.21	693.75
514.426	698.75
514.642	746.75
514.858	767.75
515.074	824.75
515.29	949.75
515.506	1377.75
515.721	1171.75
515.937	827.75
516.153	773.75
516.369	732.75
516.585	740.75
516.801	714.75
517.016	728.75
517.232	725.75
517.448	737.75
517.664	724.75
517.879	754.75
518.095	721.75
518.311	738.75
518.527	729.75
518.742	725.75
518.958	714.75
519.173	700.75
519.389	691.75
519.605	691.75
519.82	707.75
520.036	716.75
520.251	718.75
520.467	737.75
520.682	715.75
520.898	723.75
521.113	733.75
521.329	783.75
521.544	833.75
521.76	1057.75
521.975	1779.75
522.19	1781.75
522.406	971.75
522.621	742.75
522.836	675.75
523.052	667.75
523.267	639.75
523.482	658.75
523.698	639.75
523.913	615.75
524.128	647.75
524.343	611.75
524.559	594.75
524.774	618.75
524.989	584.75
525.204	620.75
525.419	611.75
525.634	592.75
525.849	574.75
526.064	586.75
526.28	570.75
526.495	594.75
526.71	562.75
526.925	570.75
527.14	561.75
527.355	574.75
527.57	591.75
527.785	577.75
527.999	543.75
528.214	555.75
528.429	573.75
528.644	565.75
528.859	549.75
529.074	566.75
529.289	579.75
529.503	662.75
529.718	650.75
529.933	586.75
530.148	570.75
530.363	574.75
530.577	554.75
530.792	581.75
531.007	557.75
531.221	570.75
531.436	567.75
531.651	561.75
531.865	549.75
532.08	525.75
532.295	550.75
532.509	554.75
532.724	529.75
532.938	549.75
533.153	551.75
533.367	549.75
533.582	532.75
533.796	526.75
534.011	534.75
534.225	523.75
534.44	551.75
534.654	528.75
534.868	538.75
535.083	530.75
535.297	528.75
535.511	526.75
535.726	551.75
535.94	567.75
536.154	541.75
536.369	526.75
536.583	519.75
536.797	522.75
537.011	534.75
537.225	519.75
537.44	527.75
537.654	538.75
537.868	499.75
538.082	519.75
538.296	520.75
538.51	498.75
538.724	517.75
538.938	511.75
539.153	537.75
539.367	552.75
539.581	522.75
539.795	515.75
540.009	525.75
540.222	499.75
540.436	502.75
540.65	525.75
540.864	522.75
541.078	516.75
541.292	529.75
541.506	530.75
541.72	486.75
541.934	520.75
542.147	510.75
542.361	515.75
542.575	505.75
542.789	513.75
543.002	504.75
543.216	515.75
543.43	525.75
543.644	510.75
543.857	520.75
544.071	501.75
544.285	527.75
544.498	504.75
544.712	506.75
544.925	502.75
545.139	517.75
545.352	517.75
545.566	528.75
545.779	530.75
545.993	502.75
546.206	519.75
546.42	495.75
546.633	501.75
546.847	481.75
547.06	482.75
547.274	515.75
547.487	509.75
547.7	488.75
547.914	511.75
548.127	475.75
548.34	500.75
548.554	485.75
548.767	484.75
548.98	508.75
549.193	503.75
549.407	490.75
549.62	513.75
549.833	523.75
550.046	511.75
550.259	507.75
550.473	483.75
550.686	476.75
550.899	499.75
551.112	511.75
551.325	520.75
551.538	493.75
551.751	489.75
551.964	497.75
552.177	495.75
552.39	523.75
552.603	487.75
552.816	523.75
553.029	502.75
553.242	520.75
553.455	519.75
553.667	528.75
553.88	524.75
554.093	515.75
554.306	513.75
554.519	498.75
554.732	481.75
554.944	480.75
555.157	485.75
555.37	464.75
555.583	487.75
555.795	477.75
556.008	458.75
556.221	440.75
556.433	449.75
556.646	447.75
556.859	466.75
557.071	451.75
557.284	448.75
557.496	450.75
557.709	469.75
557.921	459.75
558.134	428.75
558.346	457.75
558.559	419.75
558.771	409.75
558.984	450.75
559.196	456.75
559.409	434.75
559.621	442.75
559.833	433.75
560.046	449.75
560.258	445.75
560.47	457.75
560.683	437.75
560.895	433.75
561.107	445.75
561.32	440.75
561.532	442.75
561.744	434.75
561.956	464.75
562.168	454.75
562.381	452.75
562.593	458.75
562.805	453.75
563.017	449.75
563.229	446.75
563.441	456.75
563.653	439.75
563.865	438.75
564.077	448.75
564.289	449.75
564.501	475.75
564.713	459.75
564.925	472.75
565.137	484.75
565.349	470.75
565.561	481.75
565.773	488.75
565.985	504.75
566.197	505.75
566.408	556.75
566.62	550.75
566.832	551.75
567.044	585.75
567.255	557.75
567.467	593.75
567.679	575.75
567.891	617.75
568.102	603.75
568.314	569.75
568.526	559.75
568.737	577.75
568.949	531.75
569.161	502.75
569.372	474.75
569.584	476.75
569.795	476.75
570.007	451.75
570.218	490.75
570.43	482.75
570.641	444.75
570.853	437.75
571.064	453.75
571.276	454.75
571.487	435.75
571.698	422.75
571.91	418.75
572.121	412.75
572.333	426.75
572.544	395.75
572.755	430.75
572.966	410.75
573.178	403.75
573.389	393.75
573.6	381.75
573.811	401.75
574.023	403.75
574.234	397.75
574.445	376.75
574.656	365.75
574.867	392.75
575.078	389.75
575.289	388.75
575.501	394.75
575.712	363.75
575.923	353.75
576.134	372.75
576.345	377.75
576.556	362.75
576.767	353.75
576.978	365.75
577.188	373.75
577.399	366.75
577.61	362.75
577.821	354.75
578.032	356.75
578.243	399.75
578.454	611.75
578.665	463.75
578.875	371.75
579.086	353.75
579.297	366.75
579.508	362.75
579.718	339.75
579.929	345.75
580.14	361.75
580.35	340.75
580.561	361.75
580.772	356.75
580.982	354.75
581.193	358.75
581.403	341.75
581.614	355.75
581.825	338.75
582.035	347.75
582.246	330.75
582.456	346.75
582.667	348.75
582.877	342.75
583.087	335.75
583.298	321.75
583.508	350.75
583.719	332.75
583.929	331.75
584.139	342.75
584.35	347.75
584.56	333.75
584.77	325.75
584.981	355.75
585.191	334.75
585.401	342.75
585.611	345.75
585.821	325.75
586.032	345.75
586.242	341.75
586.452	326.75
586.662	335.75
586.872	320.75
587.082	332.75
587.292	331.75
587.502	331.75
587.713	338.75
587.923	332.75
588.133	318.75
588.343	314.75
588.553	319.75
588.762	327.75
588.972	337.75
589.182	369.75
589.392	354.75
589.602	339.75
589.812	333.75
590.022	317.75
590.232	338.75
590.441	326.75
590.651	322.75
590.861	348.75
591.071	335.75
591.281	332.75
591.49	316.75
591.7	345.75
591.91	316.75
592.119	343.75
592.329	346.75
592.539	339.75
592.748	366.75
592.958	341.75
593.167	367.75
593.377	358.75
593.587	333.75
593.796	370.75
594.006	359.75
594.215	350.75
594.424	354.75
594.634	363.75
594.843	335.75
595.053	360.75
595.262	337.75
595.472	352.75
595.681	339.75
595.89	330.75
596.1	313.75
596.309	326.75
596.518	324.75
596.727	330.75
596.937	309.75
597.146	317.75
597.355	308.75
597.564	298.75
597.774	320.75
597.983	311.75
598.192	305.75
598.401	293.75
598.61	296.75
598.819	294.75
599.028	294.75
599.237	307.75
599.446	291.75
599.655	307.75
599.864	303.75
600.073	280.75
600.282	302.75
600.491	305.75
600.7	300.75
600.909	292.75
601.118	291.75
601.327	289.75
601.536	275.75
601.745	281.75
601.953	271.75
602.162	296.75
602.371	290.75
602.58	278.75
602.789	293.75
602.997	288.75
603.206	277.75
603.415	277.75
603.623	281.75
603.832	291.75
604.041	279.75
604.249	290.75
604.458	280.75
604.666	274.75
604.875	279.75
605.084	274.75
605.292	275.75
605.501	276.75
605.709	259.75
605.918	266.75
606.126	246.75
606.334	275.75
606.543	274.75
606.751	283.75
606.96	262.75
607.168	274.75
607.376	264.75
607.585	270.75
607.793	269.75
608.001	281.75
608.21	279.75
608.418	254.75
608.626	262.75
608.834	252.75
609.043	273.75
609.251	287.75
609.459	268.75
609.667	265.75
609.875	254.75
610.083	271.75
610.291	239.75
610.499	253.75
610.707	265.75
610.916	265.75
611.124	253.75
611.332	279.75
611.54	288.75
611.748	250.75
611.955	268.75
612.163	266.75
612.371	269.75
612.579	255.75
612.787	255.75
612.995	241.75
613.203	252.75
613.411	253.75
613.618	259.75
613.826	261.75
614.034	263.75
614.242	257.75
614.449	257.75
614.657	259.75
614.865	261.75
615.072	251.75
615.28	255.75
615.488	257.75
615.695	260.75
615.903	268.75
616.111	260.75
616.318	257.75
616.526	267.75
616.733	269.75
616.941	256.75
617.148	275.75
617.356	257.75
617.563	269.75
617.771	276.75
617.978	251.75
618.185	245.75
618.393	239.75
618.6	251.75
618.807	260.75
619.015	250.75
619.222	247.75
619.429	236.75
619.637	251.75
619.844	261.75
620.051	248.75
620.258	241.75
620.466	238.75
620.673	235.75
620.88	231.75
621.087	257.75
621.294	241.75
621.501	248.75
621.708	246.75
621.915	227.75
622.122	230.75
622.329	232.75
622.536	241.75
622.743	258.75
622.95	237.75
623.157	241.75
623.364	224.75
623.571	235.75
623.778	249.75
623.985	231.75
624.192	237.75
624.399	223.75
624.606	225.75
624.812	238.75
625.019	246.75
625.226	213.75
625.433	232.75
625.639	206.75
625.846	216.75
626.053	232.75
626.259	217.75
626.466	241.75
626.673	218.75
626.879	227.75
627.086	230.75
627.293	233.75
627.499	224.75
627.706	230.75
627.912	229.75
628.119	225.75
628.325	231.75
628.532	231.75
628.738	222.75
628.945	214.75
629.151	211.75
629.357	202.75
629.564	222.75
629.77	221.75
629.976	220.75
630.183	214.75
630.389	217.75
630.595	217.75
630.802	217.75
631.008	202.75
631.214	218.75
631.42	207.75
631.627	208.75
631.833	204.75
632.039	193.75
632.245	209.75
632.451	202.75
632.657	215.75
632.863	212.75
633.069	199.75
633.275	193.75
633.481	190.75
633.688	199.75
633.893	191.75
634.099	217.75
634.305	199.75
634.511	202.75
634.717	208.75
634.923	205.75
635.129	191.75
635.335	187.75
635.541	191.75
635.747	204.75
635.952	204.75
636.158	205.75
636.364	202.75
636.57	199.75
636.775	202.75
636.981	185.75
637.187	207.75
637.392	210.75
637.598	184.75
637.804	182.75
638.009	199.75
638.215	201.75
638.421	209.75
638.626	189.75
638.832	191.75
639.037	187.75
639.243	190.75
639.448	179.75
639.654	178.75
639.859	195.75
640.065	181.75
640.27	187.75
640.475	185.75
640.681	193.75
640.886	191.75
641.091	181.75
641.297	174.75
641.502	175.75
641.707	175.75
641.913	182.75
642.118	185.75
642.323	161.75
642.528	191.75
642.733	171.75
642.939	175.75
643.144	185.75
643.349	185.75
643.554	178.75
643.759	179.75
643.964	172.75
644.169	172.75
644.374	191.75
644.579	175.75
644.784	169.75
644.989	166.75
645.194	196.75
645.399	190.75
645.604	182.75
645.809	185.75
646.014	161.75
646.219	172.75
646.423	175.75
646.628	175.75
646.833	177.75
647.038	174.75
647.243	172.75
647.447	167.75
647.652	179.75
647.857	170.75
648.062	169.75
648.266	172.75
648.471	188.75
648.676	185.75
648.88	189.75
649.085	182.75
649.289	174.75
649.494	188.75
649.698	193.75
649.903	179.75
650.107	187.75
650.312	162.75
650.516	188.75
650.721	163.75
650.925	169.75
651.13	147.75
651.334	153.75
651.539	154.75
651.743	164.75
651.947	153.75
652.152	151.75
652.356	137.75
652.56	144.75
652.764	166.75
652.969	155.75
653.173	148.75
653.377	162.75
653.581	137.75
653.785	133.75
653.99	151.75
654.194	147.75
654.398	153.75
654.602	141.75
654.806	168.75
655.01	164.75
655.214	163.75
655.418	140.75
655.622	157.75
655.826	132.75
656.03	147.75
656.234	144.75
656.438	130.75
656.642	135.75
656.846	131.75
657.049	136.75
657.253	134.75
657.457	129.75
657.661	122.75
657.865	110.75
658.068	111.75
658.272	110.75
658.476	112.75
658.68	116.75
658.883	114.75
659.087	93.75
659.291	96.75
659.494	107.75
659.698	95.75
659.901	94.75
660.105	76.75
660.309	89.75
660.512	87.75
660.716	96.75
660.919	83.75
661.123	97.75
661.326	97.75
661.53	94.75
661.733	87.75
661.936	84.75
662.14	91.75
662.343	84.75
662.546	79.75
662.75	72.75
662.953	97.75
663.156	91.75
663.36	80.75
663.563	90.75
663.766	79.75
663.969	90.75
664.173	81.75
664.376	70.75
664.579	81.75
664.782	77.75
664.985	81.75
665.188	75.75
665.391	81.75
665.594	91.75
665.797	78.75
666	70.75
666.203	98.75
666.406	76.75
666.609	88.75
666.812	75.75
667.015	81.75
667.218	89.75
667.421	93.75
667.624	71.75
667.827	91.75
668.03	80.75
668.232	79.75
668.435	67.75
668.638	82.75
668.841	79.75
669.043	85.75
669.246	97.75
669.449	89.75
669.651	97.75
669.854	82.75
670.057	75.75
670.259	80.75
670.462	84.75
670.665	72.75
670.867	81.75
671.07	70.75
671.272	86.75
671.475	84.75
671.677	87.75
671.88	81.75
672.082	84.75
672.284	82.75
672.487	77.75
672.689	69.75
672.892	86.75
