Data from 1979.PennyLincolnUp.Lamp.En5.5.200Scan.071719.P1_HRD10591_16-17-43-862.txt Node
Date: Thu Jul 18 16:17:43 EDT 2019
User: cochatt
Spectrometer: HR+D1059
Trigger mode: 1
Integration Time (sec): 1.000000E-1
Scans to average: 1
Electric dark correction enabled: true
Nonlinearity correction enabled: false
Boxcar width: 0
XAxis mode: Wavelengths
Number of Pixels in Spectrum: 2048
>>>>>Begin Spectral Data<<<<<
223.165	-17.12
223.4	-17.12
223.635	-17.12
223.869	-17.12
224.104	-18.12
224.338	-6.12
224.573	-22.12
224.808	4.88
225.042	-3.12
225.277	-20.12
225.511	-6.12
225.746	8.88
225.98	17.88
226.215	6.88
226.449	9.88
226.683	13.88
226.918	19.88
227.152	27.88
227.387	32.88
227.621	34.88
227.856	31.88
228.09	38.88
228.324	56.88
228.559	48.88
228.793	79.88
229.027	92.88
229.262	97.88
229.496	127.88
229.73	94.88
229.964	127.88
230.199	99.88
230.433	117.88
230.667	109.88
230.901	106.88
231.136	101.88
231.37	102.88
231.604	103.88
231.838	108.88
232.072	102.88
232.306	103.88
232.541	103.88
232.775	111.88
233.009	110.88
233.243	123.88
233.477	112.88
233.711	116.88
233.945	119.88
234.179	119.88
234.413	108.88
234.647	111.88
234.881	100.88
235.115	99.88
235.349	105.88
235.583	104.88
235.817	108.88
236.051	123.88
236.285	117.88
236.519	120.88
236.753	131.88
236.987	134.88
237.221	143.88
237.455	174.88
237.689	148.88
237.922	124.88
238.156	129.88
238.39	113.88
238.624	117.88
238.858	121.88
239.091	127.88
239.325	119.88
239.559	140.88
239.793	123.88
240.027	112.88
240.26	124.88
240.494	141.88
240.728	135.88
240.961	134.88
241.195	128.88
241.429	126.88
241.662	129.88
241.896	136.88
242.13	124.88
242.363	129.88
242.597	135.88
242.83	135.88
243.064	128.88
243.298	131.88
243.531	118.88
243.765	125.88
243.998	143.88
244.232	135.88
244.465	139.88
244.699	133.88
244.932	149.88
245.166	140.88
245.399	126.88
245.633	121.88
245.866	130.88
246.099	127.88
246.333	131.88
246.566	136.88
246.8	130.88
247.033	153.88
247.266	150.88
247.5	163.88
247.733	164.88
247.966	160.88
248.2	161.88
248.433	145.88
248.666	157.88
248.899	158.88
249.133	175.88
249.366	175.88
249.599	176.88
249.832	163.88
250.066	160.88
250.299	157.88
250.532	163.88
250.765	164.88
250.998	176.88
251.231	191.88
251.465	193.88
251.698	188.88
251.931	167.88
252.164	175.88
252.397	172.88
252.63	183.88
252.863	179.88
253.096	183.88
253.329	190.88
253.562	170.88
253.795	187.88
254.028	184.88
254.261	196.88
254.494	201.88
254.727	207.88
254.96	228.88
255.193	222.88
255.426	211.88
255.659	188.88
255.892	180.88
256.124	193.88
256.357	206.88
256.59	201.88
256.823	181.88
257.056	195.88
257.289	185.88
257.521	184.88
257.754	199.88
257.987	183.88
258.22	172.88
258.452	172.88
258.685	181.88
258.918	194.88
259.151	189.88
259.383	192.88
259.616	196.88
259.849	192.88
260.081	206.88
260.314	195.88
260.547	206.88
260.779	190.88
261.012	194.88
261.244	199.88
261.477	179.88
261.71	185.88
261.942	191.88
262.175	200.88
262.407	210.88
262.64	195.88
262.872	182.88
263.105	186.88
263.337	199.88
263.57	176.88
263.802	187.88
264.035	181.88
264.267	182.88
264.499	193.88
264.732	190.88
264.964	182.88
265.197	191.88
265.429	188.88
265.661	212.88
265.894	204.88
266.126	205.88
266.358	201.88
266.591	191.88
266.823	212.88
267.055	199.88
267.287	203.88
267.52	183.88
267.752	197.88
267.984	219.88
268.216	195.88
268.448	204.88
268.681	196.88
268.913	219.88
269.145	207.88
269.377	222.88
269.609	225.88
269.841	223.88
270.073	224.88
270.306	252.88
270.538	254.88
270.77	239.88
271.002	231.88
271.234	236.88
271.466	255.88
271.698	264.88
271.93	267.88
272.162	248.88
272.394	248.88
272.626	246.88
272.858	230.88
273.09	250.88
273.322	238.88
273.553	227.88
273.785	230.88
274.017	217.88
274.249	229.88
274.481	249.88
274.713	223.88
274.945	238.88
275.176	226.88
275.408	228.88
275.64	226.88
275.872	230.88
276.104	223.88
276.335	230.88
276.567	224.88
276.799	231.88
277.031	262.88
277.262	256.88
277.494	264.88
277.726	249.88
277.957	246.88
278.189	247.88
278.421	243.88
278.652	245.88
278.884	228.88
279.115	239.88
279.347	228.88
279.579	225.88
279.81	247.88
280.042	235.88
280.273	248.88
280.505	261.88
280.736	233.88
280.968	254.88
281.199	251.88
281.431	235.88
281.662	225.88
281.894	233.88
282.125	243.88
282.356	250.88
282.588	269.88
282.819	268.88
283.051	252.88
283.282	236.88
283.513	244.88
283.745	244.88
283.976	250.88
284.207	250.88
284.439	254.88
284.67	233.88
284.901	247.88
285.132	252.88
285.364	244.88
285.595	246.88
285.826	252.88
286.057	248.88
286.288	263.88
286.52	239.88
286.751	253.88
286.982	244.88
287.213	252.88
287.444	248.88
287.675	267.88
287.906	251.88
288.138	258.88
288.369	256.88
288.6	286.88
288.831	283.88
289.062	276.88
289.293	276.88
289.524	256.88
289.755	237.88
289.986	283.88
290.217	251.88
290.448	264.88
290.679	280.88
290.91	262.88
291.141	255.88
291.371	247.88
291.602	276.88
291.833	277.88
292.064	266.88
292.295	273.88
292.526	264.88
292.757	263.88
292.987	252.88
293.218	250.88
293.449	268.88
293.68	270.88
293.91	271.88
294.141	256.88
294.372	247.88
294.603	270.88
294.833	270.88
295.064	276.88
295.295	259.88
295.525	270.88
295.756	271.88
295.987	280.88
296.217	291.88
296.448	308.88
296.679	286.88
296.909	274.88
297.14	281.88
297.37	278.88
297.601	285.88
297.831	276.88
298.062	276.88
298.292	272.88
298.523	299.88
298.753	279.88
298.984	290.88
299.214	287.88
299.445	278.88
299.675	284.88
299.905	284.88
300.136	287.88
300.366	270.88
300.597	292.88
300.827	282.88
301.057	293.88
301.288	296.88
301.518	286.88
301.748	292.88
301.979	281.88
302.209	285.88
302.439	299.88
302.669	293.88
302.9	299.88
303.13	300.88
303.36	305.88
303.59	319.88
303.82	311.88
304.051	296.88
304.281	301.88
304.511	292.88
304.741	315.88
304.971	286.88
305.201	309.88
305.431	292.88
305.661	299.88
305.891	310.88
306.121	307.88
306.352	311.88
306.582	318.88
306.812	298.88
307.042	281.88
307.272	319.88
307.502	316.88
307.731	322.88
307.961	290.88
308.191	323.88
308.421	303.88
308.651	302.88
308.881	310.88
309.111	312.88
309.341	300.88
309.571	315.88
309.8	309.88
310.03	332.88
310.26	331.88
310.49	329.88
310.72	332.88
310.949	349.88
311.179	336.88
311.409	344.88
311.639	324.88
311.868	326.88
312.098	324.88
312.328	317.88
312.557	352.88
312.787	351.88
313.017	338.88
313.246	336.88
313.476	317.88
313.706	328.88
313.935	338.88
314.165	332.88
314.394	361.88
314.624	340.88
314.853	349.88
315.083	350.88
315.312	336.88
315.542	352.88
315.771	327.88
316.001	336.88
316.23	334.88
316.46	350.88
316.689	347.88
316.919	330.88
317.148	326.88
317.377	339.88
317.607	337.88
317.836	340.88
318.065	320.88
318.295	336.88
318.524	332.88
318.753	345.88
318.983	328.88
319.212	341.88
319.441	338.88
319.67	342.88
319.9	341.88
320.129	349.88
320.358	348.88
320.587	331.88
320.816	341.88
321.046	349.88
321.275	331.88
321.504	371.88
321.733	347.88
321.962	357.88
322.191	355.88
322.42	359.88
322.649	380.88
322.878	381.88
323.108	376.88
323.337	378.88
323.566	400.88
323.795	435.88
324.024	453.88
324.253	524.88
324.482	675.88
324.71	1063.88
324.939	1545.88
325.168	1332.88
325.397	687.88
325.626	491.88
325.855	438.88
326.084	427.88
326.313	399.88
326.542	415.88
326.77	462.88
326.999	511.88
327.228	632.88
327.457	957.88
327.686	1165.88
327.914	771.88
328.143	511.88
328.372	501.88
328.6	467.88
328.829	425.88
329.058	448.88
329.287	448.88
329.515	445.88
329.744	408.88
329.972	411.88
330.201	428.88
330.43	439.88
330.658	451.88
330.887	478.88
331.115	477.88
331.344	423.88
331.572	412.88
331.801	428.88
332.03	420.88
332.258	408.88
332.486	402.88
332.715	391.88
332.943	404.88
333.172	397.88
333.4	425.88
333.629	439.88
333.857	437.88
334.085	462.88
334.314	465.88
334.542	440.88
334.771	480.88
334.999	457.88
335.227	442.88
335.455	422.88
335.684	421.88
335.912	407.88
336.14	406.88
336.369	392.88
336.597	407.88
336.825	423.88
337.053	426.88
337.281	399.88
337.51	389.88
337.738	391.88
337.966	406.88
338.194	415.88
338.422	394.88
338.65	389.88
338.878	404.88
339.106	401.88
339.334	392.88
339.562	381.88
339.79	393.88
340.018	397.88
340.246	397.88
340.474	403.88
340.702	391.88
340.93	407.88
341.158	379.88
341.386	405.88
341.614	403.88
341.842	393.88
342.07	389.88
342.298	378.88
342.526	383.88
342.754	382.88
342.981	372.88
343.209	415.88
343.437	387.88
343.665	401.88
343.893	403.88
344.12	419.88
344.348	408.88
344.576	405.88
344.804	426.88
345.031	390.88
345.259	403.88
345.487	385.88
345.714	389.88
345.942	377.88
346.17	382.88
346.397	366.88
346.625	387.88
346.853	375.88
347.08	361.88
347.308	368.88
347.535	391.88
347.763	375.88
347.99	358.88
348.218	377.88
348.445	389.88
348.673	384.88
348.9	384.88
349.128	380.88
349.355	358.88
349.583	381.88
349.81	361.88
350.037	375.88
350.265	378.88
350.492	381.88
350.72	389.88
350.947	389.88
351.174	375.88
351.402	382.88
351.629	384.88
351.856	377.88
352.083	385.88
352.311	390.88
352.538	366.88
352.765	391.88
352.992	371.88
353.22	365.88
353.447	381.88
353.674	379.88
353.901	362.88
354.128	377.88
354.355	365.88
354.583	374.88
354.81	357.88
355.037	359.88
355.264	360.88
355.491	352.88
355.718	366.88
355.945	366.88
356.172	381.88
356.399	366.88
356.626	349.88
356.853	376.88
357.08	367.88
357.307	352.88
357.534	345.88
357.761	363.88
357.988	353.88
358.215	350.88
358.441	380.88
358.668	366.88
358.895	362.88
359.122	387.88
359.349	378.88
359.576	379.88
359.802	396.88
360.029	380.88
360.256	406.88
360.483	396.88
360.709	377.88
360.936	382.88
361.163	377.88
361.39	378.88
361.616	385.88
361.843	413.88
362.07	387.88
362.296	391.88
362.523	390.88
362.749	391.88
362.976	399.88
363.203	359.88
363.429	370.88
363.656	381.88
363.882	366.88
364.109	367.88
364.335	372.88
364.562	383.88
364.788	374.88
365.015	379.88
365.241	389.88
365.468	367.88
365.694	371.88
365.92	365.88
366.147	369.88
366.373	386.88
366.599	364.88
366.826	362.88
367.052	379.88
367.278	371.88
367.505	381.88
367.731	380.88
367.957	384.88
368.184	372.88
368.41	378.88
368.636	369.88
368.862	371.88
369.089	379.88
369.315	369.88
369.541	374.88
369.767	376.88
369.993	381.88
370.219	381.88
370.445	386.88
370.672	377.88
370.898	370.88
371.124	378.88
371.35	408.88
371.576	394.88
371.802	395.88
372.028	378.88
372.254	388.88
372.48	382.88
372.706	400.88
372.932	401.88
373.158	367.88
373.384	381.88
373.61	383.88
373.835	393.88
374.061	394.88
374.287	401.88
374.513	392.88
374.739	409.88
374.965	410.88
375.191	419.88
375.416	398.88
375.642	380.88
375.868	393.88
376.094	396.88
376.319	383.88
376.545	369.88
376.771	373.88
376.997	386.88
377.222	368.88
377.448	389.88
377.674	396.88
377.899	400.88
378.125	400.88
378.35	402.88
378.576	384.88
378.802	376.88
379.027	377.88
379.253	375.88
379.478	398.88
379.704	394.88
379.929	405.88
380.155	397.88
380.38	393.88
380.606	385.88
380.831	397.88
381.057	398.88
381.282	381.88
381.507	386.88
381.733	386.88
381.958	400.88
382.184	402.88
382.409	401.88
382.634	410.88
382.86	391.88
383.085	415.88
383.31	409.88
383.535	429.88
383.761	420.88
383.986	383.88
384.211	411.88
384.436	401.88
384.662	430.88
384.887	408.88
385.112	428.88
385.337	419.88
385.562	419.88
385.787	423.88
386.013	454.88
386.238	436.88
386.463	437.88
386.688	444.88
386.913	437.88
387.138	416.88
387.363	438.88
387.588	435.88
387.813	428.88
388.038	425.88
388.263	428.88
388.488	456.88
388.713	442.88
388.938	429.88
389.163	432.88
389.387	415.88
389.612	417.88
389.837	439.88
390.062	421.88
390.287	416.88
390.512	424.88
390.736	422.88
390.961	449.88
391.186	445.88
391.411	447.88
391.636	446.88
391.86	451.88
392.085	469.88
392.31	472.88
392.534	430.88
392.759	460.88
392.984	445.88
393.208	445.88
393.433	446.88
393.658	462.88
393.882	428.88
394.107	435.88
394.331	452.88
394.556	462.88
394.78	453.88
395.005	435.88
395.229	464.88
395.454	441.88
395.678	474.88
395.903	447.88
396.127	485.88
396.352	480.88
396.576	470.88
396.801	481.88
397.025	471.88
397.249	475.88
397.474	482.88
397.698	497.88
397.922	491.88
398.147	482.88
398.371	485.88
398.595	494.88
398.82	507.88
399.044	521.88
399.268	527.88
399.492	580.88
399.717	599.88
399.941	629.88
400.165	636.88
400.389	611.88
400.613	592.88
400.837	533.88
401.062	537.88
401.286	506.88
401.51	525.88
401.734	506.88
401.958	517.88
402.182	534.88
402.406	524.88
402.63	521.88
402.854	529.88
403.078	528.88
403.302	522.88
403.526	517.88
403.75	527.88
403.974	542.88
404.198	527.88
404.422	527.88
404.645	523.88
404.869	552.88
405.093	563.88
405.317	576.88
405.541	643.88
405.765	595.88
405.988	563.88
406.212	575.88
406.436	584.88
406.66	597.88
406.883	568.88
407.107	611.88
407.331	647.88
407.555	694.88
407.778	693.88
408.002	635.88
408.226	618.88
408.449	584.88
408.673	598.88
408.896	607.88
409.12	649.88
409.344	609.88
409.567	542.88
409.791	575.88
410.014	525.88
410.238	539.88
410.461	540.88
410.685	537.88
410.908	569.88
411.132	588.88
411.355	615.88
411.578	571.88
411.802	532.88
412.025	528.88
412.249	525.88
412.472	547.88
412.695	583.88
412.919	570.88
413.142	539.88
413.365	523.88
413.589	523.88
413.812	522.88
414.035	495.88
414.258	529.88
414.482	522.88
414.705	525.88
414.928	529.88
415.151	515.88
415.374	519.88
415.597	520.88
415.821	512.88
416.044	507.88
416.267	544.88
416.49	497.88
416.713	506.88
416.936	515.88
417.159	505.88
417.382	526.88
417.605	501.88
417.828	493.88
418.051	534.88
418.274	510.88
418.497	512.88
418.72	507.88
418.943	492.88
419.166	532.88
419.389	555.88
419.611	564.88
419.834	543.88
420.057	546.88
420.28	560.88
420.503	529.88
420.726	517.88
420.948	546.88
421.171	569.88
421.394	587.88
421.617	543.88
421.839	529.88
422.062	527.88
422.285	529.88
422.507	576.88
422.73	663.88
422.953	627.88
423.175	582.88
423.398	549.88
423.621	546.88
423.843	576.88
424.066	552.88
424.288	537.88
424.511	574.88
424.733	594.88
424.956	662.88
425.178	632.88
425.401	642.88
425.623	655.88
425.846	608.88
426.068	551.88
426.291	554.88
426.513	526.88
426.735	539.88
426.958	574.88
427.18	633.88
427.402	740.88
427.625	824.88
427.847	697.88
428.069	634.88
428.292	575.88
428.514	526.88
428.736	506.88
428.958	521.88
429.181	489.88
429.403	496.88
429.625	536.88
429.847	532.88
430.069	587.88
430.292	573.88
430.514	531.88
430.736	527.88
430.958	500.88
431.18	493.88
431.402	466.88
431.624	472.88
431.846	485.88
432.068	502.88
432.29	496.88
432.512	482.88
432.734	517.88
432.956	505.88
433.178	528.88
433.4	487.88
433.622	488.88
433.844	468.88
434.066	484.88
434.287	486.88
434.509	497.88
434.731	519.88
434.953	526.88
435.175	532.88
435.397	547.88
435.618	529.88
435.84	583.88
436.062	656.88
436.284	727.88
436.505	599.88
436.727	560.88
436.949	536.88
437.17	513.88
437.392	519.88
437.614	518.88
437.835	533.88
438.057	597.88
438.278	666.88
438.5	660.88
438.721	758.88
438.943	718.88
439.165	600.88
439.386	541.88
439.608	560.88
439.829	548.88
440.05	560.88
440.272	600.88
440.493	557.88
440.715	530.88
440.936	505.88
441.158	515.88
441.379	521.88
441.6	532.88
441.822	557.88
442.043	587.88
442.264	636.88
442.486	682.88
442.707	586.88
442.928	567.88
443.149	570.88
443.371	560.88
443.592	617.88
443.813	684.88
444.034	720.88
444.255	647.88
444.476	582.88
444.698	586.88
444.919	573.88
445.14	682.88
445.361	636.88
445.582	580.88
445.803	632.88
446.024	684.88
446.245	703.88
446.466	649.88
446.687	566.88
446.908	530.88
447.129	521.88
447.35	519.88
447.571	509.88
447.792	509.88
448.013	483.88
448.234	502.88
448.455	563.88
448.675	643.88
448.896	728.88
449.117	624.88
449.338	582.88
449.559	667.88
449.779	766.88
450	606.88
450.221	541.88
450.442	500.88
450.662	475.88
450.883	494.88
451.104	487.88
451.324	460.88
451.545	499.88
451.766	482.88
451.986	450.88
452.207	460.88
452.428	451.88
452.648	444.88
452.869	461.88
453.089	478.88
453.31	443.88
453.53	446.88
453.751	443.88
453.971	451.88
454.192	478.88
454.412	438.88
454.633	446.88
454.853	462.88
455.073	447.88
455.294	476.88
455.514	496.88
455.734	512.88
455.955	452.88
456.175	451.88
456.395	436.88
456.616	429.88
456.836	443.88
457.056	453.88
457.276	433.88
457.497	452.88
457.717	412.88
457.937	441.88
458.157	470.88
458.377	458.88
458.598	462.88
458.818	517.88
459.038	545.88
459.258	573.88
459.478	527.88
459.698	496.88
459.918	487.88
460.138	494.88
460.358	505.88
460.578	504.88
460.798	536.88
461.018	536.88
461.238	528.88
461.458	528.88
461.678	505.88
461.898	547.88
462.118	527.88
462.338	523.88
462.558	548.88
462.777	556.88
462.997	579.88
463.217	567.88
463.437	594.88
463.657	568.88
463.876	554.88
464.096	565.88
464.316	567.88
464.536	565.88
464.755	571.88
464.975	564.88
465.195	555.88
465.414	618.88
465.634	550.88
465.854	508.88
466.073	504.88
466.293	507.88
466.512	489.88
466.732	497.88
466.951	489.88
467.171	483.88
467.391	460.88
467.61	481.88
467.829	469.88
468.049	501.88
468.268	490.88
468.488	460.88
468.707	451.88
468.927	451.88
469.146	463.88
469.365	462.88
469.585	464.88
469.804	491.88
470.023	504.88
470.243	490.88
470.462	479.88
470.681	487.88
470.901	504.88
471.12	488.88
471.339	456.88
471.558	462.88
471.777	456.88
471.997	470.88
472.216	506.88
472.435	527.88
472.654	513.88
472.873	477.88
473.092	475.88
473.311	456.88
473.53	478.88
473.749	482.88
473.968	509.88
474.187	573.88
474.406	593.88
474.625	520.88
474.844	479.88
475.063	502.88
475.282	484.88
475.501	505.88
475.72	481.88
475.939	481.88
476.158	492.88
476.377	488.88
476.596	500.88
476.814	501.88
477.033	505.88
477.252	536.88
477.471	533.88
477.69	517.88
477.908	534.88
478.127	536.88
478.346	523.88
478.564	521.88
478.783	555.88
479.002	553.88
479.22	560.88
479.439	569.88
479.658	584.88
479.876	575.88
480.095	565.88
480.313	607.88
480.532	620.88
480.751	584.88
480.969	595.88
481.188	653.88
481.406	647.88
481.624	601.88
481.843	579.88
482.061	577.88
482.28	566.88
482.498	582.88
482.717	564.88
482.935	567.88
483.153	563.88
483.372	584.88
483.59	563.88
483.808	566.88
484.027	557.88
484.245	571.88
484.463	592.88
484.681	591.88
484.9	570.88
485.118	581.88
485.336	581.88
485.554	590.88
485.772	588.88
485.99	579.88
486.209	584.88
486.427	575.88
486.645	612.88
486.863	620.88
487.081	620.88
487.299	607.88
487.517	601.88
487.735	585.88
487.953	599.88
488.171	581.88
488.389	599.88
488.607	628.88
488.825	635.88
489.043	596.88
489.261	625.88
489.479	615.88
489.696	618.88
489.914	610.88
490.132	646.88
490.35	636.88
490.568	626.88
490.786	629.88
491.003	611.88
491.221	673.88
491.439	675.88
491.657	656.88
491.874	688.88
492.092	669.88
492.31	675.88
492.527	713.88
492.745	667.88
492.963	672.88
493.18	671.88
493.398	675.88
493.615	682.88
493.833	656.88
494.05	684.88
494.268	698.88
494.485	677.88
494.703	687.88
494.92	699.88
495.138	695.88
495.355	715.88
495.573	698.88
495.79	681.88
496.008	685.88
496.225	713.88
496.442	716.88
496.66	711.88
496.877	702.88
497.094	705.88
497.312	732.88
497.529	711.88
497.746	735.88
497.963	744.88
498.181	774.88
498.398	790.88
498.615	829.88
498.832	838.88
499.049	865.88
499.267	881.88
499.484	919.88
499.701	959.88
499.918	1013.88
500.135	1077.88
500.352	1143.88
500.569	1129.88
500.786	1147.88
501.003	1132.88
501.22	1065.88
501.437	1011.88
501.654	992.88
501.871	941.88
502.088	928.88
502.305	878.88
502.522	855.88
502.739	807.88
502.956	790.88
503.172	793.88
503.389	785.88
503.606	793.88
503.823	757.88
504.04	760.88
504.256	749.88
504.473	745.88
504.69	743.88
504.907	706.88
505.123	682.88
505.34	718.88
505.557	683.88
505.773	672.88
505.99	672.88
506.207	669.88
506.423	651.88
506.64	647.88
506.856	654.88
507.073	647.88
507.289	614.88
507.506	639.88
507.722	658.88
507.939	669.88
508.155	627.88
508.372	598.88
508.588	631.88
508.805	623.88
509.021	601.88
509.238	611.88
509.454	611.88
509.67	616.88
509.887	628.88
510.103	617.88
510.319	638.88
510.536	677.88
510.752	991.88
510.968	857.88
511.184	638.88
511.401	610.88
511.617	575.88
511.833	575.88
512.049	561.88
512.265	587.88
512.481	581.88
512.698	560.88
512.914	576.88
513.13	588.88
513.346	585.88
513.562	560.88
513.778	595.88
513.994	583.88
514.21	597.88
514.426	621.88
514.642	633.88
514.858	647.88
515.074	663.88
515.29	721.88
515.506	957.88
515.721	893.88
515.937	664.88
516.153	631.88
516.369	609.88
516.585	611.88
516.801	620.88
517.016	633.88
517.232	639.88
517.448	650.88
517.664	660.88
517.879	652.88
518.095	649.88
518.311	642.88
518.527	636.88
518.742	631.88
518.958	611.88
519.173	601.88
519.389	623.88
519.605	600.88
519.82	619.88
520.036	595.88
520.251	605.88
520.467	622.88
520.682	649.88
520.898	608.88
521.113	619.88
521.329	667.88
521.544	669.88
521.76	771.88
521.975	1189.88
522.19	1175.88
522.406	729.88
522.621	624.88
522.836	582.88
523.052	559.88
523.267	558.88
523.482	522.88
523.698	517.88
523.913	557.88
524.128	563.88
524.343	533.88
524.559	525.88
524.774	522.88
524.989	514.88
525.204	545.88
525.419	549.88
525.634	510.88
525.849	498.88
526.064	530.88
526.28	534.88
526.495	519.88
526.71	507.88
526.925	504.88
527.14	496.88
527.355	517.88
527.57	499.88
527.785	492.88
527.999	520.88
528.214	521.88
528.429	515.88
528.644	503.88
528.859	496.88
529.074	519.88
529.289	544.88
529.503	561.88
529.718	515.88
529.933	510.88
530.148	501.88
530.363	528.88
530.577	502.88
530.792	509.88
531.007	485.88
531.221	496.88
531.436	481.88
531.651	484.88
531.865	505.88
532.08	494.88
532.295	497.88
532.509	499.88
532.724	510.88
532.938	483.88
533.153	472.88
533.367	492.88
533.582	465.88
533.796	489.88
534.011	503.88
534.225	485.88
534.44	489.88
534.654	475.88
534.868	484.88
535.083	483.88
535.297	487.88
535.511	475.88
535.726	504.88
535.94	499.88
536.154	480.88
536.369	496.88
536.583	505.88
536.797	478.88
537.011	456.88
537.225	472.88
537.44	466.88
537.654	464.88
537.868	472.88
538.082	445.88
538.296	455.88
538.51	468.88
538.724	465.88
538.938	475.88
539.153	462.88
539.367	484.88
539.581	467.88
539.795	459.88
540.009	462.88
540.222	479.88
540.436	469.88
540.65	479.88
540.864	482.88
541.078	460.88
541.292	462.88
541.506	477.88
541.72	479.88
541.934	461.88
542.147	483.88
542.361	486.88
542.575	480.88
542.789	440.88
543.002	473.88
543.216	464.88
543.43	459.88
543.644	465.88
543.857	461.88
544.071	477.88
544.285	484.88
544.498	468.88
544.712	463.88
544.925	461.88
545.139	456.88
545.352	453.88
545.566	464.88
545.779	474.88
545.993	455.88
546.206	476.88
546.42	488.88
546.633	451.88
546.847	467.88
547.06	469.88
547.274	462.88
547.487	482.88
547.7	461.88
547.914	463.88
548.127	472.88
548.34	470.88
548.554	452.88
548.767	445.88
548.98	474.88
549.193	452.88
549.407	476.88
549.62	457.88
549.833	478.88
550.046	462.88
550.259	459.88
550.473	460.88
550.686	477.88
550.899	469.88
551.112	457.88
551.325	429.88
551.538	444.88
551.751	457.88
551.964	463.88
552.177	480.88
552.39	481.88
552.603	479.88
552.816	475.88
553.029	489.88
553.242	464.88
553.455	453.88
553.667	465.88
553.88	482.88
554.093	468.88
554.306	472.88
554.519	437.88
554.732	441.88
554.944	465.88
555.157	429.88
555.37	464.88
555.583	442.88
555.795	438.88
556.008	420.88
556.221	419.88
556.433	430.88
556.646	430.88
556.859	422.88
557.071	418.88
557.284	426.88
557.496	419.88
557.709	409.88
557.921	423.88
558.134	440.88
558.346	411.88
558.559	406.88
558.771	408.88
558.984	422.88
559.196	417.88
559.409	395.88
559.621	419.88
559.833	408.88
560.046	400.88
560.258	401.88
560.47	395.88
560.683	406.88
560.895	419.88
561.107	396.88
561.32	387.88
561.532	416.88
561.744	404.88
561.956	401.88
562.168	413.88
562.381	408.88
562.593	401.88
562.805	410.88
563.017	406.88
563.229	423.88
563.441	395.88
563.653	415.88
563.865	415.88
564.077	412.88
564.289	437.88
564.501	427.88
564.713	436.88
564.925	446.88
565.137	433.88
565.349	453.88
565.561	454.88
565.773	465.88
565.985	453.88
566.197	478.88
566.408	525.88
566.62	519.88
566.832	514.88
567.044	528.88
567.255	523.88
567.467	547.88
567.679	532.88
567.891	569.88
568.102	565.88
568.314	544.88
568.526	538.88
568.737	531.88
568.949	468.88
569.161	475.88
569.372	442.88
569.584	444.88
569.795	414.88
570.007	423.88
570.218	460.88
570.43	436.88
570.641	408.88
570.853	398.88
571.064	409.88
571.276	407.88
571.487	419.88
571.698	402.88
571.91	415.88
572.121	390.88
572.333	363.88
572.544	367.88
572.755	361.88
572.966	349.88
573.178	379.88
573.389	359.88
573.6	377.88
573.811	364.88
574.023	356.88
574.234	358.88
574.445	362.88
574.656	355.88
574.867	361.88
575.078	351.88
575.289	351.88
575.501	377.88
575.712	353.88
575.923	336.88
576.134	349.88
576.345	328.88
576.556	334.88
576.767	350.88
576.978	344.88
577.188	347.88
577.399	343.88
577.61	330.88
577.821	356.88
578.032	340.88
578.243	373.88
578.454	486.88
578.665	405.88
578.875	341.88
579.086	337.88
579.297	337.88
579.508	347.88
579.718	326.88
579.929	337.88
580.14	325.88
580.35	325.88
580.561	318.88
580.772	333.88
580.982	315.88
581.193	315.88
581.403	317.88
581.614	316.88
581.825	324.88
582.035	315.88
582.246	310.88
582.456	322.88
582.667	313.88
582.877	307.88
583.087	313.88
583.298	321.88
583.508	320.88
583.719	312.88
583.929	317.88
584.139	303.88
584.35	297.88
584.56	309.88
584.77	323.88
584.981	317.88
585.191	315.88
585.401	299.88
585.611	327.88
585.821	324.88
586.032	315.88
586.242	311.88
586.452	334.88
586.662	303.88
586.872	300.88
587.082	304.88
587.292	316.88
587.502	334.88
587.713	316.88
587.923	318.88
588.133	309.88
588.343	303.88
588.553	323.88
588.762	324.88
588.972	344.88
589.182	409.88
589.392	399.88
589.602	339.88
589.812	375.88
590.022	374.88
590.232	313.88
590.441	319.88
590.651	315.88
590.861	307.88
591.071	339.88
591.281	332.88
591.49	325.88
591.7	312.88
591.91	325.88
592.119	313.88
592.329	328.88
592.539	355.88
592.748	321.88
592.958	333.88
593.167	336.88
593.377	350.88
593.587	349.88
593.796	342.88
594.006	343.88
594.215	337.88
594.424	347.88
594.634	344.88
594.843	333.88
595.053	344.88
595.262	313.88
595.472	313.88
595.681	334.88
595.89	314.88
596.1	299.88
596.309	331.88
596.518	300.88
596.727	300.88
596.937	303.88
597.146	287.88
597.355	289.88
597.564	294.88
597.774	298.88
597.983	286.88
598.192	279.88
598.401	269.88
598.61	279.88
598.819	273.88
599.028	260.88
599.237	272.88
599.446	274.88
599.655	278.88
599.864	285.88
600.073	295.88
600.282	276.88
600.491	288.88
600.7	274.88
600.909	279.88
601.118	265.88
601.327	270.88
601.536	267.88
601.745	277.88
601.953	269.88
602.162	254.88
602.371	248.88
602.58	260.88
602.789	260.88
602.997	253.88
603.206	265.88
603.415	281.88
603.623	267.88
603.832	254.88
604.041	265.88
604.249	248.88
604.458	259.88
604.666	267.88
604.875	264.88
605.084	256.88
605.292	277.88
605.501	272.88
605.709	261.88
605.918	263.88
606.126	253.88
606.334	260.88
606.543	252.88
606.751	245.88
606.96	260.88
607.168	261.88
607.376	258.88
607.585	223.88
607.793	246.88
608.001	260.88
608.21	250.88
608.418	245.88
608.626	245.88
608.834	236.88
609.043	248.88
609.251	246.88
609.459	269.88
609.667	255.88
609.875	236.88
610.083	247.88
610.291	247.88
610.499	252.88
610.707	257.88
610.916	245.88
611.124	269.88
611.332	268.88
611.54	270.88
611.748	270.88
611.955	248.88
612.163	231.88
612.371	230.88
612.579	261.88
612.787	254.88
612.995	237.88
613.203	257.88
613.411	231.88
613.618	248.88
613.826	247.88
614.034	235.88
614.242	249.88
614.449	249.88
614.657	244.88
614.865	240.88
615.072	250.88
615.28	257.88
615.488	237.88
615.695	235.88
615.903	249.88
616.111	244.88
616.318	256.88
616.526	238.88
616.733	238.88
616.941	230.88
617.148	230.88
617.356	241.88
617.563	239.88
617.771	247.88
617.978	221.88
618.185	237.88
618.393	243.88
618.6	233.88
618.807	226.88
619.015	236.88
619.222	266.88
619.429	240.88
619.637	246.88
619.844	259.88
620.051	236.88
620.258	233.88
620.466	229.88
620.673	227.88
620.88	224.88
621.087	240.88
621.294	232.88
621.501	227.88
621.708	229.88
621.915	249.88
622.122	232.88
622.329	223.88
622.536	213.88
622.743	239.88
622.95	214.88
623.157	212.88
623.364	238.88
623.571	229.88
623.778	213.88
623.985	235.88
624.192	215.88
624.399	228.88
624.606	233.88
624.812	220.88
625.019	224.88
625.226	219.88
625.433	218.88
625.639	212.88
625.846	195.88
626.053	212.88
626.259	215.88
626.466	232.88
626.673	203.88
626.879	237.88
627.086	205.88
627.293	225.88
627.499	227.88
627.706	202.88
627.912	204.88
628.119	197.88
628.325	217.88
628.532	213.88
628.738	214.88
628.945	209.88
629.151	199.88
629.357	201.88
629.564	213.88
629.77	207.88
629.976	201.88
630.183	185.88
630.389	187.88
630.595	208.88
630.802	206.88
631.008	221.88
631.214	210.88
631.42	183.88
631.627	225.88
631.833	200.88
632.039	223.88
632.245	219.88
632.451	189.88
632.657	200.88
632.863	177.88
633.069	208.88
633.275	174.88
633.481	202.88
633.688	195.88
633.893	199.88
634.099	199.88
634.305	191.88
634.511	187.88
634.717	195.88
634.923	185.88
635.129	184.88
635.335	190.88
635.541	189.88
635.747	200.88
635.952	191.88
636.158	198.88
636.364	208.88
636.57	206.88
636.775	190.88
636.981	200.88
637.187	201.88
637.392	184.88
637.598	195.88
637.804	187.88
638.009	192.88
638.215	184.88
638.421	188.88
638.626	177.88
638.832	183.88
639.037	166.88
639.243	165.88
639.448	182.88
639.654	183.88
639.859	173.88
640.065	185.88
640.27	190.88
640.475	182.88
640.681	180.88
640.886	163.88
641.091	171.88
641.297	169.88
641.502	176.88
641.707	174.88
641.913	171.88
642.118	179.88
642.323	175.88
642.528	183.88
642.733	175.88
642.939	181.88
643.144	177.88
643.349	161.88
643.554	163.88
643.759	174.88
643.964	175.88
644.169	156.88
644.374	187.88
644.579	170.88
644.784	151.88
644.989	194.88
645.194	171.88
645.399	189.88
645.604	175.88
645.809	179.88
646.014	159.88
646.219	164.88
646.423	166.88
646.628	172.88
646.833	193.88
647.038	188.88
647.243	168.88
647.447	183.88
647.652	184.88
647.857	189.88
648.062	173.88
648.266	163.88
648.471	181.88
648.676	171.88
648.88	184.88
649.085	171.88
649.289	187.88
649.494	186.88
649.698	187.88
649.903	188.88
650.107	169.88
650.312	169.88
650.516	153.88
650.721	167.88
650.925	148.88
651.13	153.88
651.334	151.88
651.539	150.88
651.743	156.88
651.947	148.88
652.152	164.88
652.356	149.88
652.56	145.88
652.764	160.88
652.969	160.88
653.173	153.88
653.377	159.88
653.581	144.88
653.785	154.88
653.99	147.88
654.194	154.88
654.398	135.88
654.602	150.88
654.806	153.88
655.01	151.88
655.214	162.88
655.418	149.88
655.622	134.88
655.826	141.88
656.03	153.88
656.234	145.88
656.438	160.88
656.642	151.88
656.846	154.88
657.049	145.88
657.253	128.88
657.457	140.88
657.661	120.88
657.865	107.88
658.068	126.88
658.272	121.88
658.476	101.88
658.68	100.88
658.883	103.88
659.087	117.88
659.291	112.88
659.494	97.88
659.698	107.88
659.901	107.88
660.105	87.88
660.309	91.88
660.512	97.88
660.716	95.88
660.919	85.88
661.123	116.88
661.326	102.88
661.53	98.88
661.733	86.88
661.936	84.88
662.14	88.88
662.343	101.88
662.546	82.88
662.75	88.88
662.953	89.88
663.156	100.88
663.36	88.88
663.563	71.88
663.766	106.88
663.969	85.88
664.173	63.88
664.376	83.88
664.579	86.88
664.782	81.88
664.985	83.88
665.188	93.88
665.391	83.88
665.594	93.88
665.797	93.88
666	75.88
666.203	84.88
666.406	91.88
666.609	81.88
666.812	89.88
667.015	87.88
667.218	81.88
667.421	77.88
667.624	86.88
667.827	86.88
668.03	93.88
668.232	83.88
668.435	82.88
668.638	82.88
668.841	77.88
669.043	74.88
669.246	85.88
669.449	90.88
669.651	81.88
669.854	80.88
670.057	82.88
670.259	102.88
670.462	91.88
670.665	79.88
670.867	86.88
671.07	85.88
671.272	85.88
671.475	91.88
671.677	71.88
671.88	83.88
672.082	81.88
672.284	91.88
672.487	75.88
672.689	87.88
672.892	86.88
