Data from 1979.PennyLincolnUp.Lamp.En5.5.200Scan.071719.P1_HRD10591_16-18-46-864.txt Node
Date: Thu Jul 18 16:18:46 EDT 2019
User: cochatt
Spectrometer: HR+D1059
Trigger mode: 1
Integration Time (sec): 1.000000E-1
Scans to average: 1
Electric dark correction enabled: true
Nonlinearity correction enabled: false
Boxcar width: 0
XAxis mode: Wavelengths
Number of Pixels in Spectrum: 2048
>>>>>Begin Spectral Data<<<<<
223.165	-8.94
223.4	-8.94
223.635	-8.94
223.869	-20.94
224.104	-15.94
224.338	-4.94
224.573	-16.94
224.808	-13.94
225.042	-10.94
225.277	-4.94
225.511	-7.94
225.746	10.06
225.98	1.06
226.215	14.06
226.449	4.06
226.683	18.06
226.918	30.06
227.152	28.06
227.387	26.06
227.621	42.06
227.856	44.06
228.09	39.06
228.324	68.06
228.559	54.06
228.793	60.06
229.027	96.06
229.262	96.06
229.496	102.06
229.73	108.06
229.964	137.06
230.199	126.06
230.433	108.06
230.667	107.06
230.901	98.06
231.136	115.06
231.37	106.06
231.604	97.06
231.838	125.06
232.072	115.06
232.306	112.06
232.541	102.06
232.775	106.06
233.009	109.06
233.243	109.06
233.477	111.06
233.711	114.06
233.945	107.06
234.179	116.06
234.413	116.06
234.647	116.06
234.881	107.06
235.115	117.06
235.349	117.06
235.583	106.06
235.817	135.06
236.051	125.06
236.285	113.06
236.519	121.06
236.753	125.06
236.987	129.06
237.221	152.06
237.455	217.06
237.689	177.06
237.922	124.06
238.156	136.06
238.39	121.06
238.624	118.06
238.858	121.06
239.091	112.06
239.325	123.06
239.559	132.06
239.793	118.06
240.027	137.06
240.26	128.06
240.494	156.06
240.728	135.06
240.961	143.06
241.195	143.06
241.429	133.06
241.662	133.06
241.896	139.06
242.13	141.06
242.363	134.06
242.597	140.06
242.83	131.06
243.064	147.06
243.298	141.06
243.531	122.06
243.765	136.06
243.998	140.06
244.232	137.06
244.465	133.06
244.699	137.06
244.932	142.06
245.166	141.06
245.399	134.06
245.633	155.06
245.866	132.06
246.099	136.06
246.333	146.06
246.566	136.06
246.8	160.06
247.033	147.06
247.266	151.06
247.5	150.06
247.733	171.06
247.966	177.06
248.2	160.06
248.433	141.06
248.666	166.06
248.899	167.06
249.133	184.06
249.366	187.06
249.599	179.06
249.832	180.06
250.066	172.06
250.299	169.06
250.532	174.06
250.765	202.06
250.998	205.06
251.231	199.06
251.465	189.06
251.698	193.06
251.931	171.06
252.164	178.06
252.397	181.06
252.63	190.06
252.863	195.06
253.096	197.06
253.329	233.06
253.562	215.06
253.795	217.06
254.028	202.06
254.261	217.06
254.494	210.06
254.727	225.06
254.96	237.06
255.193	235.06
255.426	205.06
255.659	196.06
255.892	213.06
256.124	208.06
256.357	206.06
256.59	214.06
256.823	201.06
257.056	192.06
257.289	212.06
257.521	206.06
257.754	197.06
257.987	192.06
258.22	202.06
258.452	198.06
258.685	199.06
258.918	196.06
259.151	211.06
259.383	205.06
259.616	210.06
259.849	201.06
260.081	219.06
260.314	229.06
260.547	231.06
260.779	228.06
261.012	222.06
261.244	203.06
261.477	213.06
261.71	203.06
261.942	193.06
262.175	225.06
262.407	220.06
262.64	194.06
262.872	198.06
263.105	206.06
263.337	203.06
263.57	199.06
263.802	199.06
264.035	221.06
264.267	174.06
264.499	193.06
264.732	214.06
264.964	203.06
265.197	200.06
265.429	221.06
265.661	216.06
265.894	217.06
266.126	210.06
266.358	210.06
266.591	211.06
266.823	208.06
267.055	206.06
267.287	222.06
267.52	206.06
267.752	222.06
267.984	206.06
268.216	217.06
268.448	235.06
268.681	221.06
268.913	224.06
269.145	249.06
269.377	264.06
269.609	247.06
269.841	240.06
270.073	243.06
270.306	263.06
270.538	276.06
270.77	279.06
271.002	281.06
271.234	268.06
271.466	276.06
271.698	284.06
271.93	280.06
272.162	278.06
272.394	265.06
272.626	267.06
272.858	269.06
273.09	276.06
273.322	265.06
273.553	250.06
273.785	246.06
274.017	228.06
274.249	245.06
274.481	246.06
274.713	243.06
274.945	244.06
275.176	243.06
275.408	253.06
275.64	243.06
275.872	250.06
276.104	250.06
276.335	270.06
276.567	267.06
276.799	270.06
277.031	297.06
277.262	312.06
277.494	284.06
277.726	278.06
277.957	279.06
278.189	263.06
278.421	256.06
278.652	261.06
278.884	245.06
279.115	248.06
279.347	254.06
279.579	257.06
279.81	260.06
280.042	243.06
280.273	277.06
280.505	246.06
280.736	265.06
280.968	249.06
281.199	250.06
281.431	268.06
281.662	254.06
281.894	262.06
282.125	256.06
282.356	267.06
282.588	276.06
282.819	308.06
283.051	265.06
283.282	270.06
283.513	270.06
283.745	260.06
283.976	275.06
284.207	266.06
284.439	283.06
284.67	294.06
284.901	279.06
285.132	274.06
285.364	286.06
285.595	264.06
285.826	260.06
286.057	263.06
286.288	278.06
286.52	269.06
286.751	269.06
286.982	282.06
287.213	266.06
287.444	277.06
287.675	284.06
287.906	271.06
288.138	309.06
288.369	279.06
288.6	288.06
288.831	294.06
289.062	293.06
289.293	281.06
289.524	281.06
289.755	299.06
289.986	283.06
290.217	283.06
290.448	292.06
290.679	284.06
290.91	292.06
291.141	271.06
291.371	274.06
291.602	276.06
291.833	298.06
292.064	289.06
292.295	285.06
292.526	300.06
292.757	291.06
292.987	300.06
293.218	277.06
293.449	285.06
293.68	300.06
293.91	295.06
294.141	290.06
294.372	289.06
294.603	284.06
294.833	283.06
295.064	286.06
295.295	293.06
295.525	298.06
295.756	292.06
295.987	290.06
296.217	325.06
296.448	325.06
296.679	289.06
296.909	304.06
297.14	315.06
297.37	288.06
297.601	289.06
297.831	281.06
298.062	299.06
298.292	290.06
298.523	300.06
298.753	297.06
298.984	301.06
299.214	317.06
299.445	310.06
299.675	306.06
299.905	301.06
300.136	317.06
300.366	308.06
300.597	333.06
300.827	318.06
301.057	325.06
301.288	314.06
301.518	328.06
301.748	320.06
301.979	322.06
302.209	326.06
302.439	342.06
302.669	324.06
302.9	324.06
303.13	311.06
303.36	328.06
303.59	319.06
303.82	323.06
304.051	340.06
304.281	323.06
304.511	329.06
304.741	329.06
304.971	327.06
305.201	325.06
305.431	309.06
305.661	333.06
305.891	322.06
306.121	329.06
306.352	340.06
306.582	338.06
306.812	328.06
307.042	326.06
307.272	339.06
307.502	322.06
307.731	317.06
307.961	337.06
308.191	329.06
308.421	346.06
308.651	350.06
308.881	345.06
309.111	336.06
309.341	321.06
309.571	340.06
309.8	357.06
310.03	339.06
310.26	356.06
310.49	363.06
310.72	357.06
310.949	384.06
311.179	382.06
311.409	361.06
311.639	375.06
311.868	362.06
312.098	371.06
312.328	348.06
312.557	375.06
312.787	365.06
313.017	388.06
313.246	384.06
313.476	377.06
313.706	369.06
313.935	377.06
314.165	390.06
314.394	387.06
314.624	380.06
314.853	382.06
315.083	385.06
315.312	368.06
315.542	356.06
315.771	350.06
316.001	357.06
316.23	345.06
316.46	354.06
316.689	376.06
316.919	354.06
317.148	375.06
317.377	384.06
317.607	399.06
317.836	373.06
318.065	369.06
318.295	360.06
318.524	364.06
318.753	348.06
318.983	378.06
319.212	370.06
319.441	370.06
319.67	373.06
319.9	380.06
320.129	361.06
320.358	388.06
320.587	362.06
320.816	368.06
321.046	370.06
321.275	393.06
321.504	378.06
321.733	391.06
321.962	392.06
322.191	405.06
322.42	419.06
322.649	407.06
322.878	416.06
323.108	423.06
323.337	459.06
323.566	460.06
323.795	493.06
324.024	526.06
324.253	611.06
324.482	868.06
324.71	1345.06
324.939	2009.06
325.168	1740.06
325.397	849.06
325.626	582.06
325.855	501.06
326.084	469.06
326.313	471.06
326.542	467.06
326.77	526.06
326.999	590.06
327.228	813.06
327.457	1220.06
327.686	1584.06
327.914	989.06
328.143	670.06
328.372	573.06
328.6	564.06
328.829	513.06
329.058	529.06
329.287	519.06
329.515	512.06
329.744	485.06
329.972	474.06
330.201	493.06
330.43	514.06
330.658	551.06
330.887	554.06
331.115	552.06
331.344	487.06
331.572	465.06
331.801	461.06
332.03	481.06
332.258	460.06
332.486	447.06
332.715	449.06
332.943	450.06
333.172	454.06
333.4	457.06
333.629	487.06
333.857	484.06
334.085	480.06
334.314	518.06
334.542	503.06
334.771	533.06
334.999	497.06
335.227	485.06
335.455	468.06
335.684	442.06
335.912	450.06
336.14	439.06
336.369	431.06
336.597	459.06
336.825	467.06
337.053	425.06
337.281	421.06
337.51	453.06
337.738	442.06
337.966	447.06
338.194	442.06
338.422	420.06
338.65	445.06
338.878	444.06
339.106	412.06
339.334	429.06
339.562	428.06
339.79	423.06
340.018	448.06
340.246	424.06
340.474	438.06
340.702	429.06
340.93	407.06
341.158	440.06
341.386	449.06
341.614	412.06
341.842	433.06
342.07	424.06
342.298	424.06
342.526	425.06
342.754	420.06
342.981	406.06
343.209	423.06
343.437	428.06
343.665	442.06
343.893	423.06
344.12	432.06
344.348	453.06
344.576	452.06
344.804	422.06
345.031	448.06
345.259	445.06
345.487	462.06
345.714	437.06
345.942	415.06
346.17	402.06
346.397	405.06
346.625	432.06
346.853	406.06
347.08	412.06
347.308	424.06
347.535	425.06
347.763	434.06
347.99	429.06
348.218	405.06
348.445	405.06
348.673	421.06
348.9	438.06
349.128	434.06
349.355	406.06
349.583	415.06
349.81	401.06
350.037	394.06
350.265	393.06
350.492	406.06
350.72	404.06
350.947	421.06
351.174	415.06
351.402	434.06
351.629	414.06
351.856	416.06
352.083	405.06
352.311	423.06
352.538	443.06
352.765	434.06
352.992	396.06
353.22	416.06
353.447	432.06
353.674	406.06
353.901	386.06
354.128	370.06
354.355	394.06
354.583	397.06
354.81	398.06
355.037	409.06
355.264	388.06
355.491	374.06
355.718	390.06
355.945	405.06
356.172	379.06
356.399	414.06
356.626	383.06
356.853	386.06
357.08	375.06
357.307	409.06
357.534	401.06
357.761	384.06
357.988	390.06
358.215	392.06
358.441	405.06
358.668	406.06
358.895	415.06
359.122	402.06
359.349	386.06
359.576	420.06
359.802	406.06
360.029	462.06
360.256	482.06
360.483	438.06
360.709	441.06
360.936	405.06
361.163	429.06
361.39	418.06
361.616	407.06
361.843	402.06
362.07	437.06
362.296	400.06
362.523	421.06
362.749	432.06
362.976	426.06
363.203	409.06
363.429	391.06
363.656	397.06
363.882	407.06
364.109	390.06
364.335	394.06
364.562	383.06
364.788	390.06
365.015	397.06
365.241	401.06
365.468	392.06
365.694	395.06
365.92	414.06
366.147	406.06
366.373	394.06
366.599	408.06
366.826	421.06
367.052	405.06
367.278	418.06
367.505	399.06
367.731	410.06
367.957	414.06
368.184	399.06
368.41	419.06
368.636	419.06
368.862	425.06
369.089	423.06
369.315	410.06
369.541	400.06
369.767	404.06
369.993	398.06
370.219	407.06
370.445	413.06
370.672	409.06
370.898	422.06
371.124	424.06
371.35	414.06
371.576	426.06
371.802	418.06
372.028	401.06
372.254	412.06
372.48	411.06
372.706	401.06
372.932	418.06
373.158	403.06
373.384	404.06
373.61	416.06
373.835	416.06
374.061	425.06
374.287	417.06
374.513	423.06
374.739	426.06
374.965	428.06
375.191	444.06
375.416	422.06
375.642	426.06
375.868	434.06
376.094	419.06
376.319	428.06
376.545	397.06
376.771	416.06
376.997	419.06
377.222	413.06
377.448	420.06
377.674	410.06
377.899	397.06
378.125	425.06
378.35	393.06
378.576	414.06
378.802	399.06
379.027	406.06
379.253	425.06
379.478	406.06
379.704	414.06
379.929	399.06
380.155	430.06
380.38	408.06
380.606	410.06
380.831	403.06
381.057	414.06
381.282	412.06
381.507	398.06
381.733	446.06
381.958	412.06
382.184	415.06
382.409	447.06
382.634	428.06
382.86	419.06
383.085	415.06
383.31	428.06
383.535	434.06
383.761	444.06
383.986	438.06
384.211	433.06
384.436	439.06
384.662	460.06
384.887	460.06
385.112	448.06
385.337	441.06
385.562	480.06
385.787	475.06
386.013	477.06
386.238	458.06
386.463	454.06
386.688	467.06
386.913	456.06
387.138	464.06
387.363	456.06
387.588	465.06
387.813	445.06
388.038	464.06
388.263	470.06
388.488	465.06
388.713	470.06
388.938	459.06
389.163	458.06
389.387	467.06
389.612	451.06
389.837	458.06
390.062	483.06
390.287	471.06
390.512	466.06
390.736	478.06
390.961	458.06
391.186	475.06
391.411	484.06
391.636	462.06
391.86	479.06
392.085	496.06
392.31	501.06
392.534	479.06
392.759	494.06
392.984	474.06
393.208	480.06
393.433	488.06
393.658	488.06
393.882	481.06
394.107	472.06
394.331	466.06
394.556	481.06
394.78	481.06
395.005	489.06
395.229	497.06
395.454	478.06
395.678	514.06
395.903	489.06
396.127	512.06
396.352	530.06
396.576	509.06
396.801	494.06
397.025	519.06
397.249	514.06
397.474	521.06
397.698	502.06
397.922	514.06
398.147	526.06
398.371	552.06
398.595	542.06
398.82	536.06
399.044	546.06
399.268	583.06
399.492	614.06
399.717	651.06
399.941	676.06
400.165	694.06
400.389	685.06
400.613	613.06
400.837	585.06
401.062	582.06
401.286	539.06
401.51	548.06
401.734	549.06
401.958	578.06
402.182	568.06
402.406	557.06
402.63	562.06
402.854	578.06
403.078	571.06
403.302	576.06
403.526	584.06
403.75	577.06
403.974	600.06
404.198	584.06
404.422	591.06
404.645	580.06
404.869	575.06
405.093	638.06
405.317	643.06
405.541	685.06
405.765	630.06
405.988	582.06
406.212	594.06
406.436	628.06
406.66	640.06
406.883	643.06
407.107	665.06
407.331	675.06
407.555	713.06
407.778	767.06
408.002	682.06
408.226	670.06
408.449	636.06
408.673	634.06
408.896	674.06
409.12	706.06
409.344	674.06
409.567	629.06
409.791	600.06
410.014	593.06
410.238	596.06
410.461	584.06
410.685	576.06
410.908	610.06
411.132	619.06
411.355	652.06
411.578	634.06
411.802	603.06
412.025	584.06
412.249	599.06
412.472	637.06
412.695	639.06
412.919	635.06
413.142	605.06
413.365	552.06
413.589	565.06
413.812	591.06
414.035	574.06
414.258	555.06
414.482	575.06
414.705	546.06
414.928	550.06
415.151	568.06
415.374	570.06
415.597	560.06
415.821	528.06
416.044	540.06
416.267	539.06
416.49	544.06
416.713	543.06
416.936	538.06
417.159	555.06
417.382	544.06
417.605	561.06
417.828	567.06
418.051	576.06
418.274	571.06
418.497	549.06
418.72	565.06
418.943	545.06
419.166	588.06
419.389	605.06
419.611	593.06
419.834	568.06
420.057	562.06
420.28	593.06
420.503	546.06
420.726	576.06
420.948	560.06
421.171	601.06
421.394	640.06
421.617	611.06
421.839	571.06
422.062	571.06
422.285	570.06
422.507	636.06
422.73	704.06
422.953	693.06
423.175	629.06
423.398	611.06
423.621	592.06
423.843	610.06
424.066	613.06
424.288	614.06
424.511	618.06
424.733	677.06
424.956	754.06
425.178	740.06
425.401	716.06
425.623	752.06
425.846	647.06
426.068	629.06
426.291	598.06
426.513	594.06
426.735	602.06
426.958	654.06
427.18	715.06
427.402	838.06
427.625	918.06
427.847	807.06
428.069	720.06
428.292	651.06
428.514	592.06
428.736	540.06
428.958	572.06
429.181	581.06
429.403	549.06
429.625	589.06
429.847	595.06
430.069	649.06
430.292	636.06
430.514	574.06
430.736	566.06
430.958	541.06
431.18	512.06
431.402	538.06
431.624	540.06
431.846	516.06
432.068	538.06
432.29	524.06
432.512	534.06
432.734	586.06
432.956	549.06
433.178	568.06
433.4	552.06
433.622	555.06
433.844	558.06
434.066	558.06
434.287	536.06
434.509	561.06
434.731	570.06
434.953	578.06
435.175	593.06
435.397	604.06
435.618	614.06
435.84	644.06
436.062	730.06
436.284	791.06
436.505	641.06
436.727	613.06
436.949	575.06
437.17	553.06
437.392	546.06
437.614	570.06
437.835	614.06
438.057	688.06
438.278	757.06
438.5	769.06
438.721	853.06
438.943	812.06
439.165	666.06
439.386	603.06
439.608	581.06
439.829	617.06
440.05	614.06
440.272	655.06
440.493	619.06
440.715	582.06
440.936	568.06
441.158	557.06
441.379	583.06
441.6	577.06
441.822	604.06
442.043	626.06
442.264	708.06
442.486	737.06
442.707	650.06
442.928	635.06
443.149	621.06
443.371	637.06
443.592	658.06
443.813	752.06
444.034	819.06
444.255	717.06
444.476	652.06
444.698	626.06
444.919	628.06
445.14	723.06
445.361	668.06
445.582	662.06
445.803	707.06
446.024	780.06
446.245	808.06
446.466	725.06
446.687	629.06
446.908	604.06
447.129	555.06
447.35	583.06
447.571	586.06
447.792	550.06
448.013	549.06
448.234	567.06
448.455	610.06
448.675	724.06
448.896	828.06
449.117	708.06
449.338	666.06
449.559	750.06
449.779	846.06
450	709.06
450.221	591.06
450.442	555.06
450.662	534.06
450.883	547.06
451.104	559.06
451.324	541.06
451.545	541.06
451.766	515.06
451.986	498.06
452.207	501.06
452.428	509.06
452.648	519.06
452.869	506.06
453.089	518.06
453.31	510.06
453.53	526.06
453.751	493.06
453.971	516.06
454.192	536.06
454.412	505.06
454.633	500.06
454.853	510.06
455.073	511.06
455.294	518.06
455.514	573.06
455.734	570.06
455.955	491.06
456.175	480.06
456.395	464.06
456.616	471.06
456.836	494.06
457.056	508.06
457.276	469.06
457.497	486.06
457.717	485.06
457.937	487.06
458.157	497.06
458.377	519.06
458.598	522.06
458.818	570.06
459.038	648.06
459.258	647.06
459.478	570.06
459.698	537.06
459.918	564.06
460.138	552.06
460.358	549.06
460.578	568.06
460.798	575.06
461.018	565.06
461.238	572.06
461.458	580.06
461.678	551.06
461.898	570.06
462.118	540.06
462.338	585.06
462.558	570.06
462.777	600.06
462.997	599.06
463.217	655.06
463.437	631.06
463.657	607.06
463.876	622.06
464.096	613.06
464.316	609.06
464.536	635.06
464.755	625.06
464.975	591.06
465.195	644.06
465.414	666.06
465.634	613.06
465.854	595.06
466.073	582.06
466.293	554.06
466.512	531.06
466.732	541.06
466.951	520.06
467.171	526.06
467.391	536.06
467.61	558.06
467.829	532.06
468.049	520.06
468.268	514.06
468.488	521.06
468.707	492.06
468.927	522.06
469.146	512.06
469.365	501.06
469.585	504.06
469.804	519.06
470.023	525.06
470.243	550.06
470.462	531.06
470.681	536.06
470.901	553.06
471.12	547.06
471.339	521.06
471.558	518.06
471.777	521.06
471.997	519.06
472.216	539.06
472.435	564.06
472.654	550.06
472.873	538.06
473.092	535.06
473.311	500.06
473.53	508.06
473.749	528.06
473.968	556.06
474.187	656.06
474.406	653.06
474.625	580.06
474.844	535.06
475.063	538.06
475.282	518.06
475.501	535.06
475.72	546.06
475.939	555.06
476.158	538.06
476.377	532.06
476.596	551.06
476.814	527.06
477.033	555.06
477.252	550.06
477.471	572.06
477.69	580.06
477.908	572.06
478.127	556.06
478.346	586.06
478.564	583.06
478.783	580.06
479.002	603.06
479.22	600.06
479.439	581.06
479.658	616.06
479.876	633.06
480.095	642.06
480.313	671.06
480.532	657.06
480.751	652.06
480.969	625.06
481.188	712.06
481.406	744.06
481.624	640.06
481.843	609.06
482.061	614.06
482.28	639.06
482.498	594.06
482.717	617.06
482.935	604.06
483.153	610.06
483.372	599.06
483.59	599.06
483.808	599.06
484.027	625.06
484.245	619.06
484.463	635.06
484.681	636.06
484.9	651.06
485.118	639.06
485.336	637.06
485.554	620.06
485.772	648.06
485.99	651.06
486.209	618.06
486.427	644.06
486.645	653.06
486.863	665.06
487.081	666.06
487.299	653.06
487.517	648.06
487.735	668.06
487.953	654.06
488.171	655.06
488.389	638.06
488.607	675.06
488.825	652.06
489.043	634.06
489.261	674.06
489.479	662.06
489.696	662.06
489.914	680.06
490.132	679.06
490.35	708.06
490.568	679.06
490.786	699.06
491.003	694.06
491.221	722.06
491.439	728.06
491.657	732.06
491.874	727.06
492.092	726.06
492.31	727.06
492.527	725.06
492.745	767.06
492.963	742.06
493.18	754.06
493.398	773.06
493.615	772.06
493.833	752.06
494.05	764.06
494.268	742.06
494.485	751.06
494.703	752.06
494.92	764.06
495.138	740.06
495.355	778.06
495.573	760.06
495.79	802.06
496.008	794.06
496.225	753.06
496.442	766.06
496.66	776.06
496.877	767.06
497.094	770.06
497.312	801.06
497.529	781.06
497.746	804.06
497.963	851.06
498.181	863.06
498.398	850.06
498.615	874.06
498.832	928.06
499.049	925.06
499.267	987.06
499.484	1003.06
499.701	1046.06
499.918	1087.06
500.135	1154.06
500.352	1210.06
500.569	1226.06
500.786	1243.06
501.003	1189.06
501.22	1154.06
501.437	1116.06
501.654	1054.06
501.871	1036.06
502.088	970.06
502.305	926.06
502.522	898.06
502.739	915.06
502.956	870.06
503.172	843.06
503.389	843.06
503.606	813.06
503.823	812.06
504.04	811.06
504.256	792.06
504.473	787.06
504.69	803.06
504.907	800.06
505.123	768.06
505.34	768.06
505.557	773.06
505.773	733.06
505.99	722.06
506.207	741.06
506.423	712.06
506.64	710.06
506.856	730.06
507.073	722.06
507.289	705.06
507.506	733.06
507.722	725.06
507.939	725.06
508.155	740.06
508.372	677.06
508.588	680.06
508.805	670.06
509.021	672.06
509.238	694.06
509.454	681.06
509.67	698.06
509.887	662.06
510.103	665.06
510.319	685.06
510.536	769.06
510.752	1240.06
510.968	1054.06
511.184	690.06
511.401	651.06
511.617	670.06
511.833	647.06
512.049	650.06
512.265	657.06
512.481	640.06
512.698	640.06
512.914	637.06
513.13	625.06
513.346	659.06
513.562	649.06
513.778	650.06
513.994	671.06
514.21	650.06
514.426	713.06
514.642	719.06
514.858	734.06
515.074	763.06
515.29	884.06
515.506	1266.06
515.721	1086.06
515.937	780.06
516.153	746.06
516.369	711.06
516.585	704.06
516.801	697.06
517.016	692.06
517.232	715.06
517.448	714.06
517.664	710.06
517.879	718.06
518.095	720.06
518.311	704.06
518.527	684.06
518.742	698.06
518.958	705.06
519.173	675.06
519.389	684.06
519.605	682.06
519.82	668.06
520.036	690.06
520.251	681.06
520.467	702.06
520.682	690.06
520.898	692.06
521.113	736.06
521.329	742.06
521.544	832.06
521.76	982.06
521.975	1628.06
522.19	1688.06
522.406	957.06
522.621	740.06
522.836	634.06
523.052	661.06
523.267	633.06
523.482	624.06
523.698	602.06
523.913	618.06
524.128	603.06
524.343	588.06
524.559	597.06
524.774	580.06
524.989	576.06
525.204	603.06
525.419	594.06
525.634	596.06
525.849	578.06
526.064	565.06
526.28	573.06
526.495	549.06
526.71	544.06
526.925	543.06
527.14	563.06
527.355	542.06
527.57	538.06
527.785	572.06
527.999	545.06
528.214	573.06
528.429	560.06
528.644	565.06
528.859	539.06
529.074	553.06
529.289	574.06
529.503	633.06
529.718	642.06
529.933	588.06
530.148	570.06
530.363	549.06
530.577	562.06
530.792	544.06
531.007	563.06
531.221	537.06
531.436	539.06
531.651	543.06
531.865	515.06
532.08	534.06
532.295	525.06
532.509	539.06
532.724	498.06
532.938	537.06
533.153	526.06
533.367	544.06
533.582	527.06
533.796	530.06
534.011	514.06
534.225	509.06
534.44	525.06
534.654	518.06
534.868	517.06
535.083	539.06
535.297	533.06
535.511	548.06
535.726	521.06
535.94	541.06
536.154	532.06
536.369	532.06
536.583	525.06
536.797	488.06
537.011	521.06
537.225	513.06
537.44	493.06
537.654	510.06
537.868	489.06
538.082	503.06
538.296	499.06
538.51	497.06
538.724	498.06
538.938	507.06
539.153	504.06
539.367	502.06
539.581	527.06
539.795	489.06
540.009	513.06
540.222	500.06
540.436	490.06
540.65	500.06
540.864	512.06
541.078	527.06
541.292	521.06
541.506	498.06
541.72	514.06
541.934	483.06
542.147	509.06
542.361	503.06
542.575	509.06
542.789	499.06
543.002	496.06
543.216	513.06
543.43	525.06
543.644	514.06
543.857	486.06
544.071	508.06
544.285	517.06
544.498	482.06
544.712	488.06
544.925	503.06
545.139	493.06
545.352	506.06
545.566	500.06
545.779	514.06
545.993	510.06
546.206	509.06
546.42	505.06
546.633	488.06
546.847	501.06
547.06	499.06
547.274	490.06
547.487	490.06
547.7	474.06
547.914	486.06
548.127	515.06
548.34	493.06
548.554	499.06
548.767	506.06
548.98	484.06
549.193	494.06
549.407	500.06
549.62	489.06
549.833	488.06
550.046	483.06
550.259	473.06
550.473	470.06
550.686	486.06
550.899	484.06
551.112	485.06
551.325	488.06
551.538	493.06
551.751	499.06
551.964	493.06
552.177	486.06
552.39	483.06
552.603	505.06
552.816	498.06
553.029	509.06
553.242	514.06
553.455	511.06
553.667	500.06
553.88	523.06
554.093	494.06
554.306	500.06
554.519	456.06
554.732	480.06
554.944	474.06
555.157	482.06
555.37	475.06
555.583	462.06
555.795	460.06
556.008	465.06
556.221	464.06
556.433	477.06
556.646	457.06
556.859	447.06
557.071	442.06
557.284	454.06
557.496	453.06
557.709	468.06
557.921	454.06
558.134	440.06
558.346	439.06
558.559	425.06
558.771	429.06
558.984	428.06
559.196	436.06
559.409	438.06
559.621	433.06
559.833	442.06
560.046	413.06
560.258	424.06
560.47	441.06
560.683	428.06
560.895	429.06
561.107	454.06
561.32	440.06
561.532	415.06
561.744	439.06
561.956	432.06
562.168	443.06
562.381	449.06
562.593	442.06
562.805	449.06
563.017	444.06
563.229	447.06
563.441	445.06
563.653	450.06
563.865	440.06
564.077	458.06
564.289	455.06
564.501	435.06
564.713	461.06
564.925	456.06
565.137	491.06
565.349	486.06
565.561	477.06
565.773	474.06
565.985	492.06
566.197	517.06
566.408	516.06
566.62	550.06
566.832	563.06
567.044	584.06
567.255	574.06
567.467	570.06
567.679	598.06
567.891	597.06
568.102	612.06
568.314	569.06
568.526	568.06
568.737	558.06
568.949	535.06
569.161	504.06
569.372	472.06
569.584	485.06
569.795	468.06
570.007	458.06
570.218	481.06
570.43	468.06
570.641	429.06
570.853	436.06
571.064	422.06
571.276	451.06
571.487	422.06
571.698	420.06
571.91	402.06
572.121	409.06
572.333	403.06
572.544	383.06
572.755	386.06
572.966	394.06
573.178	365.06
573.389	390.06
573.6	380.06
573.811	385.06
574.023	386.06
574.234	374.06
574.445	380.06
574.656	369.06
574.867	380.06
575.078	365.06
575.289	368.06
575.501	363.06
575.712	351.06
575.923	383.06
576.134	359.06
576.345	381.06
576.556	384.06
576.767	353.06
576.978	361.06
577.188	374.06
577.399	386.06
577.61	353.06
577.821	346.06
578.032	377.06
578.243	394.06
578.454	619.06
578.665	474.06
578.875	376.06
579.086	344.06
579.297	343.06
579.508	346.06
579.718	350.06
579.929	338.06
580.14	361.06
580.35	339.06
580.561	360.06
580.772	347.06
580.982	335.06
581.193	333.06
581.403	345.06
581.614	322.06
581.825	337.06
582.035	330.06
582.246	317.06
582.456	342.06
582.667	311.06
582.877	333.06
583.087	339.06
583.298	334.06
583.508	343.06
583.719	347.06
583.929	336.06
584.139	345.06
584.35	345.06
584.56	328.06
584.77	333.06
584.981	333.06
585.191	322.06
585.401	313.06
585.611	335.06
585.821	332.06
586.032	331.06
586.242	324.06
586.452	319.06
586.662	328.06
586.872	328.06
587.082	312.06
587.292	334.06
587.502	325.06
587.713	322.06
587.923	337.06
588.133	315.06
588.343	325.06
588.553	328.06
588.762	333.06
588.972	318.06
589.182	349.06
589.392	362.06
589.602	328.06
589.812	338.06
590.022	330.06
590.232	325.06
590.441	336.06
590.651	320.06
590.861	322.06
591.071	329.06
591.281	306.06
591.49	323.06
591.7	335.06
591.91	330.06
592.119	329.06
592.329	346.06
592.539	341.06
592.748	343.06
592.958	352.06
593.167	352.06
593.377	349.06
593.587	353.06
593.796	338.06
594.006	370.06
594.215	368.06
594.424	346.06
594.634	338.06
594.843	365.06
595.053	355.06
595.262	334.06
595.472	341.06
595.681	336.06
595.89	320.06
596.1	321.06
596.309	321.06
596.518	320.06
596.727	326.06
596.937	307.06
597.146	310.06
597.355	304.06
597.564	312.06
597.774	291.06
597.983	296.06
598.192	294.06
598.401	268.06
598.61	294.06
598.819	270.06
599.028	307.06
599.237	282.06
599.446	288.06
599.655	286.06
599.864	298.06
600.073	293.06
600.282	278.06
600.491	276.06
600.7	278.06
600.909	285.06
601.118	294.06
601.327	284.06
601.536	274.06
601.745	285.06
601.953	277.06
602.162	282.06
602.371	292.06
602.58	295.06
602.789	268.06
602.997	275.06
603.206	298.06
603.415	274.06
603.623	262.06
603.832	275.06
604.041	264.06
604.249	260.06
604.458	264.06
604.666	242.06
604.875	278.06
605.084	276.06
605.292	266.06
605.501	268.06
605.709	275.06
605.918	265.06
606.126	280.06
606.334	275.06
606.543	269.06
606.751	279.06
606.96	264.06
607.168	278.06
607.376	264.06
607.585	270.06
607.793	260.06
608.001	253.06
608.21	252.06
608.418	262.06
608.626	262.06
608.834	250.06
609.043	262.06
609.251	270.06
609.459	264.06
609.667	273.06
609.875	259.06
610.083	267.06
610.291	256.06
610.499	244.06
610.707	250.06
610.916	259.06
611.124	253.06
611.332	274.06
611.54	286.06
611.748	283.06
611.955	262.06
612.163	258.06
612.371	262.06
612.579	254.06
612.787	285.06
612.995	248.06
613.203	259.06
613.411	259.06
613.618	260.06
613.826	248.06
614.034	222.06
614.242	276.06
614.449	258.06
614.657	273.06
614.865	255.06
615.072	241.06
615.28	246.06
615.488	252.06
615.695	269.06
615.903	248.06
616.111	258.06
616.318	255.06
616.526	249.06
616.733	240.06
616.941	247.06
617.148	260.06
617.356	246.06
617.563	240.06
617.771	245.06
617.978	262.06
618.185	237.06
618.393	237.06
618.6	243.06
618.807	246.06
619.015	248.06
619.222	248.06
619.429	256.06
619.637	235.06
619.844	248.06
620.051	243.06
620.258	265.06
620.466	241.06
620.673	238.06
620.88	238.06
621.087	242.06
621.294	243.06
621.501	228.06
621.708	244.06
621.915	234.06
622.122	235.06
622.329	240.06
622.536	245.06
622.743	244.06
622.95	219.06
623.157	232.06
623.364	224.06
623.571	241.06
623.778	242.06
623.985	233.06
624.192	240.06
624.399	232.06
624.606	231.06
624.812	224.06
625.019	237.06
625.226	234.06
625.433	225.06
625.639	216.06
625.846	228.06
626.053	214.06
626.259	225.06
626.466	221.06
626.673	221.06
626.879	229.06
627.086	226.06
627.293	212.06
627.499	217.06
627.706	240.06
627.912	215.06
628.119	216.06
628.325	210.06
628.532	226.06
628.738	212.06
628.945	211.06
629.151	216.06
629.357	214.06
629.564	224.06
629.77	212.06
629.976	218.06
630.183	203.06
630.389	208.06
630.595	215.06
630.802	212.06
631.008	214.06
631.214	207.06
631.42	228.06
631.627	217.06
631.833	190.06
632.039	199.06
632.245	206.06
632.451	212.06
632.657	194.06
632.863	201.06
633.069	211.06
633.275	194.06
633.481	210.06
633.688	192.06
633.893	201.06
634.099	184.06
634.305	211.06
634.511	212.06
634.717	200.06
634.923	200.06
635.129	183.06
635.335	193.06
635.541	186.06
635.747	203.06
635.952	206.06
636.158	179.06
636.364	189.06
636.57	190.06
636.775	186.06
636.981	211.06
637.187	188.06
637.392	200.06
637.598	192.06
637.804	197.06
638.009	197.06
638.215	205.06
638.421	193.06
638.626	195.06
638.832	185.06
639.037	193.06
639.243	182.06
639.448	191.06
639.654	173.06
639.859	186.06
640.065	172.06
640.27	196.06
640.475	185.06
640.681	178.06
640.886	190.06
641.091	172.06
641.297	178.06
641.502	171.06
641.707	179.06
641.913	171.06
642.118	182.06
642.323	177.06
642.528	186.06
642.733	183.06
642.939	185.06
643.144	178.06
643.349	176.06
643.554	178.06
643.759	171.06
643.964	162.06
644.169	170.06
644.374	179.06
644.579	179.06
644.784	173.06
644.989	186.06
645.194	173.06
645.399	175.06
645.604	177.06
645.809	173.06
646.014	188.06
646.219	169.06
646.423	176.06
646.628	173.06
646.833	173.06
647.038	173.06
647.243	185.06
647.447	192.06
647.652	168.06
647.857	183.06
648.062	165.06
648.266	184.06
648.471	170.06
648.676	180.06
648.88	176.06
649.085	176.06
649.289	165.06
649.494	188.06
649.698	179.06
649.903	189.06
650.107	192.06
650.312	176.06
650.516	158.06
650.721	160.06
650.925	170.06
651.13	164.06
651.334	170.06
651.539	156.06
651.743	158.06
651.947	157.06
652.152	142.06
652.356	134.06
652.56	149.06
652.764	148.06
652.969	147.06
653.173	150.06
653.377	143.06
653.581	128.06
653.785	146.06
653.99	164.06
654.194	143.06
654.398	151.06
654.602	150.06
654.806	148.06
655.01	142.06
655.214	133.06
655.418	124.06
655.622	136.06
655.826	135.06
656.03	159.06
656.234	136.06
656.438	125.06
656.642	132.06
656.846	145.06
657.049	123.06
657.253	125.06
657.457	135.06
657.661	123.06
657.865	121.06
658.068	130.06
658.272	122.06
658.476	116.06
658.68	107.06
658.883	126.06
659.087	107.06
659.291	96.06
659.494	105.06
659.698	102.06
659.901	120.06
660.105	114.06
660.309	82.06
660.512	106.06
660.716	96.06
660.919	85.06
661.123	102.06
661.326	99.06
661.53	94.06
661.733	82.06
661.936	93.06
662.14	88.06
662.343	85.06
662.546	91.06
662.75	81.06
662.953	93.06
663.156	75.06
663.36	66.06
663.563	97.06
663.766	81.06
663.969	88.06
664.173	86.06
664.376	85.06
664.579	76.06
664.782	86.06
664.985	84.06
665.188	84.06
665.391	73.06
665.594	90.06
665.797	79.06
666	80.06
666.203	92.06
666.406	87.06
666.609	84.06
666.812	88.06
667.015	76.06
667.218	89.06
667.421	72.06
667.624	87.06
667.827	78.06
668.03	87.06
668.232	89.06
668.435	81.06
668.638	86.06
668.841	92.06
669.043	79.06
669.246	73.06
669.449	77.06
669.651	69.06
669.854	83.06
670.057	88.06
670.259	75.06
670.462	93.06
670.665	82.06
670.867	88.06
671.07	84.06
671.272	76.06
671.475	65.06
671.677	65.06
671.88	83.06
672.082	75.06
672.284	81.06
672.487	87.06
672.689	81.06
672.892	73.06
