Data from 1979.PennyLincolnUp.Lamp.En5.5.200Scan.071719.P1_HRD10591_16-20-19-865.txt Node
Date: Thu Jul 18 16:20:19 EDT 2019
User: cochatt
Spectrometer: HR+D1059
Trigger mode: 1
Integration Time (sec): 1.000000E-1
Scans to average: 1
Electric dark correction enabled: true
Nonlinearity correction enabled: false
Boxcar width: 0
XAxis mode: Wavelengths
Number of Pixels in Spectrum: 2048
>>>>>Begin Spectral Data<<<<<
223.165	-2.25
223.4	-2.25
223.635	-2.25
223.869	-28.25
224.104	-12.25
224.338	-4.25
224.573	-8.25
224.808	-0.25
225.042	-15.25
225.277	-11.25
225.511	0.75
225.746	-0.25
225.98	-6.25
226.215	9.75
226.449	-0.25
226.683	16.75
226.918	28.75
227.152	32.75
227.387	34.75
227.621	36.75
227.856	41.75
228.09	41.75
228.324	39.75
228.559	50.75
228.793	50.75
229.027	102.75
229.262	114.75
229.496	105.75
229.73	120.75
229.964	151.75
230.199	114.75
230.433	101.75
230.667	119.75
230.901	111.75
231.136	120.75
231.37	117.75
231.604	119.75
231.838	107.75
232.072	117.75
232.306	99.75
232.541	119.75
232.775	120.75
233.009	105.75
233.243	118.75
233.477	131.75
233.711	100.75
233.945	131.75
234.179	117.75
234.413	106.75
234.647	113.75
234.881	106.75
235.115	113.75
235.349	120.75
235.583	122.75
235.817	124.75
236.051	123.75
236.285	133.75
236.519	128.75
236.753	139.75
236.987	133.75
237.221	172.75
237.455	208.75
237.689	168.75
237.922	141.75
238.156	133.75
238.39	131.75
238.624	134.75
238.858	125.75
239.091	126.75
239.325	116.75
239.559	129.75
239.793	136.75
240.027	135.75
240.26	127.75
240.494	161.75
240.728	146.75
240.961	138.75
241.195	148.75
241.429	142.75
241.662	142.75
241.896	138.75
242.13	139.75
242.363	136.75
242.597	131.75
242.83	139.75
243.064	145.75
243.298	145.75
243.531	121.75
243.765	145.75
243.998	137.75
244.232	141.75
244.465	133.75
244.699	133.75
244.932	138.75
245.166	147.75
245.399	159.75
245.633	147.75
245.866	137.75
246.099	144.75
246.333	147.75
246.566	136.75
246.8	145.75
247.033	151.75
247.266	156.75
247.5	159.75
247.733	169.75
247.966	161.75
248.2	168.75
248.433	175.75
248.666	182.75
248.899	189.75
249.133	196.75
249.366	193.75
249.599	209.75
249.832	176.75
250.066	171.75
250.299	170.75
250.532	179.75
250.765	193.75
250.998	193.75
251.231	218.75
251.465	205.75
251.698	197.75
251.931	189.75
252.164	200.75
252.397	194.75
252.63	196.75
252.863	200.75
253.096	221.75
253.329	228.75
253.562	213.75
253.795	213.75
254.028	215.75
254.261	206.75
254.494	215.75
254.727	231.75
254.96	256.75
255.193	258.75
255.426	234.75
255.659	221.75
255.892	217.75
256.124	214.75
256.357	218.75
256.59	219.75
256.823	220.75
257.056	192.75
257.289	198.75
257.521	225.75
257.754	203.75
257.987	202.75
258.22	202.75
258.452	200.75
258.685	200.75
258.918	211.75
259.151	193.75
259.383	213.75
259.616	222.75
259.849	225.75
260.081	218.75
260.314	250.75
260.547	246.75
260.779	235.75
261.012	228.75
261.244	217.75
261.477	205.75
261.71	218.75
261.942	204.75
262.175	225.75
262.407	215.75
262.64	205.75
262.872	209.75
263.105	215.75
263.337	223.75
263.57	202.75
263.802	217.75
264.035	213.75
264.267	215.75
264.499	223.75
264.732	202.75
264.964	219.75
265.197	203.75
265.429	213.75
265.661	219.75
265.894	218.75
266.126	214.75
266.358	208.75
266.591	202.75
266.823	213.75
267.055	220.75
267.287	238.75
267.52	209.75
267.752	205.75
267.984	215.75
268.216	219.75
268.448	224.75
268.681	231.75
268.913	257.75
269.145	244.75
269.377	260.75
269.609	255.75
269.841	240.75
270.073	267.75
270.306	272.75
270.538	311.75
270.77	292.75
271.002	279.75
271.234	276.75
271.466	282.75
271.698	303.75
271.93	276.75
272.162	282.75
272.394	306.75
272.626	267.75
272.858	284.75
273.09	261.75
273.322	267.75
273.553	255.75
273.785	257.75
274.017	254.75
274.249	261.75
274.481	255.75
274.713	277.75
274.945	271.75
275.176	256.75
275.408	273.75
275.64	279.75
275.872	257.75
276.104	246.75
276.335	248.75
276.567	265.75
276.799	279.75
277.031	287.75
277.262	295.75
277.494	315.75
277.726	276.75
277.957	285.75
278.189	262.75
278.421	255.75
278.652	258.75
278.884	273.75
279.115	253.75
279.347	253.75
279.579	264.75
279.81	249.75
280.042	262.75
280.273	257.75
280.505	287.75
280.736	259.75
280.968	244.75
281.199	266.75
281.431	249.75
281.662	267.75
281.894	264.75
282.125	272.75
282.356	275.75
282.588	298.75
282.819	298.75
283.051	290.75
283.282	261.75
283.513	271.75
283.745	279.75
283.976	258.75
284.207	290.75
284.439	288.75
284.67	282.75
284.901	275.75
285.132	277.75
285.364	276.75
285.595	279.75
285.826	267.75
286.057	287.75
286.288	263.75
286.52	277.75
286.751	285.75
286.982	288.75
287.213	275.75
287.444	284.75
287.675	301.75
287.906	282.75
288.138	292.75
288.369	289.75
288.6	304.75
288.831	307.75
289.062	296.75
289.293	286.75
289.524	299.75
289.755	295.75
289.986	284.75
290.217	282.75
290.448	288.75
290.679	297.75
290.91	271.75
291.141	289.75
291.371	285.75
291.602	282.75
291.833	296.75
292.064	275.75
292.295	285.75
292.526	291.75
292.757	288.75
292.987	290.75
293.218	293.75
293.449	296.75
293.68	279.75
293.91	300.75
294.141	299.75
294.372	281.75
294.603	279.75
294.833	298.75
295.064	286.75
295.295	310.75
295.525	297.75
295.756	305.75
295.987	295.75
296.217	334.75
296.448	333.75
296.679	321.75
296.909	305.75
297.14	308.75
297.37	314.75
297.601	305.75
297.831	324.75
298.062	304.75
298.292	327.75
298.523	296.75
298.753	301.75
298.984	320.75
299.214	310.75
299.445	314.75
299.675	320.75
299.905	304.75
300.136	311.75
300.366	325.75
300.597	312.75
300.827	320.75
301.057	313.75
301.288	308.75
301.518	331.75
301.748	327.75
301.979	327.75
302.209	338.75
302.439	337.75
302.669	329.75
302.9	333.75
303.13	332.75
303.36	321.75
303.59	323.75
303.82	337.75
304.051	345.75
304.281	328.75
304.511	333.75
304.741	335.75
304.971	333.75
305.201	333.75
305.431	331.75
305.661	339.75
305.891	319.75
306.121	331.75
306.352	355.75
306.582	332.75
306.812	300.75
307.042	324.75
307.272	332.75
307.502	338.75
307.731	330.75
307.961	339.75
308.191	333.75
308.421	333.75
308.651	338.75
308.881	341.75
309.111	357.75
309.341	359.75
309.571	360.75
309.8	374.75
310.03	361.75
310.26	369.75
310.49	367.75
310.72	370.75
310.949	386.75
311.179	386.75
311.409	363.75
311.639	355.75
311.868	377.75
312.098	367.75
312.328	398.75
312.557	400.75
312.787	417.75
313.017	411.75
313.246	398.75
313.476	372.75
313.706	368.75
313.935	384.75
314.165	393.75
314.394	404.75
314.624	400.75
314.853	388.75
315.083	383.75
315.312	382.75
315.542	343.75
315.771	373.75
316.001	364.75
316.23	384.75
316.46	381.75
316.689	372.75
316.919	397.75
317.148	375.75
317.377	395.75
317.607	368.75
317.836	381.75
318.065	385.75
318.295	381.75
318.524	374.75
318.753	384.75
318.983	387.75
319.212	376.75
319.441	385.75
319.67	412.75
319.9	397.75
320.129	376.75
320.358	403.75
320.587	387.75
320.816	385.75
321.046	395.75
321.275	396.75
321.504	381.75
321.733	423.75
321.962	412.75
322.191	395.75
322.42	416.75
322.649	455.75
322.878	463.75
323.108	440.75
323.337	472.75
323.566	470.75
323.795	484.75
324.024	542.75
324.253	639.75
324.482	912.75
324.71	1481.75
324.939	2204.75
325.168	1891.75
325.397	916.75
325.626	625.75
325.855	531.75
326.084	496.75
326.313	476.75
326.542	486.75
326.77	530.75
326.999	612.75
327.228	873.75
327.457	1316.75
327.686	1619.75
327.914	1071.75
328.143	680.75
328.372	610.75
328.6	576.75
328.829	529.75
329.058	568.75
329.287	563.75
329.515	537.75
329.744	505.75
329.972	490.75
330.201	515.75
330.43	546.75
330.658	569.75
330.887	581.75
331.115	596.75
331.344	514.75
331.572	500.75
331.801	507.75
332.03	499.75
332.258	493.75
332.486	462.75
332.715	447.75
332.943	459.75
333.172	459.75
333.4	473.75
333.629	483.75
333.857	497.75
334.085	499.75
334.314	528.75
334.542	548.75
334.771	568.75
334.999	514.75
335.227	491.75
335.455	487.75
335.684	451.75
335.912	463.75
336.14	443.75
336.369	456.75
336.597	464.75
336.825	461.75
337.053	455.75
337.281	449.75
337.51	465.75
337.738	452.75
337.966	436.75
338.194	449.75
338.422	467.75
338.65	451.75
338.878	444.75
339.106	442.75
339.334	436.75
339.562	444.75
339.79	448.75
340.018	468.75
340.246	431.75
340.474	449.75
340.702	443.75
340.93	440.75
341.158	433.75
341.386	454.75
341.614	427.75
341.842	426.75
342.07	437.75
342.298	444.75
342.526	442.75
342.754	435.75
342.981	429.75
343.209	415.75
343.437	454.75
343.665	437.75
343.893	450.75
344.12	465.75
344.348	468.75
344.576	459.75
344.804	436.75
345.031	418.75
345.259	447.75
345.487	473.75
345.714	438.75
345.942	439.75
346.17	435.75
346.397	454.75
346.625	424.75
346.853	427.75
347.08	381.75
347.308	427.75
347.535	441.75
347.763	430.75
347.99	433.75
348.218	428.75
348.445	441.75
348.673	448.75
348.9	427.75
349.128	404.75
349.355	432.75
349.583	419.75
349.81	425.75
350.037	426.75
350.265	413.75
350.492	417.75
350.72	418.75
350.947	403.75
351.174	416.75
351.402	415.75
351.629	445.75
351.856	420.75
352.083	431.75
352.311	447.75
352.538	473.75
352.765	455.75
352.992	429.75
353.22	425.75
353.447	437.75
353.674	408.75
353.901	436.75
354.128	404.75
354.355	427.75
354.583	411.75
354.81	397.75
355.037	409.75
355.264	395.75
355.491	409.75
355.718	405.75
355.945	406.75
356.172	387.75
356.399	402.75
356.626	399.75
356.853	406.75
357.08	401.75
357.307	402.75
357.534	399.75
357.761	415.75
357.988	396.75
358.215	423.75
358.441	405.75
358.668	432.75
358.895	404.75
359.122	395.75
359.349	399.75
359.576	441.75
359.802	441.75
360.029	482.75
360.256	486.75
360.483	449.75
360.709	439.75
360.936	427.75
361.163	434.75
361.39	460.75
361.616	433.75
361.843	438.75
362.07	420.75
362.296	434.75
362.523	442.75
362.749	435.75
362.976	442.75
363.203	416.75
363.429	396.75
363.656	409.75
363.882	418.75
364.109	405.75
364.335	411.75
364.562	405.75
364.788	398.75
365.015	431.75
365.241	442.75
365.468	424.75
365.694	419.75
365.92	432.75
366.147	431.75
366.373	398.75
366.599	404.75
366.826	410.75
367.052	396.75
367.278	407.75
367.505	419.75
367.731	408.75
367.957	436.75
368.184	428.75
368.41	435.75
368.636	437.75
368.862	449.75
369.089	410.75
369.315	425.75
369.541	424.75
369.767	421.75
369.993	415.75
370.219	440.75
370.445	432.75
370.672	429.75
370.898	421.75
371.124	420.75
371.35	429.75
371.576	428.75
371.802	431.75
372.028	419.75
372.254	417.75
372.48	435.75
372.706	449.75
372.932	435.75
373.158	420.75
373.384	453.75
373.61	435.75
373.835	445.75
374.061	425.75
374.287	435.75
374.513	438.75
374.739	451.75
374.965	451.75
375.191	432.75
375.416	450.75
375.642	442.75
375.868	441.75
376.094	424.75
376.319	426.75
376.545	435.75
376.771	394.75
376.997	432.75
377.222	410.75
377.448	435.75
377.674	422.75
377.899	437.75
378.125	423.75
378.35	419.75
378.576	405.75
378.802	432.75
379.027	418.75
379.253	420.75
379.478	419.75
379.704	437.75
379.929	415.75
380.155	429.75
380.38	440.75
380.606	456.75
380.831	402.75
381.057	411.75
381.282	434.75
381.507	439.75
381.733	437.75
381.958	436.75
382.184	441.75
382.409	426.75
382.634	439.75
382.86	433.75
383.085	441.75
383.31	453.75
383.535	456.75
383.761	454.75
383.986	447.75
384.211	432.75
384.436	443.75
384.662	470.75
384.887	472.75
385.112	447.75
385.337	444.75
385.562	447.75
385.787	460.75
386.013	479.75
386.238	479.75
386.463	492.75
386.688	475.75
386.913	458.75
387.138	464.75
387.363	463.75
387.588	466.75
387.813	474.75
388.038	474.75
388.263	464.75
388.488	476.75
388.713	476.75
388.938	476.75
389.163	472.75
389.387	475.75
389.612	456.75
389.837	481.75
390.062	470.75
390.287	483.75
390.512	497.75
390.736	481.75
390.961	474.75
391.186	497.75
391.411	497.75
391.636	486.75
391.86	492.75
392.085	505.75
392.31	493.75
392.534	484.75
392.759	492.75
392.984	514.75
393.208	491.75
393.433	470.75
393.658	486.75
393.882	503.75
394.107	479.75
394.331	502.75
394.556	492.75
394.78	503.75
395.005	500.75
395.229	496.75
395.454	505.75
395.678	519.75
395.903	519.75
396.127	542.75
396.352	551.75
396.576	512.75
396.801	507.75
397.025	498.75
397.249	491.75
397.474	516.75
397.698	521.75
397.922	551.75
398.147	543.75
398.371	557.75
398.595	568.75
398.82	569.75
399.044	557.75
399.268	588.75
399.492	636.75
399.717	691.75
399.941	695.75
400.165	698.75
400.389	707.75
400.613	642.75
400.837	611.75
401.062	581.75
401.286	576.75
401.51	588.75
401.734	591.75
401.958	584.75
402.182	589.75
402.406	618.75
402.63	586.75
402.854	593.75
403.078	588.75
403.302	598.75
403.526	594.75
403.75	581.75
403.974	602.75
404.198	602.75
404.422	605.75
404.645	611.75
404.869	612.75
405.093	639.75
405.317	654.75
405.541	706.75
405.765	665.75
405.988	617.75
406.212	632.75
406.436	647.75
406.66	657.75
406.883	645.75
407.107	678.75
407.331	717.75
407.555	784.75
407.778	818.75
408.002	732.75
408.226	662.75
408.449	672.75
408.673	644.75
408.896	667.75
409.12	703.75
409.344	714.75
409.567	652.75
409.791	626.75
410.014	598.75
410.238	614.75
410.461	612.75
410.685	593.75
410.908	630.75
411.132	645.75
411.355	666.75
411.578	634.75
411.802	629.75
412.025	611.75
412.249	609.75
412.472	616.75
412.695	665.75
412.919	647.75
413.142	617.75
413.365	602.75
413.589	592.75
413.812	557.75
414.035	554.75
414.258	572.75
414.482	595.75
414.705	573.75
414.928	565.75
415.151	582.75
415.374	561.75
415.597	575.75
415.821	559.75
416.044	560.75
416.267	576.75
416.49	565.75
416.713	565.75
416.936	585.75
417.159	582.75
417.382	565.75
417.605	569.75
417.828	580.75
418.051	595.75
418.274	571.75
418.497	550.75
418.72	575.75
418.943	563.75
419.166	591.75
419.389	624.75
419.611	611.75
419.834	603.75
420.057	582.75
420.28	581.75
420.503	583.75
420.726	581.75
420.948	607.75
421.171	627.75
421.394	673.75
421.617	616.75
421.839	585.75
422.062	580.75
422.285	601.75
422.507	638.75
422.73	751.75
422.953	728.75
423.175	626.75
423.398	604.75
423.621	624.75
423.843	637.75
424.066	628.75
424.288	641.75
424.511	645.75
424.733	710.75
424.956	800.75
425.178	751.75
425.401	752.75
425.623	771.75
425.846	652.75
426.068	610.75
426.291	617.75
426.513	624.75
426.735	612.75
426.958	667.75
427.18	756.75
427.402	897.75
427.625	991.75
427.847	831.75
428.069	739.75
428.292	649.75
428.514	625.75
428.736	584.75
428.958	582.75
429.181	588.75
429.403	579.75
429.625	551.75
429.847	608.75
430.069	694.75
430.292	666.75
430.514	624.75
430.736	581.75
430.958	561.75
431.18	553.75
431.402	568.75
431.624	547.75
431.846	534.75
432.068	563.75
432.29	539.75
432.512	548.75
432.734	570.75
432.956	561.75
433.178	566.75
433.4	569.75
433.622	541.75
433.844	565.75
434.066	542.75
434.287	560.75
434.509	538.75
434.731	577.75
434.953	573.75
435.175	579.75
435.397	612.75
435.618	601.75
435.84	673.75
436.062	746.75
436.284	825.75
436.505	666.75
436.727	641.75
436.949	600.75
437.17	577.75
437.392	567.75
437.614	593.75
437.835	635.75
438.057	723.75
438.278	824.75
438.5	819.75
438.721	892.75
438.943	876.75
439.165	671.75
439.386	644.75
439.608	627.75
439.829	625.75
440.05	633.75
440.272	679.75
440.493	638.75
440.715	632.75
440.936	577.75
441.158	571.75
441.379	589.75
441.6	610.75
441.822	616.75
442.043	664.75
442.264	736.75
442.486	801.75
442.707	682.75
442.928	644.75
443.149	636.75
443.371	680.75
443.592	713.75
443.813	789.75
444.034	867.75
444.255	731.75
444.476	655.75
444.698	651.75
444.919	620.75
445.14	699.75
445.361	666.75
445.582	672.75
445.803	701.75
446.024	861.75
446.245	845.75
446.466	785.75
446.687	649.75
446.908	601.75
447.129	590.75
447.35	570.75
447.571	541.75
447.792	571.75
448.013	561.75
448.234	596.75
448.455	632.75
448.675	743.75
448.896	883.75
449.117	711.75
449.338	689.75
449.559	788.75
449.779	925.75
450	735.75
450.221	615.75
450.442	567.75
450.662	551.75
450.883	554.75
451.104	553.75
451.324	554.75
451.545	548.75
451.766	536.75
451.986	506.75
452.207	510.75
452.428	515.75
452.648	525.75
452.869	534.75
453.089	523.75
453.31	565.75
453.53	527.75
453.751	497.75
453.971	518.75
454.192	552.75
454.412	521.75
454.633	529.75
454.853	507.75
455.073	492.75
455.294	519.75
455.514	583.75
455.734	577.75
455.955	521.75
456.175	488.75
456.395	485.75
456.616	473.75
456.836	473.75
457.056	480.75
457.276	480.75
457.497	487.75
457.717	482.75
457.937	502.75
458.157	513.75
458.377	533.75
458.598	551.75
458.818	583.75
459.038	636.75
459.258	681.75
459.478	604.75
459.698	562.75
459.918	545.75
460.138	566.75
460.358	566.75
460.578	571.75
460.798	568.75
461.018	593.75
461.238	610.75
461.458	577.75
461.678	581.75
461.898	587.75
462.118	575.75
462.338	576.75
462.558	602.75
462.777	615.75
462.997	614.75
463.217	643.75
463.437	636.75
463.657	643.75
463.876	613.75
464.096	612.75
464.316	628.75
464.536	630.75
464.755	635.75
464.975	628.75
465.195	637.75
465.414	712.75
465.634	628.75
465.854	573.75
466.073	593.75
466.293	556.75
466.512	539.75
466.732	547.75
466.951	530.75
467.171	533.75
467.391	554.75
467.61	545.75
467.829	543.75
468.049	540.75
468.268	541.75
468.488	549.75
468.707	520.75
468.927	526.75
469.146	513.75
469.365	539.75
469.585	507.75
469.804	533.75
470.023	538.75
470.243	530.75
470.462	551.75
470.681	588.75
470.901	537.75
471.12	534.75
471.339	531.75
471.558	546.75
471.777	537.75
471.997	543.75
472.216	531.75
472.435	566.75
472.654	552.75
472.873	571.75
473.092	535.75
473.311	541.75
473.53	518.75
473.749	540.75
473.968	576.75
474.187	679.75
474.406	712.75
474.625	621.75
474.844	549.75
475.063	531.75
475.282	542.75
475.501	540.75
475.72	533.75
475.939	540.75
476.158	564.75
476.377	566.75
476.596	555.75
476.814	571.75
477.033	555.75
477.252	594.75
477.471	574.75
477.69	567.75
477.908	581.75
478.127	597.75
478.346	584.75
478.564	607.75
478.783	613.75
479.002	621.75
479.22	628.75
479.439	623.75
479.658	664.75
479.876	651.75
480.095	659.75
480.313	695.75
480.532	680.75
480.751	687.75
480.969	661.75
481.188	728.75
481.406	756.75
481.624	684.75
481.843	645.75
482.061	642.75
482.28	630.75
482.498	636.75
482.717	647.75
482.935	645.75
483.153	620.75
483.372	635.75
483.59	644.75
483.808	627.75
484.027	624.75
484.245	645.75
484.463	646.75
484.681	639.75
484.9	643.75
485.118	666.75
485.336	646.75
485.554	653.75
485.772	643.75
485.99	660.75
486.209	654.75
486.427	648.75
486.645	655.75
486.863	661.75
487.081	675.75
487.299	681.75
487.517	673.75
487.735	660.75
487.953	668.75
488.171	671.75
488.389	663.75
488.607	688.75
488.825	643.75
489.043	673.75
489.261	660.75
489.479	667.75
489.696	700.75
489.914	682.75
490.132	692.75
490.35	711.75
490.568	717.75
490.786	728.75
491.003	743.75
491.221	733.75
491.439	731.75
491.657	755.75
491.874	765.75
492.092	772.75
492.31	777.75
492.527	781.75
492.745	780.75
492.963	782.75
493.18	755.75
493.398	788.75
493.615	781.75
493.833	766.75
494.05	801.75
494.268	791.75
494.485	763.75
494.703	767.75
494.92	792.75
495.138	765.75
495.355	794.75
495.573	831.75
495.79	839.75
496.008	798.75
496.225	806.75
496.442	791.75
496.66	792.75
496.877	815.75
497.094	801.75
497.312	813.75
497.529	807.75
497.746	861.75
497.963	833.75
498.181	898.75
498.398	913.75
498.615	919.75
498.832	935.75
499.049	948.75
499.267	1002.75
499.484	1035.75
499.701	1075.75
499.918	1105.75
500.135	1160.75
500.352	1239.75
500.569	1242.75
500.786	1256.75
501.003	1221.75
501.22	1183.75
501.437	1143.75
501.654	1064.75
501.871	1081.75
502.088	988.75
502.305	989.75
502.522	957.75
502.739	929.75
502.956	899.75
503.172	876.75
503.389	844.75
503.606	873.75
503.823	847.75
504.04	844.75
504.256	838.75
504.473	853.75
504.69	806.75
504.907	801.75
505.123	769.75
505.34	800.75
505.557	771.75
505.773	785.75
505.99	760.75
506.207	757.75
506.423	745.75
506.64	753.75
506.856	735.75
507.073	751.75
507.289	720.75
507.506	723.75
507.722	744.75
507.939	777.75
508.155	743.75
508.372	719.75
508.588	694.75
508.805	712.75
509.021	698.75
509.238	731.75
509.454	723.75
509.67	701.75
509.887	707.75
510.103	680.75
510.319	706.75
510.536	815.75
510.752	1264.75
510.968	1058.75
511.184	729.75
511.401	681.75
511.617	694.75
511.833	659.75
512.049	663.75
512.265	687.75
512.481	674.75
512.698	651.75
512.914	667.75
513.13	667.75
513.346	667.75
513.562	649.75
513.778	664.75
513.994	689.75
514.21	698.75
514.426	710.75
514.642	752.75
514.858	764.75
515.074	791.75
515.29	925.75
515.506	1321.75
515.721	1104.75
515.937	803.75
516.153	729.75
516.369	719.75
516.585	745.75
516.801	698.75
517.016	721.75
517.232	729.75
517.448	720.75
517.664	717.75
517.879	746.75
518.095	735.75
518.311	736.75
518.527	727.75
518.742	709.75
518.958	709.75
519.173	697.75
519.389	691.75
519.605	688.75
519.82	697.75
520.036	699.75
520.251	692.75
520.467	728.75
520.682	727.75
520.898	725.75
521.113	729.75
521.329	757.75
521.544	855.75
521.76	1055.75
521.975	1654.75
522.19	1637.75
522.406	945.75
522.621	754.75
522.836	663.75
523.052	639.75
523.267	630.75
523.482	615.75
523.698	599.75
523.913	625.75
524.128	635.75
524.343	614.75
524.559	615.75
524.774	572.75
524.989	602.75
525.204	608.75
525.419	600.75
525.634	585.75
525.849	590.75
526.064	579.75
526.28	587.75
526.495	567.75
526.71	582.75
526.925	569.75
527.14	549.75
527.355	552.75
527.57	556.75
527.785	556.75
527.999	570.75
528.214	585.75
528.429	547.75
528.644	571.75
528.859	600.75
529.074	588.75
529.289	596.75
529.503	663.75
529.718	655.75
529.933	582.75
530.148	583.75
530.363	583.75
530.577	560.75
530.792	571.75
531.007	547.75
531.221	548.75
531.436	539.75
531.651	541.75
531.865	547.75
532.08	543.75
532.295	554.75
532.509	570.75
532.724	553.75
532.938	529.75
533.153	553.75
533.367	560.75
533.582	532.75
533.796	553.75
534.011	522.75
534.225	525.75
534.44	531.75
534.654	554.75
534.868	516.75
535.083	531.75
535.297	529.75
535.511	556.75
535.726	588.75
535.94	528.75
536.154	529.75
536.369	526.75
536.583	526.75
536.797	529.75
537.011	525.75
537.225	513.75
537.44	513.75
537.654	518.75
537.868	528.75
538.082	520.75
538.296	535.75
538.51	511.75
538.724	535.75
538.938	518.75
539.153	499.75
539.367	525.75
539.581	538.75
539.795	515.75
540.009	516.75
540.222	498.75
540.436	519.75
540.65	512.75
540.864	502.75
541.078	514.75
541.292	525.75
541.506	515.75
541.72	513.75
541.934	511.75
542.147	487.75
542.361	493.75
542.575	496.75
542.789	521.75
543.002	509.75
543.216	529.75
543.43	511.75
543.644	506.75
543.857	504.75
544.071	512.75
544.285	531.75
544.498	532.75
544.712	526.75
544.925	503.75
545.139	502.75
545.352	499.75
545.566	511.75
545.779	523.75
545.993	516.75
546.206	525.75
546.42	519.75
546.633	517.75
546.847	519.75
547.06	502.75
547.274	514.75
547.487	496.75
547.7	499.75
547.914	514.75
548.127	510.75
548.34	489.75
548.554	511.75
548.767	513.75
548.98	495.75
549.193	504.75
549.407	512.75
549.62	495.75
549.833	514.75
550.046	495.75
550.259	493.75
550.473	483.75
550.686	504.75
550.899	494.75
551.112	481.75
551.325	478.75
551.538	491.75
551.751	507.75
551.964	477.75
552.177	483.75
552.39	483.75
552.603	506.75
552.816	531.75
553.029	520.75
553.242	496.75
553.455	519.75
553.667	517.75
553.88	543.75
554.093	520.75
554.306	506.75
554.519	515.75
554.732	499.75
554.944	497.75
555.157	489.75
555.37	474.75
555.583	471.75
555.795	475.75
556.008	460.75
556.221	450.75
556.433	432.75
556.646	470.75
556.859	450.75
557.071	454.75
557.284	457.75
557.496	475.75
557.709	460.75
557.921	457.75
558.134	445.75
558.346	439.75
558.559	452.75
558.771	421.75
558.984	438.75
559.196	425.75
559.409	439.75
559.621	455.75
559.833	433.75
560.046	438.75
560.258	439.75
560.47	431.75
560.683	432.75
560.895	440.75
561.107	441.75
561.32	460.75
561.532	421.75
561.744	457.75
561.956	441.75
562.168	444.75
562.381	447.75
562.593	456.75
562.805	477.75
563.017	465.75
563.229	459.75
563.441	443.75
563.653	455.75
563.865	461.75
564.077	455.75
564.289	440.75
564.501	473.75
564.713	470.75
564.925	464.75
565.137	487.75
565.349	484.75
565.561	460.75
565.773	498.75
565.985	532.75
566.197	515.75
566.408	533.75
566.62	535.75
566.832	566.75
567.044	550.75
567.255	577.75
567.467	588.75
567.679	581.75
567.891	604.75
568.102	614.75
568.314	602.75
568.526	568.75
568.737	551.75
568.949	540.75
569.161	497.75
569.372	480.75
569.584	481.75
569.795	480.75
570.007	463.75
570.218	477.75
570.43	497.75
570.641	448.75
570.853	441.75
571.064	440.75
571.276	444.75
571.487	421.75
571.698	425.75
571.91	430.75
572.121	416.75
572.333	411.75
572.544	394.75
572.755	397.75
572.966	401.75
573.178	401.75
573.389	398.75
573.6	382.75
573.811	393.75
574.023	392.75
574.234	392.75
574.445	410.75
574.656	391.75
574.867	383.75
575.078	384.75
575.289	396.75
575.501	374.75
575.712	369.75
575.923	365.75
576.134	372.75
576.345	381.75
576.556	370.75
576.767	364.75
576.978	362.75
577.188	356.75
577.399	356.75
577.61	350.75
577.821	372.75
578.032	353.75
578.243	399.75
578.454	591.75
578.665	462.75
578.875	371.75
579.086	366.75
579.297	352.75
579.508	348.75
579.718	342.75
579.929	335.75
580.14	354.75
580.35	349.75
580.561	353.75
580.772	340.75
580.982	354.75
581.193	348.75
581.403	337.75
581.614	337.75
581.825	332.75
582.035	346.75
582.246	364.75
582.456	350.75
582.667	339.75
582.877	354.75
583.087	353.75
583.298	347.75
583.508	353.75
583.719	345.75
583.929	340.75
584.139	322.75
584.35	340.75
584.56	341.75
584.77	325.75
584.981	339.75
585.191	353.75
585.401	351.75
585.611	339.75
585.821	344.75
586.032	323.75
586.242	334.75
586.452	336.75
586.662	341.75
586.872	343.75
587.082	333.75
587.292	330.75
587.502	327.75
587.713	319.75
587.923	318.75
588.133	333.75
588.343	314.75
588.553	331.75
588.762	315.75
588.972	333.75
589.182	355.75
589.392	338.75
589.602	320.75
589.812	343.75
590.022	332.75
590.232	330.75
590.441	351.75
590.651	342.75
590.861	324.75
591.071	316.75
591.281	343.75
591.49	346.75
591.7	341.75
591.91	332.75
592.119	340.75
592.329	341.75
592.539	352.75
592.748	379.75
592.958	353.75
593.167	359.75
593.377	367.75
593.587	352.75
593.796	365.75
594.006	351.75
594.215	360.75
594.424	342.75
594.634	363.75
594.843	343.75
595.053	350.75
595.262	344.75
595.472	316.75
595.681	336.75
595.89	339.75
596.1	317.75
596.309	322.75
596.518	321.75
596.727	313.75
596.937	314.75
597.146	321.75
597.355	296.75
597.564	312.75
597.774	294.75
597.983	308.75
598.192	310.75
598.401	298.75
598.61	320.75
598.819	308.75
599.028	293.75
599.237	285.75
599.446	301.75
599.655	306.75
599.864	318.75
600.073	291.75
600.282	292.75
600.491	285.75
600.7	291.75
600.909	269.75
601.118	271.75
601.327	291.75
601.536	277.75
601.745	274.75
601.953	278.75
602.162	292.75
602.371	310.75
602.58	269.75
602.789	262.75
602.997	277.75
603.206	270.75
603.415	283.75
603.623	265.75
603.832	296.75
604.041	268.75
604.249	268.75
604.458	282.75
604.666	269.75
604.875	269.75
605.084	261.75
605.292	282.75
605.501	284.75
605.709	269.75
605.918	272.75
606.126	282.75
606.334	268.75
606.543	277.75
606.751	274.75
606.96	257.75
607.168	253.75
607.376	272.75
607.585	262.75
607.793	269.75
608.001	265.75
608.21	272.75
608.418	276.75
608.626	257.75
608.834	281.75
609.043	284.75
609.251	250.75
609.459	279.75
609.667	268.75
609.875	251.75
610.083	277.75
610.291	259.75
610.499	284.75
610.707	271.75
610.916	242.75
611.124	257.75
611.332	276.75
611.54	269.75
611.748	277.75
611.955	266.75
612.163	262.75
612.371	263.75
612.579	277.75
612.787	268.75
612.995	268.75
613.203	267.75
613.411	258.75
613.618	257.75
613.826	260.75
614.034	261.75
614.242	252.75
614.449	278.75
614.657	247.75
614.865	262.75
615.072	271.75
615.28	249.75
615.488	275.75
615.695	259.75
615.903	245.75
616.111	270.75
616.318	274.75
616.526	262.75
616.733	252.75
616.941	251.75
617.148	256.75
617.356	261.75
617.563	252.75
617.771	258.75
617.978	258.75
618.185	251.75
618.393	260.75
618.6	247.75
618.807	240.75
619.015	243.75
619.222	253.75
619.429	256.75
619.637	260.75
619.844	247.75
620.051	248.75
620.258	259.75
620.466	236.75
620.673	239.75
620.88	231.75
621.087	233.75
621.294	228.75
621.501	239.75
621.708	259.75
621.915	251.75
622.122	243.75
622.329	239.75
622.536	258.75
622.743	236.75
622.95	233.75
623.157	253.75
623.364	240.75
623.571	236.75
623.778	243.75
623.985	236.75
624.192	214.75
624.399	227.75
624.606	243.75
624.812	233.75
625.019	243.75
625.226	231.75
625.433	226.75
625.639	228.75
625.846	225.75
626.053	229.75
626.259	219.75
626.466	231.75
626.673	226.75
626.879	223.75
627.086	221.75
627.293	213.75
627.499	219.75
627.706	215.75
627.912	210.75
628.119	213.75
628.325	229.75
628.532	243.75
628.738	233.75
628.945	232.75
629.151	219.75
629.357	204.75
629.564	213.75
629.77	209.75
629.976	208.75
630.183	217.75
630.389	213.75
630.595	206.75
630.802	209.75
631.008	214.75
631.214	224.75
631.42	210.75
631.627	218.75
631.833	209.75
632.039	213.75
632.245	193.75
632.451	202.75
632.657	191.75
632.863	196.75
633.069	186.75
633.275	218.75
633.481	200.75
633.688	181.75
633.893	207.75
634.099	183.75
634.305	188.75
634.511	204.75
634.717	200.75
634.923	205.75
635.129	188.75
635.335	191.75
635.541	198.75
635.747	197.75
635.952	195.75
636.158	197.75
636.364	209.75
636.57	203.75
636.775	196.75
636.981	191.75
637.187	199.75
637.392	187.75
637.598	181.75
637.804	176.75
638.009	197.75
638.215	185.75
638.421	198.75
638.626	188.75
638.832	191.75
639.037	181.75
639.243	185.75
639.448	184.75
639.654	181.75
639.859	162.75
640.065	191.75
640.27	183.75
640.475	187.75
640.681	193.75
640.886	175.75
641.091	180.75
641.297	164.75
641.502	183.75
641.707	167.75
641.913	175.75
642.118	176.75
642.323	176.75
642.528	199.75
642.733	176.75
642.939	169.75
643.144	172.75
643.349	186.75
643.554	172.75
643.759	179.75
643.964	181.75
644.169	180.75
644.374	173.75
644.579	175.75
644.784	187.75
644.989	187.75
645.194	170.75
645.399	182.75
645.604	173.75
645.809	188.75
646.014	184.75
646.219	182.75
646.423	165.75
646.628	196.75
646.833	173.75
647.038	186.75
647.243	170.75
647.447	169.75
647.652	191.75
647.857	177.75
648.062	178.75
648.266	180.75
648.471	182.75
648.676	178.75
648.88	169.75
649.085	184.75
649.289	181.75
649.494	185.75
649.698	196.75
649.903	206.75
650.107	180.75
650.312	160.75
650.516	163.75
650.721	162.75
650.925	163.75
651.13	149.75
651.334	156.75
651.539	156.75
651.743	148.75
651.947	154.75
652.152	157.75
652.356	164.75
652.56	146.75
652.764	154.75
652.969	152.75
653.173	143.75
653.377	156.75
653.581	147.75
653.785	144.75
653.99	145.75
654.194	129.75
654.398	146.75
654.602	150.75
654.806	146.75
655.01	159.75
655.214	159.75
655.418	134.75
655.622	143.75
655.826	136.75
656.03	120.75
656.234	133.75
656.438	145.75
656.642	157.75
656.846	132.75
657.049	121.75
657.253	117.75
657.457	125.75
657.661	121.75
657.865	115.75
658.068	107.75
658.272	115.75
658.476	108.75
658.68	113.75
658.883	104.75
659.087	103.75
659.291	107.75
659.494	104.75
659.698	95.75
659.901	94.75
660.105	91.75
660.309	101.75
660.512	87.75
660.716	79.75
660.919	95.75
661.123	109.75
661.326	102.75
661.53	96.75
661.733	102.75
661.936	88.75
662.14	87.75
662.343	92.75
662.546	88.75
662.75	66.75
662.953	88.75
663.156	92.75
663.36	88.75
663.563	88.75
663.766	92.75
663.969	72.75
664.173	99.75
664.376	79.75
664.579	91.75
664.782	67.75
664.985	74.75
665.188	79.75
665.391	94.75
665.594	88.75
665.797	89.75
666	84.75
666.203	83.75
666.406	86.75
666.609	77.75
666.812	78.75
667.015	78.75
667.218	90.75
667.421	81.75
667.624	90.75
667.827	73.75
668.03	72.75
668.232	82.75
668.435	79.75
668.638	74.75
668.841	104.75
669.043	78.75
669.246	80.75
669.449	74.75
669.651	84.75
669.854	76.75
670.057	66.75
670.259	77.75
670.462	74.75
670.665	75.75
670.867	99.75
671.07	84.75
671.272	83.75
671.475	97.75
671.677	79.75
671.88	73.75
672.082	87.75
672.284	92.75
672.487	86.75
672.689	77.75
672.892	84.75
