Data from 1979.PennyLincolnUp.Lamp.En5.5.200Scan.071719.P1_HRD10591_16-18-56-864.txt Node
Date: Thu Jul 18 16:18:56 EDT 2019
User: cochatt
Spectrometer: HR+D1059
Trigger mode: 1
Integration Time (sec): 1.000000E-1
Scans to average: 1
Electric dark correction enabled: true
Nonlinearity correction enabled: false
Boxcar width: 0
XAxis mode: Wavelengths
Number of Pixels in Spectrum: 2048
>>>>>Begin Spectral Data<<<<<
223.165	-20.25
223.4	-20.25
223.635	-20.25
223.869	-24.25
224.104	-32.25
224.338	-13.25
224.573	-14.25
224.808	-17.25
225.042	-3.25
225.277	-9.25
225.511	7.75
225.746	5.75
225.98	-1.25
226.215	19.75
226.449	11.75
226.683	21.75
226.918	24.75
227.152	43.75
227.387	35.75
227.621	59.75
227.856	46.75
228.09	54.75
228.324	35.75
228.559	43.75
228.793	61.75
229.027	102.75
229.262	117.75
229.496	113.75
229.73	124.75
229.964	129.75
230.199	119.75
230.433	119.75
230.667	95.75
230.901	105.75
231.136	102.75
231.37	106.75
231.604	113.75
231.838	97.75
232.072	106.75
232.306	124.75
232.541	123.75
232.775	123.75
233.009	117.75
233.243	117.75
233.477	113.75
233.711	109.75
233.945	105.75
234.179	126.75
234.413	133.75
234.647	118.75
234.881	123.75
235.115	113.75
235.349	103.75
235.583	121.75
235.817	115.75
236.051	120.75
236.285	126.75
236.519	102.75
236.753	115.75
236.987	134.75
237.221	177.75
237.455	206.75
237.689	170.75
237.922	136.75
238.156	127.75
238.39	131.75
238.624	127.75
238.858	125.75
239.091	123.75
239.325	138.75
239.559	120.75
239.793	124.75
240.027	130.75
240.26	136.75
240.494	158.75
240.728	156.75
240.961	150.75
241.195	133.75
241.429	135.75
241.662	131.75
241.896	131.75
242.13	135.75
242.363	133.75
242.597	143.75
242.83	127.75
243.064	130.75
243.298	124.75
243.531	139.75
243.765	137.75
243.998	150.75
244.232	141.75
244.465	127.75
244.699	141.75
244.932	156.75
245.166	139.75
245.399	140.75
245.633	148.75
245.866	167.75
246.099	140.75
246.333	134.75
246.566	151.75
246.8	161.75
247.033	151.75
247.266	148.75
247.5	170.75
247.733	159.75
247.966	170.75
248.2	165.75
248.433	168.75
248.666	155.75
248.899	164.75
249.133	181.75
249.366	197.75
249.599	183.75
249.832	167.75
250.066	181.75
250.299	169.75
250.532	182.75
250.765	213.75
250.998	209.75
251.231	226.75
251.465	196.75
251.698	177.75
251.931	187.75
252.164	188.75
252.397	202.75
252.63	194.75
252.863	185.75
253.096	193.75
253.329	203.75
253.562	218.75
253.795	203.75
254.028	207.75
254.261	207.75
254.494	218.75
254.727	228.75
254.96	226.75
255.193	234.75
255.426	220.75
255.659	215.75
255.892	217.75
256.124	217.75
256.357	194.75
256.59	199.75
256.823	199.75
257.056	185.75
257.289	206.75
257.521	199.75
257.754	186.75
257.987	215.75
258.22	201.75
258.452	199.75
258.685	199.75
258.918	201.75
259.151	196.75
259.383	194.75
259.616	204.75
259.849	197.75
260.081	195.75
260.314	242.75
260.547	229.75
260.779	216.75
261.012	225.75
261.244	210.75
261.477	225.75
261.71	206.75
261.942	225.75
262.175	222.75
262.407	222.75
262.64	194.75
262.872	189.75
263.105	214.75
263.337	197.75
263.57	183.75
263.802	218.75
264.035	201.75
264.267	213.75
264.499	213.75
264.732	196.75
264.964	211.75
265.197	204.75
265.429	198.75
265.661	213.75
265.894	203.75
266.126	217.75
266.358	190.75
266.591	216.75
266.823	213.75
267.055	225.75
267.287	219.75
267.52	224.75
267.752	207.75
267.984	216.75
268.216	205.75
268.448	210.75
268.681	221.75
268.913	233.75
269.145	242.75
269.377	245.75
269.609	260.75
269.841	241.75
270.073	261.75
270.306	260.75
270.538	293.75
270.77	275.75
271.002	254.75
271.234	257.75
271.466	267.75
271.698	266.75
271.93	278.75
272.162	291.75
272.394	274.75
272.626	280.75
272.858	269.75
273.09	262.75
273.322	253.75
273.553	247.75
273.785	247.75
274.017	253.75
274.249	243.75
274.481	237.75
274.713	261.75
274.945	235.75
275.176	249.75
275.408	259.75
275.64	245.75
275.872	251.75
276.104	260.75
276.335	259.75
276.567	255.75
276.799	272.75
277.031	274.75
277.262	300.75
277.494	292.75
277.726	281.75
277.957	250.75
278.189	265.75
278.421	251.75
278.652	266.75
278.884	265.75
279.115	258.75
279.347	257.75
279.579	266.75
279.81	233.75
280.042	243.75
280.273	263.75
280.505	262.75
280.736	262.75
280.968	251.75
281.199	254.75
281.431	257.75
281.662	263.75
281.894	254.75
282.125	267.75
282.356	281.75
282.588	294.75
282.819	296.75
283.051	249.75
283.282	278.75
283.513	266.75
283.745	260.75
283.976	277.75
284.207	259.75
284.439	278.75
284.67	287.75
284.901	271.75
285.132	274.75
285.364	257.75
285.595	256.75
285.826	286.75
286.057	258.75
286.288	267.75
286.52	250.75
286.751	257.75
286.982	273.75
287.213	275.75
287.444	282.75
287.675	264.75
287.906	278.75
288.138	293.75
288.369	299.75
288.6	286.75
288.831	291.75
289.062	290.75
289.293	305.75
289.524	285.75
289.755	300.75
289.986	268.75
290.217	281.75
290.448	281.75
290.679	279.75
290.91	285.75
291.141	263.75
291.371	279.75
291.602	295.75
291.833	285.75
292.064	273.75
292.295	274.75
292.526	276.75
292.757	286.75
292.987	268.75
293.218	286.75
293.449	281.75
293.68	280.75
293.91	266.75
294.141	277.75
294.372	277.75
294.603	279.75
294.833	279.75
295.064	288.75
295.295	280.75
295.525	285.75
295.756	284.75
295.987	299.75
296.217	326.75
296.448	332.75
296.679	288.75
296.909	273.75
297.14	292.75
297.37	297.75
297.601	295.75
297.831	283.75
298.062	307.75
298.292	302.75
298.523	296.75
298.753	300.75
298.984	310.75
299.214	311.75
299.445	289.75
299.675	294.75
299.905	306.75
300.136	287.75
300.366	319.75
300.597	309.75
300.827	298.75
301.057	309.75
301.288	317.75
301.518	316.75
301.748	315.75
301.979	310.75
302.209	332.75
302.439	313.75
302.669	317.75
302.9	298.75
303.13	317.75
303.36	330.75
303.59	332.75
303.82	327.75
304.051	333.75
304.281	308.75
304.511	305.75
304.741	325.75
304.971	319.75
305.201	323.75
305.431	319.75
305.661	313.75
305.891	315.75
306.121	317.75
306.352	332.75
306.582	315.75
306.812	343.75
307.042	320.75
307.272	314.75
307.502	323.75
307.731	329.75
307.961	335.75
308.191	333.75
308.421	346.75
308.651	332.75
308.881	328.75
309.111	334.75
309.341	338.75
309.571	337.75
309.8	358.75
310.03	362.75
310.26	362.75
310.49	362.75
310.72	346.75
310.949	390.75
311.179	385.75
311.409	343.75
311.639	371.75
311.868	347.75
312.098	362.75
312.328	368.75
312.557	387.75
312.787	381.75
313.017	377.75
313.246	365.75
313.476	357.75
313.706	379.75
313.935	381.75
314.165	386.75
314.394	378.75
314.624	390.75
314.853	369.75
315.083	370.75
315.312	358.75
315.542	349.75
315.771	362.75
316.001	372.75
316.23	364.75
316.46	387.75
316.689	371.75
316.919	355.75
317.148	389.75
317.377	374.75
317.607	373.75
317.836	371.75
318.065	353.75
318.295	361.75
318.524	354.75
318.753	365.75
318.983	369.75
319.212	366.75
319.441	366.75
319.67	373.75
319.9	385.75
320.129	373.75
320.358	361.75
320.587	363.75
320.816	403.75
321.046	399.75
321.275	393.75
321.504	390.75
321.733	395.75
321.962	390.75
322.191	410.75
322.42	423.75
322.649	441.75
322.878	415.75
323.108	420.75
323.337	448.75
323.566	462.75
323.795	487.75
324.024	519.75
324.253	623.75
324.482	887.75
324.71	1354.75
324.939	2079.75
325.168	1785.75
325.397	862.75
325.626	593.75
325.855	504.75
326.084	474.75
326.313	470.75
326.542	483.75
326.77	518.75
326.999	608.75
327.228	798.75
327.457	1258.75
327.686	1563.75
327.914	1024.75
328.143	664.75
328.372	585.75
328.6	557.75
328.829	522.75
329.058	518.75
329.287	556.75
329.515	494.75
329.744	479.75
329.972	485.75
330.201	506.75
330.43	538.75
330.658	552.75
330.887	581.75
331.115	547.75
331.344	498.75
331.572	486.75
331.801	467.75
332.03	486.75
332.258	473.75
332.486	453.75
332.715	450.75
332.943	468.75
333.172	457.75
333.4	457.75
333.629	476.75
333.857	477.75
334.085	487.75
334.314	476.75
334.542	511.75
334.771	539.75
334.999	497.75
335.227	457.75
335.455	468.75
335.684	432.75
335.912	444.75
336.14	446.75
336.369	438.75
336.597	444.75
336.825	450.75
337.053	457.75
337.281	437.75
337.51	445.75
337.738	431.75
337.966	449.75
338.194	461.75
338.422	422.75
338.65	429.75
338.878	441.75
339.106	407.75
339.334	421.75
339.562	421.75
339.79	428.75
340.018	449.75
340.246	418.75
340.474	428.75
340.702	438.75
340.93	423.75
341.158	419.75
341.386	418.75
341.614	420.75
341.842	417.75
342.07	422.75
342.298	425.75
342.526	442.75
342.754	424.75
342.981	391.75
343.209	398.75
343.437	412.75
343.665	427.75
343.893	442.75
344.12	464.75
344.348	439.75
344.576	446.75
344.804	435.75
345.031	454.75
345.259	460.75
345.487	440.75
345.714	412.75
345.942	431.75
346.17	428.75
346.397	417.75
346.625	402.75
346.853	403.75
347.08	417.75
347.308	413.75
347.535	417.75
347.763	411.75
347.99	417.75
348.218	415.75
348.445	426.75
348.673	419.75
348.9	438.75
349.128	441.75
349.355	395.75
349.583	409.75
349.81	412.75
350.037	401.75
350.265	400.75
350.492	409.75
350.72	420.75
350.947	410.75
351.174	411.75
351.402	418.75
351.629	409.75
351.856	387.75
352.083	425.75
352.311	433.75
352.538	430.75
352.765	442.75
352.992	437.75
353.22	410.75
353.447	415.75
353.674	400.75
353.901	385.75
354.128	411.75
354.355	394.75
354.583	405.75
354.81	387.75
355.037	366.75
355.264	396.75
355.491	395.75
355.718	385.75
355.945	392.75
356.172	379.75
356.399	380.75
356.626	381.75
356.853	394.75
357.08	393.75
357.307	383.75
357.534	392.75
357.761	401.75
357.988	399.75
358.215	395.75
358.441	389.75
358.668	398.75
358.895	384.75
359.122	398.75
359.349	426.75
359.576	421.75
359.802	423.75
360.029	442.75
360.256	487.75
360.483	455.75
360.709	423.75
360.936	412.75
361.163	405.75
361.39	426.75
361.616	412.75
361.843	413.75
362.07	408.75
362.296	423.75
362.523	412.75
362.749	411.75
362.976	413.75
363.203	428.75
363.429	404.75
363.656	409.75
363.882	405.75
364.109	409.75
364.335	401.75
364.562	376.75
364.788	387.75
365.015	405.75
365.241	398.75
365.468	413.75
365.694	417.75
365.92	397.75
366.147	414.75
366.373	393.75
366.599	405.75
366.826	398.75
367.052	400.75
367.278	412.75
367.505	406.75
367.731	434.75
367.957	403.75
368.184	405.75
368.41	411.75
368.636	430.75
368.862	412.75
369.089	427.75
369.315	395.75
369.541	398.75
369.767	424.75
369.993	420.75
370.219	401.75
370.445	391.75
370.672	396.75
370.898	421.75
371.124	425.75
371.35	405.75
371.576	415.75
371.802	404.75
372.028	421.75
372.254	424.75
372.48	408.75
372.706	400.75
372.932	432.75
373.158	410.75
373.384	415.75
373.61	405.75
373.835	420.75
374.061	396.75
374.287	441.75
374.513	427.75
374.739	429.75
374.965	444.75
375.191	443.75
375.416	420.75
375.642	396.75
375.868	424.75
376.094	409.75
376.319	399.75
376.545	393.75
376.771	417.75
376.997	427.75
377.222	426.75
377.448	422.75
377.674	442.75
377.899	416.75
378.125	403.75
378.35	414.75
378.576	403.75
378.802	410.75
379.027	419.75
379.253	408.75
379.478	415.75
379.704	394.75
379.929	396.75
380.155	417.75
380.38	421.75
380.606	391.75
380.831	407.75
381.057	413.75
381.282	417.75
381.507	410.75
381.733	445.75
381.958	414.75
382.184	422.75
382.409	421.75
382.634	434.75
382.86	435.75
383.085	421.75
383.31	439.75
383.535	425.75
383.761	437.75
383.986	429.75
384.211	446.75
384.436	426.75
384.662	431.75
384.887	441.75
385.112	455.75
385.337	453.75
385.562	450.75
385.787	448.75
386.013	470.75
386.238	463.75
386.463	485.75
386.688	436.75
386.913	455.75
387.138	467.75
387.363	479.75
387.588	463.75
387.813	470.75
388.038	455.75
388.263	430.75
388.488	457.75
388.713	475.75
388.938	459.75
389.163	462.75
389.387	467.75
389.612	445.75
389.837	438.75
390.062	440.75
390.287	473.75
390.512	468.75
390.736	474.75
390.961	466.75
391.186	453.75
391.411	474.75
391.636	467.75
391.86	463.75
392.085	492.75
392.31	479.75
392.534	483.75
392.759	473.75
392.984	497.75
393.208	473.75
393.433	474.75
393.658	499.75
393.882	482.75
394.107	461.75
394.331	460.75
394.556	469.75
394.78	487.75
395.005	459.75
395.229	466.75
395.454	503.75
395.678	470.75
395.903	511.75
396.127	508.75
396.352	540.75
396.576	502.75
396.801	482.75
397.025	502.75
397.249	502.75
397.474	510.75
397.698	502.75
397.922	541.75
398.147	531.75
398.371	530.75
398.595	518.75
398.82	521.75
399.044	541.75
399.268	585.75
399.492	614.75
399.717	650.75
399.941	685.75
400.165	673.75
400.389	686.75
400.613	604.75
400.837	579.75
401.062	562.75
401.286	553.75
401.51	545.75
401.734	561.75
401.958	541.75
402.182	559.75
402.406	559.75
402.63	571.75
402.854	562.75
403.078	553.75
403.302	554.75
403.526	582.75
403.75	559.75
403.974	595.75
404.198	570.75
404.422	587.75
404.645	573.75
404.869	585.75
405.093	584.75
405.317	629.75
405.541	669.75
405.765	615.75
405.988	600.75
406.212	597.75
406.436	632.75
406.66	647.75
406.883	631.75
407.107	643.75
407.331	677.75
407.555	727.75
407.778	751.75
408.002	684.75
408.226	670.75
408.449	636.75
408.673	626.75
408.896	656.75
409.12	710.75
409.344	676.75
409.567	602.75
409.791	605.75
410.014	591.75
410.238	558.75
410.461	567.75
410.685	589.75
410.908	607.75
411.132	626.75
411.355	646.75
411.578	659.75
411.802	582.75
412.025	571.75
412.249	610.75
412.472	595.75
412.695	627.75
412.919	634.75
413.142	585.75
413.365	589.75
413.589	567.75
413.812	555.75
414.035	554.75
414.258	549.75
414.482	550.75
414.705	574.75
414.928	541.75
415.151	560.75
415.374	531.75
415.597	527.75
415.821	535.75
416.044	546.75
416.267	561.75
416.49	540.75
416.713	523.75
416.936	561.75
417.159	538.75
417.382	569.75
417.605	547.75
417.828	567.75
418.051	568.75
418.274	543.75
418.497	545.75
418.72	539.75
418.943	544.75
419.166	588.75
419.389	623.75
419.611	591.75
419.834	571.75
420.057	583.75
420.28	563.75
420.503	577.75
420.726	556.75
420.948	562.75
421.171	627.75
421.394	643.75
421.617	597.75
421.839	577.75
422.062	572.75
422.285	583.75
422.507	628.75
422.73	717.75
422.953	683.75
423.175	611.75
423.398	590.75
423.621	570.75
423.843	607.75
424.066	610.75
424.288	601.75
424.511	607.75
424.733	633.75
424.956	729.75
425.178	728.75
425.401	728.75
425.623	726.75
425.846	655.75
426.068	615.75
426.291	589.75
426.513	591.75
426.735	586.75
426.958	610.75
427.18	711.75
427.402	843.75
427.625	945.75
427.847	813.75
428.069	690.75
428.292	649.75
428.514	583.75
428.736	553.75
428.958	549.75
429.181	562.75
429.403	557.75
429.625	567.75
429.847	603.75
430.069	636.75
430.292	638.75
430.514	578.75
430.736	541.75
430.958	541.75
431.18	529.75
431.402	558.75
431.624	531.75
431.846	534.75
432.068	542.75
432.29	535.75
432.512	539.75
432.734	544.75
432.956	528.75
433.178	551.75
433.4	570.75
433.622	545.75
433.844	554.75
434.066	532.75
434.287	530.75
434.509	528.75
434.731	556.75
434.953	558.75
435.175	578.75
435.397	598.75
435.618	614.75
435.84	629.75
436.062	729.75
436.284	793.75
436.505	650.75
436.727	591.75
436.949	557.75
437.17	557.75
437.392	541.75
437.614	568.75
437.835	604.75
438.057	699.75
438.278	786.75
438.5	769.75
438.721	870.75
438.943	819.75
439.165	648.75
439.386	604.75
439.608	597.75
439.829	607.75
440.05	627.75
440.272	681.75
440.493	641.75
440.715	593.75
440.936	563.75
441.158	551.75
441.379	558.75
441.6	573.75
441.822	580.75
442.043	651.75
442.264	709.75
442.486	756.75
442.707	676.75
442.928	602.75
443.149	627.75
443.371	623.75
443.592	666.75
443.813	794.75
444.034	833.75
444.255	713.75
444.476	634.75
444.698	606.75
444.919	625.75
445.14	703.75
445.361	653.75
445.582	647.75
445.803	690.75
446.024	775.75
446.245	807.75
446.466	745.75
446.687	638.75
446.908	597.75
447.129	554.75
447.35	557.75
447.571	568.75
447.792	530.75
448.013	549.75
448.234	560.75
448.455	619.75
448.675	697.75
448.896	824.75
449.117	710.75
449.338	665.75
449.559	778.75
449.779	867.75
450	696.75
450.221	591.75
450.442	551.75
450.662	525.75
450.883	529.75
451.104	541.75
451.324	549.75
451.545	528.75
451.766	528.75
451.986	514.75
452.207	487.75
452.428	503.75
452.648	500.75
452.869	482.75
453.089	513.75
453.31	528.75
453.53	503.75
453.751	500.75
453.971	492.75
454.192	514.75
454.412	501.75
454.633	482.75
454.853	497.75
455.073	497.75
455.294	533.75
455.514	590.75
455.734	575.75
455.955	489.75
456.175	467.75
456.395	483.75
456.616	473.75
456.836	463.75
457.056	475.75
457.276	456.75
457.497	478.75
457.717	466.75
457.937	461.75
458.157	489.75
458.377	468.75
458.598	505.75
458.818	567.75
459.038	625.75
459.258	629.75
459.478	567.75
459.698	565.75
459.918	544.75
460.138	539.75
460.358	569.75
460.578	547.75
460.798	581.75
461.018	545.75
461.238	550.75
461.458	542.75
461.678	555.75
461.898	563.75
462.118	570.75
462.338	547.75
462.558	598.75
462.777	578.75
462.997	622.75
463.217	648.75
463.437	625.75
463.657	617.75
463.876	603.75
464.096	620.75
464.316	614.75
464.536	588.75
464.755	601.75
464.975	602.75
465.195	621.75
465.414	686.75
465.634	617.75
465.854	583.75
466.073	569.75
466.293	524.75
466.512	526.75
466.732	521.75
466.951	534.75
467.171	486.75
467.391	490.75
467.61	524.75
467.829	531.75
468.049	527.75
468.268	521.75
468.488	515.75
468.707	527.75
468.927	510.75
469.146	511.75
469.365	521.75
469.585	489.75
469.804	517.75
470.023	520.75
470.243	529.75
470.462	560.75
470.681	552.75
470.901	545.75
471.12	515.75
471.339	531.75
471.558	528.75
471.777	513.75
471.997	528.75
472.216	508.75
472.435	570.75
472.654	531.75
472.873	517.75
473.092	520.75
473.311	540.75
473.53	499.75
473.749	508.75
473.968	557.75
474.187	661.75
474.406	673.75
474.625	599.75
474.844	531.75
475.063	535.75
475.282	546.75
475.501	517.75
475.72	534.75
475.939	547.75
476.158	520.75
476.377	505.75
476.596	535.75
476.814	549.75
477.033	551.75
477.252	553.75
477.471	558.75
477.69	568.75
477.908	571.75
478.127	570.75
478.346	573.75
478.564	576.75
478.783	570.75
479.002	594.75
479.22	605.75
479.439	633.75
479.658	642.75
479.876	622.75
480.095	645.75
480.313	689.75
480.532	678.75
480.751	649.75
480.969	654.75
481.188	716.75
481.406	747.75
481.624	663.75
481.843	603.75
482.061	643.75
482.28	591.75
482.498	605.75
482.717	600.75
482.935	623.75
483.153	585.75
483.372	595.75
483.59	602.75
483.808	616.75
484.027	586.75
484.245	603.75
484.463	601.75
484.681	642.75
484.9	620.75
485.118	601.75
485.336	634.75
485.554	638.75
485.772	637.75
485.99	617.75
486.209	657.75
486.427	621.75
486.645	639.75
486.863	659.75
487.081	652.75
487.299	638.75
487.517	638.75
487.735	665.75
487.953	658.75
488.171	635.75
488.389	637.75
488.607	642.75
488.825	642.75
489.043	648.75
489.261	656.75
489.479	643.75
489.696	678.75
489.914	670.75
490.132	677.75
490.35	673.75
490.568	690.75
490.786	680.75
491.003	683.75
491.221	705.75
491.439	716.75
491.657	730.75
491.874	730.75
492.092	719.75
492.31	731.75
492.527	720.75
492.745	709.75
492.963	763.75
493.18	745.75
493.398	733.75
493.615	771.75
493.833	767.75
494.05	730.75
494.268	749.75
494.485	734.75
494.703	761.75
494.92	753.75
495.138	742.75
495.355	746.75
495.573	768.75
495.79	765.75
496.008	773.75
496.225	769.75
496.442	755.75
496.66	777.75
496.877	762.75
497.094	805.75
497.312	810.75
497.529	786.75
497.746	813.75
497.963	834.75
498.181	838.75
498.398	869.75
498.615	861.75
498.832	911.75
499.049	925.75
499.267	953.75
499.484	976.75
499.701	1051.75
499.918	1056.75
500.135	1124.75
500.352	1164.75
500.569	1205.75
500.786	1213.75
501.003	1214.75
501.22	1139.75
501.437	1100.75
501.654	1052.75
501.871	1042.75
502.088	985.75
502.305	905.75
502.522	924.75
502.739	875.75
502.956	881.75
503.172	843.75
503.389	830.75
503.606	822.75
503.823	831.75
504.04	804.75
504.256	792.75
504.473	814.75
504.69	806.75
504.907	785.75
505.123	790.75
505.34	774.75
505.557	753.75
505.773	734.75
505.99	731.75
506.207	723.75
506.423	757.75
506.64	718.75
506.856	713.75
507.073	713.75
507.289	712.75
507.506	698.75
507.722	721.75
507.939	737.75
508.155	692.75
508.372	694.75
508.588	666.75
508.805	666.75
509.021	682.75
509.238	689.75
509.454	697.75
509.67	682.75
509.887	667.75
510.103	685.75
510.319	669.75
510.536	769.75
510.752	1274.75
510.968	1029.75
511.184	702.75
511.401	667.75
511.617	673.75
511.833	645.75
512.049	645.75
512.265	618.75
512.481	629.75
512.698	641.75
512.914	609.75
513.13	642.75
513.346	639.75
513.562	647.75
513.778	653.75
513.994	659.75
514.21	689.75
514.426	676.75
514.642	714.75
514.858	733.75
515.074	797.75
515.29	881.75
515.506	1313.75
515.721	1139.75
515.937	812.75
516.153	707.75
516.369	685.75
516.585	696.75
516.801	689.75
517.016	710.75
517.232	708.75
517.448	703.75
517.664	713.75
517.879	715.75
518.095	719.75
518.311	709.75
518.527	672.75
518.742	702.75
518.958	693.75
519.173	667.75
519.389	679.75
519.605	671.75
519.82	661.75
520.036	673.75
520.251	685.75
520.467	711.75
520.682	699.75
520.898	678.75
521.113	733.75
521.329	735.75
521.544	845.75
521.76	1025.75
521.975	1667.75
522.19	1690.75
522.406	956.75
522.621	749.75
522.836	675.75
523.052	657.75
523.267	637.75
523.482	602.75
523.698	626.75
523.913	605.75
524.128	592.75
524.343	591.75
524.559	572.75
524.774	572.75
524.989	593.75
525.204	580.75
525.419	558.75
525.634	582.75
525.849	561.75
526.064	561.75
526.28	560.75
526.495	536.75
526.71	558.75
526.925	571.75
527.14	563.75
527.355	563.75
527.57	558.75
527.785	543.75
527.999	562.75
528.214	556.75
528.429	555.75
528.644	550.75
528.859	533.75
529.074	529.75
529.289	569.75
529.503	650.75
529.718	585.75
529.933	569.75
530.148	567.75
530.363	548.75
530.577	539.75
530.792	565.75
531.007	555.75
531.221	543.75
531.436	533.75
531.651	532.75
531.865	531.75
532.08	521.75
532.295	522.75
532.509	516.75
532.724	536.75
532.938	530.75
533.153	536.75
533.367	511.75
533.582	535.75
533.796	534.75
534.011	510.75
534.225	503.75
534.44	531.75
534.654	522.75
534.868	496.75
535.083	522.75
535.297	540.75
535.511	508.75
535.726	552.75
535.94	526.75
536.154	522.75
536.369	518.75
536.583	510.75
536.797	502.75
537.011	478.75
537.225	485.75
537.44	499.75
537.654	504.75
537.868	497.75
538.082	500.75
538.296	503.75
538.51	514.75
538.724	498.75
538.938	521.75
539.153	525.75
539.367	508.75
539.581	509.75
539.795	513.75
540.009	489.75
540.222	492.75
540.436	473.75
540.65	494.75
540.864	503.75
541.078	489.75
541.292	503.75
541.506	506.75
541.72	495.75
541.934	492.75
542.147	504.75
542.361	482.75
542.575	489.75
542.789	476.75
543.002	506.75
543.216	509.75
543.43	506.75
543.644	500.75
543.857	517.75
544.071	505.75
544.285	504.75
544.498	499.75
544.712	487.75
544.925	491.75
545.139	490.75
545.352	472.75
545.566	488.75
545.779	500.75
545.993	505.75
546.206	494.75
546.42	499.75
546.633	517.75
546.847	493.75
547.06	470.75
547.274	498.75
547.487	459.75
547.7	505.75
547.914	485.75
548.127	478.75
548.34	466.75
548.554	497.75
548.767	490.75
548.98	479.75
549.193	486.75
549.407	511.75
549.62	504.75
549.833	492.75
550.046	492.75
550.259	499.75
550.473	483.75
550.686	487.75
550.899	465.75
551.112	483.75
551.325	463.75
551.538	460.75
551.751	480.75
551.964	484.75
552.177	470.75
552.39	470.75
552.603	472.75
552.816	505.75
553.029	504.75
553.242	495.75
553.455	511.75
553.667	542.75
553.88	517.75
554.093	502.75
554.306	472.75
554.519	486.75
554.732	468.75
554.944	477.75
555.157	485.75
555.37	470.75
555.583	482.75
555.795	451.75
556.008	468.75
556.221	440.75
556.433	441.75
556.646	456.75
556.859	438.75
557.071	445.75
557.284	433.75
557.496	437.75
557.709	419.75
557.921	445.75
558.134	441.75
558.346	421.75
558.559	423.75
558.771	432.75
558.984	435.75
559.196	428.75
559.409	430.75
559.621	428.75
559.833	436.75
560.046	413.75
560.258	429.75
560.47	418.75
560.683	446.75
560.895	418.75
561.107	435.75
561.32	408.75
561.532	421.75
561.744	418.75
561.956	434.75
562.168	429.75
562.381	445.75
562.593	427.75
562.805	411.75
563.017	439.75
563.229	428.75
563.441	424.75
563.653	433.75
563.865	435.75
564.077	454.75
564.289	429.75
564.501	453.75
564.713	433.75
564.925	442.75
565.137	474.75
565.349	467.75
565.561	484.75
565.773	482.75
565.985	507.75
566.197	498.75
566.408	521.75
566.62	526.75
566.832	542.75
567.044	558.75
567.255	568.75
567.467	569.75
567.679	578.75
567.891	580.75
568.102	580.75
568.314	583.75
568.526	533.75
568.737	517.75
568.949	514.75
569.161	480.75
569.372	493.75
569.584	462.75
569.795	448.75
570.007	441.75
570.218	481.75
570.43	477.75
570.641	439.75
570.853	419.75
571.064	449.75
571.276	443.75
571.487	433.75
571.698	412.75
571.91	393.75
572.121	401.75
572.333	414.75
572.544	399.75
572.755	403.75
572.966	391.75
573.178	382.75
573.389	381.75
573.6	385.75
573.811	365.75
574.023	387.75
574.234	377.75
574.445	374.75
574.656	354.75
574.867	365.75
575.078	370.75
575.289	395.75
575.501	370.75
575.712	384.75
575.923	364.75
576.134	352.75
576.345	365.75
576.556	353.75
576.767	355.75
576.978	356.75
577.188	364.75
577.399	365.75
577.61	367.75
577.821	336.75
578.032	370.75
578.243	377.75
578.454	595.75
578.665	459.75
578.875	380.75
579.086	351.75
579.297	347.75
579.508	341.75
579.718	337.75
579.929	351.75
580.14	352.75
580.35	340.75
580.561	344.75
580.772	338.75
580.982	323.75
581.193	348.75
581.403	332.75
581.614	342.75
581.825	331.75
582.035	330.75
582.246	332.75
582.456	308.75
582.667	329.75
582.877	346.75
583.087	321.75
583.298	337.75
583.508	328.75
583.719	339.75
583.929	345.75
584.139	310.75
584.35	326.75
584.56	335.75
584.77	334.75
584.981	332.75
585.191	337.75
585.401	342.75
585.611	333.75
585.821	327.75
586.032	337.75
586.242	323.75
586.452	334.75
586.662	321.75
586.872	315.75
587.082	330.75
587.292	308.75
587.502	309.75
587.713	310.75
587.923	329.75
588.133	323.75
588.343	328.75
588.553	327.75
588.762	337.75
588.972	324.75
589.182	348.75
589.392	353.75
589.602	325.75
589.812	346.75
590.022	342.75
590.232	321.75
590.441	317.75
590.651	305.75
590.861	323.75
591.071	318.75
591.281	328.75
591.49	327.75
591.7	351.75
591.91	344.75
592.119	337.75
592.329	341.75
592.539	336.75
592.748	347.75
592.958	374.75
593.167	337.75
593.377	348.75
593.587	345.75
593.796	365.75
594.006	349.75
594.215	345.75
594.424	350.75
594.634	342.75
594.843	331.75
595.053	327.75
595.262	331.75
595.472	328.75
595.681	310.75
595.89	329.75
596.1	324.75
596.309	306.75
596.518	297.75
596.727	311.75
596.937	302.75
597.146	305.75
597.355	299.75
597.564	291.75
597.774	296.75
597.983	308.75
598.192	293.75
598.401	290.75
598.61	278.75
598.819	284.75
599.028	289.75
599.237	278.75
599.446	284.75
599.655	292.75
599.864	267.75
600.073	269.75
600.282	281.75
600.491	279.75
600.7	283.75
600.909	268.75
601.118	296.75
601.327	277.75
601.536	279.75
601.745	273.75
601.953	296.75
602.162	285.75
602.371	261.75
602.58	274.75
602.789	274.75
602.997	268.75
603.206	258.75
603.415	248.75
603.623	259.75
603.832	252.75
604.041	273.75
604.249	275.75
604.458	271.75
604.666	258.75
604.875	241.75
605.084	263.75
605.292	263.75
605.501	277.75
605.709	267.75
605.918	273.75
606.126	283.75
606.334	258.75
606.543	269.75
606.751	269.75
606.96	270.75
607.168	254.75
607.376	271.75
607.585	242.75
607.793	243.75
608.001	278.75
608.21	261.75
608.418	272.75
608.626	267.75
608.834	255.75
609.043	254.75
609.251	256.75
609.459	238.75
609.667	245.75
609.875	265.75
610.083	258.75
610.291	271.75
610.499	265.75
610.707	263.75
610.916	260.75
611.124	262.75
611.332	266.75
611.54	281.75
611.748	265.75
611.955	260.75
612.163	249.75
612.371	259.75
612.579	235.75
612.787	269.75
612.995	258.75
613.203	262.75
613.411	262.75
613.618	244.75
613.826	229.75
614.034	261.75
614.242	256.75
614.449	264.75
614.657	250.75
614.865	245.75
615.072	260.75
615.28	253.75
615.488	245.75
615.695	251.75
615.903	247.75
616.111	261.75
616.318	265.75
616.526	263.75
616.733	272.75
616.941	247.75
617.148	250.75
617.356	238.75
617.563	257.75
617.771	238.75
617.978	219.75
618.185	253.75
618.393	248.75
618.6	245.75
618.807	238.75
619.015	231.75
619.222	249.75
619.429	241.75
619.637	260.75
619.844	236.75
620.051	235.75
620.258	247.75
620.466	234.75
620.673	231.75
620.88	239.75
621.087	228.75
621.294	245.75
621.501	230.75
621.708	234.75
621.915	235.75
622.122	231.75
622.329	219.75
622.536	243.75
622.743	229.75
622.95	230.75
623.157	234.75
623.364	241.75
623.571	233.75
623.778	224.75
623.985	235.75
624.192	238.75
624.399	230.75
624.606	236.75
624.812	236.75
625.019	212.75
625.226	228.75
625.433	246.75
625.639	249.75
625.846	243.75
626.053	216.75
626.259	215.75
626.466	228.75
626.673	206.75
626.879	207.75
627.086	245.75
627.293	215.75
627.499	220.75
627.706	215.75
627.912	219.75
628.119	220.75
628.325	211.75
628.532	207.75
628.738	204.75
628.945	211.75
629.151	236.75
629.357	236.75
629.564	216.75
629.77	217.75
629.976	201.75
630.183	203.75
630.389	217.75
630.595	211.75
630.802	198.75
631.008	195.75
631.214	206.75
631.42	209.75
631.627	201.75
631.833	191.75
632.039	199.75
632.245	200.75
632.451	218.75
632.657	198.75
632.863	201.75
633.069	206.75
633.275	206.75
633.481	204.75
633.688	209.75
633.893	204.75
634.099	197.75
634.305	213.75
634.511	208.75
634.717	199.75
634.923	185.75
635.129	201.75
635.335	201.75
635.541	190.75
635.747	173.75
635.952	194.75
636.158	190.75
636.364	209.75
636.57	189.75
636.775	183.75
636.981	181.75
637.187	187.75
637.392	182.75
637.598	186.75
637.804	195.75
638.009	194.75
638.215	190.75
638.421	187.75
638.626	189.75
638.832	197.75
639.037	186.75
639.243	193.75
639.448	182.75
639.654	197.75
639.859	170.75
640.065	184.75
640.27	180.75
640.475	179.75
640.681	188.75
640.886	196.75
641.091	171.75
641.297	204.75
641.502	170.75
641.707	171.75
641.913	184.75
642.118	190.75
642.323	171.75
642.528	186.75
642.733	174.75
642.939	177.75
643.144	165.75
643.349	179.75
643.554	182.75
643.759	180.75
643.964	173.75
644.169	183.75
644.374	179.75
644.579	186.75
644.784	162.75
644.989	172.75
645.194	181.75
645.399	179.75
645.604	161.75
645.809	163.75
646.014	169.75
646.219	178.75
646.423	185.75
646.628	178.75
646.833	175.75
647.038	168.75
647.243	187.75
647.447	166.75
647.652	193.75
647.857	185.75
648.062	186.75
648.266	177.75
648.471	174.75
648.676	189.75
648.88	169.75
649.085	195.75
649.289	187.75
649.494	173.75
649.698	193.75
649.903	186.75
650.107	188.75
650.312	173.75
650.516	175.75
650.721	154.75
650.925	147.75
651.13	150.75
651.334	157.75
651.539	149.75
651.743	161.75
651.947	147.75
652.152	152.75
652.356	156.75
652.56	155.75
652.764	150.75
652.969	145.75
653.173	149.75
653.377	144.75
653.581	146.75
653.785	149.75
653.99	173.75
654.194	137.75
654.398	142.75
654.602	142.75
654.806	153.75
655.01	149.75
655.214	154.75
655.418	152.75
655.622	141.75
655.826	149.75
656.03	146.75
656.234	150.75
656.438	151.75
656.642	154.75
656.846	147.75
657.049	134.75
657.253	149.75
657.457	137.75
657.661	125.75
657.865	114.75
658.068	117.75
658.272	126.75
658.476	114.75
658.68	120.75
658.883	101.75
659.087	94.75
659.291	108.75
659.494	125.75
659.698	98.75
659.901	107.75
660.105	107.75
660.309	90.75
660.512	101.75
660.716	95.75
660.919	89.75
661.123	87.75
661.326	98.75
661.53	80.75
661.733	93.75
661.936	97.75
662.14	85.75
662.343	79.75
662.546	91.75
662.75	89.75
662.953	84.75
663.156	84.75
663.36	78.75
663.563	81.75
663.766	80.75
663.969	86.75
664.173	83.75
664.376	71.75
664.579	93.75
664.782	71.75
664.985	83.75
665.188	93.75
665.391	100.75
665.594	70.75
665.797	97.75
666	85.75
666.203	90.75
666.406	76.75
666.609	81.75
666.812	94.75
667.015	94.75
667.218	83.75
667.421	88.75
667.624	87.75
667.827	75.75
668.03	84.75
668.232	89.75
668.435	89.75
668.638	95.75
668.841	73.75
669.043	76.75
669.246	79.75
669.449	94.75
669.651	83.75
669.854	77.75
670.057	89.75
670.259	83.75
670.462	84.75
670.665	95.75
670.867	87.75
671.07	86.75
671.272	68.75
671.475	71.75
671.677	83.75
671.88	73.75
672.082	72.75
672.284	81.75
672.487	86.75
672.689	73.75
672.892	97.75
