Data from 1979.PennyLincolnUp.Lamp.En5.5.200Scan.071719.P1_HRD10591_16-19-39-863.txt Node
Date: Thu Jul 18 16:19:39 EDT 2019
User: cochatt
Spectrometer: HR+D1059
Trigger mode: 1
Integration Time (sec): 1.000000E-1
Scans to average: 1
Electric dark correction enabled: true
Nonlinearity correction enabled: false
Boxcar width: 0
XAxis mode: Wavelengths
Number of Pixels in Spectrum: 2048
>>>>>Begin Spectral Data<<<<<
223.165	-11.31
223.4	-11.31
223.635	-11.31
223.869	-25.31
224.104	-15.31
224.338	-20.31
224.573	-6.31
224.808	-6.31
225.042	2.69
225.277	-3.31
225.511	6.69
225.746	0.69
225.98	4.69
226.215	2.69
226.449	8.69
226.683	12.69
226.918	23.69
227.152	25.69
227.387	28.69
227.621	44.69
227.856	48.69
228.09	31.69
228.324	46.69
228.559	53.69
228.793	58.69
229.027	89.69
229.262	95.69
229.496	121.69
229.73	117.69
229.964	148.69
230.199	128.69
230.433	114.69
230.667	103.69
230.901	119.69
231.136	101.69
231.37	107.69
231.604	117.69
231.838	113.69
232.072	112.69
232.306	111.69
232.541	114.69
232.775	107.69
233.009	112.69
233.243	113.69
233.477	125.69
233.711	131.69
233.945	113.69
234.179	112.69
234.413	123.69
234.647	121.69
234.881	114.69
235.115	109.69
235.349	116.69
235.583	104.69
235.817	130.69
236.051	118.69
236.285	137.69
236.519	122.69
236.753	125.69
236.987	138.69
237.221	168.69
237.455	211.69
237.689	184.69
237.922	131.69
238.156	120.69
238.39	127.69
238.624	126.69
238.858	126.69
239.091	125.69
239.325	140.69
239.559	128.69
239.793	141.69
240.027	127.69
240.26	146.69
240.494	149.69
240.728	136.69
240.961	136.69
241.195	125.69
241.429	135.69
241.662	121.69
241.896	133.69
242.13	133.69
242.363	131.69
242.597	122.69
242.83	148.69
243.064	146.69
243.298	138.69
243.531	138.69
243.765	149.69
243.998	150.69
244.232	135.69
244.465	140.69
244.699	144.69
244.932	148.69
245.166	153.69
245.399	132.69
245.633	136.69
245.866	166.69
246.099	159.69
246.333	164.69
246.566	155.69
246.8	144.69
247.033	150.69
247.266	152.69
247.5	140.69
247.733	166.69
247.966	172.69
248.2	168.69
248.433	173.69
248.666	166.69
248.899	192.69
249.133	187.69
249.366	181.69
249.599	183.69
249.832	184.69
250.066	174.69
250.299	170.69
250.532	197.69
250.765	204.69
250.998	193.69
251.231	233.69
251.465	206.69
251.698	188.69
251.931	185.69
252.164	196.69
252.397	197.69
252.63	175.69
252.863	196.69
253.096	205.69
253.329	218.69
253.562	208.69
253.795	199.69
254.028	218.69
254.261	209.69
254.494	224.69
254.727	234.69
254.96	270.69
255.193	242.69
255.426	233.69
255.659	214.69
255.892	224.69
256.124	216.69
256.357	216.69
256.59	219.69
256.823	204.69
257.056	194.69
257.289	196.69
257.521	185.69
257.754	201.69
257.987	196.69
258.22	197.69
258.452	218.69
258.685	180.69
258.918	220.69
259.151	213.69
259.383	210.69
259.616	210.69
259.849	215.69
260.081	217.69
260.314	229.69
260.547	254.69
260.779	231.69
261.012	226.69
261.244	235.69
261.477	217.69
261.71	214.69
261.942	213.69
262.175	236.69
262.407	216.69
262.64	190.69
262.872	218.69
263.105	222.69
263.337	194.69
263.57	210.69
263.802	215.69
264.035	202.69
264.267	205.69
264.499	210.69
264.732	207.69
264.964	216.69
265.197	189.69
265.429	208.69
265.661	210.69
265.894	220.69
266.126	200.69
266.358	199.69
266.591	212.69
266.823	213.69
267.055	224.69
267.287	213.69
267.52	224.69
267.752	193.69
267.984	219.69
268.216	209.69
268.448	222.69
268.681	217.69
268.913	242.69
269.145	242.69
269.377	269.69
269.609	243.69
269.841	260.69
270.073	241.69
270.306	292.69
270.538	309.69
270.77	276.69
271.002	275.69
271.234	281.69
271.466	261.69
271.698	289.69
271.93	299.69
272.162	281.69
272.394	286.69
272.626	278.69
272.858	273.69
273.09	268.69
273.322	266.69
273.553	266.69
273.785	243.69
274.017	244.69
274.249	245.69
274.481	231.69
274.713	262.69
274.945	277.69
275.176	250.69
275.408	271.69
275.64	254.69
275.872	268.69
276.104	268.69
276.335	262.69
276.567	259.69
276.799	283.69
277.031	293.69
277.262	307.69
277.494	309.69
277.726	292.69
277.957	290.69
278.189	278.69
278.421	260.69
278.652	254.69
278.884	246.69
279.115	257.69
279.347	258.69
279.579	253.69
279.81	277.69
280.042	248.69
280.273	274.69
280.505	267.69
280.736	240.69
280.968	261.69
281.199	245.69
281.431	265.69
281.662	266.69
281.894	272.69
282.125	265.69
282.356	292.69
282.588	286.69
282.819	304.69
283.051	283.69
283.282	270.69
283.513	272.69
283.745	234.69
283.976	276.69
284.207	282.69
284.439	301.69
284.67	269.69
284.901	281.69
285.132	266.69
285.364	259.69
285.595	283.69
285.826	271.69
286.057	276.69
286.288	272.69
286.52	282.69
286.751	266.69
286.982	279.69
287.213	272.69
287.444	271.69
287.675	289.69
287.906	285.69
288.138	279.69
288.369	301.69
288.6	314.69
288.831	286.69
289.062	288.69
289.293	306.69
289.524	289.69
289.755	283.69
289.986	283.69
290.217	275.69
290.448	302.69
290.679	272.69
290.91	296.69
291.141	281.69
291.371	277.69
291.602	286.69
291.833	277.69
292.064	283.69
292.295	297.69
292.526	283.69
292.757	298.69
292.987	290.69
293.218	283.69
293.449	299.69
293.68	286.69
293.91	301.69
294.141	306.69
294.372	310.69
294.603	308.69
294.833	295.69
295.064	286.69
295.295	289.69
295.525	291.69
295.756	285.69
295.987	301.69
296.217	334.69
296.448	331.69
296.679	299.69
296.909	290.69
297.14	304.69
297.37	322.69
297.601	299.69
297.831	297.69
298.062	310.69
298.292	287.69
298.523	308.69
298.753	325.69
298.984	326.69
299.214	295.69
299.445	324.69
299.675	315.69
299.905	306.69
300.136	328.69
300.366	318.69
300.597	323.69
300.827	305.69
301.057	320.69
301.288	321.69
301.518	327.69
301.748	316.69
301.979	350.69
302.209	345.69
302.439	315.69
302.669	333.69
302.9	340.69
303.13	331.69
303.36	337.69
303.59	318.69
303.82	328.69
304.051	345.69
304.281	325.69
304.511	327.69
304.741	318.69
304.971	326.69
305.201	326.69
305.431	322.69
305.661	329.69
305.891	308.69
306.121	322.69
306.352	329.69
306.582	342.69
306.812	334.69
307.042	338.69
307.272	331.69
307.502	354.69
307.731	341.69
307.961	332.69
308.191	355.69
308.421	322.69
308.651	335.69
308.881	330.69
309.111	325.69
309.341	344.69
309.571	353.69
309.8	364.69
310.03	366.69
310.26	369.69
310.49	363.69
310.72	352.69
310.949	389.69
311.179	372.69
311.409	373.69
311.639	363.69
311.868	368.69
312.098	364.69
312.328	372.69
312.557	366.69
312.787	394.69
313.017	428.69
313.246	386.69
313.476	381.69
313.706	380.69
313.935	378.69
314.165	383.69
314.394	388.69
314.624	388.69
314.853	390.69
315.083	378.69
315.312	379.69
315.542	392.69
315.771	361.69
316.001	366.69
316.23	373.69
316.46	388.69
316.689	380.69
316.919	400.69
317.148	379.69
317.377	390.69
317.607	385.69
317.836	366.69
318.065	374.69
318.295	384.69
318.524	378.69
318.753	373.69
318.983	363.69
319.212	380.69
319.441	362.69
319.67	384.69
319.9	366.69
320.129	406.69
320.358	384.69
320.587	378.69
320.816	412.69
321.046	394.69
321.275	378.69
321.504	398.69
321.733	400.69
321.962	390.69
322.191	427.69
322.42	423.69
322.649	442.69
322.878	452.69
323.108	450.69
323.337	477.69
323.566	502.69
323.795	508.69
324.024	562.69
324.253	648.69
324.482	886.69
324.71	1415.69
324.939	2071.69
325.168	1799.69
325.397	895.69
325.626	616.69
325.855	534.69
326.084	491.69
326.313	475.69
326.542	500.69
326.77	542.69
326.999	609.69
327.228	813.69
327.457	1286.69
327.686	1572.69
327.914	1037.69
328.143	657.69
328.372	594.69
328.6	539.69
328.829	538.69
329.058	546.69
329.287	556.69
329.515	540.69
329.744	475.69
329.972	480.69
330.201	520.69
330.43	544.69
330.658	572.69
330.887	585.69
331.115	586.69
331.344	522.69
331.572	491.69
331.801	522.69
332.03	494.69
332.258	453.69
332.486	466.69
332.715	447.69
332.943	472.69
333.172	459.69
333.4	452.69
333.629	473.69
333.857	487.69
334.085	501.69
334.314	514.69
334.542	519.69
334.771	553.69
334.999	517.69
335.227	499.69
335.455	480.69
335.684	473.69
335.912	459.69
336.14	445.69
336.369	456.69
336.597	469.69
336.825	460.69
337.053	468.69
337.281	448.69
337.51	445.69
337.738	448.69
337.966	439.69
338.194	446.69
338.422	446.69
338.65	430.69
338.878	444.69
339.106	440.69
339.334	447.69
339.562	440.69
339.79	411.69
340.018	417.69
340.246	416.69
340.474	437.69
340.702	432.69
340.93	440.69
341.158	421.69
341.386	423.69
341.614	443.69
341.842	448.69
342.07	440.69
342.298	418.69
342.526	427.69
342.754	433.69
342.981	439.69
343.209	442.69
343.437	429.69
343.665	432.69
343.893	462.69
344.12	449.69
344.348	441.69
344.576	456.69
344.804	448.69
345.031	438.69
345.259	450.69
345.487	470.69
345.714	463.69
345.942	451.69
346.17	434.69
346.397	432.69
346.625	432.69
346.853	426.69
347.08	440.69
347.308	440.69
347.535	447.69
347.763	430.69
347.99	465.69
348.218	429.69
348.445	433.69
348.673	438.69
348.9	432.69
349.128	405.69
349.355	416.69
349.583	398.69
349.81	416.69
350.037	399.69
350.265	418.69
350.492	412.69
350.72	405.69
350.947	389.69
351.174	443.69
351.402	402.69
351.629	433.69
351.856	432.69
352.083	417.69
352.311	435.69
352.538	433.69
352.765	431.69
352.992	431.69
353.22	444.69
353.447	425.69
353.674	414.69
353.901	397.69
354.128	417.69
354.355	388.69
354.583	406.69
354.81	413.69
355.037	418.69
355.264	411.69
355.491	402.69
355.718	404.69
355.945	418.69
356.172	397.69
356.399	378.69
356.626	381.69
356.853	400.69
357.08	405.69
357.307	404.69
357.534	385.69
357.761	391.69
357.988	401.69
358.215	413.69
358.441	412.69
358.668	416.69
358.895	410.69
359.122	413.69
359.349	395.69
359.576	421.69
359.802	430.69
360.029	477.69
360.256	462.69
360.483	451.69
360.709	430.69
360.936	421.69
361.163	430.69
361.39	422.69
361.616	429.69
361.843	434.69
362.07	425.69
362.296	429.69
362.523	405.69
362.749	413.69
362.976	390.69
363.203	410.69
363.429	412.69
363.656	423.69
363.882	398.69
364.109	395.69
364.335	420.69
364.562	414.69
364.788	422.69
365.015	412.69
365.241	414.69
365.468	422.69
365.694	413.69
365.92	416.69
366.147	389.69
366.373	408.69
366.599	423.69
366.826	401.69
367.052	406.69
367.278	428.69
367.505	420.69
367.731	412.69
367.957	401.69
368.184	408.69
368.41	435.69
368.636	425.69
368.862	434.69
369.089	433.69
369.315	403.69
369.541	420.69
369.767	415.69
369.993	413.69
370.219	408.69
370.445	413.69
370.672	410.69
370.898	412.69
371.124	420.69
371.35	410.69
371.576	440.69
371.802	433.69
372.028	424.69
372.254	416.69
372.48	400.69
372.706	421.69
372.932	429.69
373.158	420.69
373.384	445.69
373.61	402.69
373.835	433.69
374.061	429.69
374.287	442.69
374.513	415.69
374.739	427.69
374.965	412.69
375.191	432.69
375.416	421.69
375.642	411.69
375.868	429.69
376.094	425.69
376.319	432.69
376.545	423.69
376.771	427.69
376.997	412.69
377.222	410.69
377.448	409.69
377.674	413.69
377.899	421.69
378.125	426.69
378.35	398.69
378.576	413.69
378.802	404.69
379.027	425.69
379.253	398.69
379.478	417.69
379.704	406.69
379.929	435.69
380.155	391.69
380.38	425.69
380.606	417.69
380.831	442.69
381.057	449.69
381.282	427.69
381.507	433.69
381.733	439.69
381.958	410.69
382.184	432.69
382.409	440.69
382.634	452.69
382.86	425.69
383.085	418.69
383.31	448.69
383.535	452.69
383.761	444.69
383.986	438.69
384.211	445.69
384.436	437.69
384.662	453.69
384.887	440.69
385.112	435.69
385.337	469.69
385.562	451.69
385.787	449.69
386.013	485.69
386.238	468.69
386.463	477.69
386.688	476.69
386.913	461.69
387.138	475.69
387.363	471.69
387.588	444.69
387.813	483.69
388.038	456.69
388.263	479.69
388.488	472.69
388.713	492.69
388.938	459.69
389.163	481.69
389.387	462.69
389.612	456.69
389.837	475.69
390.062	478.69
390.287	468.69
390.512	468.69
390.736	464.69
390.961	477.69
391.186	477.69
391.411	480.69
391.636	475.69
391.86	498.69
392.085	500.69
392.31	492.69
392.534	487.69
392.759	485.69
392.984	491.69
393.208	507.69
393.433	492.69
393.658	489.69
393.882	477.69
394.107	486.69
394.331	507.69
394.556	484.69
394.78	476.69
395.005	486.69
395.229	510.69
395.454	498.69
395.678	493.69
395.903	508.69
396.127	524.69
396.352	526.69
396.576	497.69
396.801	493.69
397.025	502.69
397.249	519.69
397.474	529.69
397.698	536.69
397.922	532.69
398.147	540.69
398.371	547.69
398.595	508.69
398.82	535.69
399.044	561.69
399.268	573.69
399.492	619.69
399.717	639.69
399.941	701.69
400.165	702.69
400.389	682.69
400.613	649.69
400.837	572.69
401.062	566.69
401.286	554.69
401.51	565.69
401.734	556.69
401.958	574.69
402.182	574.69
402.406	582.69
402.63	585.69
402.854	565.69
403.078	567.69
403.302	573.69
403.526	583.69
403.75	572.69
403.974	598.69
404.198	596.69
404.422	587.69
404.645	605.69
404.869	609.69
405.093	634.69
405.317	677.69
405.541	692.69
405.765	651.69
405.988	596.69
406.212	614.69
406.436	631.69
406.66	650.69
406.883	635.69
407.107	662.69
407.331	705.69
407.555	792.69
407.778	786.69
408.002	705.69
408.226	664.69
408.449	644.69
408.673	643.69
408.896	670.69
409.12	710.69
409.344	660.69
409.567	610.69
409.791	591.69
410.014	607.69
410.238	606.69
410.461	587.69
410.685	617.69
410.908	621.69
411.132	633.69
411.355	651.69
411.578	644.69
411.802	609.69
412.025	583.69
412.249	611.69
412.472	640.69
412.695	661.69
412.919	618.69
413.142	589.69
413.365	565.69
413.589	589.69
413.812	564.69
414.035	560.69
414.258	561.69
414.482	556.69
414.705	565.69
414.928	566.69
415.151	550.69
415.374	570.69
415.597	580.69
415.821	547.69
416.044	566.69
416.267	549.69
416.49	556.69
416.713	537.69
416.936	574.69
417.159	587.69
417.382	574.69
417.605	562.69
417.828	554.69
418.051	590.69
418.274	571.69
418.497	552.69
418.72	568.69
418.943	544.69
419.166	593.69
419.389	624.69
419.611	609.69
419.834	593.69
420.057	582.69
420.28	571.69
420.503	592.69
420.726	567.69
420.948	574.69
421.171	641.69
421.394	673.69
421.617	588.69
421.839	582.69
422.062	591.69
422.285	602.69
422.507	634.69
422.73	716.69
422.953	706.69
423.175	612.69
423.398	603.69
423.621	598.69
423.843	627.69
424.066	611.69
424.288	624.69
424.511	646.69
424.733	683.69
424.956	777.69
425.178	728.69
425.401	747.69
425.623	759.69
425.846	642.69
426.068	611.69
426.291	613.69
426.513	609.69
426.735	621.69
426.958	645.69
427.18	726.69
427.402	854.69
427.625	948.69
427.847	842.69
428.069	714.69
428.292	653.69
428.514	594.69
428.736	586.69
428.958	588.69
429.181	580.69
429.403	557.69
429.625	578.69
429.847	610.69
430.069	672.69
430.292	666.69
430.514	582.69
430.736	580.69
430.958	565.69
431.18	576.69
431.402	539.69
431.624	534.69
431.846	522.69
432.068	541.69
432.29	532.69
432.512	540.69
432.734	562.69
432.956	552.69
433.178	534.69
433.4	560.69
433.622	540.69
433.844	539.69
434.066	548.69
434.287	525.69
434.509	564.69
434.731	562.69
434.953	552.69
435.175	594.69
435.397	631.69
435.618	617.69
435.84	649.69
436.062	740.69
436.284	795.69
436.505	673.69
436.727	619.69
436.949	585.69
437.17	592.69
437.392	566.69
437.614	573.69
437.835	589.69
438.057	700.69
438.278	795.69
438.5	797.69
438.721	910.69
438.943	841.69
439.165	662.69
439.386	630.69
439.608	579.69
439.829	619.69
440.05	629.69
440.272	688.69
440.493	649.69
440.715	592.69
440.936	576.69
441.158	588.69
441.379	571.69
441.6	599.69
441.822	621.69
442.043	654.69
442.264	726.69
442.486	774.69
442.707	654.69
442.928	611.69
443.149	620.69
443.371	640.69
443.592	700.69
443.813	780.69
444.034	833.69
444.255	712.69
444.476	656.69
444.698	609.69
444.919	617.69
445.14	717.69
445.361	678.69
445.582	666.69
445.803	701.69
446.024	813.69
446.245	857.69
446.466	723.69
446.687	652.69
446.908	601.69
447.129	564.69
447.35	573.69
447.571	574.69
447.792	576.69
448.013	569.69
448.234	583.69
448.455	613.69
448.675	736.69
448.896	838.69
449.117	735.69
449.338	675.69
449.559	781.69
449.779	886.69
450	712.69
450.221	610.69
450.442	573.69
450.662	562.69
450.883	554.69
451.104	557.69
451.324	558.69
451.545	530.69
451.766	506.69
451.986	496.69
452.207	506.69
452.428	512.69
452.648	507.69
452.869	492.69
453.089	522.69
453.31	526.69
453.53	500.69
453.751	502.69
453.971	497.69
454.192	511.69
454.412	495.69
454.633	512.69
454.853	502.69
455.073	500.69
455.294	546.69
455.514	580.69
455.734	588.69
455.955	505.69
456.175	496.69
456.395	464.69
456.616	480.69
456.836	468.69
457.056	490.69
457.276	481.69
457.497	487.69
457.717	484.69
457.937	488.69
458.157	486.69
458.377	496.69
458.598	537.69
458.818	583.69
459.038	669.69
459.258	672.69
459.478	566.69
459.698	541.69
459.918	557.69
460.138	563.69
460.358	586.69
460.578	549.69
460.798	596.69
461.018	554.69
461.238	574.69
461.458	590.69
461.678	577.69
461.898	574.69
462.118	571.69
462.338	587.69
462.558	586.69
462.777	604.69
462.997	617.69
463.217	649.69
463.437	619.69
463.657	646.69
463.876	632.69
464.096	629.69
464.316	625.69
464.536	605.69
464.755	605.69
464.975	618.69
465.195	643.69
465.414	705.69
465.634	630.69
465.854	579.69
466.073	548.69
466.293	540.69
466.512	533.69
466.732	533.69
466.951	541.69
467.171	557.69
467.391	523.69
467.61	542.69
467.829	531.69
468.049	539.69
468.268	539.69
468.488	527.69
468.707	523.69
468.927	521.69
469.146	512.69
469.365	496.69
469.585	520.69
469.804	538.69
470.023	537.69
470.243	545.69
470.462	549.69
470.681	579.69
470.901	551.69
471.12	530.69
471.339	522.69
471.558	550.69
471.777	526.69
471.997	515.69
472.216	525.69
472.435	564.69
472.654	557.69
472.873	532.69
473.092	526.69
473.311	528.69
473.53	495.69
473.749	538.69
473.968	562.69
474.187	676.69
474.406	677.69
474.625	582.69
474.844	536.69
475.063	525.69
475.282	535.69
475.501	536.69
475.72	559.69
475.939	528.69
476.158	550.69
476.377	556.69
476.596	529.69
476.814	536.69
477.033	564.69
477.252	568.69
477.471	567.69
477.69	581.69
477.908	580.69
478.127	564.69
478.346	599.69
478.564	586.69
478.783	596.69
479.002	630.69
479.22	620.69
479.439	634.69
479.658	660.69
479.876	624.69
480.095	640.69
480.313	677.69
480.532	671.69
480.751	670.69
480.969	672.69
481.188	733.69
481.406	770.69
481.624	684.69
481.843	652.69
482.061	658.69
482.28	617.69
482.498	620.69
482.717	625.69
482.935	617.69
483.153	607.69
483.372	605.69
483.59	599.69
483.808	606.69
484.027	630.69
484.245	620.69
484.463	648.69
484.681	643.69
484.9	645.69
485.118	645.69
485.336	649.69
485.554	648.69
485.772	637.69
485.99	626.69
486.209	626.69
486.427	638.69
486.645	675.69
486.863	664.69
487.081	672.69
487.299	646.69
487.517	648.69
487.735	655.69
487.953	667.69
488.171	665.69
488.389	640.69
488.607	682.69
488.825	665.69
489.043	660.69
489.261	694.69
489.479	671.69
489.696	679.69
489.914	682.69
490.132	676.69
490.35	697.69
490.568	703.69
490.786	708.69
491.003	720.69
491.221	709.69
491.439	743.69
491.657	742.69
491.874	768.69
492.092	755.69
492.31	761.69
492.527	757.69
492.745	744.69
492.963	747.69
493.18	765.69
493.398	782.69
493.615	778.69
493.833	765.69
494.05	773.69
494.268	777.69
494.485	768.69
494.703	770.69
494.92	766.69
495.138	776.69
495.355	767.69
495.573	787.69
495.79	804.69
496.008	772.69
496.225	780.69
496.442	804.69
496.66	791.69
496.877	790.69
497.094	799.69
497.312	788.69
497.529	847.69
497.746	811.69
497.963	874.69
498.181	878.69
498.398	892.69
498.615	920.69
498.832	888.69
499.049	955.69
499.267	976.69
499.484	1013.69
499.701	1078.69
499.918	1119.69
500.135	1180.69
500.352	1229.69
500.569	1242.69
500.786	1247.69
501.003	1210.69
501.22	1198.69
501.437	1111.69
501.654	1086.69
501.871	1051.69
502.088	990.69
502.305	988.69
502.522	921.69
502.739	940.69
502.956	878.69
503.172	844.69
503.389	854.69
503.606	860.69
503.823	827.69
504.04	833.69
504.256	813.69
504.473	806.69
504.69	818.69
504.907	829.69
505.123	780.69
505.34	781.69
505.557	768.69
505.773	782.69
505.99	759.69
506.207	730.69
506.423	758.69
506.64	736.69
506.856	756.69
507.073	735.69
507.289	714.69
507.506	718.69
507.722	731.69
507.939	728.69
508.155	699.69
508.372	709.69
508.588	709.69
508.805	688.69
509.021	681.69
509.238	718.69
509.454	713.69
509.67	711.69
509.887	685.69
510.103	686.69
510.319	685.69
510.536	788.69
510.752	1277.69
510.968	1064.69
511.184	715.69
511.401	673.69
511.617	676.69
511.833	662.69
512.049	657.69
512.265	668.69
512.481	661.69
512.698	666.69
512.914	654.69
513.13	678.69
513.346	650.69
513.562	649.69
513.778	670.69
513.994	676.69
514.21	675.69
514.426	688.69
514.642	744.69
514.858	759.69
515.074	808.69
515.29	911.69
515.506	1334.69
515.721	1154.69
515.937	773.69
516.153	750.69
516.369	715.69
516.585	699.69
516.801	703.69
517.016	707.69
517.232	713.69
517.448	718.69
517.664	729.69
517.879	714.69
518.095	728.69
518.311	717.69
518.527	720.69
518.742	692.69
518.958	666.69
519.173	652.69
519.389	660.69
519.605	675.69
519.82	685.69
520.036	694.69
520.251	734.69
520.467	709.69
520.682	712.69
520.898	718.69
521.113	709.69
521.329	753.69
521.544	842.69
521.76	1043.69
521.975	1676.69
522.19	1697.69
522.406	939.69
522.621	759.69
522.836	677.69
523.052	633.69
523.267	647.69
523.482	617.69
523.698	612.69
523.913	627.69
524.128	632.69
524.343	617.69
524.559	578.69
524.774	581.69
524.989	611.69
525.204	593.69
525.419	617.69
525.634	613.69
525.849	597.69
526.064	577.69
526.28	568.69
526.495	566.69
526.71	576.69
526.925	542.69
527.14	551.69
527.355	556.69
527.57	561.69
527.785	555.69
527.999	553.69
528.214	568.69
528.429	560.69
528.644	570.69
528.859	567.69
529.074	542.69
529.289	573.69
529.503	663.69
529.718	633.69
529.933	598.69
530.148	587.69
530.363	576.69
530.577	556.69
530.792	536.69
531.007	545.69
531.221	541.69
531.436	523.69
531.651	540.69
531.865	540.69
532.08	537.69
532.295	523.69
532.509	527.69
532.724	518.69
532.938	541.69
533.153	525.69
533.367	536.69
533.582	536.69
533.796	542.69
534.011	532.69
534.225	534.69
534.44	522.69
534.654	538.69
534.868	521.69
535.083	540.69
535.297	530.69
535.511	554.69
535.726	547.69
535.94	558.69
536.154	525.69
536.369	519.69
536.583	532.69
536.797	504.69
537.011	526.69
537.225	516.69
537.44	506.69
537.654	532.69
537.868	504.69
538.082	510.69
538.296	517.69
538.51	506.69
538.724	523.69
538.938	485.69
539.153	535.69
539.367	527.69
539.581	521.69
539.795	505.69
540.009	509.69
540.222	500.69
540.436	506.69
540.65	500.69
540.864	515.69
541.078	531.69
541.292	522.69
541.506	512.69
541.72	496.69
541.934	498.69
542.147	491.69
542.361	488.69
542.575	498.69
542.789	491.69
543.002	486.69
543.216	498.69
543.43	500.69
543.644	521.69
543.857	498.69
544.071	505.69
544.285	523.69
544.498	498.69
544.712	526.69
544.925	507.69
545.139	516.69
545.352	506.69
545.566	497.69
545.779	521.69
545.993	501.69
546.206	530.69
546.42	500.69
546.633	489.69
546.847	498.69
547.06	497.69
547.274	470.69
547.487	500.69
547.7	490.69
547.914	498.69
548.127	472.69
548.34	499.69
548.554	505.69
548.767	503.69
548.98	494.69
549.193	499.69
549.407	497.69
549.62	519.69
549.833	498.69
550.046	496.69
550.259	488.69
550.473	468.69
550.686	477.69
550.899	490.69
551.112	491.69
551.325	483.69
551.538	480.69
551.751	507.69
551.964	474.69
552.177	491.69
552.39	484.69
552.603	502.69
552.816	491.69
553.029	488.69
553.242	513.69
553.455	507.69
553.667	526.69
553.88	526.69
554.093	517.69
554.306	513.69
554.519	512.69
554.732	503.69
554.944	483.69
555.157	466.69
555.37	471.69
555.583	461.69
555.795	473.69
556.008	481.69
556.221	442.69
556.433	464.69
556.646	453.69
556.859	446.69
557.071	456.69
557.284	437.69
557.496	456.69
557.709	438.69
557.921	440.69
558.134	440.69
558.346	433.69
558.559	430.69
558.771	450.69
558.984	438.69
559.196	426.69
559.409	435.69
559.621	440.69
559.833	448.69
560.046	452.69
560.258	433.69
560.47	431.69
560.683	453.69
560.895	440.69
561.107	434.69
561.32	432.69
561.532	453.69
561.744	409.69
561.956	445.69
562.168	429.69
562.381	421.69
562.593	450.69
562.805	424.69
563.017	460.69
563.229	459.69
563.441	439.69
563.653	444.69
563.865	457.69
564.077	433.69
564.289	441.69
564.501	476.69
564.713	440.69
564.925	455.69
565.137	475.69
565.349	470.69
565.561	496.69
565.773	480.69
565.985	510.69
566.197	513.69
566.408	518.69
566.62	544.69
566.832	562.69
567.044	546.69
567.255	547.69
567.467	586.69
567.679	601.69
567.891	612.69
568.102	596.69
568.314	581.69
568.526	564.69
568.737	544.69
568.949	515.69
569.161	504.69
569.372	477.69
569.584	468.69
569.795	461.69
570.007	471.69
570.218	488.69
570.43	462.69
570.641	439.69
570.853	423.69
571.064	451.69
571.276	435.69
571.487	421.69
571.698	429.69
571.91	414.69
572.121	405.69
572.333	408.69
572.544	415.69
572.755	411.69
572.966	401.69
573.178	376.69
573.389	388.69
573.6	380.69
573.811	391.69
574.023	387.69
574.234	387.69
574.445	385.69
574.656	377.69
574.867	384.69
575.078	371.69
575.289	382.69
575.501	376.69
575.712	365.69
575.923	384.69
576.134	365.69
576.345	380.69
576.556	385.69
576.767	381.69
576.978	368.69
577.188	364.69
577.399	374.69
577.61	344.69
577.821	354.69
578.032	344.69
578.243	402.69
578.454	618.69
578.665	482.69
578.875	385.69
579.086	357.69
579.297	362.69
579.508	355.69
579.718	377.69
579.929	354.69
580.14	352.69
580.35	342.69
580.561	334.69
580.772	343.69
580.982	333.69
581.193	360.69
581.403	353.69
581.614	360.69
581.825	348.69
582.035	348.69
582.246	349.69
582.456	361.69
582.667	336.69
582.877	339.69
583.087	324.69
583.298	330.69
583.508	331.69
583.719	344.69
583.929	352.69
584.139	351.69
584.35	330.69
584.56	348.69
584.77	349.69
584.981	341.69
585.191	347.69
585.401	340.69
585.611	326.69
585.821	338.69
586.032	330.69
586.242	337.69
586.452	324.69
586.662	337.69
586.872	332.69
587.082	328.69
587.292	313.69
587.502	331.69
587.713	329.69
587.923	320.69
588.133	334.69
588.343	314.69
588.553	313.69
588.762	339.69
588.972	336.69
589.182	333.69
589.392	330.69
589.602	324.69
589.812	344.69
590.022	329.69
590.232	333.69
590.441	300.69
590.651	320.69
590.861	331.69
591.071	350.69
591.281	329.69
591.49	336.69
591.7	327.69
591.91	352.69
592.119	330.69
592.329	328.69
592.539	360.69
592.748	349.69
592.958	365.69
593.167	356.69
593.377	376.69
593.587	364.69
593.796	355.69
594.006	339.69
594.215	348.69
594.424	376.69
594.634	369.69
594.843	353.69
595.053	361.69
595.262	338.69
595.472	331.69
595.681	334.69
595.89	327.69
596.1	309.69
596.309	300.69
596.518	301.69
596.727	295.69
596.937	302.69
597.146	306.69
597.355	314.69
597.564	298.69
597.774	293.69
597.983	286.69
598.192	284.69
598.401	297.69
598.61	292.69
598.819	283.69
599.028	297.69
599.237	288.69
599.446	326.69
599.655	316.69
599.864	271.69
600.073	292.69
600.282	292.69
600.491	283.69
600.7	291.69
600.909	289.69
601.118	286.69
601.327	263.69
601.536	277.69
601.745	274.69
601.953	270.69
602.162	280.69
602.371	279.69
602.58	286.69
602.789	279.69
602.997	282.69
603.206	282.69
603.415	273.69
603.623	277.69
603.832	266.69
604.041	278.69
604.249	285.69
604.458	271.69
604.666	272.69
604.875	254.69
605.084	272.69
605.292	284.69
605.501	266.69
605.709	266.69
605.918	282.69
606.126	285.69
606.334	286.69
606.543	269.69
606.751	266.69
606.96	272.69
607.168	269.69
607.376	251.69
607.585	264.69
607.793	278.69
608.001	263.69
608.21	262.69
608.418	254.69
608.626	270.69
608.834	257.69
609.043	269.69
609.251	259.69
609.459	278.69
609.667	263.69
609.875	250.69
610.083	254.69
610.291	264.69
610.499	274.69
610.707	276.69
610.916	248.69
611.124	272.69
611.332	263.69
611.54	284.69
611.748	263.69
611.955	275.69
612.163	256.69
612.371	260.69
612.579	246.69
612.787	244.69
612.995	247.69
613.203	242.69
613.411	244.69
613.618	252.69
613.826	260.69
614.034	259.69
614.242	244.69
614.449	270.69
614.657	247.69
614.865	265.69
615.072	259.69
615.28	264.69
615.488	264.69
615.695	272.69
615.903	269.69
616.111	258.69
616.318	277.69
616.526	251.69
616.733	265.69
616.941	237.69
617.148	260.69
617.356	252.69
617.563	240.69
617.771	256.69
617.978	279.69
618.185	254.69
618.393	254.69
618.6	256.69
618.807	261.69
619.015	240.69
619.222	244.69
619.429	233.69
619.637	256.69
619.844	242.69
620.051	233.69
620.258	232.69
620.466	241.69
620.673	240.69
620.88	235.69
621.087	240.69
621.294	233.69
621.501	252.69
621.708	229.69
621.915	233.69
622.122	239.69
622.329	234.69
622.536	235.69
622.743	227.69
622.95	238.69
623.157	231.69
623.364	232.69
623.571	241.69
623.778	241.69
623.985	256.69
624.192	218.69
624.399	227.69
624.606	231.69
624.812	216.69
625.019	216.69
625.226	220.69
625.433	216.69
625.639	213.69
625.846	235.69
626.053	230.69
626.259	228.69
626.466	223.69
626.673	229.69
626.879	216.69
627.086	207.69
627.293	229.69
627.499	226.69
627.706	227.69
627.912	231.69
628.119	208.69
628.325	238.69
628.532	214.69
628.738	202.69
628.945	222.69
629.151	190.69
629.357	206.69
629.564	217.69
629.77	228.69
629.976	215.69
630.183	203.69
630.389	221.69
630.595	206.69
630.802	212.69
631.008	218.69
631.214	202.69
631.42	201.69
631.627	212.69
631.833	219.69
632.039	211.69
632.245	215.69
632.451	211.69
632.657	210.69
632.863	197.69
633.069	198.69
633.275	207.69
633.481	198.69
633.688	204.69
633.893	209.69
634.099	202.69
634.305	194.69
634.511	197.69
634.717	198.69
634.923	200.69
635.129	184.69
635.335	189.69
635.541	199.69
635.747	191.69
635.952	197.69
636.158	184.69
636.364	206.69
636.57	203.69
636.775	204.69
636.981	210.69
637.187	196.69
637.392	189.69
637.598	185.69
637.804	187.69
638.009	189.69
638.215	170.69
638.421	190.69
638.626	182.69
638.832	200.69
639.037	188.69
639.243	185.69
639.448	174.69
639.654	183.69
639.859	187.69
640.065	172.69
640.27	193.69
640.475	162.69
640.681	159.69
640.886	183.69
641.091	178.69
641.297	170.69
641.502	188.69
641.707	171.69
641.913	165.69
642.118	178.69
642.323	172.69
642.528	174.69
642.733	182.69
642.939	185.69
643.144	172.69
643.349	188.69
643.554	180.69
643.759	181.69
643.964	186.69
644.169	175.69
644.374	167.69
644.579	180.69
644.784	164.69
644.989	176.69
645.194	162.69
645.399	171.69
645.604	165.69
645.809	187.69
646.014	183.69
646.219	184.69
646.423	163.69
646.628	168.69
646.833	176.69
647.038	167.69
647.243	190.69
647.447	174.69
647.652	168.69
647.857	173.69
648.062	187.69
648.266	182.69
648.471	185.69
648.676	189.69
648.88	185.69
649.085	176.69
649.289	186.69
649.494	171.69
649.698	174.69
649.903	192.69
650.107	182.69
650.312	178.69
650.516	164.69
650.721	170.69
650.925	163.69
651.13	149.69
651.334	154.69
651.539	156.69
651.743	155.69
651.947	145.69
652.152	166.69
652.356	161.69
652.56	132.69
652.764	147.69
652.969	164.69
653.173	148.69
653.377	130.69
653.581	135.69
653.785	139.69
653.99	136.69
654.194	136.69
654.398	129.69
654.602	142.69
654.806	139.69
655.01	143.69
655.214	138.69
655.418	124.69
655.622	129.69
655.826	139.69
656.03	130.69
656.234	142.69
656.438	150.69
656.642	141.69
656.846	126.69
657.049	123.69
657.253	141.69
657.457	124.69
657.661	128.69
657.865	115.69
658.068	122.69
658.272	102.69
658.476	119.69
658.68	96.69
658.883	101.69
659.087	98.69
659.291	89.69
659.494	102.69
659.698	96.69
659.901	98.69
660.105	96.69
660.309	94.69
660.512	96.69
660.716	97.69
660.919	105.69
661.123	107.69
661.326	91.69
661.53	95.69
661.733	93.69
661.936	88.69
662.14	85.69
662.343	89.69
662.546	73.69
662.75	79.69
662.953	75.69
663.156	75.69
663.36	89.69
663.563	78.69
663.766	78.69
663.969	77.69
664.173	93.69
664.376	80.69
664.579	92.69
664.782	76.69
664.985	90.69
665.188	85.69
665.391	75.69
665.594	82.69
665.797	74.69
666	86.69
666.203	93.69
666.406	85.69
666.609	84.69
666.812	90.69
667.015	76.69
667.218	79.69
667.421	84.69
667.624	87.69
667.827	80.69
668.03	99.69
668.232	78.69
668.435	80.69
668.638	72.69
668.841	69.69
669.043	78.69
669.246	91.69
669.449	89.69
669.651	90.69
669.854	85.69
670.057	75.69
670.259	82.69
670.462	92.69
670.665	88.69
670.867	71.69
671.07	77.69
671.272	82.69
671.475	81.69
671.677	78.69
671.88	74.69
672.082	66.69
672.284	85.69
672.487	77.69
672.689	59.69
672.892	95.69
