Data from 1979.PennyLincolnUp.Lamp.En5.5.200Scan.071719.P1_HRD10591_16-20-22-865.txt Node
Date: Thu Jul 18 16:20:22 EDT 2019
User: cochatt
Spectrometer: HR+D1059
Trigger mode: 1
Integration Time (sec): 1.000000E-1
Scans to average: 1
Electric dark correction enabled: true
Nonlinearity correction enabled: false
Boxcar width: 0
XAxis mode: Wavelengths
Number of Pixels in Spectrum: 2048
>>>>>Begin Spectral Data<<<<<
223.165	-15.31
223.4	-15.31
223.635	-15.31
223.869	-13.31
224.104	-7.31
224.338	-17.31
224.573	-19.31
224.808	-8.31
225.042	-2.31
225.277	-20.31
225.511	-18.31
225.746	-0.31
225.98	21.69
226.215	19.69
226.449	7.69
226.683	17.69
226.918	35.69
227.152	19.69
227.387	46.69
227.621	47.69
227.856	29.69
228.09	45.69
228.324	57.69
228.559	43.69
228.793	73.69
229.027	103.69
229.262	92.69
229.496	121.69
229.73	134.69
229.964	145.69
230.199	118.69
230.433	102.69
230.667	97.69
230.901	108.69
231.136	112.69
231.37	107.69
231.604	117.69
231.838	128.69
232.072	109.69
232.306	102.69
232.541	109.69
232.775	124.69
233.009	107.69
233.243	116.69
233.477	102.69
233.711	114.69
233.945	103.69
234.179	119.69
234.413	125.69
234.647	116.69
234.881	123.69
235.115	111.69
235.349	111.69
235.583	111.69
235.817	130.69
236.051	114.69
236.285	137.69
236.519	125.69
236.753	133.69
236.987	130.69
237.221	185.69
237.455	222.69
237.689	183.69
237.922	149.69
238.156	128.69
238.39	138.69
238.624	128.69
238.858	132.69
239.091	137.69
239.325	123.69
239.559	137.69
239.793	126.69
240.027	129.69
240.26	132.69
240.494	152.69
240.728	143.69
240.961	149.69
241.195	129.69
241.429	133.69
241.662	136.69
241.896	151.69
242.13	132.69
242.363	135.69
242.597	139.69
242.83	145.69
243.064	143.69
243.298	135.69
243.531	143.69
243.765	146.69
243.998	153.69
244.232	129.69
244.465	143.69
244.699	144.69
244.932	153.69
245.166	151.69
245.399	151.69
245.633	156.69
245.866	143.69
246.099	137.69
246.333	148.69
246.566	135.69
246.8	146.69
247.033	144.69
247.266	149.69
247.5	168.69
247.733	163.69
247.966	171.69
248.2	168.69
248.433	166.69
248.666	164.69
248.899	184.69
249.133	182.69
249.366	197.69
249.599	189.69
249.832	171.69
250.066	153.69
250.299	171.69
250.532	189.69
250.765	181.69
250.998	212.69
251.231	211.69
251.465	202.69
251.698	202.69
251.931	183.69
252.164	187.69
252.397	188.69
252.63	210.69
252.863	195.69
253.096	222.69
253.329	215.69
253.562	207.69
253.795	204.69
254.028	214.69
254.261	189.69
254.494	217.69
254.727	244.69
254.96	264.69
255.193	256.69
255.426	225.69
255.659	220.69
255.892	217.69
256.124	231.69
256.357	228.69
256.59	225.69
256.823	219.69
257.056	212.69
257.289	212.69
257.521	213.69
257.754	210.69
257.987	187.69
258.22	198.69
258.452	195.69
258.685	192.69
258.918	193.69
259.151	202.69
259.383	204.69
259.616	222.69
259.849	226.69
260.081	240.69
260.314	247.69
260.547	240.69
260.779	234.69
261.012	223.69
261.244	218.69
261.477	220.69
261.71	203.69
261.942	228.69
262.175	230.69
262.407	220.69
262.64	189.69
262.872	208.69
263.105	195.69
263.337	198.69
263.57	218.69
263.802	196.69
264.035	205.69
264.267	205.69
264.499	213.69
264.732	199.69
264.964	204.69
265.197	207.69
265.429	208.69
265.661	213.69
265.894	201.69
266.126	200.69
266.358	224.69
266.591	212.69
266.823	215.69
267.055	218.69
267.287	216.69
267.52	209.69
267.752	224.69
267.984	236.69
268.216	243.69
268.448	228.69
268.681	215.69
268.913	230.69
269.145	264.69
269.377	261.69
269.609	258.69
269.841	241.69
270.073	236.69
270.306	258.69
270.538	290.69
270.77	313.69
271.002	300.69
271.234	262.69
271.466	290.69
271.698	291.69
271.93	288.69
272.162	288.69
272.394	273.69
272.626	276.69
272.858	273.69
273.09	276.69
273.322	249.69
273.553	262.69
273.785	262.69
274.017	239.69
274.249	248.69
274.481	232.69
274.713	235.69
274.945	264.69
275.176	243.69
275.408	235.69
275.64	252.69
275.872	245.69
276.104	266.69
276.335	259.69
276.567	260.69
276.799	279.69
277.031	289.69
277.262	311.69
277.494	303.69
277.726	290.69
277.957	281.69
278.189	281.69
278.421	246.69
278.652	265.69
278.884	255.69
279.115	269.69
279.347	273.69
279.579	247.69
279.81	256.69
280.042	257.69
280.273	268.69
280.505	255.69
280.736	265.69
280.968	278.69
281.199	274.69
281.431	265.69
281.662	267.69
281.894	257.69
282.125	273.69
282.356	277.69
282.588	287.69
282.819	304.69
283.051	270.69
283.282	268.69
283.513	266.69
283.745	263.69
283.976	269.69
284.207	281.69
284.439	270.69
284.67	271.69
284.901	282.69
285.132	263.69
285.364	252.69
285.595	279.69
285.826	267.69
286.057	274.69
286.288	296.69
286.52	267.69
286.751	272.69
286.982	268.69
287.213	261.69
287.444	280.69
287.675	281.69
287.906	280.69
288.138	304.69
288.369	290.69
288.6	287.69
288.831	289.69
289.062	292.69
289.293	285.69
289.524	292.69
289.755	279.69
289.986	283.69
290.217	285.69
290.448	273.69
290.679	279.69
290.91	293.69
291.141	285.69
291.371	281.69
291.602	294.69
291.833	297.69
292.064	287.69
292.295	273.69
292.526	294.69
292.757	297.69
292.987	283.69
293.218	289.69
293.449	302.69
293.68	284.69
293.91	281.69
294.141	292.69
294.372	274.69
294.603	290.69
294.833	284.69
295.064	292.69
295.295	300.69
295.525	300.69
295.756	287.69
295.987	300.69
296.217	323.69
296.448	333.69
296.679	322.69
296.909	287.69
297.14	298.69
297.37	301.69
297.601	295.69
297.831	312.69
298.062	304.69
298.292	297.69
298.523	317.69
298.753	305.69
298.984	302.69
299.214	315.69
299.445	316.69
299.675	289.69
299.905	287.69
300.136	308.69
300.366	304.69
300.597	308.69
300.827	310.69
301.057	317.69
301.288	329.69
301.518	313.69
301.748	313.69
301.979	328.69
302.209	345.69
302.439	333.69
302.669	338.69
302.9	311.69
303.13	328.69
303.36	318.69
303.59	300.69
303.82	341.69
304.051	320.69
304.281	316.69
304.511	343.69
304.741	319.69
304.971	318.69
305.201	330.69
305.431	313.69
305.661	307.69
305.891	306.69
306.121	322.69
306.352	330.69
306.582	329.69
306.812	332.69
307.042	318.69
307.272	328.69
307.502	338.69
307.731	330.69
307.961	332.69
308.191	319.69
308.421	321.69
308.651	346.69
308.881	333.69
309.111	328.69
309.341	340.69
309.571	345.69
309.8	335.69
310.03	361.69
310.26	364.69
310.49	348.69
310.72	358.69
310.949	366.69
311.179	387.69
311.409	360.69
311.639	358.69
311.868	368.69
312.098	383.69
312.328	383.69
312.557	374.69
312.787	416.69
313.017	385.69
313.246	374.69
313.476	351.69
313.706	367.69
313.935	363.69
314.165	392.69
314.394	391.69
314.624	392.69
314.853	384.69
315.083	367.69
315.312	395.69
315.542	377.69
315.771	361.69
316.001	373.69
316.23	368.69
316.46	371.69
316.689	377.69
316.919	379.69
317.148	407.69
317.377	361.69
317.607	389.69
317.836	402.69
318.065	360.69
318.295	376.69
318.524	388.69
318.753	391.69
318.983	371.69
319.212	374.69
319.441	391.69
319.67	381.69
319.9	379.69
320.129	399.69
320.358	374.69
320.587	365.69
320.816	379.69
321.046	400.69
321.275	397.69
321.504	381.69
321.733	405.69
321.962	383.69
322.191	429.69
322.42	441.69
322.649	435.69
322.878	428.69
323.108	439.69
323.337	457.69
323.566	485.69
323.795	513.69
324.024	552.69
324.253	620.69
324.482	874.69
324.71	1398.69
324.939	2095.69
325.168	1806.69
325.397	883.69
325.626	605.69
325.855	515.69
326.084	481.69
326.313	475.69
326.542	486.69
326.77	505.69
326.999	615.69
327.228	814.69
327.457	1289.69
327.686	1629.69
327.914	1022.69
328.143	660.69
328.372	585.69
328.6	563.69
328.829	522.69
329.058	530.69
329.287	551.69
329.515	537.69
329.744	513.69
329.972	475.69
330.201	506.69
330.43	531.69
330.658	553.69
330.887	598.69
331.115	571.69
331.344	519.69
331.572	481.69
331.801	464.69
332.03	498.69
332.258	477.69
332.486	479.69
332.715	462.69
332.943	461.69
333.172	471.69
333.4	461.69
333.629	463.69
333.857	500.69
334.085	500.69
334.314	522.69
334.542	534.69
334.771	527.69
334.999	513.69
335.227	503.69
335.455	471.69
335.684	459.69
335.912	442.69
336.14	447.69
336.369	466.69
336.597	469.69
336.825	476.69
337.053	449.69
337.281	435.69
337.51	448.69
337.738	455.69
337.966	463.69
338.194	445.69
338.422	437.69
338.65	448.69
338.878	456.69
339.106	444.69
339.334	453.69
339.562	446.69
339.79	419.69
340.018	445.69
340.246	408.69
340.474	441.69
340.702	424.69
340.93	419.69
341.158	417.69
341.386	419.69
341.614	420.69
341.842	436.69
342.07	435.69
342.298	431.69
342.526	425.69
342.754	408.69
342.981	430.69
343.209	420.69
343.437	441.69
343.665	432.69
343.893	443.69
344.12	466.69
344.348	456.69
344.576	444.69
344.804	451.69
345.031	451.69
345.259	449.69
345.487	459.69
345.714	429.69
345.942	423.69
346.17	421.69
346.397	405.69
346.625	402.69
346.853	415.69
347.08	414.69
347.308	426.69
347.535	423.69
347.763	430.69
347.99	428.69
348.218	454.69
348.445	434.69
348.673	426.69
348.9	424.69
349.128	416.69
349.355	415.69
349.583	393.69
349.81	404.69
350.037	410.69
350.265	405.69
350.492	418.69
350.72	408.69
350.947	427.69
351.174	404.69
351.402	422.69
351.629	421.69
351.856	435.69
352.083	419.69
352.311	428.69
352.538	458.69
352.765	426.69
352.992	422.69
353.22	408.69
353.447	425.69
353.674	427.69
353.901	395.69
354.128	400.69
354.355	390.69
354.583	398.69
354.81	407.69
355.037	411.69
355.264	397.69
355.491	395.69
355.718	386.69
355.945	391.69
356.172	388.69
356.399	405.69
356.626	395.69
356.853	381.69
357.08	388.69
357.307	413.69
357.534	385.69
357.761	397.69
357.988	392.69
358.215	398.69
358.441	387.69
358.668	393.69
358.895	402.69
359.122	420.69
359.349	421.69
359.576	413.69
359.802	456.69
360.029	455.69
360.256	469.69
360.483	466.69
360.709	413.69
360.936	437.69
361.163	428.69
361.39	415.69
361.616	447.69
361.843	419.69
362.07	409.69
362.296	437.69
362.523	429.69
362.749	408.69
362.976	420.69
363.203	413.69
363.429	407.69
363.656	408.69
363.882	415.69
364.109	414.69
364.335	422.69
364.562	420.69
364.788	414.69
365.015	425.69
365.241	407.69
365.468	413.69
365.694	435.69
365.92	400.69
366.147	429.69
366.373	405.69
366.599	400.69
366.826	417.69
367.052	408.69
367.278	419.69
367.505	419.69
367.731	417.69
367.957	393.69
368.184	416.69
368.41	421.69
368.636	409.69
368.862	425.69
369.089	435.69
369.315	405.69
369.541	409.69
369.767	417.69
369.993	420.69
370.219	415.69
370.445	420.69
370.672	419.69
370.898	400.69
371.124	404.69
371.35	404.69
371.576	416.69
371.802	420.69
372.028	419.69
372.254	415.69
372.48	396.69
372.706	415.69
372.932	418.69
373.158	417.69
373.384	425.69
373.61	417.69
373.835	429.69
374.061	415.69
374.287	411.69
374.513	392.69
374.739	417.69
374.965	436.69
375.191	451.69
375.416	443.69
375.642	425.69
375.868	429.69
376.094	435.69
376.319	407.69
376.545	417.69
376.771	435.69
376.997	393.69
377.222	414.69
377.448	418.69
377.674	419.69
377.899	402.69
378.125	392.69
378.35	399.69
378.576	425.69
378.802	413.69
379.027	397.69
379.253	413.69
379.478	406.69
379.704	404.69
379.929	400.69
380.155	411.69
380.38	436.69
380.606	430.69
380.831	407.69
381.057	418.69
381.282	413.69
381.507	423.69
381.733	432.69
381.958	411.69
382.184	437.69
382.409	417.69
382.634	438.69
382.86	419.69
383.085	420.69
383.31	441.69
383.535	448.69
383.761	432.69
383.986	436.69
384.211	458.69
384.436	456.69
384.662	433.69
384.887	451.69
385.112	452.69
385.337	462.69
385.562	442.69
385.787	442.69
386.013	470.69
386.238	472.69
386.463	470.69
386.688	470.69
386.913	465.69
387.138	465.69
387.363	462.69
387.588	476.69
387.813	467.69
388.038	459.69
388.263	464.69
388.488	495.69
388.713	457.69
388.938	472.69
389.163	457.69
389.387	465.69
389.612	459.69
389.837	460.69
390.062	464.69
390.287	472.69
390.512	475.69
390.736	481.69
390.961	447.69
391.186	459.69
391.411	462.69
391.636	492.69
391.86	481.69
392.085	489.69
392.31	474.69
392.534	495.69
392.759	470.69
392.984	475.69
393.208	465.69
393.433	469.69
393.658	497.69
393.882	480.69
394.107	475.69
394.331	477.69
394.556	495.69
394.78	490.69
395.005	494.69
395.229	494.69
395.454	483.69
395.678	491.69
395.903	505.69
396.127	523.69
396.352	529.69
396.576	489.69
396.801	474.69
397.025	513.69
397.249	515.69
397.474	505.69
397.698	526.69
397.922	541.69
398.147	539.69
398.371	533.69
398.595	551.69
398.82	552.69
399.044	560.69
399.268	592.69
399.492	617.69
399.717	643.69
399.941	693.69
400.165	685.69
400.389	682.69
400.613	620.69
400.837	595.69
401.062	578.69
401.286	567.69
401.51	553.69
401.734	563.69
401.958	557.69
402.182	559.69
402.406	567.69
402.63	557.69
402.854	567.69
403.078	549.69
403.302	587.69
403.526	585.69
403.75	569.69
403.974	599.69
404.198	580.69
404.422	610.69
404.645	592.69
404.869	580.69
405.093	596.69
405.317	647.69
405.541	697.69
405.765	624.69
405.988	628.69
406.212	620.69
406.436	641.69
406.66	627.69
406.883	635.69
407.107	655.69
407.331	684.69
407.555	746.69
407.778	739.69
408.002	713.69
408.226	646.69
408.449	635.69
408.673	644.69
408.896	646.69
409.12	707.69
409.344	680.69
409.567	605.69
409.791	583.69
410.014	605.69
410.238	594.69
410.461	589.69
410.685	595.69
410.908	592.69
411.132	649.69
411.355	686.69
411.578	641.69
411.802	605.69
412.025	617.69
412.249	599.69
412.472	602.69
412.695	665.69
412.919	630.69
413.142	616.69
413.365	582.69
413.589	564.69
413.812	566.69
414.035	547.69
414.258	551.69
414.482	556.69
414.705	568.69
414.928	574.69
415.151	559.69
415.374	558.69
415.597	554.69
415.821	561.69
416.044	553.69
416.267	538.69
416.49	563.69
416.713	551.69
416.936	555.69
417.159	531.69
417.382	542.69
417.605	554.69
417.828	568.69
418.051	573.69
418.274	581.69
418.497	541.69
418.72	546.69
418.943	540.69
419.166	575.69
419.389	612.69
419.611	585.69
419.834	604.69
420.057	583.69
420.28	576.69
420.503	597.69
420.726	585.69
420.948	609.69
421.171	621.69
421.394	662.69
421.617	581.69
421.839	557.69
422.062	593.69
422.285	587.69
422.507	655.69
422.73	693.69
422.953	691.69
423.175	615.69
423.398	601.69
423.621	596.69
423.843	596.69
424.066	607.69
424.288	627.69
424.511	625.69
424.733	677.69
424.956	759.69
425.178	721.69
425.401	712.69
425.623	756.69
425.846	669.69
426.068	624.69
426.291	605.69
426.513	602.69
426.735	617.69
426.958	631.69
427.18	719.69
427.402	856.69
427.625	950.69
427.847	851.69
428.069	713.69
428.292	658.69
428.514	595.69
428.736	605.69
428.958	585.69
429.181	545.69
429.403	570.69
429.625	539.69
429.847	616.69
430.069	663.69
430.292	645.69
430.514	568.69
430.736	582.69
430.958	535.69
431.18	546.69
431.402	526.69
431.624	530.69
431.846	521.69
432.068	541.69
432.29	534.69
432.512	538.69
432.734	533.69
432.956	554.69
433.178	560.69
433.4	549.69
433.622	546.69
433.844	556.69
434.066	541.69
434.287	527.69
434.509	547.69
434.731	553.69
434.953	587.69
435.175	567.69
435.397	618.69
435.618	610.69
435.84	645.69
436.062	733.69
436.284	805.69
436.505	671.69
436.727	603.69
436.949	595.69
437.17	560.69
437.392	560.69
437.614	567.69
437.835	574.69
438.057	687.69
438.278	778.69
438.5	771.69
438.721	869.69
438.943	835.69
439.165	666.69
439.386	604.69
439.608	612.69
439.829	580.69
440.05	607.69
440.272	665.69
440.493	635.69
440.715	622.69
440.936	584.69
441.158	587.69
441.379	576.69
441.6	594.69
441.822	629.69
442.043	641.69
442.264	737.69
442.486	771.69
442.707	669.69
442.928	608.69
443.149	623.69
443.371	643.69
443.592	665.69
443.813	734.69
444.034	845.69
444.255	709.69
444.476	641.69
444.698	638.69
444.919	635.69
445.14	676.69
445.361	655.69
445.582	666.69
445.803	703.69
446.024	821.69
446.245	824.69
446.466	712.69
446.687	636.69
446.908	581.69
447.129	579.69
447.35	573.69
447.571	560.69
447.792	568.69
448.013	559.69
448.234	567.69
448.455	614.69
448.675	715.69
448.896	835.69
449.117	700.69
449.338	651.69
449.559	791.69
449.779	899.69
450	715.69
450.221	609.69
450.442	562.69
450.662	559.69
450.883	563.69
451.104	568.69
451.324	548.69
451.545	537.69
451.766	527.69
451.986	496.69
452.207	496.69
452.428	507.69
452.648	490.69
452.869	513.69
453.089	492.69
453.31	541.69
453.53	511.69
453.751	503.69
453.971	496.69
454.192	503.69
454.412	503.69
454.633	504.69
454.853	488.69
455.073	493.69
455.294	511.69
455.514	568.69
455.734	579.69
455.955	504.69
456.175	488.69
456.395	463.69
456.616	493.69
456.836	472.69
457.056	452.69
457.276	470.69
457.497	488.69
457.717	490.69
457.937	493.69
458.157	457.69
458.377	478.69
458.598	530.69
458.818	597.69
459.038	632.69
459.258	659.69
459.478	584.69
459.698	560.69
459.918	557.69
460.138	553.69
460.358	571.69
460.578	571.69
460.798	576.69
461.018	569.69
461.238	569.69
461.458	573.69
461.678	559.69
461.898	545.69
462.118	567.69
462.338	598.69
462.558	603.69
462.777	603.69
462.997	616.69
463.217	621.69
463.437	656.69
463.657	605.69
463.876	600.69
464.096	608.69
464.316	598.69
464.536	599.69
464.755	603.69
464.975	606.69
465.195	628.69
465.414	711.69
465.634	620.69
465.854	565.69
466.073	533.69
466.293	540.69
466.512	529.69
466.732	523.69
466.951	530.69
467.171	521.69
467.391	526.69
467.61	529.69
467.829	548.69
468.049	529.69
468.268	536.69
468.488	529.69
468.707	497.69
468.927	496.69
469.146	529.69
469.365	517.69
469.585	503.69
469.804	485.69
470.023	540.69
470.243	523.69
470.462	543.69
470.681	545.69
470.901	515.69
471.12	515.69
471.339	534.69
471.558	550.69
471.777	504.69
471.997	513.69
472.216	516.69
472.435	563.69
472.654	555.69
472.873	536.69
473.092	501.69
473.311	532.69
473.53	503.69
473.749	525.69
473.968	567.69
474.187	653.69
474.406	697.69
474.625	568.69
474.844	560.69
475.063	527.69
475.282	541.69
475.501	532.69
475.72	525.69
475.939	526.69
476.158	539.69
476.377	539.69
476.596	537.69
476.814	550.69
477.033	560.69
477.252	563.69
477.471	566.69
477.69	577.69
477.908	560.69
478.127	588.69
478.346	603.69
478.564	584.69
478.783	603.69
479.002	592.69
479.22	596.69
479.439	602.69
479.658	649.69
479.876	635.69
480.095	629.69
480.313	671.69
480.532	665.69
480.751	660.69
480.969	656.69
481.188	721.69
481.406	746.69
481.624	693.69
481.843	629.69
482.061	636.69
482.28	607.69
482.498	617.69
482.717	604.69
482.935	616.69
483.153	627.69
483.372	595.69
483.59	615.69
483.808	616.69
484.027	591.69
484.245	615.69
484.463	611.69
484.681	633.69
484.9	618.69
485.118	639.69
485.336	641.69
485.554	638.69
485.772	644.69
485.99	635.69
486.209	641.69
486.427	628.69
486.645	670.69
486.863	672.69
487.081	669.69
487.299	663.69
487.517	663.69
487.735	653.69
487.953	679.69
488.171	661.69
488.389	671.69
488.607	662.69
488.825	642.69
489.043	638.69
489.261	653.69
489.479	689.69
489.696	683.69
489.914	654.69
490.132	675.69
490.35	669.69
490.568	663.69
490.786	709.69
491.003	694.69
491.221	725.69
491.439	715.69
491.657	757.69
491.874	753.69
492.092	740.69
492.31	750.69
492.527	740.69
492.745	764.69
492.963	764.69
493.18	717.69
493.398	788.69
493.615	767.69
493.833	746.69
494.05	769.69
494.268	749.69
494.485	755.69
494.703	736.69
494.92	767.69
495.138	774.69
495.355	760.69
495.573	764.69
495.79	770.69
496.008	810.69
496.225	793.69
496.442	755.69
496.66	789.69
496.877	780.69
497.094	834.69
497.312	780.69
497.529	791.69
497.746	799.69
497.963	847.69
498.181	871.69
498.398	893.69
498.615	872.69
498.832	928.69
499.049	925.69
499.267	967.69
499.484	989.69
499.701	1020.69
499.918	1088.69
500.135	1146.69
500.352	1192.69
500.569	1219.69
500.786	1161.69
501.003	1186.69
501.22	1178.69
501.437	1094.69
501.654	1057.69
501.871	1035.69
502.088	989.69
502.305	945.69
502.522	916.69
502.739	907.69
502.956	899.69
503.172	841.69
503.389	858.69
503.606	821.69
503.823	827.69
504.04	823.69
504.256	823.69
504.473	777.69
504.69	801.69
504.907	801.69
505.123	808.69
505.34	798.69
505.557	757.69
505.773	757.69
505.99	742.69
506.207	732.69
506.423	757.69
506.64	731.69
506.856	744.69
507.073	721.69
507.289	725.69
507.506	741.69
507.722	737.69
507.939	760.69
508.155	725.69
508.372	693.69
508.588	683.69
508.805	687.69
509.021	697.69
509.238	719.69
509.454	695.69
509.67	699.69
509.887	679.69
510.103	683.69
510.319	682.69
510.536	800.69
510.752	1306.69
510.968	1047.69
511.184	696.69
511.401	680.69
511.617	668.69
511.833	669.69
512.049	656.69
512.265	649.69
512.481	653.69
512.698	638.69
512.914	651.69
513.13	667.69
513.346	638.69
513.562	680.69
513.778	665.69
513.994	637.69
514.21	667.69
514.426	664.69
514.642	713.69
514.858	745.69
515.074	778.69
515.29	936.69
515.506	1335.69
515.721	1134.69
515.937	763.69
516.153	739.69
516.369	743.69
516.585	692.69
516.801	693.69
517.016	705.69
517.232	726.69
517.448	710.69
517.664	693.69
517.879	715.69
518.095	731.69
518.311	735.69
518.527	697.69
518.742	696.69
518.958	670.69
519.173	716.69
519.389	685.69
519.605	669.69
519.82	657.69
520.036	676.69
520.251	687.69
520.467	700.69
520.682	697.69
520.898	703.69
521.113	733.69
521.329	743.69
521.544	819.69
521.76	1011.69
521.975	1668.69
522.19	1716.69
522.406	967.69
522.621	733.69
522.836	684.69
523.052	651.69
523.267	633.69
523.482	640.69
523.698	609.69
523.913	637.69
524.128	622.69
524.343	599.69
524.559	575.69
524.774	578.69
524.989	571.69
525.204	573.69
525.419	582.69
525.634	556.69
525.849	556.69
526.064	553.69
526.28	596.69
526.495	545.69
526.71	551.69
526.925	552.69
527.14	544.69
527.355	552.69
527.57	582.69
527.785	535.69
527.999	543.69
528.214	524.69
528.429	553.69
528.644	559.69
528.859	564.69
529.074	559.69
529.289	597.69
529.503	656.69
529.718	633.69
529.933	587.69
530.148	549.69
530.363	560.69
530.577	569.69
530.792	545.69
531.007	556.69
531.221	532.69
531.436	550.69
531.651	524.69
531.865	563.69
532.08	538.69
532.295	549.69
532.509	523.69
532.724	497.69
532.938	558.69
533.153	538.69
533.367	542.69
533.582	538.69
533.796	497.69
534.011	536.69
534.225	522.69
534.44	528.69
534.654	533.69
534.868	529.69
535.083	529.69
535.297	532.69
535.511	542.69
535.726	543.69
535.94	531.69
536.154	505.69
536.369	507.69
536.583	500.69
536.797	504.69
537.011	523.69
537.225	503.69
537.44	493.69
537.654	497.69
537.868	485.69
538.082	511.69
538.296	512.69
538.51	531.69
538.724	524.69
538.938	495.69
539.153	494.69
539.367	503.69
539.581	521.69
539.795	502.69
540.009	503.69
540.222	509.69
540.436	508.69
540.65	526.69
540.864	515.69
541.078	514.69
541.292	496.69
541.506	526.69
541.72	511.69
541.934	485.69
542.147	487.69
542.361	504.69
542.575	507.69
542.789	511.69
543.002	523.69
543.216	511.69
543.43	524.69
543.644	512.69
543.857	503.69
544.071	499.69
544.285	519.69
544.498	489.69
544.712	508.69
544.925	511.69
545.139	489.69
545.352	467.69
545.566	494.69
545.779	499.69
545.993	501.69
546.206	510.69
546.42	504.69
546.633	485.69
546.847	481.69
547.06	495.69
547.274	495.69
547.487	490.69
547.7	487.69
547.914	469.69
548.127	477.69
548.34	478.69
548.554	484.69
548.767	486.69
548.98	469.69
549.193	484.69
549.407	462.69
549.62	488.69
549.833	503.69
550.046	494.69
550.259	505.69
550.473	496.69
550.686	499.69
550.899	473.69
551.112	477.69
551.325	482.69
551.538	501.69
551.751	502.69
551.964	485.69
552.177	481.69
552.39	475.69
552.603	499.69
552.816	496.69
553.029	496.69
553.242	523.69
553.455	515.69
553.667	515.69
553.88	509.69
554.093	496.69
554.306	504.69
554.519	495.69
554.732	478.69
554.944	480.69
555.157	463.69
555.37	472.69
555.583	463.69
555.795	464.69
556.008	466.69
556.221	450.69
556.433	438.69
556.646	450.69
556.859	443.69
557.071	443.69
557.284	433.69
557.496	443.69
557.709	437.69
557.921	430.69
558.134	447.69
558.346	421.69
558.559	427.69
558.771	424.69
558.984	420.69
559.196	434.69
559.409	426.69
559.621	434.69
559.833	421.69
560.046	420.69
560.258	455.69
560.47	433.69
560.683	433.69
560.895	408.69
561.107	435.69
561.32	430.69
561.532	451.69
561.744	435.69
561.956	432.69
562.168	421.69
562.381	423.69
562.593	454.69
562.805	453.69
563.017	412.69
563.229	444.69
563.441	448.69
563.653	446.69
563.865	425.69
564.077	423.69
564.289	441.69
564.501	454.69
564.713	470.69
564.925	475.69
565.137	487.69
565.349	449.69
565.561	487.69
565.773	483.69
565.985	500.69
566.197	493.69
566.408	515.69
566.62	540.69
566.832	541.69
567.044	562.69
567.255	555.69
567.467	569.69
567.679	565.69
567.891	571.69
568.102	603.69
568.314	574.69
568.526	539.69
568.737	535.69
568.949	509.69
569.161	507.69
569.372	471.69
569.584	461.69
569.795	463.69
570.007	443.69
570.218	493.69
570.43	470.69
570.641	453.69
570.853	431.69
571.064	433.69
571.276	426.69
571.487	431.69
571.698	423.69
571.91	385.69
572.121	404.69
572.333	391.69
572.544	403.69
572.755	405.69
572.966	398.69
573.178	402.69
573.389	381.69
573.6	402.69
573.811	373.69
574.023	383.69
574.234	387.69
574.445	379.69
574.656	380.69
574.867	391.69
575.078	373.69
575.289	399.69
575.501	389.69
575.712	353.69
575.923	376.69
576.134	357.69
576.345	352.69
576.556	374.69
576.767	365.69
576.978	363.69
577.188	352.69
577.399	366.69
577.61	345.69
577.821	366.69
578.032	356.69
578.243	385.69
578.454	589.69
578.665	467.69
578.875	358.69
579.086	357.69
579.297	361.69
579.508	326.69
579.718	353.69
579.929	337.69
580.14	347.69
580.35	336.69
580.561	344.69
580.772	368.69
580.982	341.69
581.193	338.69
581.403	352.69
581.614	332.69
581.825	325.69
582.035	340.69
582.246	331.69
582.456	330.69
582.667	341.69
582.877	345.69
583.087	326.69
583.298	337.69
583.508	332.69
583.719	349.69
583.929	330.69
584.139	336.69
584.35	334.69
584.56	337.69
584.77	337.69
584.981	330.69
585.191	317.69
585.401	307.69
585.611	337.69
585.821	335.69
586.032	325.69
586.242	352.69
586.452	321.69
586.662	341.69
586.872	337.69
587.082	313.69
587.292	331.69
587.502	341.69
587.713	321.69
587.923	320.69
588.133	333.69
588.343	329.69
588.553	340.69
588.762	327.69
588.972	337.69
589.182	332.69
589.392	337.69
589.602	322.69
589.812	338.69
590.022	332.69
590.232	304.69
590.441	314.69
590.651	304.69
590.861	340.69
591.071	331.69
591.281	330.69
591.49	339.69
591.7	353.69
591.91	334.69
592.119	316.69
592.329	339.69
592.539	344.69
592.748	351.69
592.958	347.69
593.167	358.69
593.377	345.69
593.587	356.69
593.796	356.69
594.006	361.69
594.215	352.69
594.424	347.69
594.634	349.69
594.843	342.69
595.053	338.69
595.262	343.69
595.472	333.69
595.681	313.69
595.89	331.69
596.1	318.69
596.309	311.69
596.518	328.69
596.727	310.69
596.937	307.69
597.146	315.69
597.355	307.69
597.564	302.69
597.774	295.69
597.983	300.69
598.192	284.69
598.401	297.69
598.61	311.69
598.819	288.69
599.028	290.69
599.237	286.69
599.446	279.69
599.655	294.69
599.864	260.69
600.073	273.69
600.282	301.69
600.491	293.69
600.7	263.69
600.909	284.69
601.118	285.69
601.327	279.69
601.536	295.69
601.745	285.69
601.953	279.69
602.162	272.69
602.371	287.69
602.58	269.69
602.789	284.69
602.997	292.69
603.206	272.69
603.415	287.69
603.623	280.69
603.832	277.69
604.041	272.69
604.249	273.69
604.458	277.69
604.666	270.69
604.875	284.69
605.084	263.69
605.292	267.69
605.501	276.69
605.709	271.69
605.918	272.69
606.126	272.69
606.334	260.69
606.543	276.69
606.751	274.69
606.96	280.69
607.168	269.69
607.376	261.69
607.585	261.69
607.793	259.69
608.001	260.69
608.21	265.69
608.418	261.69
608.626	263.69
608.834	271.69
609.043	256.69
609.251	265.69
609.459	263.69
609.667	252.69
609.875	263.69
610.083	261.69
610.291	263.69
610.499	244.69
610.707	277.69
610.916	273.69
611.124	282.69
611.332	288.69
611.54	275.69
611.748	268.69
611.955	264.69
612.163	276.69
612.371	261.69
612.579	265.69
612.787	256.69
612.995	263.69
613.203	247.69
613.411	249.69
613.618	266.69
613.826	266.69
614.034	257.69
614.242	265.69
614.449	255.69
614.657	256.69
614.865	268.69
615.072	266.69
615.28	255.69
615.488	256.69
615.695	261.69
615.903	235.69
616.111	255.69
616.318	261.69
616.526	248.69
616.733	258.69
616.941	265.69
617.148	247.69
617.356	260.69
617.563	241.69
617.771	259.69
617.978	239.69
618.185	250.69
618.393	267.69
618.6	257.69
618.807	267.69
619.015	261.69
619.222	258.69
619.429	265.69
619.637	266.69
619.844	260.69
620.051	273.69
620.258	245.69
620.466	245.69
620.673	233.69
620.88	222.69
621.087	225.69
621.294	252.69
621.501	248.69
621.708	258.69
621.915	239.69
622.122	233.69
622.329	233.69
622.536	222.69
622.743	243.69
622.95	220.69
623.157	218.69
623.364	238.69
623.571	229.69
623.778	227.69
623.985	222.69
624.192	226.69
624.399	237.69
624.606	232.69
624.812	227.69
625.019	232.69
625.226	224.69
625.433	238.69
625.639	237.69
625.846	227.69
626.053	221.69
626.259	224.69
626.466	226.69
626.673	226.69
626.879	209.69
627.086	213.69
627.293	215.69
627.499	227.69
627.706	213.69
627.912	208.69
628.119	232.69
628.325	215.69
628.532	225.69
628.738	208.69
628.945	221.69
629.151	215.69
629.357	222.69
629.564	195.69
629.77	225.69
629.976	202.69
630.183	211.69
630.389	205.69
630.595	222.69
630.802	208.69
631.008	215.69
631.214	217.69
631.42	212.69
631.627	221.69
631.833	201.69
632.039	214.69
632.245	213.69
632.451	201.69
632.657	201.69
632.863	188.69
633.069	214.69
633.275	203.69
633.481	207.69
633.688	188.69
633.893	207.69
634.099	197.69
634.305	192.69
634.511	195.69
634.717	198.69
634.923	203.69
635.129	214.69
635.335	210.69
635.541	186.69
635.747	196.69
635.952	185.69
636.158	197.69
636.364	197.69
636.57	187.69
636.775	191.69
636.981	213.69
637.187	217.69
637.392	193.69
637.598	193.69
637.804	192.69
638.009	185.69
638.215	183.69
638.421	192.69
638.626	191.69
638.832	191.69
639.037	183.69
639.243	187.69
639.448	170.69
639.654	206.69
639.859	196.69
640.065	191.69
640.27	180.69
640.475	182.69
640.681	177.69
640.886	186.69
641.091	177.69
641.297	202.69
641.502	198.69
641.707	189.69
641.913	183.69
642.118	190.69
642.323	174.69
642.528	170.69
642.733	189.69
642.939	180.69
643.144	175.69
643.349	185.69
643.554	184.69
643.759	183.69
643.964	164.69
644.169	175.69
644.374	181.69
644.579	177.69
644.784	163.69
644.989	177.69
645.194	177.69
645.399	174.69
645.604	159.69
645.809	184.69
646.014	168.69
646.219	185.69
646.423	173.69
646.628	175.69
646.833	181.69
647.038	189.69
647.243	180.69
647.447	184.69
647.652	183.69
647.857	174.69
648.062	179.69
648.266	179.69
648.471	175.69
648.676	183.69
648.88	187.69
649.085	170.69
649.289	179.69
649.494	184.69
649.698	201.69
649.903	204.69
650.107	186.69
650.312	183.69
650.516	161.69
650.721	169.69
650.925	161.69
651.13	165.69
651.334	162.69
651.539	158.69
651.743	169.69
651.947	156.69
652.152	153.69
652.356	155.69
652.56	159.69
652.764	164.69
652.969	151.69
653.173	144.69
653.377	159.69
653.581	132.69
653.785	141.69
653.99	161.69
654.194	134.69
654.398	138.69
654.602	131.69
654.806	133.69
655.01	155.69
655.214	152.69
655.418	145.69
655.622	141.69
655.826	146.69
656.03	132.69
656.234	146.69
656.438	152.69
656.642	136.69
656.846	140.69
657.049	149.69
657.253	127.69
657.457	119.69
657.661	131.69
657.865	127.69
658.068	114.69
658.272	125.69
658.476	104.69
658.68	99.69
658.883	98.69
659.087	115.69
659.291	104.69
659.494	119.69
659.698	104.69
659.901	104.69
660.105	94.69
660.309	97.69
660.512	92.69
660.716	101.69
660.919	102.69
661.123	88.69
661.326	100.69
661.53	105.69
661.733	97.69
661.936	94.69
662.14	73.69
662.343	78.69
662.546	84.69
662.75	95.69
662.953	108.69
663.156	94.69
663.36	89.69
663.563	90.69
663.766	81.69
663.969	84.69
664.173	83.69
664.376	88.69
664.579	84.69
664.782	74.69
664.985	93.69
665.188	80.69
665.391	81.69
665.594	91.69
665.797	97.69
666	92.69
666.203	89.69
666.406	74.69
666.609	83.69
666.812	83.69
667.015	85.69
667.218	91.69
667.421	88.69
667.624	79.69
667.827	76.69
668.03	89.69
668.232	87.69
668.435	77.69
668.638	74.69
668.841	77.69
669.043	76.69
669.246	91.69
669.449	72.69
669.651	76.69
669.854	73.69
670.057	95.69
670.259	90.69
670.462	95.69
670.665	93.69
670.867	92.69
671.07	75.69
671.272	83.69
671.475	94.69
671.677	79.69
671.88	79.69
672.082	94.69
672.284	89.69
672.487	71.69
672.689	83.69
672.892	87.69
