Data from 1979.PennyLincolnUp.Lamp.En5.5.200Scan.071719.P1_HRD10591_16-18-48-863.txt Node
Date: Thu Jul 18 16:18:48 EDT 2019
User: cochatt
Spectrometer: HR+D1059
Trigger mode: 1
Integration Time (sec): 1.000000E-1
Scans to average: 1
Electric dark correction enabled: true
Nonlinearity correction enabled: false
Boxcar width: 0
XAxis mode: Wavelengths
Number of Pixels in Spectrum: 2048
>>>>>Begin Spectral Data<<<<<
223.165	-11.12
223.4	-11.12
223.635	-11.12
223.869	-11.12
224.104	-15.12
224.338	-25.12
224.573	-16.12
224.808	-13.12
225.042	-5.12
225.277	-9.12
225.511	-13.12
225.746	-5.12
225.98	3.88
226.215	7.88
226.449	35.88
226.683	13.88
226.918	33.88
227.152	28.88
227.387	40.88
227.621	41.88
227.856	46.88
228.09	44.88
228.324	45.88
228.559	60.88
228.793	76.88
229.027	90.88
229.262	97.88
229.496	105.88
229.73	126.88
229.964	138.88
230.199	136.88
230.433	107.88
230.667	126.88
230.901	101.88
231.136	123.88
231.37	127.88
231.604	106.88
231.838	109.88
232.072	97.88
232.306	126.88
232.541	123.88
232.775	134.88
233.009	120.88
233.243	120.88
233.477	115.88
233.711	102.88
233.945	112.88
234.179	103.88
234.413	131.88
234.647	116.88
234.881	121.88
235.115	119.88
235.349	124.88
235.583	110.88
235.817	125.88
236.051	111.88
236.285	130.88
236.519	127.88
236.753	106.88
236.987	128.88
237.221	166.88
237.455	195.88
237.689	158.88
237.922	118.88
238.156	106.88
238.39	122.88
238.624	132.88
238.858	121.88
239.091	118.88
239.325	118.88
239.559	135.88
239.793	125.88
240.027	131.88
240.26	144.88
240.494	136.88
240.728	148.88
240.961	143.88
241.195	146.88
241.429	136.88
241.662	142.88
241.896	129.88
242.13	124.88
242.363	130.88
242.597	126.88
242.83	134.88
243.064	122.88
243.298	115.88
243.531	138.88
243.765	134.88
243.998	144.88
244.232	136.88
244.465	146.88
244.699	138.88
244.932	150.88
245.166	134.88
245.399	149.88
245.633	162.88
245.866	139.88
246.099	147.88
246.333	144.88
246.566	138.88
246.8	140.88
247.033	153.88
247.266	149.88
247.5	158.88
247.733	156.88
247.966	165.88
248.2	159.88
248.433	144.88
248.666	151.88
248.899	162.88
249.133	186.88
249.366	185.88
249.599	175.88
249.832	162.88
250.066	169.88
250.299	153.88
250.532	189.88
250.765	169.88
250.998	190.88
251.231	191.88
251.465	199.88
251.698	183.88
251.931	188.88
252.164	184.88
252.397	179.88
252.63	185.88
252.863	181.88
253.096	194.88
253.329	188.88
253.562	200.88
253.795	204.88
254.028	190.88
254.261	204.88
254.494	210.88
254.727	237.88
254.96	249.88
255.193	222.88
255.426	242.88
255.659	202.88
255.892	204.88
256.124	201.88
256.357	212.88
256.59	176.88
256.823	196.88
257.056	197.88
257.289	186.88
257.521	164.88
257.754	190.88
257.987	185.88
258.22	201.88
258.452	184.88
258.685	194.88
258.918	185.88
259.151	179.88
259.383	206.88
259.616	198.88
259.849	204.88
260.081	227.88
260.314	216.88
260.547	235.88
260.779	215.88
261.012	202.88
261.244	200.88
261.477	212.88
261.71	207.88
261.942	219.88
262.175	222.88
262.407	210.88
262.64	221.88
262.872	196.88
263.105	204.88
263.337	183.88
263.57	198.88
263.802	184.88
264.035	192.88
264.267	188.88
264.499	209.88
264.732	212.88
264.964	214.88
265.197	211.88
265.429	213.88
265.661	197.88
265.894	211.88
266.126	203.88
266.358	205.88
266.591	208.88
266.823	194.88
267.055	204.88
267.287	218.88
267.52	200.88
267.752	201.88
267.984	190.88
268.216	207.88
268.448	192.88
268.681	214.88
268.913	198.88
269.145	232.88
269.377	261.88
269.609	239.88
269.841	244.88
270.073	244.88
270.306	251.88
270.538	268.88
270.77	272.88
271.002	259.88
271.234	246.88
271.466	284.88
271.698	280.88
271.93	250.88
272.162	278.88
272.394	280.88
272.626	256.88
272.858	257.88
273.09	253.88
273.322	250.88
273.553	230.88
273.785	248.88
274.017	246.88
274.249	235.88
274.481	244.88
274.713	240.88
274.945	238.88
275.176	251.88
275.408	229.88
275.64	256.88
275.872	249.88
276.104	245.88
276.335	242.88
276.567	251.88
276.799	271.88
277.031	279.88
277.262	278.88
277.494	298.88
277.726	267.88
277.957	256.88
278.189	262.88
278.421	234.88
278.652	229.88
278.884	249.88
279.115	231.88
279.347	267.88
279.579	256.88
279.81	252.88
280.042	256.88
280.273	254.88
280.505	248.88
280.736	251.88
280.968	277.88
281.199	250.88
281.431	270.88
281.662	242.88
281.894	247.88
282.125	251.88
282.356	263.88
282.588	286.88
282.819	265.88
283.051	281.88
283.282	265.88
283.513	259.88
283.745	238.88
283.976	234.88
284.207	238.88
284.439	272.88
284.67	252.88
284.901	268.88
285.132	253.88
285.364	271.88
285.595	259.88
285.826	263.88
286.057	278.88
286.288	282.88
286.52	261.88
286.751	266.88
286.982	263.88
287.213	277.88
287.444	244.88
287.675	264.88
287.906	283.88
288.138	298.88
288.369	281.88
288.6	272.88
288.831	261.88
289.062	264.88
289.293	273.88
289.524	252.88
289.755	252.88
289.986	280.88
290.217	249.88
290.448	274.88
290.679	285.88
290.91	275.88
291.141	269.88
291.371	280.88
291.602	270.88
291.833	269.88
292.064	263.88
292.295	288.88
292.526	263.88
292.757	275.88
292.987	278.88
293.218	269.88
293.449	271.88
293.68	261.88
293.91	262.88
294.141	284.88
294.372	288.88
294.603	302.88
294.833	282.88
295.064	278.88
295.295	281.88
295.525	279.88
295.756	278.88
295.987	288.88
296.217	298.88
296.448	325.88
296.679	292.88
296.909	267.88
297.14	278.88
297.37	276.88
297.601	300.88
297.831	288.88
298.062	282.88
298.292	299.88
298.523	271.88
298.753	280.88
298.984	296.88
299.214	295.88
299.445	298.88
299.675	293.88
299.905	301.88
300.136	301.88
300.366	296.88
300.597	314.88
300.827	306.88
301.057	311.88
301.288	306.88
301.518	311.88
301.748	312.88
301.979	310.88
302.209	307.88
302.439	316.88
302.669	313.88
302.9	304.88
303.13	312.88
303.36	329.88
303.59	333.88
303.82	316.88
304.051	326.88
304.281	310.88
304.511	300.88
304.741	304.88
304.971	301.88
305.201	318.88
305.431	318.88
305.661	320.88
305.891	315.88
306.121	304.88
306.352	319.88
306.582	324.88
306.812	312.88
307.042	317.88
307.272	325.88
307.502	319.88
307.731	316.88
307.961	317.88
308.191	322.88
308.421	308.88
308.651	318.88
308.881	316.88
309.111	320.88
309.341	322.88
309.571	337.88
309.8	340.88
310.03	351.88
310.26	342.88
310.49	347.88
310.72	341.88
310.949	359.88
311.179	363.88
311.409	342.88
311.639	338.88
311.868	342.88
312.098	365.88
312.328	359.88
312.557	345.88
312.787	374.88
313.017	371.88
313.246	362.88
313.476	355.88
313.706	350.88
313.935	373.88
314.165	366.88
314.394	370.88
314.624	396.88
314.853	367.88
315.083	362.88
315.312	366.88
315.542	350.88
315.771	355.88
316.001	342.88
316.23	343.88
316.46	348.88
316.689	352.88
316.919	348.88
317.148	381.88
317.377	351.88
317.607	345.88
317.836	348.88
318.065	357.88
318.295	348.88
318.524	352.88
318.753	358.88
318.983	354.88
319.212	364.88
319.441	353.88
319.67	361.88
319.9	348.88
320.129	363.88
320.358	373.88
320.587	378.88
320.816	361.88
321.046	372.88
321.275	388.88
321.504	381.88
321.733	378.88
321.962	375.88
322.191	380.88
322.42	396.88
322.649	395.88
322.878	431.88
323.108	414.88
323.337	444.88
323.566	446.88
323.795	485.88
324.024	491.88
324.253	596.88
324.482	832.88
324.71	1299.88
324.939	1869.88
325.168	1711.88
325.397	855.88
325.626	583.88
325.855	498.88
326.084	456.88
326.313	470.88
326.542	455.88
326.77	488.88
326.999	570.88
327.228	778.88
327.457	1181.88
327.686	1463.88
327.914	956.88
328.143	626.88
328.372	558.88
328.6	532.88
328.829	514.88
329.058	482.88
329.287	508.88
329.515	480.88
329.744	470.88
329.972	469.88
330.201	469.88
330.43	510.88
330.658	539.88
330.887	537.88
331.115	541.88
331.344	473.88
331.572	446.88
331.801	450.88
332.03	456.88
332.258	436.88
332.486	450.88
332.715	428.88
332.943	424.88
333.172	439.88
333.4	437.88
333.629	471.88
333.857	464.88
334.085	476.88
334.314	475.88
334.542	494.88
334.771	517.88
334.999	476.88
335.227	474.88
335.455	464.88
335.684	447.88
335.912	427.88
336.14	434.88
336.369	434.88
336.597	430.88
336.825	427.88
337.053	432.88
337.281	422.88
337.51	408.88
337.738	422.88
337.966	404.88
338.194	439.88
338.422	438.88
338.65	440.88
338.878	427.88
339.106	410.88
339.334	412.88
339.562	426.88
339.79	406.88
340.018	414.88
340.246	403.88
340.474	399.88
340.702	394.88
340.93	416.88
341.158	398.88
341.386	422.88
341.614	403.88
341.842	410.88
342.07	402.88
342.298	400.88
342.526	418.88
342.754	396.88
342.981	399.88
343.209	401.88
343.437	397.88
343.665	393.88
343.893	431.88
344.12	445.88
344.348	442.88
344.576	414.88
344.804	430.88
345.031	435.88
345.259	426.88
345.487	407.88
345.714	424.88
345.942	430.88
346.17	410.88
346.397	396.88
346.625	378.88
346.853	390.88
347.08	404.88
347.308	417.88
347.535	413.88
347.763	422.88
347.99	426.88
348.218	387.88
348.445	394.88
348.673	424.88
348.9	419.88
349.128	400.88
349.355	397.88
349.583	398.88
349.81	389.88
350.037	384.88
350.265	390.88
350.492	364.88
350.72	386.88
350.947	400.88
351.174	393.88
351.402	400.88
351.629	412.88
351.856	411.88
352.083	412.88
352.311	415.88
352.538	416.88
352.765	409.88
352.992	390.88
353.22	395.88
353.447	395.88
353.674	409.88
353.901	386.88
354.128	382.88
354.355	361.88
354.583	377.88
354.81	382.88
355.037	378.88
355.264	395.88
355.491	388.88
355.718	387.88
355.945	378.88
356.172	387.88
356.399	384.88
356.626	391.88
356.853	381.88
357.08	387.88
357.307	382.88
357.534	380.88
357.761	412.88
357.988	390.88
358.215	379.88
358.441	361.88
358.668	388.88
358.895	378.88
359.122	379.88
359.349	392.88
359.576	401.88
359.802	412.88
360.029	450.88
360.256	464.88
360.483	430.88
360.709	430.88
360.936	405.88
361.163	408.88
361.39	409.88
361.616	424.88
361.843	409.88
362.07	392.88
362.296	416.88
362.523	410.88
362.749	399.88
362.976	388.88
363.203	382.88
363.429	395.88
363.656	410.88
363.882	405.88
364.109	382.88
364.335	389.88
364.562	387.88
364.788	375.88
365.015	389.88
365.241	391.88
365.468	383.88
365.694	394.88
365.92	378.88
366.147	394.88
366.373	406.88
366.599	391.88
366.826	377.88
367.052	383.88
367.278	396.88
367.505	403.88
367.731	391.88
367.957	374.88
368.184	399.88
368.41	392.88
368.636	390.88
368.862	425.88
369.089	389.88
369.315	383.88
369.541	399.88
369.767	412.88
369.993	400.88
370.219	394.88
370.445	400.88
370.672	403.88
370.898	392.88
371.124	421.88
371.35	391.88
371.576	415.88
371.802	379.88
372.028	413.88
372.254	373.88
372.48	418.88
372.706	383.88
372.932	410.88
373.158	394.88
373.384	389.88
373.61	401.88
373.835	418.88
374.061	410.88
374.287	404.88
374.513	405.88
374.739	413.88
374.965	410.88
375.191	410.88
375.416	419.88
375.642	397.88
375.868	422.88
376.094	390.88
376.319	396.88
376.545	392.88
376.771	399.88
376.997	407.88
377.222	410.88
377.448	395.88
377.674	396.88
377.899	390.88
378.125	400.88
378.35	396.88
378.576	397.88
378.802	388.88
379.027	404.88
379.253	392.88
379.478	408.88
379.704	400.88
379.929	398.88
380.155	406.88
380.38	398.88
380.606	398.88
380.831	384.88
381.057	404.88
381.282	393.88
381.507	412.88
381.733	409.88
381.958	411.88
382.184	422.88
382.409	416.88
382.634	423.88
382.86	420.88
383.085	423.88
383.31	413.88
383.535	430.88
383.761	410.88
383.986	404.88
384.211	416.88
384.436	425.88
384.662	434.88
384.887	435.88
385.112	439.88
385.337	427.88
385.562	451.88
385.787	446.88
386.013	450.88
386.238	453.88
386.463	431.88
386.688	474.88
386.913	445.88
387.138	456.88
387.363	444.88
387.588	447.88
387.813	463.88
388.038	430.88
388.263	456.88
388.488	443.88
388.713	481.88
388.938	466.88
389.163	448.88
389.387	462.88
389.612	437.88
389.837	450.88
390.062	434.88
390.287	464.88
390.512	447.88
390.736	446.88
390.961	459.88
391.186	450.88
391.411	458.88
391.636	468.88
391.86	461.88
392.085	476.88
392.31	457.88
392.534	460.88
392.759	468.88
392.984	465.88
393.208	464.88
393.433	480.88
393.658	459.88
393.882	468.88
394.107	453.88
394.331	474.88
394.556	454.88
394.78	462.88
395.005	465.88
395.229	483.88
395.454	476.88
395.678	487.88
395.903	495.88
396.127	507.88
396.352	487.88
396.576	487.88
396.801	464.88
397.025	473.88
397.249	478.88
397.474	482.88
397.698	490.88
397.922	485.88
398.147	524.88
398.371	542.88
398.595	528.88
398.82	515.88
399.044	556.88
399.268	560.88
399.492	590.88
399.717	603.88
399.941	627.88
400.165	658.88
400.389	656.88
400.613	600.88
400.837	575.88
401.062	544.88
401.286	559.88
401.51	531.88
401.734	532.88
401.958	513.88
402.182	533.88
402.406	557.88
402.63	568.88
402.854	530.88
403.078	548.88
403.302	536.88
403.526	542.88
403.75	535.88
403.974	552.88
404.198	539.88
404.422	566.88
404.645	559.88
404.869	571.88
405.093	598.88
405.317	648.88
405.541	676.88
405.765	598.88
405.988	575.88
406.212	592.88
406.436	623.88
406.66	616.88
406.883	600.88
407.107	644.88
407.331	674.88
407.555	729.88
407.778	726.88
408.002	663.88
408.226	610.88
408.449	606.88
408.673	612.88
408.896	628.88
409.12	661.88
409.344	625.88
409.567	590.88
409.791	581.88
410.014	579.88
410.238	566.88
410.461	582.88
410.685	569.88
410.908	586.88
411.132	613.88
411.355	635.88
411.578	606.88
411.802	572.88
412.025	553.88
412.249	560.88
412.472	586.88
412.695	623.88
412.919	602.88
413.142	575.88
413.365	568.88
413.589	545.88
413.812	514.88
414.035	526.88
414.258	521.88
414.482	550.88
414.705	532.88
414.928	529.88
415.151	527.88
415.374	519.88
415.597	528.88
415.821	538.88
416.044	516.88
416.267	527.88
416.49	511.88
416.713	526.88
416.936	533.88
417.159	538.88
417.382	538.88
417.605	546.88
417.828	537.88
418.051	551.88
418.274	540.88
418.497	538.88
418.72	542.88
418.943	537.88
419.166	544.88
419.389	595.88
419.611	589.88
419.834	542.88
420.057	553.88
420.28	545.88
420.503	555.88
420.726	532.88
420.948	568.88
421.171	598.88
421.394	633.88
421.617	570.88
421.839	544.88
422.062	550.88
422.285	583.88
422.507	613.88
422.73	672.88
422.953	665.88
423.175	617.88
423.398	586.88
423.621	569.88
423.843	578.88
424.066	593.88
424.288	596.88
424.511	603.88
424.733	645.88
424.956	709.88
425.178	688.88
425.401	683.88
425.623	716.88
425.846	633.88
426.068	586.88
426.291	572.88
426.513	575.88
426.735	587.88
426.958	612.88
427.18	668.88
427.402	811.88
427.625	898.88
427.847	780.88
428.069	687.88
428.292	607.88
428.514	573.88
428.736	540.88
428.958	538.88
429.181	537.88
429.403	540.88
429.625	556.88
429.847	564.88
430.069	633.88
430.292	628.88
430.514	532.88
430.736	530.88
430.958	524.88
431.18	501.88
431.402	518.88
431.624	530.88
431.846	532.88
432.068	496.88
432.29	521.88
432.512	527.88
432.734	520.88
432.956	537.88
433.178	535.88
433.4	528.88
433.622	526.88
433.844	524.88
434.066	512.88
434.287	515.88
434.509	508.88
434.731	522.88
434.953	538.88
435.175	551.88
435.397	572.88
435.618	571.88
435.84	615.88
436.062	712.88
436.284	749.88
436.505	620.88
436.727	578.88
436.949	546.88
437.17	541.88
437.392	545.88
437.614	550.88
437.835	562.88
438.057	625.88
438.278	742.88
438.5	744.88
438.721	795.88
438.943	796.88
439.165	636.88
439.386	599.88
439.608	570.88
439.829	590.88
440.05	599.88
440.272	642.88
440.493	610.88
440.715	559.88
440.936	557.88
441.158	551.88
441.379	553.88
441.6	541.88
441.822	587.88
442.043	624.88
442.264	679.88
442.486	740.88
442.707	643.88
442.928	601.88
443.149	595.88
443.371	623.88
443.592	641.88
443.813	733.88
444.034	800.88
444.255	682.88
444.476	610.88
444.698	603.88
444.919	589.88
445.14	693.88
445.361	655.88
445.582	600.88
445.803	676.88
446.024	756.88
446.245	772.88
446.466	696.88
446.687	594.88
446.908	583.88
447.129	560.88
447.35	547.88
447.571	522.88
447.792	525.88
448.013	521.88
448.234	553.88
448.455	570.88
448.675	685.88
448.896	785.88
449.117	669.88
449.338	634.88
449.559	748.88
449.779	812.88
450	670.88
450.221	560.88
450.442	522.88
450.662	495.88
450.883	512.88
451.104	526.88
451.324	533.88
451.545	493.88
451.766	475.88
451.986	487.88
452.207	496.88
452.428	473.88
452.648	470.88
452.869	483.88
453.089	484.88
453.31	505.88
453.53	503.88
453.751	483.88
453.971	480.88
454.192	507.88
454.412	485.88
454.633	479.88
454.853	467.88
455.073	469.88
455.294	514.88
455.514	557.88
455.734	568.88
455.955	479.88
456.175	472.88
456.395	454.88
456.616	467.88
456.836	447.88
457.056	447.88
457.276	449.88
457.497	462.88
457.717	445.88
457.937	461.88
458.157	446.88
458.377	484.88
458.598	503.88
458.818	524.88
459.038	609.88
459.258	635.88
459.478	567.88
459.698	493.88
459.918	500.88
460.138	539.88
460.358	534.88
460.578	538.88
460.798	562.88
461.018	554.88
461.238	536.88
461.458	540.88
461.678	542.88
461.898	555.88
462.118	521.88
462.338	562.88
462.558	564.88
462.777	582.88
462.997	585.88
463.217	616.88
463.437	611.88
463.657	600.88
463.876	587.88
464.096	576.88
464.316	598.88
464.536	594.88
464.755	562.88
464.975	592.88
465.195	603.88
465.414	669.88
465.634	614.88
465.854	567.88
466.073	531.88
466.293	518.88
466.512	511.88
466.732	484.88
466.951	508.88
467.171	494.88
467.391	503.88
467.61	513.88
467.829	530.88
468.049	502.88
468.268	511.88
468.488	502.88
468.707	495.88
468.927	479.88
469.146	479.88
469.365	499.88
469.585	500.88
469.804	486.88
470.023	472.88
470.243	521.88
470.462	526.88
470.681	500.88
470.901	535.88
471.12	514.88
471.339	514.88
471.558	496.88
471.777	514.88
471.997	503.88
472.216	505.88
472.435	522.88
472.654	524.88
472.873	533.88
473.092	506.88
473.311	485.88
473.53	487.88
473.749	521.88
473.968	534.88
474.187	620.88
474.406	632.88
474.625	536.88
474.844	498.88
475.063	498.88
475.282	519.88
475.501	525.88
475.72	512.88
475.939	511.88
476.158	499.88
476.377	512.88
476.596	501.88
476.814	541.88
477.033	532.88
477.252	531.88
477.471	534.88
477.69	537.88
477.908	559.88
478.127	564.88
478.346	565.88
478.564	564.88
478.783	575.88
479.002	568.88
479.22	572.88
479.439	580.88
479.658	616.88
479.876	623.88
480.095	592.88
480.313	628.88
480.532	638.88
480.751	595.88
480.969	630.88
481.188	670.88
481.406	690.88
481.624	640.88
481.843	624.88
482.061	575.88
482.28	579.88
482.498	585.88
482.717	598.88
482.935	626.88
483.153	574.88
483.372	595.88
483.59	609.88
483.808	591.88
484.027	587.88
484.245	612.88
484.463	588.88
484.681	612.88
484.9	614.88
485.118	592.88
485.336	615.88
485.554	618.88
485.772	600.88
485.99	610.88
486.209	599.88
486.427	614.88
486.645	629.88
486.863	644.88
487.081	618.88
487.299	635.88
487.517	621.88
487.735	582.88
487.953	620.88
488.171	627.88
488.389	642.88
488.607	623.88
488.825	642.88
489.043	642.88
489.261	624.88
489.479	639.88
489.696	658.88
489.914	642.88
490.132	658.88
490.35	636.88
490.568	661.88
490.786	667.88
491.003	674.88
491.221	678.88
491.439	694.88
491.657	677.88
491.874	700.88
492.092	701.88
492.31	696.88
492.527	695.88
492.745	719.88
492.963	721.88
493.18	706.88
493.398	717.88
493.615	714.88
493.833	715.88
494.05	727.88
494.268	721.88
494.485	722.88
494.703	715.88
494.92	716.88
495.138	715.88
495.355	719.88
495.573	728.88
495.79	722.88
496.008	739.88
496.225	717.88
496.442	735.88
496.66	755.88
496.877	714.88
497.094	762.88
497.312	758.88
497.529	782.88
497.746	798.88
497.963	814.88
498.181	809.88
498.398	831.88
498.615	850.88
498.832	883.88
499.049	878.88
499.267	920.88
499.484	983.88
499.701	1007.88
499.918	1016.88
500.135	1092.88
500.352	1142.88
500.569	1157.88
500.786	1144.88
501.003	1126.88
501.22	1094.88
501.437	1061.88
501.654	997.88
501.871	1009.88
502.088	979.88
502.305	922.88
502.522	888.88
502.739	862.88
502.956	852.88
503.172	801.88
503.389	810.88
503.606	782.88
503.823	795.88
504.04	780.88
504.256	766.88
504.473	778.88
504.69	770.88
504.907	765.88
505.123	733.88
505.34	740.88
505.557	711.88
505.773	712.88
505.99	696.88
506.207	717.88
506.423	704.88
506.64	695.88
506.856	686.88
507.073	703.88
507.289	685.88
507.506	703.88
507.722	670.88
507.939	722.88
508.155	688.88
508.372	671.88
508.588	658.88
508.805	681.88
509.021	687.88
509.238	663.88
509.454	661.88
509.67	649.88
509.887	644.88
510.103	657.88
510.319	681.88
510.536	723.88
510.752	1174.88
510.968	995.88
511.184	683.88
511.401	617.88
511.617	642.88
511.833	631.88
512.049	621.88
512.265	627.88
512.481	646.88
512.698	628.88
512.914	628.88
513.13	597.88
513.346	610.88
513.562	619.88
513.778	625.88
513.994	618.88
514.21	635.88
514.426	680.88
514.642	702.88
514.858	714.88
515.074	766.88
515.29	842.88
515.506	1229.88
515.721	1015.88
515.937	732.88
516.153	690.88
516.369	683.88
516.585	666.88
516.801	652.88
517.016	657.88
517.232	677.88
517.448	690.88
517.664	682.88
517.879	706.88
518.095	701.88
518.311	692.88
518.527	691.88
518.742	680.88
518.958	640.88
519.173	654.88
519.389	639.88
519.605	627.88
519.82	617.88
520.036	640.88
520.251	683.88
520.467	682.88
520.682	650.88
520.898	677.88
521.113	660.88
521.329	693.88
521.544	779.88
521.76	939.88
521.975	1577.88
522.19	1567.88
522.406	908.88
522.621	701.88
522.836	649.88
523.052	630.88
523.267	584.88
523.482	588.88
523.698	563.88
523.913	587.88
524.128	584.88
524.343	597.88
524.559	571.88
524.774	564.88
524.989	574.88
525.204	575.88
525.419	585.88
525.634	555.88
525.849	543.88
526.064	544.88
526.28	534.88
526.495	544.88
526.71	539.88
526.925	527.88
527.14	534.88
527.355	558.88
527.57	540.88
527.785	526.88
527.999	533.88
528.214	527.88
528.429	536.88
528.644	537.88
528.859	514.88
529.074	538.88
529.289	552.88
529.503	617.88
529.718	599.88
529.933	538.88
530.148	564.88
530.363	529.88
530.577	536.88
530.792	532.88
531.007	520.88
531.221	539.88
531.436	511.88
531.651	525.88
531.865	518.88
532.08	518.88
532.295	527.88
532.509	519.88
532.724	494.88
532.938	489.88
533.153	522.88
533.367	525.88
533.582	516.88
533.796	500.88
534.011	511.88
534.225	519.88
534.44	506.88
534.654	505.88
534.868	498.88
535.083	515.88
535.297	510.88
535.511	509.88
535.726	503.88
535.94	507.88
536.154	526.88
536.369	489.88
536.583	476.88
536.797	498.88
537.011	500.88
537.225	479.88
537.44	471.88
537.654	482.88
537.868	492.88
538.082	482.88
538.296	486.88
538.51	488.88
538.724	485.88
538.938	465.88
539.153	475.88
539.367	488.88
539.581	499.88
539.795	470.88
540.009	488.88
540.222	485.88
540.436	476.88
540.65	502.88
540.864	487.88
541.078	483.88
541.292	482.88
541.506	464.88
541.72	490.88
541.934	494.88
542.147	483.88
542.361	481.88
542.575	494.88
542.789	493.88
543.002	467.88
543.216	490.88
543.43	479.88
543.644	493.88
543.857	491.88
544.071	490.88
544.285	492.88
544.498	464.88
544.712	491.88
544.925	478.88
545.139	471.88
545.352	477.88
545.566	480.88
545.779	465.88
545.993	473.88
546.206	504.88
546.42	472.88
546.633	448.88
546.847	473.88
547.06	472.88
547.274	463.88
547.487	473.88
547.7	468.88
547.914	477.88
548.127	467.88
548.34	478.88
548.554	473.88
548.767	496.88
548.98	488.88
549.193	461.88
549.407	463.88
549.62	479.88
549.833	464.88
550.046	464.88
550.259	474.88
550.473	457.88
550.686	510.88
550.899	452.88
551.112	459.88
551.325	459.88
551.538	464.88
551.751	464.88
551.964	484.88
552.177	472.88
552.39	462.88
552.603	462.88
552.816	467.88
553.029	485.88
553.242	490.88
553.455	463.88
553.667	491.88
553.88	501.88
554.093	497.88
554.306	470.88
554.519	482.88
554.732	454.88
554.944	448.88
555.157	455.88
555.37	461.88
555.583	444.88
555.795	447.88
556.008	436.88
556.221	428.88
556.433	424.88
556.646	424.88
556.859	426.88
557.071	445.88
557.284	438.88
557.496	428.88
557.709	434.88
557.921	436.88
558.134	427.88
558.346	421.88
558.559	430.88
558.771	419.88
558.984	439.88
559.196	419.88
559.409	421.88
559.621	424.88
559.833	402.88
560.046	421.88
560.258	418.88
560.47	411.88
560.683	438.88
560.895	426.88
561.107	425.88
561.32	438.88
561.532	400.88
561.744	418.88
561.956	413.88
562.168	408.88
562.381	424.88
562.593	419.88
562.805	431.88
563.017	423.88
563.229	414.88
563.441	426.88
563.653	431.88
563.865	424.88
564.077	441.88
564.289	426.88
564.501	417.88
564.713	463.88
564.925	468.88
565.137	459.88
565.349	474.88
565.561	467.88
565.773	470.88
565.985	470.88
566.197	493.88
566.408	493.88
566.62	514.88
566.832	540.88
567.044	541.88
567.255	556.88
567.467	552.88
567.679	546.88
567.891	558.88
568.102	564.88
568.314	543.88
568.526	546.88
568.737	513.88
568.949	524.88
569.161	471.88
569.372	451.88
569.584	434.88
569.795	436.88
570.007	457.88
570.218	474.88
570.43	455.88
570.641	421.88
570.853	414.88
571.064	410.88
571.276	421.88
571.487	407.88
571.698	402.88
571.91	385.88
572.121	381.88
572.333	388.88
572.544	388.88
572.755	400.88
572.966	371.88
573.178	390.88
573.389	380.88
573.6	368.88
573.811	359.88
574.023	361.88
574.234	355.88
574.445	368.88
574.656	386.88
574.867	353.88
575.078	359.88
575.289	351.88
575.501	355.88
575.712	349.88
575.923	379.88
576.134	352.88
576.345	355.88
576.556	370.88
576.767	372.88
576.978	358.88
577.188	372.88
577.399	342.88
577.61	339.88
577.821	358.88
578.032	347.88
578.243	389.88
578.454	570.88
578.665	447.88
578.875	359.88
579.086	348.88
579.297	351.88
579.508	330.88
579.718	335.88
579.929	342.88
580.14	317.88
580.35	314.88
580.561	323.88
580.772	342.88
580.982	335.88
581.193	333.88
581.403	347.88
581.614	314.88
581.825	350.88
582.035	329.88
582.246	323.88
582.456	338.88
582.667	314.88
582.877	324.88
583.087	308.88
583.298	319.88
583.508	312.88
583.719	342.88
583.929	349.88
584.139	315.88
584.35	326.88
584.56	319.88
584.77	324.88
584.981	318.88
585.191	306.88
585.401	303.88
585.611	307.88
585.821	331.88
586.032	325.88
586.242	315.88
586.452	312.88
586.662	331.88
586.872	306.88
587.082	316.88
587.292	323.88
587.502	320.88
587.713	314.88
587.923	323.88
588.133	323.88
588.343	314.88
588.553	306.88
588.762	322.88
588.972	317.88
589.182	340.88
589.392	348.88
589.602	326.88
589.812	318.88
590.022	341.88
590.232	322.88
590.441	326.88
590.651	313.88
590.861	310.88
591.071	308.88
591.281	317.88
591.49	317.88
591.7	341.88
591.91	324.88
592.119	345.88
592.329	320.88
592.539	338.88
592.748	334.88
592.958	335.88
593.167	333.88
593.377	342.88
593.587	361.88
593.796	353.88
594.006	324.88
594.215	335.88
594.424	332.88
594.634	348.88
594.843	331.88
595.053	338.88
595.262	326.88
595.472	321.88
595.681	327.88
595.89	321.88
596.1	327.88
596.309	318.88
596.518	310.88
596.727	316.88
596.937	308.88
597.146	291.88
597.355	312.88
597.564	305.88
597.774	312.88
597.983	310.88
598.192	298.88
598.401	282.88
598.61	279.88
598.819	290.88
599.028	282.88
599.237	274.88
599.446	282.88
599.655	286.88
599.864	276.88
600.073	272.88
600.282	289.88
600.491	282.88
600.7	276.88
600.909	262.88
601.118	270.88
601.327	278.88
601.536	277.88
601.745	262.88
601.953	269.88
602.162	266.88
602.371	258.88
602.58	266.88
602.789	280.88
602.997	272.88
603.206	291.88
603.415	276.88
603.623	253.88
603.832	260.88
604.041	272.88
604.249	260.88
604.458	268.88
604.666	255.88
604.875	247.88
605.084	262.88
605.292	248.88
605.501	259.88
605.709	242.88
605.918	251.88
606.126	266.88
606.334	256.88
606.543	262.88
606.751	249.88
606.96	260.88
607.168	251.88
607.376	243.88
607.585	269.88
607.793	258.88
608.001	279.88
608.21	259.88
608.418	263.88
608.626	258.88
608.834	270.88
609.043	260.88
609.251	264.88
609.459	248.88
609.667	257.88
609.875	267.88
610.083	250.88
610.291	261.88
610.499	264.88
610.707	256.88
610.916	256.88
611.124	260.88
611.332	251.88
611.54	246.88
611.748	254.88
611.955	255.88
612.163	264.88
612.371	246.88
612.579	245.88
612.787	256.88
612.995	254.88
613.203	261.88
613.411	257.88
613.618	248.88
613.826	261.88
614.034	255.88
614.242	250.88
614.449	240.88
614.657	236.88
614.865	240.88
615.072	252.88
615.28	246.88
615.488	244.88
615.695	240.88
615.903	263.88
616.111	261.88
616.318	234.88
616.526	278.88
616.733	246.88
616.941	242.88
617.148	248.88
617.356	270.88
617.563	262.88
617.771	248.88
617.978	235.88
618.185	254.88
618.393	236.88
618.6	259.88
618.807	223.88
619.015	237.88
619.222	248.88
619.429	239.88
619.637	230.88
619.844	239.88
620.051	238.88
620.258	234.88
620.466	224.88
620.673	214.88
620.88	231.88
621.087	224.88
621.294	236.88
621.501	239.88
621.708	220.88
621.915	238.88
622.122	238.88
622.329	222.88
622.536	228.88
622.743	219.88
622.95	229.88
623.157	235.88
623.364	238.88
623.571	236.88
623.778	224.88
623.985	213.88
624.192	213.88
624.399	229.88
624.606	230.88
624.812	208.88
625.019	214.88
625.226	222.88
625.433	216.88
625.639	221.88
625.846	206.88
626.053	219.88
626.259	222.88
626.466	210.88
626.673	214.88
626.879	216.88
627.086	214.88
627.293	203.88
627.499	204.88
627.706	226.88
627.912	212.88
628.119	209.88
628.325	227.88
628.532	208.88
628.738	191.88
628.945	201.88
629.151	217.88
629.357	201.88
629.564	200.88
629.77	215.88
629.976	206.88
630.183	217.88
630.389	198.88
630.595	203.88
630.802	208.88
631.008	181.88
631.214	208.88
631.42	212.88
631.627	196.88
631.833	191.88
632.039	201.88
632.245	186.88
632.451	192.88
632.657	199.88
632.863	199.88
633.069	199.88
633.275	208.88
633.481	179.88
633.688	194.88
633.893	203.88
634.099	184.88
634.305	197.88
634.511	201.88
634.717	192.88
634.923	174.88
635.129	185.88
635.335	187.88
635.541	200.88
635.747	188.88
635.952	189.88
636.158	208.88
636.364	193.88
636.57	169.88
636.775	191.88
636.981	172.88
637.187	206.88
637.392	182.88
637.598	187.88
637.804	183.88
638.009	186.88
638.215	191.88
638.421	189.88
638.626	174.88
638.832	199.88
639.037	165.88
639.243	169.88
639.448	174.88
639.654	179.88
639.859	197.88
640.065	178.88
640.27	186.88
640.475	183.88
640.681	181.88
640.886	188.88
641.091	167.88
641.297	171.88
641.502	192.88
641.707	178.88
641.913	178.88
642.118	178.88
642.323	169.88
642.528	175.88
642.733	181.88
642.939	165.88
643.144	155.88
643.349	183.88
643.554	180.88
643.759	159.88
643.964	179.88
644.169	178.88
644.374	163.88
644.579	167.88
644.784	171.88
644.989	186.88
645.194	171.88
645.399	175.88
645.604	187.88
645.809	173.88
646.014	158.88
646.219	170.88
646.423	175.88
646.628	179.88
646.833	180.88
647.038	179.88
647.243	181.88
647.447	172.88
647.652	182.88
647.857	173.88
648.062	176.88
648.266	160.88
648.471	180.88
648.676	190.88
648.88	190.88
649.085	174.88
649.289	174.88
649.494	177.88
649.698	195.88
649.903	195.88
650.107	168.88
650.312	180.88
650.516	158.88
650.721	166.88
650.925	158.88
651.13	167.88
651.334	162.88
651.539	150.88
651.743	156.88
651.947	160.88
652.152	144.88
652.356	169.88
652.56	156.88
652.764	153.88
652.969	147.88
653.173	148.88
653.377	145.88
653.581	140.88
653.785	143.88
653.99	152.88
654.194	145.88
654.398	144.88
654.602	122.88
654.806	139.88
655.01	149.88
655.214	158.88
655.418	139.88
655.622	134.88
655.826	135.88
656.03	142.88
656.234	134.88
656.438	153.88
656.642	144.88
656.846	136.88
657.049	138.88
657.253	146.88
657.457	108.88
657.661	121.88
657.865	116.88
658.068	126.88
658.272	119.88
658.476	118.88
658.68	111.88
658.883	100.88
659.087	117.88
659.291	102.88
659.494	94.88
659.698	100.88
659.901	105.88
660.105	78.88
660.309	96.88
660.512	92.88
660.716	96.88
660.919	105.88
661.123	85.88
661.326	88.88
661.53	75.88
661.733	117.88
661.936	98.88
662.14	83.88
662.343	79.88
662.546	93.88
662.75	90.88
662.953	89.88
663.156	87.88
663.36	80.88
663.563	89.88
663.766	90.88
663.969	86.88
664.173	93.88
664.376	94.88
664.579	75.88
664.782	76.88
664.985	91.88
665.188	86.88
665.391	91.88
665.594	74.88
665.797	91.88
666	93.88
666.203	81.88
666.406	74.88
666.609	86.88
666.812	86.88
667.015	77.88
667.218	79.88
667.421	83.88
667.624	95.88
667.827	98.88
668.03	74.88
668.232	82.88
668.435	92.88
668.638	97.88
668.841	87.88
669.043	96.88
669.246	91.88
669.449	74.88
669.651	87.88
669.854	88.88
670.057	80.88
670.259	87.88
670.462	80.88
670.665	89.88
670.867	89.88
671.07	84.88
671.272	88.88
671.475	88.88
671.677	90.88
671.88	81.88
672.082	74.88
672.284	93.88
672.487	80.88
672.689	80.88
672.892	88.88
