Data from Location5.07152019.Energy5.Lamp.07192019.3%Agarose_HRD10591_16-04-37-629.txt Node
Date: Fri Jul 19 16:04:37 EDT 2019
User: cochatt
Spectrometer: HR+D1059
Trigger mode: 1
Integration Time (sec): 1.000000E-1
Scans to average: 1
Electric dark correction enabled: true
Nonlinearity correction enabled: false
Boxcar width: 0
XAxis mode: Wavelengths
Number of Pixels in Spectrum: 2048
>>>>>Begin Spectral Data<<<<<
223.165	-24.94
223.4	-24.94
223.635	-24.94
223.869	-20.94
224.104	-11.94
224.338	5.06
224.573	-11.94
224.808	-7.94
225.042	-0.94
225.277	-3.94
225.511	-8.94
225.746	1.06
225.98	13.06
226.215	23.06
226.449	8.06
226.683	11.06
226.918	1.06
227.152	29.06
227.387	27.06
227.621	32.06
227.856	40.06
228.09	45.06
228.324	51.06
228.559	56.06
228.793	41.06
229.027	62.06
229.262	70.06
229.496	63.06
229.73	65.06
229.964	68.06
230.199	57.06
230.433	73.06
230.667	92.06
230.901	72.06
231.136	70.06
231.37	78.06
231.604	82.06
231.838	79.06
232.072	85.06
232.306	79.06
232.541	72.06
232.775	62.06
233.009	71.06
233.243	88.06
233.477	82.06
233.711	73.06
233.945	81.06
234.179	71.06
234.413	80.06
234.647	91.06
234.881	75.06
235.115	60.06
235.349	63.06
235.583	95.06
235.817	81.06
236.051	80.06
236.285	56.06
236.519	89.06
236.753	72.06
236.987	77.06
237.221	71.06
237.455	82.06
237.689	69.06
237.922	81.06
238.156	63.06
238.39	75.06
238.624	67.06
238.858	88.06
239.091	74.06
239.325	78.06
239.559	81.06
239.793	73.06
240.027	79.06
240.26	62.06
240.494	65.06
240.728	79.06
240.961	88.06
241.195	90.06
241.429	74.06
241.662	70.06
241.896	68.06
242.13	67.06
242.363	86.06
242.597	76.06
242.83	81.06
243.064	70.06
243.298	72.06
243.531	78.06
243.765	74.06
243.998	77.06
244.232	71.06
244.465	70.06
244.699	83.06
244.932	78.06
245.166	72.06
245.399	71.06
245.633	75.06
245.866	86.06
246.099	72.06
246.333	74.06
246.566	73.06
246.8	81.06
247.033	75.06
247.266	67.06
247.5	68.06
247.733	74.06
247.966	91.06
248.2	73.06
248.433	90.06
248.666	68.06
248.899	77.06
249.133	70.06
249.366	87.06
249.599	75.06
249.832	65.06
250.066	64.06
250.299	80.06
250.532	79.06
250.765	79.06
250.998	79.06
251.231	89.06
251.465	82.06
251.698	85.06
251.931	63.06
252.164	76.06
252.397	66.06
252.63	80.06
252.863	77.06
253.096	77.06
253.329	76.06
253.562	82.06
253.795	88.06
254.028	70.06
254.261	72.06
254.494	77.06
254.727	86.06
254.96	80.06
255.193	66.06
255.426	83.06
255.659	79.06
255.892	86.06
256.124	88.06
256.357	84.06
256.59	82.06
256.823	78.06
257.056	65.06
257.289	76.06
257.521	70.06
257.754	73.06
257.987	91.06
258.22	81.06
258.452	93.06
258.685	84.06
258.918	89.06
259.151	76.06
259.383	78.06
259.616	66.06
259.849	92.06
260.081	72.06
260.314	77.06
260.547	69.06
260.779	79.06
261.012	91.06
261.244	81.06
261.477	79.06
261.71	81.06
261.942	87.06
262.175	81.06
262.407	69.06
262.64	87.06
262.872	86.06
263.105	81.06
263.337	88.06
263.57	84.06
263.802	86.06
264.035	70.06
264.267	79.06
264.499	82.06
264.732	99.06
264.964	75.06
265.197	75.06
265.429	87.06
265.661	77.06
265.894	86.06
266.126	93.06
266.358	65.06
266.591	83.06
266.823	88.06
267.055	82.06
267.287	86.06
267.52	74.06
267.752	91.06
267.984	74.06
268.216	74.06
268.448	76.06
268.681	70.06
268.913	79.06
269.145	86.06
269.377	76.06
269.609	84.06
269.841	72.06
270.073	96.06
270.306	80.06
270.538	78.06
270.77	80.06
271.002	83.06
271.234	92.06
271.466	77.06
271.698	83.06
271.93	81.06
272.162	76.06
272.394	91.06
272.626	83.06
272.858	76.06
273.09	71.06
273.322	78.06
273.553	77.06
273.785	79.06
274.017	80.06
274.249	79.06
274.481	88.06
274.713	76.06
274.945	86.06
275.176	68.06
275.408	86.06
275.64	80.06
275.872	81.06
276.104	90.06
276.335	82.06
276.567	83.06
276.799	91.06
277.031	85.06
277.262	73.06
277.494	83.06
277.726	91.06
277.957	93.06
278.189	94.06
278.421	98.06
278.652	87.06
278.884	77.06
279.115	88.06
279.347	80.06
279.579	62.06
279.81	73.06
280.042	81.06
280.273	91.06
280.505	81.06
280.736	84.06
280.968	84.06
281.199	87.06
281.431	85.06
281.662	87.06
281.894	74.06
282.125	85.06
282.356	88.06
282.588	87.06
282.819	78.06
283.051	87.06
283.282	81.06
283.513	94.06
283.745	94.06
283.976	79.06
284.207	87.06
284.439	79.06
284.67	80.06
284.901	78.06
285.132	88.06
285.364	79.06
285.595	83.06
285.826	85.06
286.057	76.06
286.288	91.06
286.52	79.06
286.751	77.06
286.982	84.06
287.213	83.06
287.444	80.06
287.675	87.06
287.906	86.06
288.138	71.06
288.369	92.06
288.6	97.06
288.831	94.06
289.062	83.06
289.293	91.06
289.524	81.06
289.755	87.06
289.986	71.06
290.217	91.06
290.448	93.06
290.679	94.06
290.91	81.06
291.141	80.06
291.371	83.06
291.602	101.06
291.833	83.06
292.064	88.06
292.295	81.06
292.526	83.06
292.757	89.06
292.987	90.06
293.218	79.06
293.449	86.06
293.68	79.06
293.91	74.06
294.141	87.06
294.372	82.06
294.603	83.06
294.833	84.06
295.064	73.06
295.295	84.06
295.525	81.06
295.756	105.06
295.987	103.06
296.217	88.06
296.448	84.06
296.679	91.06
296.909	103.06
297.14	73.06
297.37	92.06
297.601	82.06
297.831	83.06
298.062	77.06
298.292	63.06
298.523	85.06
298.753	83.06
298.984	78.06
299.214	80.06
299.445	85.06
299.675	92.06
299.905	87.06
300.136	97.06
300.366	77.06
300.597	81.06
300.827	95.06
301.057	84.06
301.288	95.06
301.518	88.06
301.748	70.06
301.979	88.06
302.209	88.06
302.439	79.06
302.669	84.06
302.9	85.06
303.13	73.06
303.36	96.06
303.59	93.06
303.82	73.06
304.051	95.06
304.281	83.06
304.511	71.06
304.741	83.06
304.971	86.06
305.201	87.06
305.431	85.06
305.661	91.06
305.891	102.06
306.121	79.06
306.352	87.06
306.582	85.06
306.812	72.06
307.042	92.06
307.272	79.06
307.502	93.06
307.731	67.06
307.961	88.06
308.191	97.06
308.421	95.06
308.651	88.06
308.881	89.06
309.111	100.06
309.341	89.06
309.571	81.06
309.8	82.06
310.03	94.06
310.26	89.06
310.49	91.06
310.72	82.06
310.949	93.06
311.179	95.06
311.409	92.06
311.639	98.06
311.868	92.06
312.098	80.06
312.328	93.06
312.557	92.06
312.787	91.06
313.017	95.06
313.246	80.06
313.476	78.06
313.706	80.06
313.935	88.06
314.165	83.06
314.394	71.06
314.624	86.06
314.853	91.06
315.083	89.06
315.312	84.06
315.542	95.06
315.771	83.06
316.001	73.06
316.23	100.06
316.46	84.06
316.689	81.06
316.919	104.06
317.148	94.06
317.377	72.06
317.607	95.06
317.836	97.06
318.065	92.06
318.295	92.06
318.524	91.06
318.753	76.06
318.983	78.06
319.212	77.06
319.441	80.06
319.67	83.06
319.9	87.06
320.129	96.06
320.358	101.06
320.587	96.06
320.816	82.06
321.046	101.06
321.275	89.06
321.504	82.06
321.733	96.06
321.962	91.06
322.191	83.06
322.42	89.06
322.649	68.06
322.878	82.06
323.108	90.06
323.337	83.06
323.566	83.06
323.795	75.06
324.024	72.06
324.253	96.06
324.482	89.06
324.71	99.06
324.939	84.06
325.168	88.06
325.397	80.06
325.626	98.06
325.855	90.06
326.084	100.06
326.313	102.06
326.542	83.06
326.77	97.06
326.999	85.06
327.228	91.06
327.457	87.06
327.686	91.06
327.914	94.06
328.143	78.06
328.372	82.06
328.6	83.06
328.829	84.06
329.058	93.06
329.287	88.06
329.515	91.06
329.744	80.06
329.972	79.06
330.201	100.06
330.43	88.06
330.658	83.06
330.887	92.06
331.115	82.06
331.344	81.06
331.572	83.06
331.801	91.06
332.03	83.06
332.258	102.06
332.486	80.06
332.715	102.06
332.943	86.06
333.172	100.06
333.4	81.06
333.629	82.06
333.857	95.06
334.085	86.06
334.314	80.06
334.542	74.06
334.771	88.06
334.999	96.06
335.227	89.06
335.455	76.06
335.684	98.06
335.912	84.06
336.14	88.06
336.369	92.06
336.597	85.06
336.825	97.06
337.053	100.06
337.281	85.06
337.51	83.06
337.738	92.06
337.966	87.06
338.194	100.06
338.422	73.06
338.65	74.06
338.878	97.06
339.106	76.06
339.334	91.06
339.562	80.06
339.79	90.06
340.018	79.06
340.246	91.06
340.474	94.06
340.702	98.06
340.93	99.06
341.158	85.06
341.386	93.06
341.614	94.06
341.842	68.06
342.07	91.06
342.298	94.06
342.526	92.06
342.754	98.06
342.981	88.06
343.209	89.06
343.437	92.06
343.665	67.06
343.893	86.06
344.12	88.06
344.348	85.06
344.576	86.06
344.804	96.06
345.031	80.06
345.259	80.06
345.487	84.06
345.714	91.06
345.942	89.06
346.17	84.06
346.397	84.06
346.625	84.06
346.853	85.06
347.08	83.06
347.308	87.06
347.535	89.06
347.763	89.06
347.99	89.06
348.218	80.06
348.445	88.06
348.673	86.06
348.9	94.06
349.128	86.06
349.355	84.06
349.583	86.06
349.81	83.06
350.037	79.06
350.265	87.06
350.492	80.06
350.72	87.06
350.947	92.06
351.174	86.06
351.402	95.06
351.629	97.06
351.856	91.06
352.083	95.06
352.311	79.06
352.538	84.06
352.765	96.06
352.992	88.06
353.22	86.06
353.447	94.06
353.674	92.06
353.901	84.06
354.128	100.06
354.355	84.06
354.583	85.06
354.81	80.06
355.037	98.06
355.264	94.06
355.491	88.06
355.718	78.06
355.945	89.06
356.172	83.06
356.399	84.06
356.626	83.06
356.853	85.06
357.08	97.06
357.307	89.06
357.534	84.06
357.761	80.06
357.988	88.06
358.215	86.06
358.441	87.06
358.668	96.06
358.895	84.06
359.122	89.06
359.349	87.06
359.576	87.06
359.802	88.06
360.029	89.06
360.256	89.06
360.483	90.06
360.709	78.06
360.936	76.06
361.163	92.06
361.39	73.06
361.616	88.06
361.843	86.06
362.07	74.06
362.296	88.06
362.523	87.06
362.749	92.06
362.976	80.06
363.203	85.06
363.429	76.06
363.656	88.06
363.882	87.06
364.109	76.06
364.335	88.06
364.562	70.06
364.788	98.06
365.015	88.06
365.241	90.06
365.468	73.06
365.694	79.06
365.92	77.06
366.147	96.06
366.373	78.06
366.599	85.06
366.826	99.06
367.052	90.06
367.278	79.06
367.505	90.06
367.731	79.06
367.957	96.06
368.184	92.06
368.41	85.06
368.636	94.06
368.862	92.06
369.089	72.06
369.315	100.06
369.541	96.06
369.767	89.06
369.993	104.06
370.219	89.06
370.445	96.06
370.672	87.06
370.898	87.06
371.124	90.06
371.35	99.06
371.576	93.06
371.802	85.06
372.028	85.06
372.254	86.06
372.48	85.06
372.706	100.06
372.932	87.06
373.158	99.06
373.384	110.06
373.61	85.06
373.835	94.06
374.061	93.06
374.287	94.06
374.513	88.06
374.739	81.06
374.965	90.06
375.191	88.06
375.416	83.06
375.642	88.06
375.868	98.06
376.094	85.06
376.319	72.06
376.545	72.06
376.771	86.06
376.997	83.06
377.222	81.06
377.448	83.06
377.674	93.06
377.899	105.06
378.125	93.06
378.35	77.06
378.576	78.06
378.802	87.06
379.027	93.06
379.253	99.06
379.478	80.06
379.704	85.06
379.929	92.06
380.155	77.06
380.38	83.06
380.606	91.06
380.831	91.06
381.057	99.06
381.282	89.06
381.507	69.06
381.733	72.06
381.958	96.06
382.184	91.06
382.409	87.06
382.634	92.06
382.86	84.06
383.085	81.06
383.31	80.06
383.535	95.06
383.761	88.06
383.986	78.06
384.211	92.06
384.436	112.06
384.662	79.06
384.887	91.06
385.112	86.06
385.337	90.06
385.562	85.06
385.787	85.06
386.013	99.06
386.238	83.06
386.463	86.06
386.688	92.06
386.913	85.06
387.138	82.06
387.363	80.06
387.588	90.06
387.813	99.06
388.038	85.06
388.263	81.06
388.488	101.06
388.713	85.06
388.938	84.06
389.163	90.06
389.387	83.06
389.612	100.06
389.837	88.06
390.062	102.06
390.287	88.06
390.512	84.06
390.736	94.06
390.961	81.06
391.186	83.06
391.411	87.06
391.636	97.06
391.86	88.06
392.085	105.06
392.31	94.06
392.534	96.06
392.759	93.06
392.984	81.06
393.208	83.06
393.433	84.06
393.658	101.06
393.882	86.06
394.107	93.06
394.331	99.06
394.556	94.06
394.78	92.06
395.005	87.06
395.229	79.06
395.454	93.06
395.678	91.06
395.903	82.06
396.127	81.06
396.352	96.06
396.576	95.06
396.801	95.06
397.025	97.06
397.249	91.06
397.474	94.06
397.698	91.06
397.922	82.06
398.147	94.06
398.371	84.06
398.595	94.06
398.82	85.06
399.044	84.06
399.268	97.06
399.492	103.06
399.717	107.06
399.941	106.06
400.165	101.06
400.389	99.06
400.613	81.06
400.837	87.06
401.062	91.06
401.286	74.06
401.51	93.06
401.734	78.06
401.958	84.06
402.182	78.06
402.406	81.06
402.63	93.06
402.854	101.06
403.078	82.06
403.302	82.06
403.526	93.06
403.75	95.06
403.974	85.06
404.198	89.06
404.422	85.06
404.645	91.06
404.869	80.06
405.093	92.06
405.317	92.06
405.541	92.06
405.765	96.06
405.988	82.06
406.212	96.06
406.436	92.06
406.66	81.06
406.883	91.06
407.107	91.06
407.331	83.06
407.555	94.06
407.778	79.06
408.002	105.06
408.226	95.06
408.449	95.06
408.673	80.06
408.896	100.06
409.12	92.06
409.344	99.06
409.567	96.06
409.791	98.06
410.014	103.06
410.238	87.06
410.461	106.06
410.685	93.06
410.908	83.06
411.132	99.06
411.355	98.06
411.578	99.06
411.802	79.06
412.025	94.06
412.249	101.06
412.472	83.06
412.695	86.06
412.919	87.06
413.142	91.06
413.365	98.06
413.589	83.06
413.812	81.06
414.035	89.06
414.258	91.06
414.482	87.06
414.705	102.06
414.928	95.06
415.151	95.06
415.374	98.06
415.597	103.06
415.821	104.06
416.044	88.06
416.267	86.06
416.49	81.06
416.713	89.06
416.936	91.06
417.159	91.06
417.382	81.06
417.605	95.06
417.828	93.06
418.051	85.06
418.274	95.06
418.497	94.06
418.72	108.06
418.943	91.06
419.166	83.06
419.389	91.06
419.611	97.06
419.834	95.06
420.057	101.06
420.28	83.06
420.503	101.06
420.726	86.06
420.948	81.06
421.171	94.06
421.394	104.06
421.617	95.06
421.839	98.06
422.062	96.06
422.285	74.06
422.507	89.06
422.73	78.06
422.953	92.06
423.175	80.06
423.398	92.06
423.621	92.06
423.843	100.06
424.066	83.06
424.288	89.06
424.511	93.06
424.733	95.06
424.956	91.06
425.178	92.06
425.401	85.06
425.623	82.06
425.846	89.06
426.068	76.06
426.291	94.06
426.513	93.06
426.735	91.06
426.958	96.06
427.18	86.06
427.402	88.06
427.625	82.06
427.847	78.06
428.069	91.06
428.292	92.06
428.514	104.06
428.736	82.06
428.958	87.06
429.181	72.06
429.403	84.06
429.625	94.06
429.847	90.06
430.069	104.06
430.292	95.06
430.514	82.06
430.736	89.06
430.958	95.06
431.18	89.06
431.402	87.06
431.624	80.06
431.846	99.06
432.068	103.06
432.29	83.06
432.512	101.06
432.734	89.06
432.956	83.06
433.178	85.06
433.4	89.06
433.622	93.06
433.844	101.06
434.066	91.06
434.287	79.06
434.509	95.06
434.731	89.06
434.953	84.06
435.175	80.06
435.397	97.06
435.618	87.06
435.84	72.06
436.062	99.06
436.284	94.06
436.505	75.06
436.727	81.06
436.949	83.06
437.17	75.06
437.392	87.06
437.614	72.06
437.835	77.06
438.057	89.06
438.278	105.06
438.5	98.06
438.721	84.06
438.943	96.06
439.165	104.06
439.386	86.06
439.608	91.06
439.829	95.06
440.05	84.06
440.272	88.06
440.493	76.06
440.715	91.06
440.936	87.06
441.158	98.06
441.379	91.06
441.6	88.06
441.822	74.06
442.043	105.06
442.264	91.06
442.486	80.06
442.707	106.06
442.928	85.06
443.149	88.06
443.371	88.06
443.592	88.06
443.813	93.06
444.034	101.06
444.255	109.06
444.476	92.06
444.698	85.06
444.919	84.06
445.14	211.06
445.361	142.06
445.582	108.06
445.803	87.06
446.024	100.06
446.245	86.06
446.466	93.06
446.687	95.06
446.908	84.06
447.129	92.06
447.35	84.06
447.571	85.06
447.792	79.06
448.013	89.06
448.234	87.06
448.455	79.06
448.675	100.06
448.896	92.06
449.117	95.06
449.338	85.06
449.559	90.06
449.779	87.06
450	81.06
450.221	79.06
450.442	99.06
450.662	94.06
450.883	87.06
451.104	86.06
451.324	85.06
451.545	83.06
451.766	83.06
451.986	86.06
452.207	102.06
452.428	88.06
452.648	91.06
452.869	96.06
453.089	85.06
453.31	70.06
453.53	80.06
453.751	97.06
453.971	94.06
454.192	81.06
454.412	77.06
454.633	84.06
454.853	86.06
455.073	83.06
455.294	86.06
455.514	82.06
455.734	91.06
455.955	98.06
456.175	102.06
456.395	91.06
456.616	86.06
456.836	89.06
457.056	83.06
457.276	85.06
457.497	87.06
457.717	65.06
457.937	82.06
458.157	94.06
458.377	83.06
458.598	73.06
458.818	73.06
459.038	84.06
459.258	95.06
459.478	92.06
459.698	92.06
459.918	97.06
460.138	91.06
460.358	95.06
460.578	98.06
460.798	92.06
461.018	89.06
461.238	92.06
461.458	83.06
461.678	109.06
461.898	90.06
462.118	99.06
462.338	84.06
462.558	94.06
462.777	97.06
462.997	108.06
463.217	107.06
463.437	91.06
463.657	86.06
463.876	99.06
464.096	103.06
464.316	96.06
464.536	92.06
464.755	92.06
464.975	86.06
465.195	81.06
465.414	91.06
465.634	100.06
465.854	82.06
466.073	89.06
466.293	83.06
466.512	98.06
466.732	89.06
466.951	91.06
467.171	91.06
467.391	86.06
467.61	93.06
467.829	94.06
468.049	105.06
468.268	98.06
468.488	94.06
468.707	92.06
468.927	92.06
469.146	93.06
469.365	97.06
469.585	92.06
469.804	100.06
470.023	102.06
470.243	95.06
470.462	88.06
470.681	101.06
470.901	88.06
471.12	96.06
471.339	87.06
471.558	84.06
471.777	94.06
471.997	81.06
472.216	95.06
472.435	91.06
472.654	89.06
472.873	100.06
473.092	93.06
473.311	94.06
473.53	78.06
473.749	87.06
473.968	111.06
474.187	98.06
474.406	74.06
474.625	91.06
474.844	92.06
475.063	96.06
475.282	86.06
475.501	94.06
475.72	98.06
475.939	82.06
476.158	92.06
476.377	86.06
476.596	91.06
476.814	88.06
477.033	98.06
477.252	96.06
477.471	88.06
477.69	101.06
477.908	103.06
478.127	99.06
478.346	88.06
478.564	92.06
478.783	95.06
479.002	95.06
479.22	100.06
479.439	94.06
479.658	87.06
479.876	108.06
480.095	102.06
480.313	94.06
480.532	91.06
480.751	101.06
480.969	90.06
481.188	81.06
481.406	100.06
481.624	94.06
481.843	95.06
482.061	104.06
482.28	90.06
482.498	108.06
482.717	95.06
482.935	88.06
483.153	95.06
483.372	97.06
483.59	86.06
483.808	93.06
484.027	82.06
484.245	104.06
484.463	114.06
484.681	115.06
484.9	91.06
485.118	95.06
485.336	87.06
485.554	97.06
485.772	89.06
485.99	104.06
486.209	99.06
486.427	93.06
486.645	100.06
486.863	87.06
487.081	95.06
487.299	95.06
487.517	95.06
487.735	98.06
487.953	114.06
488.171	95.06
488.389	97.06
488.607	111.06
488.825	102.06
489.043	97.06
489.261	105.06
489.479	91.06
489.696	109.06
489.914	97.06
490.132	103.06
490.35	87.06
490.568	97.06
490.786	104.06
491.003	100.06
491.221	107.06
491.439	98.06
491.657	119.06
491.874	102.06
492.092	115.06
492.31	111.06
492.527	111.06
492.745	103.06
492.963	104.06
493.18	107.06
493.398	107.06
493.615	101.06
493.833	114.06
494.05	112.06
494.268	108.06
494.485	118.06
494.703	103.06
494.92	111.06
495.138	97.06
495.355	112.06
495.573	103.06
495.79	113.06
496.008	102.06
496.225	112.06
496.442	109.06
496.66	114.06
496.877	110.06
497.094	109.06
497.312	107.06
497.529	115.06
497.746	115.06
497.963	96.06
498.181	113.06
498.398	110.06
498.615	117.06
498.832	117.06
499.049	109.06
499.267	112.06
499.484	119.06
499.701	135.06
499.918	137.06
500.135	140.06
500.352	143.06
500.569	165.06
500.786	141.06
501.003	136.06
501.22	147.06
501.437	119.06
501.654	120.06
501.871	118.06
502.088	102.06
502.305	100.06
502.522	99.06
502.739	102.06
502.956	119.06
503.172	112.06
503.389	103.06
503.606	102.06
503.823	113.06
504.04	111.06
504.256	118.06
504.473	102.06
504.69	98.06
504.907	111.06
505.123	111.06
505.34	114.06
505.557	111.06
505.773	99.06
505.99	99.06
506.207	103.06
506.423	86.06
506.64	100.06
506.856	107.06
507.073	93.06
507.289	101.06
507.506	100.06
507.722	111.06
507.939	107.06
508.155	108.06
508.372	91.06
508.588	91.06
508.805	99.06
509.021	81.06
509.238	95.06
509.454	103.06
509.67	98.06
509.887	89.06
510.103	91.06
510.319	111.06
510.536	107.06
510.752	90.06
510.968	92.06
511.184	95.06
511.401	97.06
511.617	91.06
511.833	90.06
512.049	94.06
512.265	91.06
512.481	95.06
512.698	97.06
512.914	108.06
513.13	93.06
513.346	94.06
513.562	94.06
513.778	99.06
513.994	108.06
514.21	97.06
514.426	102.06
514.642	86.06
514.858	78.06
515.074	92.06
515.29	93.06
515.506	92.06
515.721	96.06
515.937	105.06
516.153	108.06
516.369	105.06
516.585	93.06
516.801	81.06
517.016	93.06
517.232	94.06
517.448	92.06
517.664	112.06
517.879	101.06
518.095	102.06
518.311	99.06
518.527	108.06
518.742	100.06
518.958	96.06
519.173	100.06
519.389	96.06
519.605	100.06
519.82	88.06
520.036	102.06
520.251	101.06
520.467	99.06
520.682	83.06
520.898	88.06
521.113	98.06
521.329	91.06
521.544	95.06
521.76	96.06
521.975	87.06
522.19	101.06
522.406	89.06
522.621	109.06
522.836	88.06
523.052	87.06
523.267	99.06
523.482	80.06
523.698	89.06
523.913	92.06
524.128	103.06
524.343	101.06
524.559	99.06
524.774	94.06
524.989	100.06
525.204	97.06
525.419	100.06
525.634	89.06
525.849	93.06
526.064	95.06
526.28	108.06
526.495	102.06
526.71	85.06
526.925	93.06
527.14	95.06
527.355	100.06
527.57	96.06
527.785	91.06
527.999	88.06
528.214	97.06
528.429	104.06
528.644	98.06
528.859	100.06
529.074	94.06
529.289	104.06
529.503	99.06
529.718	94.06
529.933	92.06
530.148	102.06
530.363	99.06
530.577	107.06
530.792	86.06
531.007	102.06
531.221	100.06
531.436	97.06
531.651	93.06
531.865	91.06
532.08	84.06
532.295	88.06
532.509	93.06
532.724	99.06
532.938	81.06
533.153	88.06
533.367	94.06
533.582	100.06
533.796	95.06
534.011	96.06
534.225	99.06
534.44	85.06
534.654	96.06
534.868	97.06
535.083	93.06
535.297	83.06
535.511	105.06
535.726	115.06
535.94	91.06
536.154	89.06
536.369	100.06
536.583	95.06
536.797	95.06
537.011	88.06
537.225	99.06
537.44	96.06
537.654	98.06
537.868	95.06
538.082	91.06
538.296	111.06
538.51	97.06
538.724	94.06
538.938	100.06
539.153	105.06
539.367	97.06
539.581	101.06
539.795	93.06
540.009	87.06
540.222	95.06
540.436	84.06
540.65	110.06
540.864	95.06
541.078	98.06
541.292	96.06
541.506	108.06
541.72	97.06
541.934	87.06
542.147	117.06
542.361	102.06
542.575	104.06
542.789	97.06
543.002	89.06
543.216	95.06
543.43	92.06
543.644	93.06
543.857	101.06
544.071	98.06
544.285	116.06
544.498	112.06
544.712	104.06
544.925	92.06
545.139	83.06
545.352	97.06
545.566	95.06
545.779	109.06
545.993	85.06
546.206	94.06
546.42	96.06
546.633	93.06
546.847	97.06
547.06	95.06
547.274	113.06
547.487	103.06
547.7	91.06
547.914	80.06
548.127	106.06
548.34	109.06
548.554	84.06
548.767	90.06
548.98	77.06
549.193	98.06
549.407	96.06
549.62	97.06
549.833	107.06
550.046	100.06
550.259	90.06
550.473	104.06
550.686	109.06
550.899	89.06
551.112	100.06
551.325	86.06
551.538	84.06
551.751	96.06
551.964	102.06
552.177	101.06
552.39	93.06
552.603	83.06
552.816	97.06
553.029	98.06
553.242	85.06
553.455	104.06
553.667	110.06
553.88	101.06
554.093	89.06
554.306	82.06
554.519	96.06
554.732	116.06
554.944	92.06
555.157	92.06
555.37	93.06
555.583	86.06
555.795	97.06
556.008	107.06
556.221	95.06
556.433	89.06
556.646	101.06
556.859	88.06
557.071	92.06
557.284	88.06
557.496	79.06
557.709	81.06
557.921	96.06
558.134	98.06
558.346	86.06
558.559	95.06
558.771	88.06
558.984	100.06
559.196	101.06
559.409	93.06
559.621	86.06
559.833	80.06
560.046	84.06
560.258	95.06
560.47	86.06
560.683	93.06
560.895	87.06
561.107	81.06
561.32	80.06
561.532	93.06
561.744	75.06
561.956	86.06
562.168	98.06
562.381	93.06
562.593	94.06
562.805	92.06
563.017	77.06
563.229	93.06
563.441	85.06
563.653	77.06
563.865	87.06
564.077	81.06
564.289	90.06
564.501	95.06
564.713	99.06
564.925	103.06
565.137	83.06
565.349	91.06
565.561	92.06
565.773	85.06
565.985	102.06
566.197	92.06
566.408	100.06
566.62	101.06
566.832	103.06
567.044	100.06
567.255	87.06
567.467	97.06
567.679	100.06
567.891	109.06
568.102	101.06
568.314	109.06
568.526	102.06
568.737	84.06
568.949	97.06
569.161	81.06
569.372	79.06
569.584	84.06
569.795	91.06
570.007	88.06
570.218	103.06
570.43	83.06
570.641	96.06
570.853	78.06
571.064	89.06
571.276	82.06
571.487	95.06
571.698	80.06
571.91	93.06
572.121	91.06
572.333	99.06
572.544	92.06
572.755	78.06
572.966	85.06
573.178	101.06
573.389	79.06
573.6	91.06
573.811	86.06
574.023	91.06
574.234	88.06
574.445	95.06
574.656	92.06
574.867	91.06
575.078	100.06
575.289	85.06
575.501	81.06
575.712	89.06
575.923	87.06
576.134	78.06
576.345	94.06
576.556	86.06
576.767	84.06
576.978	85.06
577.188	79.06
577.399	80.06
577.61	91.06
577.821	88.06
578.032	79.06
578.243	84.06
578.454	91.06
578.665	86.06
578.875	85.06
579.086	87.06
579.297	85.06
579.508	82.06
579.718	83.06
579.929	99.06
580.14	94.06
580.35	91.06
580.561	87.06
580.772	81.06
580.982	85.06
581.193	82.06
581.403	83.06
581.614	103.06
581.825	95.06
582.035	94.06
582.246	92.06
582.456	83.06
582.667	88.06
582.877	80.06
583.087	73.06
583.298	92.06
583.508	86.06
583.719	83.06
583.929	101.06
584.139	96.06
584.35	82.06
584.56	87.06
584.77	84.06
584.981	93.06
585.191	84.06
585.401	86.06
585.611	95.06
585.821	86.06
586.032	81.06
586.242	89.06
586.452	98.06
586.662	86.06
586.872	89.06
587.082	85.06
587.292	72.06
587.502	87.06
587.713	85.06
587.923	94.06
588.133	93.06
588.343	88.06
588.553	102.06
588.762	94.06
588.972	82.06
589.182	80.06
589.392	87.06
589.602	86.06
589.812	92.06
590.022	106.06
590.232	85.06
590.441	86.06
590.651	87.06
590.861	87.06
591.071	80.06
591.281	84.06
591.49	93.06
591.7	82.06
591.91	96.06
592.119	91.06
592.329	93.06
592.539	86.06
592.748	73.06
592.958	75.06
593.167	87.06
593.377	80.06
593.587	89.06
593.796	81.06
594.006	85.06
594.215	80.06
594.424	92.06
594.634	90.06
594.843	81.06
595.053	78.06
595.262	89.06
595.472	82.06
595.681	91.06
595.89	80.06
596.1	97.06
596.309	91.06
596.518	73.06
596.727	89.06
596.937	76.06
597.146	79.06
597.355	83.06
597.564	77.06
597.774	102.06
597.983	87.06
598.192	75.06
598.401	88.06
598.61	73.06
598.819	81.06
599.028	85.06
599.237	78.06
599.446	82.06
599.655	90.06
599.864	79.06
600.073	81.06
600.282	93.06
600.491	85.06
600.7	82.06
600.909	85.06
601.118	80.06
601.327	101.06
601.536	95.06
601.745	87.06
601.953	91.06
602.162	85.06
602.371	75.06
602.58	76.06
602.789	94.06
602.997	78.06
603.206	85.06
603.415	80.06
603.623	99.06
603.832	76.06
604.041	88.06
604.249	80.06
604.458	86.06
604.666	69.06
604.875	79.06
605.084	81.06
605.292	71.06
605.501	85.06
605.709	78.06
605.918	95.06
606.126	76.06
606.334	80.06
606.543	83.06
606.751	93.06
606.96	80.06
607.168	79.06
607.376	78.06
607.585	74.06
607.793	92.06
608.001	81.06
608.21	94.06
608.418	80.06
608.626	92.06
608.834	90.06
609.043	71.06
609.251	98.06
609.459	79.06
609.667	83.06
609.875	98.06
610.083	89.06
610.291	89.06
610.499	82.06
610.707	76.06
610.916	83.06
611.124	83.06
611.332	74.06
611.54	82.06
611.748	68.06
611.955	90.06
612.163	92.06
612.371	100.06
612.579	93.06
612.787	99.06
612.995	80.06
613.203	88.06
613.411	80.06
613.618	87.06
613.826	79.06
614.034	77.06
614.242	89.06
614.449	81.06
614.657	82.06
614.865	82.06
615.072	86.06
615.28	81.06
615.488	78.06
615.695	76.06
615.903	82.06
616.111	95.06
616.318	96.06
616.526	89.06
616.733	84.06
616.941	76.06
617.148	97.06
617.356	87.06
617.563	96.06
617.771	80.06
617.978	75.06
618.185	74.06
618.393	91.06
618.6	80.06
618.807	90.06
619.015	84.06
619.222	80.06
619.429	92.06
619.637	84.06
619.844	85.06
620.051	87.06
620.258	85.06
620.466	86.06
620.673	91.06
620.88	87.06
621.087	77.06
621.294	91.06
621.501	77.06
621.708	77.06
621.915	76.06
622.122	83.06
622.329	72.06
622.536	79.06
622.743	89.06
622.95	83.06
623.157	83.06
623.364	88.06
623.571	81.06
623.778	67.06
623.985	78.06
624.192	85.06
624.399	95.06
624.606	88.06
624.812	91.06
625.019	78.06
625.226	93.06
625.433	99.06
625.639	88.06
625.846	73.06
626.053	89.06
626.259	78.06
626.466	86.06
626.673	84.06
626.879	86.06
627.086	93.06
627.293	93.06
627.499	96.06
627.706	77.06
627.912	79.06
628.119	82.06
628.325	97.06
628.532	89.06
628.738	89.06
628.945	87.06
629.151	95.06
629.357	89.06
629.564	84.06
629.77	70.06
629.976	92.06
630.183	80.06
630.389	86.06
630.595	89.06
630.802	65.06
631.008	77.06
631.214	78.06
631.42	93.06
631.627	87.06
631.833	81.06
632.039	67.06
632.245	91.06
632.451	97.06
632.657	91.06
632.863	80.06
633.069	83.06
633.275	60.06
633.481	85.06
633.688	98.06
633.893	72.06
634.099	85.06
634.305	85.06
634.511	72.06
634.717	89.06
634.923	77.06
635.129	86.06
635.335	76.06
635.541	80.06
635.747	89.06
635.952	89.06
636.158	68.06
636.364	79.06
636.57	103.06
636.775	78.06
636.981	74.06
637.187	83.06
637.392	83.06
637.598	87.06
637.804	87.06
638.009	83.06
638.215	84.06
638.421	86.06
638.626	82.06
638.832	95.06
639.037	72.06
639.243	76.06
639.448	82.06
639.654	91.06
639.859	97.06
640.065	70.06
640.27	84.06
640.475	73.06
640.681	80.06
640.886	93.06
641.091	86.06
641.297	84.06
641.502	72.06
641.707	89.06
641.913	77.06
642.118	81.06
642.323	84.06
642.528	80.06
642.733	92.06
642.939	85.06
643.144	97.06
643.349	78.06
643.554	82.06
643.759	80.06
643.964	95.06
644.169	79.06
644.374	72.06
644.579	83.06
644.784	74.06
644.989	82.06
645.194	68.06
645.399	79.06
645.604	84.06
645.809	88.06
646.014	83.06
646.219	72.06
646.423	83.06
646.628	74.06
646.833	76.06
647.038	79.06
647.243	76.06
647.447	73.06
647.652	87.06
647.857	84.06
648.062	85.06
648.266	80.06
648.471	86.06
648.676	81.06
648.88	91.06
649.085	85.06
649.289	82.06
649.494	80.06
649.698	78.06
649.903	78.06
650.107	85.06
650.312	78.06
650.516	83.06
650.721	84.06
650.925	72.06
651.13	79.06
651.334	85.06
651.539	83.06
651.743	88.06
651.947	74.06
652.152	74.06
652.356	82.06
652.56	81.06
652.764	78.06
652.969	82.06
653.173	80.06
653.377	80.06
653.581	90.06
653.785	67.06
653.99	84.06
654.194	74.06
654.398	91.06
654.602	90.06
654.806	82.06
655.01	92.06
655.214	73.06
655.418	78.06
655.622	78.06
655.826	81.06
656.03	93.06
656.234	85.06
656.438	82.06
656.642	85.06
656.846	70.06
657.049	87.06
657.253	91.06
657.457	80.06
657.661	82.06
657.865	80.06
658.068	71.06
658.272	77.06
658.476	90.06
658.68	87.06
658.883	89.06
659.087	87.06
659.291	84.06
659.494	90.06
659.698	85.06
659.901	82.06
660.105	81.06
660.309	80.06
660.512	76.06
660.716	84.06
660.919	85.06
661.123	80.06
661.326	74.06
661.53	75.06
661.733	94.06
661.936	84.06
662.14	75.06
662.343	95.06
662.546	75.06
662.75	77.06
662.953	81.06
663.156	80.06
663.36	92.06
663.563	87.06
663.766	86.06
663.969	79.06
664.173	73.06
664.376	68.06
664.579	71.06
664.782	78.06
664.985	86.06
665.188	78.06
665.391	73.06
665.594	88.06
665.797	99.06
666	85.06
666.203	87.06
666.406	70.06
666.609	80.06
666.812	85.06
667.015	78.06
667.218	81.06
667.421	66.06
667.624	74.06
667.827	81.06
668.03	81.06
668.232	71.06
668.435	75.06
668.638	72.06
668.841	82.06
669.043	80.06
669.246	83.06
669.449	86.06
669.651	71.06
669.854	89.06
670.057	67.06
670.259	74.06
670.462	78.06
670.665	82.06
670.867	74.06
671.07	89.06
671.272	91.06
671.475	79.06
671.677	84.06
671.88	98.06
672.082	91.06
672.284	92.06
672.487	77.06
672.689	96.06
672.892	79.06
