Data from Location5.07152019.Energy5.Lamp.07192019.3%Agarose_HRD10591_16-04-14-629.txt Node
Date: Fri Jul 19 16:04:14 EDT 2019
User: cochatt
Spectrometer: HR+D1059
Trigger mode: 1
Integration Time (sec): 1.000000E-1
Scans to average: 1
Electric dark correction enabled: true
Nonlinearity correction enabled: false
Boxcar width: 0
XAxis mode: Wavelengths
Number of Pixels in Spectrum: 2048
>>>>>Begin Spectral Data<<<<<
223.165	-15.62
223.4	-15.62
223.635	-15.62
223.869	-14.62
224.104	-11.62
224.338	-17.62
224.573	-24.62
224.808	-17.62
225.042	-19.62
225.277	-5.62
225.511	7.38
225.746	-0.62
225.98	10.38
226.215	26.38
226.449	14.38
226.683	19.38
226.918	15.38
227.152	34.38
227.387	31.38
227.621	39.38
227.856	38.38
228.09	50.38
228.324	55.38
228.559	60.38
228.793	68.38
229.027	60.38
229.262	59.38
229.496	73.38
229.73	73.38
229.964	72.38
230.199	56.38
230.433	72.38
230.667	84.38
230.901	80.38
231.136	78.38
231.37	61.38
231.604	80.38
231.838	83.38
232.072	76.38
232.306	83.38
232.541	94.38
232.775	88.38
233.009	76.38
233.243	74.38
233.477	84.38
233.711	88.38
233.945	73.38
234.179	87.38
234.413	81.38
234.647	84.38
234.881	91.38
235.115	83.38
235.349	79.38
235.583	74.38
235.817	80.38
236.051	74.38
236.285	78.38
236.519	66.38
236.753	85.38
236.987	92.38
237.221	76.38
237.455	74.38
237.689	69.38
237.922	73.38
238.156	77.38
238.39	81.38
238.624	70.38
238.858	80.38
239.091	87.38
239.325	81.38
239.559	78.38
239.793	73.38
240.027	87.38
240.26	81.38
240.494	77.38
240.728	59.38
240.961	73.38
241.195	75.38
241.429	83.38
241.662	89.38
241.896	80.38
242.13	81.38
242.363	74.38
242.597	74.38
242.83	81.38
243.064	76.38
243.298	72.38
243.531	85.38
243.765	77.38
243.998	89.38
244.232	83.38
244.465	86.38
244.699	77.38
244.932	80.38
245.166	74.38
245.399	77.38
245.633	86.38
245.866	83.38
246.099	88.38
246.333	71.38
246.566	86.38
246.8	93.38
247.033	74.38
247.266	71.38
247.5	70.38
247.733	73.38
247.966	75.38
248.2	97.38
248.433	83.38
248.666	78.38
248.899	93.38
249.133	90.38
249.366	82.38
249.599	67.38
249.832	81.38
250.066	68.38
250.299	66.38
250.532	79.38
250.765	88.38
250.998	69.38
251.231	79.38
251.465	80.38
251.698	76.38
251.931	92.38
252.164	89.38
252.397	86.38
252.63	77.38
252.863	81.38
253.096	84.38
253.329	68.38
253.562	80.38
253.795	88.38
254.028	73.38
254.261	84.38
254.494	91.38
254.727	99.38
254.96	95.38
255.193	89.38
255.426	70.38
255.659	73.38
255.892	89.38
256.124	87.38
256.357	87.38
256.59	90.38
256.823	62.38
257.056	80.38
257.289	86.38
257.521	95.38
257.754	91.38
257.987	75.38
258.22	86.38
258.452	76.38
258.685	89.38
258.918	86.38
259.151	88.38
259.383	88.38
259.616	72.38
259.849	82.38
260.081	72.38
260.314	84.38
260.547	78.38
260.779	88.38
261.012	86.38
261.244	90.38
261.477	77.38
261.71	94.38
261.942	97.38
262.175	80.38
262.407	93.38
262.64	77.38
262.872	80.38
263.105	91.38
263.337	89.38
263.57	81.38
263.802	102.38
264.035	101.38
264.267	94.38
264.499	95.38
264.732	90.38
264.964	97.38
265.197	94.38
265.429	94.38
265.661	102.38
265.894	95.38
266.126	81.38
266.358	88.38
266.591	85.38
266.823	94.38
267.055	91.38
267.287	79.38
267.52	75.38
267.752	82.38
267.984	101.38
268.216	98.38
268.448	91.38
268.681	90.38
268.913	91.38
269.145	96.38
269.377	94.38
269.609	97.38
269.841	80.38
270.073	82.38
270.306	79.38
270.538	80.38
270.77	87.38
271.002	94.38
271.234	92.38
271.466	84.38
271.698	84.38
271.93	82.38
272.162	92.38
272.394	83.38
272.626	87.38
272.858	84.38
273.09	82.38
273.322	96.38
273.553	89.38
273.785	98.38
274.017	91.38
274.249	80.38
274.481	74.38
274.713	83.38
274.945	75.38
275.176	91.38
275.408	103.38
275.64	77.38
275.872	73.38
276.104	88.38
276.335	78.38
276.567	74.38
276.799	87.38
277.031	80.38
277.262	87.38
277.494	90.38
277.726	92.38
277.957	94.38
278.189	101.38
278.421	85.38
278.652	98.38
278.884	92.38
279.115	101.38
279.347	97.38
279.579	98.38
279.81	96.38
280.042	87.38
280.273	97.38
280.505	77.38
280.736	90.38
280.968	87.38
281.199	90.38
281.431	80.38
281.662	84.38
281.894	115.38
282.125	83.38
282.356	96.38
282.588	89.38
282.819	76.38
283.051	94.38
283.282	101.38
283.513	89.38
283.745	92.38
283.976	98.38
284.207	89.38
284.439	98.38
284.67	92.38
284.901	82.38
285.132	90.38
285.364	97.38
285.595	79.38
285.826	89.38
286.057	94.38
286.288	86.38
286.52	86.38
286.751	94.38
286.982	93.38
287.213	81.38
287.444	86.38
287.675	85.38
287.906	98.38
288.138	91.38
288.369	92.38
288.6	97.38
288.831	92.38
289.062	83.38
289.293	101.38
289.524	105.38
289.755	95.38
289.986	91.38
290.217	82.38
290.448	89.38
290.679	79.38
290.91	90.38
291.141	91.38
291.371	94.38
291.602	77.38
291.833	88.38
292.064	84.38
292.295	88.38
292.526	87.38
292.757	94.38
292.987	97.38
293.218	80.38
293.449	89.38
293.68	95.38
293.91	94.38
294.141	100.38
294.372	106.38
294.603	93.38
294.833	92.38
295.064	96.38
295.295	100.38
295.525	86.38
295.756	92.38
295.987	90.38
296.217	90.38
296.448	92.38
296.679	82.38
296.909	98.38
297.14	96.38
297.37	91.38
297.601	88.38
297.831	88.38
298.062	97.38
298.292	93.38
298.523	97.38
298.753	102.38
298.984	91.38
299.214	94.38
299.445	90.38
299.675	98.38
299.905	89.38
300.136	82.38
300.366	97.38
300.597	105.38
300.827	89.38
301.057	82.38
301.288	101.38
301.518	116.38
301.748	94.38
301.979	85.38
302.209	85.38
302.439	96.38
302.669	85.38
302.9	82.38
303.13	103.38
303.36	95.38
303.59	91.38
303.82	108.38
304.051	88.38
304.281	92.38
304.511	106.38
304.741	99.38
304.971	100.38
305.201	86.38
305.431	89.38
305.661	91.38
305.891	102.38
306.121	88.38
306.352	97.38
306.582	98.38
306.812	92.38
307.042	96.38
307.272	85.38
307.502	94.38
307.731	94.38
307.961	102.38
308.191	95.38
308.421	94.38
308.651	84.38
308.881	88.38
309.111	106.38
309.341	73.38
309.571	93.38
309.8	81.38
310.03	100.38
310.26	96.38
310.49	86.38
310.72	104.38
310.949	95.38
311.179	102.38
311.409	91.38
311.639	102.38
311.868	100.38
312.098	86.38
312.328	95.38
312.557	88.38
312.787	82.38
313.017	101.38
313.246	100.38
313.476	106.38
313.706	91.38
313.935	90.38
314.165	79.38
314.394	96.38
314.624	93.38
314.853	93.38
315.083	105.38
315.312	92.38
315.542	101.38
315.771	96.38
316.001	94.38
316.23	98.38
316.46	99.38
316.689	94.38
316.919	102.38
317.148	87.38
317.377	100.38
317.607	99.38
317.836	81.38
318.065	91.38
318.295	88.38
318.524	87.38
318.753	98.38
318.983	99.38
319.212	99.38
319.441	97.38
319.67	101.38
319.9	102.38
320.129	99.38
320.358	91.38
320.587	97.38
320.816	83.38
321.046	86.38
321.275	99.38
321.504	80.38
321.733	76.38
321.962	81.38
322.191	84.38
322.42	91.38
322.649	102.38
322.878	90.38
323.108	81.38
323.337	99.38
323.566	101.38
323.795	78.38
324.024	93.38
324.253	101.38
324.482	90.38
324.71	102.38
324.939	82.38
325.168	94.38
325.397	98.38
325.626	100.38
325.855	99.38
326.084	113.38
326.313	104.38
326.542	96.38
326.77	103.38
326.999	92.38
327.228	97.38
327.457	97.38
327.686	94.38
327.914	90.38
328.143	102.38
328.372	87.38
328.6	95.38
328.829	97.38
329.058	78.38
329.287	93.38
329.515	93.38
329.744	114.38
329.972	95.38
330.201	86.38
330.43	91.38
330.658	92.38
330.887	94.38
331.115	88.38
331.344	103.38
331.572	92.38
331.801	99.38
332.03	98.38
332.258	98.38
332.486	87.38
332.715	89.38
332.943	92.38
333.172	93.38
333.4	92.38
333.629	98.38
333.857	107.38
334.085	89.38
334.314	106.38
334.542	102.38
334.771	93.38
334.999	95.38
335.227	97.38
335.455	107.38
335.684	104.38
335.912	98.38
336.14	102.38
336.369	99.38
336.597	100.38
336.825	89.38
337.053	103.38
337.281	90.38
337.51	88.38
337.738	91.38
337.966	93.38
338.194	103.38
338.422	90.38
338.65	97.38
338.878	82.38
339.106	83.38
339.334	94.38
339.562	97.38
339.79	99.38
340.018	106.38
340.246	88.38
340.474	93.38
340.702	98.38
340.93	76.38
341.158	104.38
341.386	99.38
341.614	89.38
341.842	93.38
342.07	88.38
342.298	102.38
342.526	98.38
342.754	89.38
342.981	105.38
343.209	98.38
343.437	98.38
343.665	94.38
343.893	91.38
344.12	97.38
344.348	102.38
344.576	98.38
344.804	88.38
345.031	90.38
345.259	96.38
345.487	100.38
345.714	101.38
345.942	79.38
346.17	97.38
346.397	89.38
346.625	96.38
346.853	90.38
347.08	108.38
347.308	101.38
347.535	93.38
347.763	90.38
347.99	99.38
348.218	96.38
348.445	88.38
348.673	106.38
348.9	108.38
349.128	84.38
349.355	93.38
349.583	104.38
349.81	96.38
350.037	94.38
350.265	101.38
350.492	91.38
350.72	91.38
350.947	93.38
351.174	76.38
351.402	104.38
351.629	87.38
351.856	101.38
352.083	86.38
352.311	98.38
352.538	91.38
352.765	86.38
352.992	106.38
353.22	98.38
353.447	91.38
353.674	104.38
353.901	92.38
354.128	100.38
354.355	88.38
354.583	95.38
354.81	100.38
355.037	99.38
355.264	87.38
355.491	100.38
355.718	95.38
355.945	98.38
356.172	93.38
356.399	89.38
356.626	85.38
356.853	96.38
357.08	96.38
357.307	93.38
357.534	91.38
357.761	84.38
357.988	96.38
358.215	100.38
358.441	92.38
358.668	90.38
358.895	89.38
359.122	86.38
359.349	85.38
359.576	93.38
359.802	84.38
360.029	98.38
360.256	95.38
360.483	96.38
360.709	103.38
360.936	97.38
361.163	84.38
361.39	100.38
361.616	86.38
361.843	106.38
362.07	85.38
362.296	97.38
362.523	93.38
362.749	92.38
362.976	89.38
363.203	97.38
363.429	92.38
363.656	97.38
363.882	101.38
364.109	92.38
364.335	99.38
364.562	96.38
364.788	91.38
365.015	89.38
365.241	100.38
365.468	96.38
365.694	76.38
365.92	105.38
366.147	85.38
366.373	96.38
366.599	89.38
366.826	92.38
367.052	95.38
367.278	84.38
367.505	94.38
367.731	103.38
367.957	88.38
368.184	90.38
368.41	99.38
368.636	94.38
368.862	77.38
369.089	94.38
369.315	91.38
369.541	101.38
369.767	96.38
369.993	92.38
370.219	75.38
370.445	106.38
370.672	85.38
370.898	104.38
371.124	99.38
371.35	103.38
371.576	89.38
371.802	97.38
372.028	99.38
372.254	116.38
372.48	96.38
372.706	91.38
372.932	97.38
373.158	104.38
373.384	90.38
373.61	105.38
373.835	90.38
374.061	82.38
374.287	99.38
374.513	91.38
374.739	85.38
374.965	101.38
375.191	101.38
375.416	98.38
375.642	104.38
375.868	101.38
376.094	108.38
376.319	86.38
376.545	93.38
376.771	90.38
376.997	105.38
377.222	86.38
377.448	102.38
377.674	93.38
377.899	95.38
378.125	103.38
378.35	85.38
378.576	88.38
378.802	80.38
379.027	90.38
379.253	97.38
379.478	102.38
379.704	92.38
379.929	89.38
380.155	96.38
380.38	86.38
380.606	89.38
380.831	101.38
381.057	95.38
381.282	93.38
381.507	99.38
381.733	93.38
381.958	74.38
382.184	107.38
382.409	102.38
382.634	104.38
382.86	93.38
383.085	93.38
383.31	85.38
383.535	84.38
383.761	88.38
383.986	97.38
384.211	95.38
384.436	96.38
384.662	86.38
384.887	106.38
385.112	98.38
385.337	93.38
385.562	106.38
385.787	93.38
386.013	108.38
386.238	89.38
386.463	108.38
386.688	104.38
386.913	96.38
387.138	100.38
387.363	91.38
387.588	94.38
387.813	96.38
388.038	102.38
388.263	76.38
388.488	81.38
388.713	97.38
388.938	98.38
389.163	103.38
389.387	95.38
389.612	97.38
389.837	97.38
390.062	100.38
390.287	83.38
390.512	89.38
390.736	91.38
390.961	76.38
391.186	97.38
391.411	85.38
391.636	114.38
391.86	99.38
392.085	94.38
392.31	88.38
392.534	106.38
392.759	118.38
392.984	108.38
393.208	92.38
393.433	72.38
393.658	83.38
393.882	92.38
394.107	101.38
394.331	90.38
394.556	100.38
394.78	90.38
395.005	84.38
395.229	84.38
395.454	102.38
395.678	86.38
395.903	104.38
396.127	93.38
396.352	91.38
396.576	94.38
396.801	82.38
397.025	86.38
397.249	100.38
397.474	99.38
397.698	101.38
397.922	86.38
398.147	96.38
398.371	81.38
398.595	93.38
398.82	96.38
399.044	93.38
399.268	106.38
399.492	104.38
399.717	116.38
399.941	90.38
400.165	105.38
400.389	110.38
400.613	92.38
400.837	89.38
401.062	99.38
401.286	105.38
401.51	107.38
401.734	101.38
401.958	105.38
402.182	105.38
402.406	109.38
402.63	112.38
402.854	107.38
403.078	89.38
403.302	101.38
403.526	90.38
403.75	103.38
403.974	97.38
404.198	98.38
404.422	115.38
404.645	112.38
404.869	109.38
405.093	105.38
405.317	105.38
405.541	96.38
405.765	98.38
405.988	100.38
406.212	96.38
406.436	100.38
406.66	106.38
406.883	92.38
407.107	96.38
407.331	98.38
407.555	98.38
407.778	94.38
408.002	113.38
408.226	101.38
408.449	108.38
408.673	91.38
408.896	94.38
409.12	104.38
409.344	96.38
409.567	105.38
409.791	99.38
410.014	105.38
410.238	93.38
410.461	99.38
410.685	100.38
410.908	99.38
411.132	115.38
411.355	103.38
411.578	96.38
411.802	89.38
412.025	100.38
412.249	104.38
412.472	97.38
412.695	93.38
412.919	93.38
413.142	92.38
413.365	85.38
413.589	98.38
413.812	90.38
414.035	88.38
414.258	101.38
414.482	90.38
414.705	98.38
414.928	90.38
415.151	98.38
415.374	96.38
415.597	94.38
415.821	91.38
416.044	94.38
416.267	98.38
416.49	97.38
416.713	98.38
416.936	99.38
417.159	100.38
417.382	98.38
417.605	87.38
417.828	93.38
418.051	79.38
418.274	101.38
418.497	103.38
418.72	101.38
418.943	86.38
419.166	88.38
419.389	88.38
419.611	107.38
419.834	102.38
420.057	71.38
420.28	96.38
420.503	101.38
420.726	100.38
420.948	100.38
421.171	82.38
421.394	105.38
421.617	82.38
421.839	91.38
422.062	99.38
422.285	95.38
422.507	104.38
422.73	97.38
422.953	99.38
423.175	86.38
423.398	108.38
423.621	105.38
423.843	93.38
424.066	102.38
424.288	106.38
424.511	99.38
424.733	94.38
424.956	84.38
425.178	97.38
425.401	88.38
425.623	105.38
425.846	111.38
426.068	96.38
426.291	81.38
426.513	96.38
426.735	88.38
426.958	89.38
427.18	87.38
427.402	92.38
427.625	91.38
427.847	84.38
428.069	86.38
428.292	84.38
428.514	98.38
428.736	90.38
428.958	101.38
429.181	92.38
429.403	96.38
429.625	99.38
429.847	91.38
430.069	87.38
430.292	81.38
430.514	104.38
430.736	84.38
430.958	97.38
431.18	84.38
431.402	90.38
431.624	87.38
431.846	97.38
432.068	102.38
432.29	86.38
432.512	95.38
432.734	97.38
432.956	92.38
433.178	93.38
433.4	98.38
433.622	102.38
433.844	98.38
434.066	89.38
434.287	85.38
434.509	83.38
434.731	89.38
434.953	89.38
435.175	84.38
435.397	98.38
435.618	102.38
435.84	89.38
436.062	86.38
436.284	84.38
436.505	113.38
436.727	86.38
436.949	86.38
437.17	106.38
437.392	88.38
437.614	79.38
437.835	94.38
438.057	90.38
438.278	93.38
438.5	89.38
438.721	93.38
438.943	81.38
439.165	92.38
439.386	72.38
439.608	102.38
439.829	110.38
440.05	103.38
440.272	84.38
440.493	92.38
440.715	99.38
440.936	102.38
441.158	93.38
441.379	87.38
441.6	98.38
441.822	95.38
442.043	91.38
442.264	89.38
442.486	98.38
442.707	86.38
442.928	103.38
443.149	85.38
443.371	94.38
443.592	82.38
443.813	84.38
444.034	84.38
444.255	107.38
444.476	91.38
444.698	93.38
444.919	100.38
445.14	215.38
445.361	140.38
445.582	112.38
445.803	102.38
446.024	97.38
446.245	77.38
446.466	100.38
446.687	94.38
446.908	87.38
447.129	84.38
447.35	88.38
447.571	89.38
447.792	81.38
448.013	89.38
448.234	98.38
448.455	102.38
448.675	95.38
448.896	88.38
449.117	95.38
449.338	99.38
449.559	92.38
449.779	96.38
450	96.38
450.221	84.38
450.442	93.38
450.662	93.38
450.883	99.38
451.104	86.38
451.324	94.38
451.545	107.38
451.766	103.38
451.986	89.38
452.207	77.38
452.428	87.38
452.648	96.38
452.869	98.38
453.089	97.38
453.31	98.38
453.53	81.38
453.751	84.38
453.971	105.38
454.192	88.38
454.412	103.38
454.633	97.38
454.853	105.38
455.073	87.38
455.294	99.38
455.514	91.38
455.734	91.38
455.955	97.38
456.175	83.38
456.395	106.38
456.616	98.38
456.836	93.38
457.056	88.38
457.276	84.38
457.497	85.38
457.717	90.38
457.937	88.38
458.157	90.38
458.377	90.38
458.598	94.38
458.818	104.38
459.038	93.38
459.258	97.38
459.478	90.38
459.698	96.38
459.918	105.38
460.138	94.38
460.358	99.38
460.578	101.38
460.798	109.38
461.018	103.38
461.238	91.38
461.458	87.38
461.678	96.38
461.898	96.38
462.118	105.38
462.338	96.38
462.558	96.38
462.777	97.38
462.997	102.38
463.217	102.38
463.437	119.38
463.657	96.38
463.876	105.38
464.096	105.38
464.316	105.38
464.536	113.38
464.755	108.38
464.975	103.38
465.195	109.38
465.414	105.38
465.634	98.38
465.854	90.38
466.073	93.38
466.293	94.38
466.512	95.38
466.732	84.38
466.951	112.38
467.171	97.38
467.391	83.38
467.61	87.38
467.829	86.38
468.049	95.38
468.268	105.38
468.488	98.38
468.707	106.38
468.927	91.38
469.146	93.38
469.365	100.38
469.585	85.38
469.804	88.38
470.023	98.38
470.243	115.38
470.462	86.38
470.681	107.38
470.901	106.38
471.12	108.38
471.339	98.38
471.558	105.38
471.777	79.38
471.997	95.38
472.216	107.38
472.435	89.38
472.654	102.38
472.873	102.38
473.092	104.38
473.311	91.38
473.53	88.38
473.749	93.38
473.968	86.38
474.187	98.38
474.406	105.38
474.625	90.38
474.844	102.38
475.063	102.38
475.282	110.38
475.501	104.38
475.72	92.38
475.939	89.38
476.158	87.38
476.377	96.38
476.596	101.38
476.814	106.38
477.033	110.38
477.252	96.38
477.471	86.38
477.69	100.38
477.908	98.38
478.127	100.38
478.346	102.38
478.564	89.38
478.783	103.38
479.002	106.38
479.22	99.38
479.439	105.38
479.658	97.38
479.876	88.38
480.095	96.38
480.313	99.38
480.532	106.38
480.751	116.38
480.969	91.38
481.188	93.38
481.406	102.38
481.624	103.38
481.843	96.38
482.061	95.38
482.28	101.38
482.498	110.38
482.717	102.38
482.935	109.38
483.153	101.38
483.372	93.38
483.59	100.38
483.808	94.38
484.027	107.38
484.245	106.38
484.463	101.38
484.681	108.38
484.9	91.38
485.118	94.38
485.336	105.38
485.554	106.38
485.772	93.38
485.99	117.38
486.209	103.38
486.427	104.38
486.645	101.38
486.863	104.38
487.081	103.38
487.299	93.38
487.517	106.38
487.735	113.38
487.953	114.38
488.171	105.38
488.389	112.38
488.607	111.38
488.825	90.38
489.043	96.38
489.261	112.38
489.479	114.38
489.696	107.38
489.914	93.38
490.132	114.38
490.35	120.38
490.568	94.38
490.786	114.38
491.003	98.38
491.221	113.38
491.439	115.38
491.657	93.38
491.874	120.38
492.092	115.38
492.31	116.38
492.527	110.38
492.745	101.38
492.963	107.38
493.18	107.38
493.398	119.38
493.615	121.38
493.833	94.38
494.05	113.38
494.268	114.38
494.485	121.38
494.703	106.38
494.92	122.38
495.138	96.38
495.355	102.38
495.573	110.38
495.79	118.38
496.008	116.38
496.225	109.38
496.442	107.38
496.66	103.38
496.877	130.38
497.094	115.38
497.312	110.38
497.529	108.38
497.746	112.38
497.963	100.38
498.181	114.38
498.398	110.38
498.615	106.38
498.832	114.38
499.049	126.38
499.267	125.38
499.484	127.38
499.701	117.38
499.918	144.38
500.135	153.38
500.352	140.38
500.569	156.38
500.786	151.38
501.003	155.38
501.22	135.38
501.437	125.38
501.654	123.38
501.871	118.38
502.088	121.38
502.305	117.38
502.522	109.38
502.739	116.38
502.956	102.38
503.172	102.38
503.389	108.38
503.606	101.38
503.823	115.38
504.04	115.38
504.256	112.38
504.473	106.38
504.69	122.38
504.907	113.38
505.123	105.38
505.34	116.38
505.557	118.38
505.773	113.38
505.99	113.38
506.207	99.38
506.423	99.38
506.64	113.38
506.856	114.38
507.073	98.38
507.289	106.38
507.506	107.38
507.722	115.38
507.939	90.38
508.155	104.38
508.372	106.38
508.588	98.38
508.805	107.38
509.021	93.38
509.238	106.38
509.454	104.38
509.67	90.38
509.887	106.38
510.103	97.38
510.319	93.38
510.536	99.38
510.752	114.38
510.968	104.38
511.184	101.38
511.401	102.38
511.617	102.38
511.833	94.38
512.049	100.38
512.265	106.38
512.481	96.38
512.698	107.38
512.914	92.38
513.13	100.38
513.346	112.38
513.562	92.38
513.778	89.38
513.994	93.38
514.21	103.38
514.426	100.38
514.642	106.38
514.858	94.38
515.074	110.38
515.29	101.38
515.506	99.38
515.721	104.38
515.937	112.38
516.153	95.38
516.369	93.38
516.585	109.38
516.801	104.38
517.016	108.38
517.232	96.38
517.448	107.38
517.664	106.38
517.879	101.38
518.095	107.38
518.311	105.38
518.527	103.38
518.742	99.38
518.958	99.38
519.173	95.38
519.389	117.38
519.605	100.38
519.82	104.38
520.036	103.38
520.251	98.38
520.467	98.38
520.682	110.38
520.898	105.38
521.113	95.38
521.329	98.38
521.544	105.38
521.76	107.38
521.975	110.38
522.19	95.38
522.406	108.38
522.621	109.38
522.836	93.38
523.052	110.38
523.267	101.38
523.482	88.38
523.698	98.38
523.913	110.38
524.128	108.38
524.343	125.38
524.559	106.38
524.774	102.38
524.989	101.38
525.204	125.38
525.419	94.38
525.634	94.38
525.849	104.38
526.064	101.38
526.28	117.38
526.495	102.38
526.71	101.38
526.925	91.38
527.14	94.38
527.355	89.38
527.57	108.38
527.785	99.38
527.999	109.38
528.214	111.38
528.429	86.38
528.644	125.38
528.859	99.38
529.074	85.38
529.289	117.38
529.503	101.38
529.718	103.38
529.933	113.38
530.148	110.38
530.363	112.38
530.577	101.38
530.792	101.38
531.007	87.38
531.221	91.38
531.436	108.38
531.651	90.38
531.865	98.38
532.08	98.38
532.295	103.38
532.509	109.38
532.724	108.38
532.938	111.38
533.153	115.38
533.367	119.38
533.582	109.38
533.796	111.38
534.011	109.38
534.225	103.38
534.44	94.38
534.654	104.38
534.868	105.38
535.083	106.38
535.297	113.38
535.511	104.38
535.726	101.38
535.94	116.38
536.154	104.38
536.369	93.38
536.583	102.38
536.797	103.38
537.011	108.38
537.225	93.38
537.44	100.38
537.654	88.38
537.868	100.38
538.082	100.38
538.296	102.38
538.51	89.38
538.724	91.38
538.938	99.38
539.153	116.38
539.367	94.38
539.581	91.38
539.795	92.38
540.009	101.38
540.222	98.38
540.436	96.38
540.65	97.38
540.864	98.38
541.078	101.38
541.292	101.38
541.506	103.38
541.72	120.38
541.934	91.38
542.147	104.38
542.361	113.38
542.575	112.38
542.789	102.38
543.002	112.38
543.216	104.38
543.43	103.38
543.644	104.38
543.857	97.38
544.071	103.38
544.285	109.38
544.498	107.38
544.712	96.38
544.925	114.38
545.139	107.38
545.352	99.38
545.566	107.38
545.779	103.38
545.993	106.38
546.206	113.38
546.42	119.38
546.633	116.38
546.847	106.38
547.06	103.38
547.274	106.38
547.487	114.38
547.7	112.38
547.914	114.38
548.127	107.38
548.34	95.38
548.554	102.38
548.767	98.38
548.98	101.38
549.193	111.38
549.407	104.38
549.62	113.38
549.833	114.38
550.046	114.38
550.259	97.38
550.473	100.38
550.686	105.38
550.899	120.38
551.112	107.38
551.325	120.38
551.538	93.38
551.751	85.38
551.964	104.38
552.177	107.38
552.39	103.38
552.603	92.38
552.816	100.38
553.029	104.38
553.242	107.38
553.455	94.38
553.667	122.38
553.88	105.38
554.093	102.38
554.306	88.38
554.519	99.38
554.732	96.38
554.944	100.38
555.157	110.38
555.37	98.38
555.583	108.38
555.795	114.38
556.008	105.38
556.221	112.38
556.433	100.38
556.646	101.38
556.859	105.38
557.071	93.38
557.284	94.38
557.496	93.38
557.709	105.38
557.921	112.38
558.134	99.38
558.346	101.38
558.559	106.38
558.771	99.38
558.984	119.38
559.196	96.38
559.409	102.38
559.621	108.38
559.833	95.38
560.046	99.38
560.258	96.38
560.47	81.38
560.683	95.38
560.895	99.38
561.107	103.38
561.32	99.38
561.532	98.38
561.744	104.38
561.956	104.38
562.168	120.38
562.381	101.38
562.593	112.38
562.805	102.38
563.017	98.38
563.229	98.38
563.441	86.38
563.653	93.38
563.865	96.38
564.077	99.38
564.289	96.38
564.501	96.38
564.713	106.38
564.925	102.38
565.137	91.38
565.349	106.38
565.561	107.38
565.773	107.38
565.985	107.38
566.197	109.38
566.408	103.38
566.62	118.38
566.832	97.38
567.044	118.38
567.255	89.38
567.467	112.38
567.679	119.38
567.891	121.38
568.102	121.38
568.314	115.38
568.526	122.38
568.737	113.38
568.949	115.38
569.161	92.38
569.372	105.38
569.584	76.38
569.795	102.38
570.007	95.38
570.218	99.38
570.43	99.38
570.641	104.38
570.853	98.38
571.064	96.38
571.276	103.38
571.487	109.38
571.698	95.38
571.91	79.38
572.121	98.38
572.333	109.38
572.544	98.38
572.755	91.38
572.966	88.38
573.178	98.38
573.389	110.38
573.6	93.38
573.811	98.38
574.023	113.38
574.234	94.38
574.445	90.38
574.656	101.38
574.867	102.38
575.078	113.38
575.289	106.38
575.501	101.38
575.712	113.38
575.923	90.38
576.134	80.38
576.345	82.38
576.556	97.38
576.767	104.38
576.978	101.38
577.188	105.38
577.399	95.38
577.61	89.38
577.821	87.38
578.032	85.38
578.243	106.38
578.454	87.38
578.665	107.38
578.875	90.38
579.086	107.38
579.297	112.38
579.508	102.38
579.718	93.38
579.929	86.38
580.14	106.38
580.35	93.38
580.561	100.38
580.772	95.38
580.982	104.38
581.193	85.38
581.403	89.38
581.614	96.38
581.825	83.38
582.035	103.38
582.246	80.38
582.456	90.38
582.667	100.38
582.877	82.38
583.087	96.38
583.298	99.38
583.508	94.38
583.719	92.38
583.929	90.38
584.139	88.38
584.35	84.38
584.56	87.38
584.77	84.38
584.981	90.38
585.191	89.38
585.401	94.38
585.611	83.38
585.821	91.38
586.032	100.38
586.242	101.38
586.452	91.38
586.662	96.38
586.872	96.38
587.082	94.38
587.292	81.38
587.502	91.38
587.713	101.38
587.923	109.38
588.133	93.38
588.343	87.38
588.553	90.38
588.762	88.38
588.972	99.38
589.182	88.38
589.392	96.38
589.602	99.38
589.812	97.38
590.022	103.38
590.232	90.38
590.441	106.38
590.651	86.38
590.861	99.38
591.071	84.38
591.281	97.38
591.49	86.38
591.7	95.38
591.91	104.38
592.119	85.38
592.329	86.38
592.539	84.38
592.748	86.38
592.958	101.38
593.167	86.38
593.377	103.38
593.587	99.38
593.796	105.38
594.006	95.38
594.215	86.38
594.424	89.38
594.634	89.38
594.843	93.38
595.053	93.38
595.262	94.38
595.472	98.38
595.681	98.38
595.89	93.38
596.1	83.38
596.309	95.38
596.518	83.38
596.727	88.38
596.937	80.38
597.146	93.38
597.355	90.38
597.564	92.38
597.774	94.38
597.983	89.38
598.192	80.38
598.401	96.38
598.61	90.38
598.819	96.38
599.028	92.38
599.237	78.38
599.446	89.38
599.655	88.38
599.864	84.38
600.073	92.38
600.282	86.38
600.491	110.38
600.7	90.38
600.909	68.38
601.118	87.38
601.327	92.38
601.536	96.38
601.745	97.38
601.953	89.38
602.162	88.38
602.371	108.38
602.58	104.38
602.789	95.38
602.997	99.38
603.206	80.38
603.415	76.38
603.623	78.38
603.832	83.38
604.041	96.38
604.249	92.38
604.458	93.38
604.666	85.38
604.875	93.38
605.084	91.38
605.292	105.38
605.501	91.38
605.709	93.38
605.918	93.38
606.126	96.38
606.334	101.38
606.543	90.38
606.751	90.38
606.96	83.38
607.168	86.38
607.376	84.38
607.585	94.38
607.793	104.38
608.001	99.38
608.21	83.38
608.418	99.38
608.626	86.38
608.834	92.38
609.043	103.38
609.251	107.38
609.459	82.38
609.667	112.38
609.875	84.38
610.083	92.38
610.291	86.38
610.499	88.38
610.707	66.38
610.916	89.38
611.124	72.38
611.332	91.38
611.54	100.38
611.748	89.38
611.955	86.38
612.163	90.38
612.371	86.38
612.579	96.38
612.787	80.38
612.995	90.38
613.203	94.38
613.411	90.38
613.618	97.38
613.826	91.38
614.034	72.38
614.242	104.38
614.449	94.38
614.657	95.38
614.865	69.38
615.072	85.38
615.28	97.38
615.488	100.38
615.695	101.38
615.903	89.38
616.111	106.38
616.318	83.38
616.526	89.38
616.733	97.38
616.941	86.38
617.148	92.38
617.356	93.38
617.563	90.38
617.771	88.38
617.978	107.38
618.185	93.38
618.393	85.38
618.6	97.38
618.807	98.38
619.015	98.38
619.222	88.38
619.429	80.38
619.637	96.38
619.844	103.38
620.051	93.38
620.258	98.38
620.466	90.38
620.673	102.38
620.88	93.38
621.087	92.38
621.294	81.38
621.501	84.38
621.708	91.38
621.915	81.38
622.122	98.38
622.329	100.38
622.536	85.38
622.743	94.38
622.95	86.38
623.157	81.38
623.364	93.38
623.571	85.38
623.778	91.38
623.985	102.38
624.192	100.38
624.399	102.38
624.606	105.38
624.812	94.38
625.019	88.38
625.226	84.38
625.433	85.38
625.639	102.38
625.846	87.38
626.053	88.38
626.259	84.38
626.466	83.38
626.673	104.38
626.879	92.38
627.086	87.38
627.293	91.38
627.499	91.38
627.706	91.38
627.912	86.38
628.119	92.38
628.325	89.38
628.532	88.38
628.738	94.38
628.945	83.38
629.151	93.38
629.357	87.38
629.564	83.38
629.77	85.38
629.976	82.38
630.183	78.38
630.389	95.38
630.595	95.38
630.802	91.38
631.008	89.38
631.214	83.38
631.42	86.38
631.627	96.38
631.833	74.38
632.039	89.38
632.245	88.38
632.451	83.38
632.657	73.38
632.863	86.38
633.069	85.38
633.275	88.38
633.481	87.38
633.688	75.38
633.893	86.38
634.099	78.38
634.305	90.38
634.511	103.38
634.717	92.38
634.923	85.38
635.129	85.38
635.335	106.38
635.541	101.38
635.747	92.38
635.952	92.38
636.158	80.38
636.364	97.38
636.57	81.38
636.775	102.38
636.981	85.38
637.187	89.38
637.392	94.38
637.598	104.38
637.804	85.38
638.009	90.38
638.215	89.38
638.421	94.38
638.626	83.38
638.832	101.38
639.037	86.38
639.243	96.38
639.448	90.38
639.654	88.38
639.859	90.38
640.065	77.38
640.27	102.38
640.475	85.38
640.681	78.38
640.886	82.38
641.091	80.38
641.297	99.38
641.502	89.38
641.707	82.38
641.913	79.38
642.118	89.38
642.323	86.38
642.528	94.38
642.733	85.38
642.939	86.38
643.144	84.38
643.349	92.38
643.554	109.38
643.759	90.38
643.964	75.38
644.169	88.38
644.374	85.38
644.579	100.38
644.784	97.38
644.989	82.38
645.194	80.38
645.399	85.38
645.604	78.38
645.809	98.38
646.014	86.38
646.219	90.38
646.423	85.38
646.628	94.38
646.833	93.38
647.038	86.38
647.243	90.38
647.447	81.38
647.652	87.38
647.857	80.38
648.062	72.38
648.266	81.38
648.471	85.38
648.676	90.38
648.88	97.38
649.085	86.38
649.289	91.38
649.494	82.38
649.698	82.38
649.903	93.38
650.107	105.38
650.312	101.38
650.516	85.38
650.721	81.38
650.925	94.38
651.13	77.38
651.334	82.38
651.539	85.38
651.743	92.38
651.947	76.38
652.152	92.38
652.356	87.38
652.56	94.38
652.764	102.38
652.969	97.38
653.173	110.38
653.377	89.38
653.581	75.38
653.785	87.38
653.99	86.38
654.194	72.38
654.398	83.38
654.602	71.38
654.806	73.38
655.01	88.38
655.214	78.38
655.418	85.38
655.622	94.38
655.826	80.38
656.03	74.38
656.234	74.38
656.438	84.38
656.642	72.38
656.846	76.38
657.049	94.38
657.253	82.38
657.457	93.38
657.661	88.38
657.865	80.38
658.068	81.38
658.272	93.38
658.476	93.38
658.68	80.38
658.883	83.38
659.087	89.38
659.291	82.38
659.494	76.38
659.698	77.38
659.901	73.38
660.105	74.38
660.309	87.38
660.512	85.38
660.716	96.38
660.919	79.38
661.123	91.38
661.326	82.38
661.53	72.38
661.733	108.38
661.936	77.38
662.14	92.38
662.343	87.38
662.546	91.38
662.75	91.38
662.953	87.38
663.156	85.38
663.36	91.38
663.563	82.38
663.766	81.38
663.969	88.38
664.173	68.38
664.376	91.38
664.579	94.38
664.782	81.38
664.985	88.38
665.188	80.38
665.391	91.38
665.594	85.38
665.797	100.38
666	83.38
666.203	92.38
666.406	81.38
666.609	93.38
666.812	106.38
667.015	96.38
667.218	86.38
667.421	89.38
667.624	69.38
667.827	83.38
668.03	81.38
668.232	95.38
668.435	88.38
668.638	87.38
668.841	81.38
669.043	75.38
669.246	97.38
669.449	85.38
669.651	90.38
669.854	78.38
670.057	90.38
670.259	93.38
670.462	76.38
670.665	89.38
670.867	73.38
671.07	81.38
671.272	78.38
671.475	85.38
671.677	80.38
671.88	94.38
672.082	95.38
672.284	82.38
672.487	81.38
672.689	72.38
672.892	93.38
