Data from Location5.07152019.Energy5.Lamp.07192019.3%Agarose_HRD10591_15-38-02-387.txt Node
Date: Fri Jul 19 15:38:02 EDT 2019
User: cochatt
Spectrometer: HR+D1059
Trigger mode: 1
Integration Time (sec): 1.000000E-1
Scans to average: 1
Electric dark correction enabled: true
Nonlinearity correction enabled: false
Boxcar width: 0
XAxis mode: Wavelengths
Number of Pixels in Spectrum: 2048
>>>>>Begin Spectral Data<<<<<
223.165	-9.12
223.4	-9.12
223.635	-9.12
223.869	-8.12
224.104	-11.12
224.338	-9.12
224.573	-26.12
224.808	-24.12
225.042	-26.12
225.277	-4.12
225.511	9.88
225.746	10.88
225.98	10.88
226.215	1.88
226.449	8.88
226.683	13.88
226.918	21.88
227.152	39.88
227.387	38.88
227.621	41.88
227.856	41.88
228.09	53.88
228.324	45.88
228.559	57.88
228.793	63.88
229.027	47.88
229.262	54.88
229.496	68.88
229.73	64.88
229.964	71.88
230.199	74.88
230.433	63.88
230.667	72.88
230.901	75.88
231.136	86.88
231.37	73.88
231.604	90.88
231.838	77.88
232.072	86.88
232.306	76.88
232.541	90.88
232.775	87.88
233.009	77.88
233.243	88.88
233.477	87.88
233.711	79.88
233.945	92.88
234.179	74.88
234.413	72.88
234.647	99.88
234.881	77.88
235.115	79.88
235.349	70.88
235.583	84.88
235.817	61.88
236.051	78.88
236.285	73.88
236.519	73.88
236.753	87.88
236.987	77.88
237.221	71.88
237.455	75.88
237.689	82.88
237.922	72.88
238.156	95.88
238.39	71.88
238.624	83.88
238.858	73.88
239.091	77.88
239.325	79.88
239.559	82.88
239.793	85.88
240.027	71.88
240.26	62.88
240.494	60.88
240.728	85.88
240.961	75.88
241.195	64.88
241.429	72.88
241.662	71.88
241.896	59.88
242.13	72.88
242.363	80.88
242.597	79.88
242.83	76.88
243.064	73.88
243.298	79.88
243.531	66.88
243.765	85.88
243.998	68.88
244.232	80.88
244.465	72.88
244.699	85.88
244.932	75.88
245.166	70.88
245.399	73.88
245.633	54.88
245.866	64.88
246.099	78.88
246.333	77.88
246.566	67.88
246.8	88.88
247.033	81.88
247.266	77.88
247.5	74.88
247.733	78.88
247.966	90.88
248.2	81.88
248.433	85.88
248.666	77.88
248.899	80.88
249.133	86.88
249.366	97.88
249.599	75.88
249.832	65.88
250.066	72.88
250.299	78.88
250.532	65.88
250.765	75.88
250.998	85.88
251.231	101.88
251.465	87.88
251.698	82.88
251.931	74.88
252.164	73.88
252.397	69.88
252.63	78.88
252.863	80.88
253.096	93.88
253.329	71.88
253.562	77.88
253.795	75.88
254.028	94.88
254.261	64.88
254.494	66.88
254.727	85.88
254.96	94.88
255.193	76.88
255.426	79.88
255.659	73.88
255.892	78.88
256.124	75.88
256.357	75.88
256.59	72.88
256.823	88.88
257.056	77.88
257.289	73.88
257.521	83.88
257.754	79.88
257.987	82.88
258.22	74.88
258.452	81.88
258.685	77.88
258.918	69.88
259.151	76.88
259.383	81.88
259.616	79.88
259.849	81.88
260.081	70.88
260.314	83.88
260.547	86.88
260.779	70.88
261.012	89.88
261.244	81.88
261.477	88.88
261.71	77.88
261.942	73.88
262.175	81.88
262.407	76.88
262.64	83.88
262.872	73.88
263.105	76.88
263.337	84.88
263.57	74.88
263.802	81.88
264.035	80.88
264.267	80.88
264.499	81.88
264.732	76.88
264.964	84.88
265.197	75.88
265.429	93.88
265.661	87.88
265.894	84.88
266.126	80.88
266.358	83.88
266.591	76.88
266.823	76.88
267.055	82.88
267.287	82.88
267.52	76.88
267.752	68.88
267.984	103.88
268.216	82.88
268.448	84.88
268.681	72.88
268.913	74.88
269.145	83.88
269.377	93.88
269.609	78.88
269.841	73.88
270.073	78.88
270.306	81.88
270.538	78.88
270.77	77.88
271.002	80.88
271.234	84.88
271.466	71.88
271.698	76.88
271.93	83.88
272.162	85.88
272.394	79.88
272.626	64.88
272.858	78.88
273.09	77.88
273.322	87.88
273.553	89.88
273.785	69.88
274.017	74.88
274.249	88.88
274.481	82.88
274.713	69.88
274.945	81.88
275.176	66.88
275.408	81.88
275.64	89.88
275.872	65.88
276.104	81.88
276.335	76.88
276.567	74.88
276.799	86.88
277.031	84.88
277.262	69.88
277.494	91.88
277.726	77.88
277.957	88.88
278.189	71.88
278.421	73.88
278.652	86.88
278.884	84.88
279.115	88.88
279.347	88.88
279.579	86.88
279.81	86.88
280.042	95.88
280.273	96.88
280.505	77.88
280.736	86.88
280.968	90.88
281.199	86.88
281.431	72.88
281.662	88.88
281.894	80.88
282.125	82.88
282.356	74.88
282.588	84.88
282.819	80.88
283.051	84.88
283.282	88.88
283.513	75.88
283.745	74.88
283.976	87.88
284.207	87.88
284.439	82.88
284.67	88.88
284.901	96.88
285.132	76.88
285.364	62.88
285.595	80.88
285.826	82.88
286.057	69.88
286.288	84.88
286.52	74.88
286.751	91.88
286.982	100.88
287.213	81.88
287.444	85.88
287.675	99.88
287.906	88.88
288.138	84.88
288.369	94.88
288.6	83.88
288.831	75.88
289.062	83.88
289.293	77.88
289.524	88.88
289.755	86.88
289.986	76.88
290.217	85.88
290.448	71.88
290.679	85.88
290.91	89.88
291.141	99.88
291.371	81.88
291.602	80.88
291.833	86.88
292.064	69.88
292.295	74.88
292.526	86.88
292.757	88.88
292.987	93.88
293.218	98.88
293.449	90.88
293.68	93.88
293.91	82.88
294.141	92.88
294.372	79.88
294.603	81.88
294.833	93.88
295.064	99.88
295.295	89.88
295.525	96.88
295.756	89.88
295.987	84.88
296.217	83.88
296.448	86.88
296.679	71.88
296.909	69.88
297.14	85.88
297.37	82.88
297.601	81.88
297.831	82.88
298.062	82.88
298.292	63.88
298.523	78.88
298.753	90.88
298.984	87.88
299.214	81.88
299.445	77.88
299.675	82.88
299.905	79.88
300.136	68.88
300.366	87.88
300.597	87.88
300.827	80.88
301.057	80.88
301.288	77.88
301.518	68.88
301.748	80.88
301.979	86.88
302.209	97.88
302.439	78.88
302.669	77.88
302.9	80.88
303.13	78.88
303.36	92.88
303.59	87.88
303.82	79.88
304.051	91.88
304.281	84.88
304.511	69.88
304.741	63.88
304.971	72.88
305.201	78.88
305.431	74.88
305.661	77.88
305.891	87.88
306.121	79.88
306.352	73.88
306.582	80.88
306.812	98.88
307.042	81.88
307.272	71.88
307.502	78.88
307.731	65.88
307.961	86.88
308.191	70.88
308.421	81.88
308.651	70.88
308.881	73.88
309.111	68.88
309.341	75.88
309.571	92.88
309.8	84.88
310.03	78.88
310.26	72.88
310.49	80.88
310.72	82.88
310.949	73.88
311.179	71.88
311.409	87.88
311.639	83.88
311.868	82.88
312.098	89.88
312.328	72.88
312.557	81.88
312.787	93.88
313.017	83.88
313.246	84.88
313.476	83.88
313.706	82.88
313.935	76.88
314.165	90.88
314.394	83.88
314.624	83.88
314.853	85.88
315.083	72.88
315.312	76.88
315.542	58.88
315.771	76.88
316.001	85.88
316.23	82.88
316.46	84.88
316.689	75.88
316.919	92.88
317.148	79.88
317.377	77.88
317.607	78.88
317.836	74.88
318.065	88.88
318.295	79.88
318.524	93.88
318.753	94.88
318.983	80.88
319.212	71.88
319.441	82.88
319.67	85.88
319.9	65.88
320.129	72.88
320.358	80.88
320.587	89.88
320.816	84.88
321.046	98.88
321.275	88.88
321.504	92.88
321.733	89.88
321.962	86.88
322.191	81.88
322.42	74.88
322.649	87.88
322.878	64.88
323.108	92.88
323.337	85.88
323.566	80.88
323.795	81.88
324.024	80.88
324.253	85.88
324.482	84.88
324.71	74.88
324.939	76.88
325.168	71.88
325.397	78.88
325.626	90.88
325.855	74.88
326.084	83.88
326.313	81.88
326.542	83.88
326.77	81.88
326.999	86.88
327.228	89.88
327.457	64.88
327.686	86.88
327.914	82.88
328.143	87.88
328.372	73.88
328.6	80.88
328.829	84.88
329.058	80.88
329.287	79.88
329.515	72.88
329.744	81.88
329.972	83.88
330.201	64.88
330.43	84.88
330.658	104.88
330.887	77.88
331.115	85.88
331.344	76.88
331.572	84.88
331.801	80.88
332.03	75.88
332.258	80.88
332.486	81.88
332.715	83.88
332.943	91.88
333.172	77.88
333.4	78.88
333.629	82.88
333.857	82.88
334.085	67.88
334.314	85.88
334.542	81.88
334.771	92.88
334.999	85.88
335.227	81.88
335.455	70.88
335.684	94.88
335.912	85.88
336.14	72.88
336.369	87.88
336.597	84.88
336.825	89.88
337.053	84.88
337.281	79.88
337.51	86.88
337.738	84.88
337.966	79.88
338.194	71.88
338.422	77.88
338.65	89.88
338.878	86.88
339.106	69.88
339.334	95.88
339.562	90.88
339.79	85.88
340.018	83.88
340.246	80.88
340.474	85.88
340.702	77.88
340.93	71.88
341.158	85.88
341.386	75.88
341.614	89.88
341.842	75.88
342.07	82.88
342.298	74.88
342.526	83.88
342.754	86.88
342.981	73.88
343.209	70.88
343.437	85.88
343.665	91.88
343.893	87.88
344.12	77.88
344.348	72.88
344.576	102.88
344.804	85.88
345.031	80.88
345.259	82.88
345.487	72.88
345.714	90.88
345.942	81.88
346.17	101.88
346.397	85.88
346.625	88.88
346.853	94.88
347.08	77.88
347.308	71.88
347.535	89.88
347.763	81.88
347.99	73.88
348.218	86.88
348.445	92.88
348.673	88.88
348.9	88.88
349.128	89.88
349.355	92.88
349.583	86.88
349.81	71.88
350.037	75.88
350.265	76.88
350.492	77.88
350.72	73.88
350.947	67.88
351.174	73.88
351.402	86.88
351.629	84.88
351.856	93.88
352.083	85.88
352.311	79.88
352.538	80.88
352.765	85.88
352.992	76.88
353.22	96.88
353.447	71.88
353.674	86.88
353.901	79.88
354.128	92.88
354.355	82.88
354.583	72.88
354.81	88.88
355.037	81.88
355.264	86.88
355.491	89.88
355.718	80.88
355.945	72.88
356.172	78.88
356.399	80.88
356.626	74.88
356.853	91.88
357.08	82.88
357.307	72.88
357.534	79.88
357.761	91.88
357.988	91.88
358.215	74.88
358.441	74.88
358.668	75.88
358.895	86.88
359.122	84.88
359.349	63.88
359.576	82.88
359.802	79.88
360.029	88.88
360.256	83.88
360.483	63.88
360.709	78.88
360.936	83.88
361.163	75.88
361.39	78.88
361.616	83.88
361.843	93.88
362.07	74.88
362.296	85.88
362.523	82.88
362.749	74.88
362.976	72.88
363.203	79.88
363.429	85.88
363.656	89.88
363.882	80.88
364.109	85.88
364.335	63.88
364.562	88.88
364.788	82.88
365.015	85.88
365.241	81.88
365.468	76.88
365.694	69.88
365.92	87.88
366.147	82.88
366.373	79.88
366.599	79.88
366.826	74.88
367.052	95.88
367.278	83.88
367.505	90.88
367.731	96.88
367.957	78.88
368.184	99.88
368.41	85.88
368.636	79.88
368.862	82.88
369.089	62.88
369.315	79.88
369.541	73.88
369.767	88.88
369.993	89.88
370.219	92.88
370.445	87.88
370.672	70.88
370.898	84.88
371.124	77.88
371.35	81.88
371.576	91.88
371.802	74.88
372.028	78.88
372.254	79.88
372.48	82.88
372.706	81.88
372.932	84.88
373.158	72.88
373.384	75.88
373.61	81.88
373.835	81.88
374.061	80.88
374.287	80.88
374.513	58.88
374.739	74.88
374.965	81.88
375.191	84.88
375.416	80.88
375.642	77.88
375.868	87.88
376.094	77.88
376.319	72.88
376.545	82.88
376.771	80.88
376.997	74.88
377.222	93.88
377.448	92.88
377.674	89.88
377.899	87.88
378.125	72.88
378.35	77.88
378.576	81.88
378.802	83.88
379.027	74.88
379.253	82.88
379.478	80.88
379.704	82.88
379.929	83.88
380.155	85.88
380.38	101.88
380.606	91.88
380.831	77.88
381.057	109.88
381.282	85.88
381.507	78.88
381.733	79.88
381.958	73.88
382.184	74.88
382.409	70.88
382.634	77.88
382.86	93.88
383.085	96.88
383.31	80.88
383.535	85.88
383.761	95.88
383.986	89.88
384.211	93.88
384.436	73.88
384.662	90.88
384.887	69.88
385.112	86.88
385.337	84.88
385.562	72.88
385.787	98.88
386.013	91.88
386.238	79.88
386.463	93.88
386.688	85.88
386.913	80.88
387.138	79.88
387.363	77.88
387.588	88.88
387.813	80.88
388.038	70.88
388.263	90.88
388.488	79.88
388.713	85.88
388.938	87.88
389.163	65.88
389.387	74.88
389.612	75.88
389.837	82.88
390.062	87.88
390.287	73.88
390.512	96.88
390.736	86.88
390.961	73.88
391.186	88.88
391.411	77.88
391.636	89.88
391.86	96.88
392.085	84.88
392.31	87.88
392.534	77.88
392.759	96.88
392.984	93.88
393.208	81.88
393.433	85.88
393.658	90.88
393.882	78.88
394.107	78.88
394.331	78.88
394.556	81.88
394.78	95.88
395.005	96.88
395.229	85.88
395.454	82.88
395.678	80.88
395.903	87.88
396.127	89.88
396.352	74.88
396.576	84.88
396.801	82.88
397.025	87.88
397.249	84.88
397.474	92.88
397.698	73.88
397.922	84.88
398.147	93.88
398.371	69.88
398.595	79.88
398.82	69.88
399.044	60.88
399.268	89.88
399.492	80.88
399.717	74.88
399.941	90.88
400.165	98.88
400.389	87.88
400.613	94.88
400.837	94.88
401.062	83.88
401.286	91.88
401.51	84.88
401.734	91.88
401.958	80.88
402.182	89.88
402.406	84.88
402.63	86.88
402.854	80.88
403.078	104.88
403.302	76.88
403.526	83.88
403.75	89.88
403.974	81.88
404.198	75.88
404.422	84.88
404.645	84.88
404.869	87.88
405.093	88.88
405.317	92.88
405.541	80.88
405.765	94.88
405.988	93.88
406.212	99.88
406.436	88.88
406.66	89.88
406.883	84.88
407.107	93.88
407.331	82.88
407.555	95.88
407.778	88.88
408.002	88.88
408.226	78.88
408.449	80.88
408.673	84.88
408.896	85.88
409.12	89.88
409.344	77.88
409.567	94.88
409.791	102.88
410.014	86.88
410.238	97.88
410.461	87.88
410.685	89.88
410.908	89.88
411.132	89.88
411.355	83.88
411.578	78.88
411.802	97.88
412.025	71.88
412.249	92.88
412.472	97.88
412.695	85.88
412.919	90.88
413.142	98.88
413.365	72.88
413.589	85.88
413.812	83.88
414.035	85.88
414.258	88.88
414.482	77.88
414.705	78.88
414.928	79.88
415.151	81.88
415.374	94.88
415.597	78.88
415.821	97.88
416.044	101.88
416.267	82.88
416.49	93.88
416.713	91.88
416.936	92.88
417.159	85.88
417.382	78.88
417.605	89.88
417.828	93.88
418.051	87.88
418.274	71.88
418.497	89.88
418.72	91.88
418.943	101.88
419.166	98.88
419.389	102.88
419.611	80.88
419.834	92.88
420.057	89.88
420.28	92.88
420.503	87.88
420.726	88.88
420.948	75.88
421.171	97.88
421.394	94.88
421.617	103.88
421.839	81.88
422.062	92.88
422.285	83.88
422.507	92.88
422.73	98.88
422.953	87.88
423.175	95.88
423.398	95.88
423.621	90.88
423.843	89.88
424.066	88.88
424.288	80.88
424.511	97.88
424.733	93.88
424.956	108.88
425.178	92.88
425.401	90.88
425.623	102.88
425.846	97.88
426.068	87.88
426.291	102.88
426.513	97.88
426.735	88.88
426.958	77.88
427.18	78.88
427.402	92.88
427.625	85.88
427.847	79.88
428.069	86.88
428.292	91.88
428.514	91.88
428.736	84.88
428.958	96.88
429.181	80.88
429.403	88.88
429.625	90.88
429.847	86.88
430.069	97.88
430.292	87.88
430.514	93.88
430.736	86.88
430.958	94.88
431.18	86.88
431.402	89.88
431.624	101.88
431.846	76.88
432.068	76.88
432.29	82.88
432.512	87.88
432.734	80.88
432.956	97.88
433.178	93.88
433.4	93.88
433.622	97.88
433.844	89.88
434.066	90.88
434.287	84.88
434.509	76.88
434.731	84.88
434.953	79.88
435.175	90.88
435.397	85.88
435.618	92.88
435.84	87.88
436.062	102.88
436.284	87.88
436.505	100.88
436.727	77.88
436.949	89.88
437.17	99.88
437.392	108.88
437.614	87.88
437.835	81.88
438.057	93.88
438.278	86.88
438.5	97.88
438.721	86.88
438.943	89.88
439.165	108.88
439.386	91.88
439.608	108.88
439.829	93.88
440.05	101.88
440.272	92.88
440.493	100.88
440.715	93.88
440.936	98.88
441.158	104.88
441.379	101.88
441.6	113.88
441.822	99.88
442.043	92.88
442.264	85.88
442.486	106.88
442.707	85.88
442.928	86.88
443.149	92.88
443.371	88.88
443.592	99.88
443.813	113.88
444.034	84.88
444.255	108.88
444.476	97.88
444.698	91.88
444.919	100.88
445.14	200.88
445.361	143.88
445.582	104.88
445.803	94.88
446.024	88.88
446.245	92.88
446.466	89.88
446.687	98.88
446.908	110.88
447.129	89.88
447.35	90.88
447.571	98.88
447.792	95.88
448.013	80.88
448.234	94.88
448.455	99.88
448.675	103.88
448.896	86.88
449.117	95.88
449.338	92.88
449.559	101.88
449.779	92.88
450	89.88
450.221	96.88
450.442	91.88
450.662	103.88
450.883	100.88
451.104	87.88
451.324	92.88
451.545	93.88
451.766	102.88
451.986	89.88
452.207	93.88
452.428	104.88
452.648	102.88
452.869	86.88
453.089	99.88
453.31	88.88
453.53	82.88
453.751	85.88
453.971	72.88
454.192	84.88
454.412	76.88
454.633	73.88
454.853	98.88
455.073	105.88
455.294	63.88
455.514	102.88
455.734	85.88
455.955	82.88
456.175	86.88
456.395	83.88
456.616	78.88
456.836	89.88
457.056	83.88
457.276	88.88
457.497	79.88
457.717	68.88
457.937	90.88
458.157	86.88
458.377	77.88
458.598	74.88
458.818	84.88
459.038	73.88
459.258	79.88
459.478	81.88
459.698	81.88
459.918	80.88
460.138	79.88
460.358	86.88
460.578	65.88
460.798	80.88
461.018	84.88
461.238	95.88
461.458	88.88
461.678	89.88
461.898	73.88
462.118	92.88
462.338	93.88
462.558	84.88
462.777	94.88
462.997	103.88
463.217	80.88
463.437	73.88
463.657	86.88
463.876	88.88
464.096	73.88
464.316	96.88
464.536	93.88
464.755	102.88
464.975	94.88
465.195	77.88
465.414	94.88
465.634	90.88
465.854	90.88
466.073	93.88
466.293	104.88
466.512	83.88
466.732	77.88
466.951	89.88
467.171	87.88
467.391	77.88
467.61	97.88
467.829	87.88
468.049	94.88
468.268	86.88
468.488	102.88
468.707	88.88
468.927	97.88
469.146	85.88
469.365	96.88
469.585	94.88
469.804	105.88
470.023	88.88
470.243	97.88
470.462	95.88
470.681	106.88
470.901	101.88
471.12	90.88
471.339	90.88
471.558	95.88
471.777	90.88
471.997	96.88
472.216	81.88
472.435	98.88
472.654	94.88
472.873	94.88
473.092	77.88
473.311	82.88
473.53	89.88
473.749	96.88
473.968	90.88
474.187	82.88
474.406	99.88
474.625	82.88
474.844	95.88
475.063	89.88
475.282	90.88
475.501	88.88
475.72	88.88
475.939	88.88
476.158	104.88
476.377	88.88
476.596	102.88
476.814	96.88
477.033	88.88
477.252	79.88
477.471	96.88
477.69	97.88
477.908	87.88
478.127	91.88
478.346	86.88
478.564	104.88
478.783	98.88
479.002	100.88
479.22	93.88
479.439	81.88
479.658	97.88
479.876	84.88
480.095	76.88
480.313	81.88
480.532	90.88
480.751	80.88
480.969	84.88
481.188	71.88
481.406	77.88
481.624	90.88
481.843	78.88
482.061	88.88
482.28	88.88
482.498	88.88
482.717	95.88
482.935	91.88
483.153	87.88
483.372	101.88
483.59	88.88
483.808	100.88
484.027	94.88
484.245	86.88
484.463	92.88
484.681	101.88
484.9	92.88
485.118	99.88
485.336	80.88
485.554	82.88
485.772	96.88
485.99	75.88
486.209	84.88
486.427	81.88
486.645	88.88
486.863	91.88
487.081	90.88
487.299	89.88
487.517	81.88
487.735	108.88
487.953	122.88
488.171	106.88
488.389	101.88
488.607	101.88
488.825	96.88
489.043	113.88
489.261	97.88
489.479	102.88
489.696	90.88
489.914	95.88
490.132	88.88
490.35	116.88
490.568	72.88
490.786	93.88
491.003	96.88
491.221	110.88
491.439	99.88
491.657	115.88
491.874	108.88
492.092	124.88
492.31	111.88
492.527	115.88
492.745	117.88
492.963	105.88
493.18	103.88
493.398	121.88
493.615	110.88
493.833	104.88
494.05	110.88
494.268	105.88
494.485	122.88
494.703	96.88
494.92	123.88
495.138	118.88
495.355	109.88
495.573	113.88
495.79	109.88
496.008	97.88
496.225	95.88
496.442	109.88
496.66	108.88
496.877	90.88
497.094	94.88
497.312	93.88
497.529	96.88
497.746	119.88
497.963	79.88
498.181	101.88
498.398	87.88
498.615	97.88
498.832	89.88
499.049	102.88
499.267	86.88
499.484	88.88
499.701	85.88
499.918	92.88
500.135	101.88
500.352	89.88
500.569	89.88
500.786	93.88
501.003	101.88
501.22	90.88
501.437	84.88
501.654	92.88
501.871	80.88
502.088	90.88
502.305	85.88
502.522	106.88
502.739	79.88
502.956	92.88
503.172	90.88
503.389	90.88
503.606	81.88
503.823	98.88
504.04	94.88
504.256	100.88
504.473	86.88
504.69	87.88
504.907	103.88
505.123	93.88
505.34	101.88
505.557	98.88
505.773	97.88
505.99	92.88
506.207	73.88
506.423	87.88
506.64	88.88
506.856	98.88
507.073	89.88
507.289	95.88
507.506	84.88
507.722	93.88
507.939	88.88
508.155	83.88
508.372	86.88
508.588	93.88
508.805	84.88
509.021	76.88
509.238	93.88
509.454	73.88
509.67	80.88
509.887	77.88
510.103	83.88
510.319	73.88
510.536	77.88
510.752	86.88
510.968	85.88
511.184	64.88
511.401	93.88
511.617	85.88
511.833	87.88
512.049	77.88
512.265	84.88
512.481	80.88
512.698	82.88
512.914	90.88
513.13	88.88
513.346	89.88
513.562	83.88
513.778	88.88
513.994	88.88
514.21	76.88
514.426	98.88
514.642	80.88
514.858	92.88
515.074	78.88
515.29	85.88
515.506	91.88
515.721	89.88
515.937	93.88
516.153	82.88
516.369	81.88
516.585	93.88
516.801	81.88
517.016	81.88
517.232	98.88
517.448	87.88
517.664	96.88
517.879	67.88
518.095	84.88
518.311	93.88
518.527	86.88
518.742	84.88
518.958	82.88
519.173	83.88
519.389	85.88
519.605	94.88
519.82	81.88
520.036	94.88
520.251	89.88
520.467	79.88
520.682	79.88
520.898	73.88
521.113	85.88
521.329	76.88
521.544	80.88
521.76	78.88
521.975	81.88
522.19	90.88
522.406	92.88
522.621	93.88
522.836	92.88
523.052	86.88
523.267	88.88
523.482	88.88
523.698	93.88
523.913	76.88
524.128	86.88
524.343	105.88
524.559	81.88
524.774	84.88
524.989	96.88
525.204	94.88
525.419	83.88
525.634	82.88
525.849	69.88
526.064	83.88
526.28	88.88
526.495	94.88
526.71	96.88
526.925	85.88
527.14	76.88
527.355	93.88
527.57	96.88
527.785	67.88
527.999	89.88
528.214	102.88
528.429	89.88
528.644	90.88
528.859	94.88
529.074	91.88
529.289	88.88
529.503	90.88
529.718	82.88
529.933	107.88
530.148	79.88
530.363	93.88
530.577	89.88
530.792	84.88
531.007	91.88
531.221	75.88
531.436	68.88
531.651	77.88
531.865	87.88
532.08	82.88
532.295	93.88
532.509	83.88
532.724	77.88
532.938	89.88
533.153	92.88
533.367	92.88
533.582	97.88
533.796	103.88
534.011	94.88
534.225	100.88
534.44	83.88
534.654	87.88
534.868	93.88
535.083	76.88
535.297	90.88
535.511	103.88
535.726	87.88
535.94	93.88
536.154	93.88
536.369	88.88
536.583	75.88
536.797	90.88
537.011	89.88
537.225	84.88
537.44	82.88
537.654	70.88
537.868	90.88
538.082	82.88
538.296	80.88
538.51	89.88
538.724	98.88
538.938	93.88
539.153	85.88
539.367	97.88
539.581	88.88
539.795	87.88
540.009	94.88
540.222	85.88
540.436	93.88
540.65	113.88
540.864	103.88
541.078	96.88
541.292	92.88
541.506	98.88
541.72	108.88
541.934	105.88
542.147	98.88
542.361	107.88
542.575	95.88
542.789	96.88
543.002	96.88
543.216	87.88
543.43	101.88
543.644	89.88
543.857	94.88
544.071	94.88
544.285	104.88
544.498	90.88
544.712	93.88
544.925	111.88
545.139	97.88
545.352	103.88
545.566	102.88
545.779	93.88
545.993	101.88
546.206	110.88
546.42	109.88
546.633	103.88
546.847	105.88
547.06	112.88
547.274	106.88
547.487	102.88
547.7	117.88
547.914	100.88
548.127	101.88
548.34	106.88
548.554	105.88
548.767	102.88
548.98	114.88
549.193	100.88
549.407	97.88
549.62	112.88
549.833	105.88
550.046	87.88
550.259	97.88
550.473	89.88
550.686	116.88
550.899	95.88
551.112	108.88
551.325	90.88
551.538	111.88
551.751	99.88
551.964	87.88
552.177	89.88
552.39	101.88
552.603	92.88
552.816	99.88
553.029	110.88
553.242	91.88
553.455	111.88
553.667	96.88
553.88	101.88
554.093	110.88
554.306	108.88
554.519	112.88
554.732	95.88
554.944	98.88
555.157	102.88
555.37	94.88
555.583	108.88
555.795	86.88
556.008	95.88
556.221	118.88
556.433	100.88
556.646	93.88
556.859	89.88
557.071	93.88
557.284	102.88
557.496	81.88
557.709	109.88
557.921	102.88
558.134	102.88
558.346	92.88
558.559	93.88
558.771	85.88
558.984	104.88
559.196	95.88
559.409	101.88
559.621	99.88
559.833	90.88
560.046	87.88
560.258	108.88
560.47	95.88
560.683	90.88
560.895	103.88
561.107	81.88
561.32	84.88
561.532	89.88
561.744	79.88
561.956	108.88
562.168	100.88
562.381	95.88
562.593	86.88
562.805	88.88
563.017	97.88
563.229	95.88
563.441	101.88
563.653	110.88
563.865	81.88
564.077	89.88
564.289	85.88
564.501	76.88
564.713	96.88
564.925	83.88
565.137	95.88
565.349	94.88
565.561	90.88
565.773	79.88
565.985	95.88
566.197	96.88
566.408	85.88
566.62	109.88
566.832	85.88
567.044	82.88
567.255	93.88
567.467	87.88
567.679	87.88
567.891	96.88
568.102	88.88
568.314	80.88
568.526	86.88
568.737	98.88
568.949	90.88
569.161	75.88
569.372	82.88
569.584	74.88
569.795	97.88
570.007	84.88
570.218	78.88
570.43	80.88
570.641	78.88
570.853	83.88
571.064	86.88
571.276	86.88
571.487	82.88
571.698	86.88
571.91	87.88
572.121	92.88
572.333	76.88
572.544	87.88
572.755	99.88
572.966	86.88
573.178	83.88
573.389	95.88
573.6	92.88
573.811	89.88
574.023	70.88
574.234	78.88
574.445	71.88
574.656	76.88
574.867	87.88
575.078	88.88
575.289	80.88
575.501	88.88
575.712	84.88
575.923	78.88
576.134	75.88
576.345	93.88
576.556	88.88
576.767	89.88
576.978	83.88
577.188	104.88
577.399	77.88
577.61	81.88
577.821	83.88
578.032	80.88
578.243	84.88
578.454	82.88
578.665	88.88
578.875	82.88
579.086	71.88
579.297	87.88
579.508	78.88
579.718	82.88
579.929	91.88
580.14	81.88
580.35	80.88
580.561	86.88
580.772	83.88
580.982	92.88
581.193	87.88
581.403	89.88
581.614	67.88
581.825	82.88
582.035	76.88
582.246	82.88
582.456	84.88
582.667	90.88
582.877	93.88
583.087	85.88
583.298	84.88
583.508	78.88
583.719	84.88
583.929	86.88
584.139	90.88
584.35	91.88
584.56	86.88
584.77	86.88
584.981	82.88
585.191	83.88
585.401	76.88
585.611	89.88
585.821	68.88
586.032	86.88
586.242	86.88
586.452	90.88
586.662	87.88
586.872	82.88
587.082	78.88
587.292	80.88
587.502	79.88
587.713	91.88
587.923	90.88
588.133	84.88
588.343	66.88
588.553	81.88
588.762	88.88
588.972	79.88
589.182	80.88
589.392	81.88
589.602	79.88
589.812	83.88
590.022	84.88
590.232	82.88
590.441	82.88
590.651	78.88
590.861	77.88
591.071	80.88
591.281	95.88
591.49	82.88
591.7	84.88
591.91	90.88
592.119	88.88
592.329	91.88
592.539	79.88
592.748	95.88
592.958	79.88
593.167	78.88
593.377	86.88
593.587	89.88
593.796	97.88
594.006	86.88
594.215	85.88
594.424	92.88
594.634	83.88
594.843	86.88
595.053	90.88
595.262	86.88
595.472	86.88
595.681	95.88
595.89	84.88
596.1	65.88
596.309	80.88
596.518	81.88
596.727	74.88
596.937	94.88
597.146	90.88
597.355	79.88
597.564	96.88
597.774	95.88
597.983	75.88
598.192	74.88
598.401	64.88
598.61	87.88
598.819	92.88
599.028	87.88
599.237	88.88
599.446	99.88
599.655	86.88
599.864	86.88
600.073	90.88
600.282	81.88
600.491	76.88
600.7	76.88
600.909	76.88
601.118	87.88
601.327	89.88
601.536	79.88
601.745	81.88
601.953	98.88
602.162	87.88
602.371	76.88
602.58	71.88
602.789	72.88
602.997	102.88
603.206	84.88
603.415	80.88
603.623	95.88
603.832	80.88
604.041	91.88
604.249	94.88
604.458	95.88
604.666	95.88
604.875	81.88
605.084	86.88
605.292	82.88
605.501	91.88
605.709	87.88
605.918	79.88
606.126	96.88
606.334	80.88
606.543	87.88
606.751	98.88
606.96	87.88
607.168	87.88
607.376	85.88
607.585	92.88
607.793	90.88
608.001	88.88
608.21	79.88
608.418	103.88
608.626	82.88
608.834	100.88
609.043	90.88
609.251	88.88
609.459	74.88
609.667	84.88
609.875	88.88
610.083	86.88
610.291	81.88
610.499	87.88
610.707	95.88
610.916	99.88
611.124	92.88
611.332	88.88
611.54	90.88
611.748	81.88
611.955	102.88
612.163	102.88
612.371	77.88
612.579	78.88
612.787	90.88
612.995	99.88
613.203	89.88
613.411	95.88
613.618	106.88
613.826	94.88
614.034	82.88
614.242	87.88
614.449	80.88
614.657	97.88
614.865	87.88
615.072	87.88
615.28	87.88
615.488	89.88
615.695	90.88
615.903	91.88
616.111	85.88
616.318	84.88
616.526	82.88
616.733	87.88
616.941	94.88
617.148	92.88
617.356	94.88
617.563	89.88
617.771	84.88
617.978	85.88
618.185	88.88
618.393	83.88
618.6	82.88
618.807	80.88
619.015	88.88
619.222	100.88
619.429	92.88
619.637	85.88
619.844	85.88
620.051	92.88
620.258	84.88
620.466	81.88
620.673	88.88
620.88	84.88
621.087	99.88
621.294	83.88
621.501	95.88
621.708	86.88
621.915	91.88
622.122	86.88
622.329	93.88
622.536	94.88
622.743	94.88
622.95	83.88
623.157	88.88
623.364	83.88
623.571	81.88
623.778	99.88
623.985	87.88
624.192	83.88
624.399	93.88
624.606	92.88
624.812	97.88
625.019	82.88
625.226	84.88
625.433	79.88
625.639	98.88
625.846	84.88
626.053	69.88
626.259	73.88
626.466	84.88
626.673	80.88
626.879	86.88
627.086	80.88
627.293	95.88
627.499	91.88
627.706	84.88
627.912	87.88
628.119	82.88
628.325	80.88
628.532	85.88
628.738	82.88
628.945	86.88
629.151	95.88
629.357	78.88
629.564	92.88
629.77	96.88
629.976	79.88
630.183	81.88
630.389	92.88
630.595	80.88
630.802	79.88
631.008	80.88
631.214	87.88
631.42	89.88
631.627	95.88
631.833	89.88
632.039	80.88
632.245	88.88
632.451	89.88
632.657	88.88
632.863	81.88
633.069	72.88
633.275	87.88
633.481	86.88
633.688	87.88
633.893	81.88
634.099	72.88
634.305	92.88
634.511	75.88
634.717	83.88
634.923	102.88
635.129	76.88
635.335	88.88
635.541	78.88
635.747	84.88
635.952	85.88
636.158	81.88
636.364	91.88
636.57	90.88
636.775	81.88
636.981	74.88
637.187	96.88
637.392	90.88
637.598	85.88
637.804	89.88
638.009	76.88
638.215	81.88
638.421	87.88
638.626	104.88
638.832	99.88
639.037	89.88
639.243	92.88
639.448	74.88
639.654	85.88
639.859	85.88
640.065	71.88
640.27	96.88
640.475	98.88
640.681	79.88
640.886	76.88
641.091	87.88
641.297	76.88
641.502	80.88
641.707	86.88
641.913	96.88
642.118	77.88
642.323	78.88
642.528	82.88
642.733	91.88
642.939	88.88
643.144	73.88
643.349	77.88
643.554	89.88
643.759	85.88
643.964	92.88
644.169	77.88
644.374	80.88
644.579	87.88
644.784	100.88
644.989	87.88
645.194	89.88
645.399	74.88
645.604	89.88
645.809	102.88
646.014	93.88
646.219	82.88
646.423	75.88
646.628	88.88
646.833	85.88
647.038	80.88
647.243	83.88
647.447	81.88
647.652	82.88
647.857	77.88
648.062	93.88
648.266	78.88
648.471	81.88
648.676	84.88
648.88	93.88
649.085	71.88
649.289	86.88
649.494	88.88
649.698	89.88
649.903	76.88
650.107	74.88
650.312	77.88
650.516	86.88
650.721	83.88
650.925	72.88
651.13	69.88
651.334	88.88
651.539	80.88
651.743	91.88
651.947	76.88
652.152	100.88
652.356	81.88
652.56	82.88
652.764	84.88
652.969	82.88
653.173	88.88
653.377	81.88
653.581	80.88
653.785	86.88
653.99	89.88
654.194	70.88
654.398	90.88
654.602	71.88
654.806	79.88
655.01	76.88
655.214	88.88
655.418	74.88
655.622	85.88
655.826	87.88
656.03	88.88
656.234	78.88
656.438	94.88
656.642	90.88
656.846	86.88
657.049	83.88
657.253	85.88
657.457	84.88
657.661	71.88
657.865	73.88
658.068	73.88
658.272	67.88
658.476	66.88
658.68	81.88
658.883	73.88
659.087	84.88
659.291	78.88
659.494	89.88
659.698	88.88
659.901	80.88
660.105	87.88
660.309	79.88
660.512	75.88
660.716	71.88
660.919	76.88
661.123	92.88
661.326	78.88
661.53	83.88
661.733	76.88
661.936	77.88
662.14	70.88
662.343	75.88
662.546	87.88
662.75	79.88
662.953	85.88
663.156	82.88
663.36	86.88
663.563	72.88
663.766	80.88
663.969	84.88
664.173	75.88
664.376	69.88
664.579	77.88
664.782	82.88
664.985	76.88
665.188	72.88
665.391	78.88
665.594	87.88
665.797	70.88
666	78.88
666.203	77.88
666.406	84.88
666.609	78.88
666.812	88.88
667.015	87.88
667.218	81.88
667.421	79.88
667.624	67.88
667.827	89.88
668.03	90.88
668.232	69.88
668.435	63.88
668.638	89.88
668.841	76.88
669.043	72.88
669.246	72.88
669.449	73.88
669.651	73.88
669.854	87.88
670.057	71.88
670.259	85.88
670.462	76.88
670.665	72.88
670.867	84.88
671.07	84.88
671.272	64.88
671.475	72.88
671.677	80.88
671.88	75.88
672.082	74.88
672.284	78.88
672.487	69.88
672.689	83.88
672.892	85.88
