Data from Location5.07152019.Energy5.Lamp.07192019.3%Agarose_HRD10591_16-04-25-629.txt Node
Date: Fri Jul 19 16:04:25 EDT 2019
User: cochatt
Spectrometer: HR+D1059
Trigger mode: 1
Integration Time (sec): 1.000000E-1
Scans to average: 1
Electric dark correction enabled: true
Nonlinearity correction enabled: false
Boxcar width: 0
XAxis mode: Wavelengths
Number of Pixels in Spectrum: 2048
>>>>>Begin Spectral Data<<<<<
223.165	-31.25
223.4	-31.25
223.635	-31.25
223.869	-24.25
224.104	-25.25
224.338	-9.25
224.573	-4.25
224.808	-13.25
225.042	3.75
225.277	-8.25
225.511	10.75
225.746	18.75
225.98	0.75
226.215	2.75
226.449	13.75
226.683	10.75
226.918	17.75
227.152	36.75
227.387	50.75
227.621	36.75
227.856	36.75
228.09	37.75
228.324	46.75
228.559	55.75
228.793	37.75
229.027	58.75
229.262	70.75
229.496	91.75
229.73	82.75
229.964	70.75
230.199	74.75
230.433	83.75
230.667	79.75
230.901	66.75
231.136	82.75
231.37	73.75
231.604	90.75
231.838	88.75
232.072	85.75
232.306	62.75
232.541	79.75
232.775	76.75
233.009	88.75
233.243	81.75
233.477	79.75
233.711	84.75
233.945	80.75
234.179	73.75
234.413	83.75
234.647	87.75
234.881	76.75
235.115	91.75
235.349	68.75
235.583	74.75
235.817	88.75
236.051	73.75
236.285	77.75
236.519	80.75
236.753	68.75
236.987	81.75
237.221	77.75
237.455	69.75
237.689	77.75
237.922	62.75
238.156	75.75
238.39	72.75
238.624	78.75
238.858	71.75
239.091	74.75
239.325	83.75
239.559	76.75
239.793	64.75
240.027	70.75
240.26	64.75
240.494	74.75
240.728	77.75
240.961	72.75
241.195	81.75
241.429	75.75
241.662	86.75
241.896	76.75
242.13	83.75
242.363	74.75
242.597	76.75
242.83	88.75
243.064	71.75
243.298	86.75
243.531	77.75
243.765	84.75
243.998	92.75
244.232	75.75
244.465	75.75
244.699	78.75
244.932	87.75
245.166	61.75
245.399	79.75
245.633	72.75
245.866	76.75
246.099	77.75
246.333	87.75
246.566	79.75
246.8	83.75
247.033	83.75
247.266	96.75
247.5	67.75
247.733	81.75
247.966	87.75
248.2	75.75
248.433	89.75
248.666	81.75
248.899	70.75
249.133	82.75
249.366	83.75
249.599	78.75
249.832	94.75
250.066	73.75
250.299	57.75
250.532	86.75
250.765	73.75
250.998	74.75
251.231	79.75
251.465	76.75
251.698	69.75
251.931	77.75
252.164	74.75
252.397	79.75
252.63	84.75
252.863	75.75
253.096	82.75
253.329	91.75
253.562	86.75
253.795	65.75
254.028	77.75
254.261	75.75
254.494	85.75
254.727	78.75
254.96	76.75
255.193	92.75
255.426	96.75
255.659	70.75
255.892	84.75
256.124	80.75
256.357	78.75
256.59	82.75
256.823	74.75
257.056	90.75
257.289	81.75
257.521	77.75
257.754	84.75
257.987	93.75
258.22	90.75
258.452	83.75
258.685	82.75
258.918	74.75
259.151	82.75
259.383	75.75
259.616	89.75
259.849	83.75
260.081	89.75
260.314	79.75
260.547	110.75
260.779	82.75
261.012	85.75
261.244	82.75
261.477	83.75
261.71	97.75
261.942	81.75
262.175	86.75
262.407	86.75
262.64	69.75
262.872	80.75
263.105	71.75
263.337	87.75
263.57	78.75
263.802	77.75
264.035	90.75
264.267	74.75
264.499	87.75
264.732	86.75
264.964	91.75
265.197	79.75
265.429	72.75
265.661	94.75
265.894	86.75
266.126	91.75
266.358	78.75
266.591	82.75
266.823	75.75
267.055	91.75
267.287	87.75
267.52	90.75
267.752	88.75
267.984	80.75
268.216	77.75
268.448	79.75
268.681	86.75
268.913	79.75
269.145	84.75
269.377	81.75
269.609	73.75
269.841	91.75
270.073	80.75
270.306	96.75
270.538	86.75
270.77	75.75
271.002	87.75
271.234	98.75
271.466	88.75
271.698	82.75
271.93	77.75
272.162	101.75
272.394	75.75
272.626	88.75
272.858	80.75
273.09	77.75
273.322	88.75
273.553	90.75
273.785	90.75
274.017	84.75
274.249	82.75
274.481	77.75
274.713	81.75
274.945	81.75
275.176	84.75
275.408	87.75
275.64	85.75
275.872	88.75
276.104	79.75
276.335	84.75
276.567	96.75
276.799	75.75
277.031	78.75
277.262	86.75
277.494	88.75
277.726	115.75
277.957	105.75
278.189	89.75
278.421	97.75
278.652	85.75
278.884	87.75
279.115	79.75
279.347	95.75
279.579	95.75
279.81	83.75
280.042	90.75
280.273	92.75
280.505	85.75
280.736	80.75
280.968	100.75
281.199	85.75
281.431	78.75
281.662	96.75
281.894	89.75
282.125	77.75
282.356	83.75
282.588	96.75
282.819	93.75
283.051	82.75
283.282	89.75
283.513	88.75
283.745	77.75
283.976	89.75
284.207	80.75
284.439	77.75
284.67	98.75
284.901	90.75
285.132	86.75
285.364	92.75
285.595	93.75
285.826	88.75
286.057	94.75
286.288	85.75
286.52	107.75
286.751	82.75
286.982	75.75
287.213	79.75
287.444	80.75
287.675	74.75
287.906	102.75
288.138	97.75
288.369	79.75
288.6	80.75
288.831	78.75
289.062	97.75
289.293	98.75
289.524	84.75
289.755	90.75
289.986	82.75
290.217	84.75
290.448	86.75
290.679	87.75
290.91	89.75
291.141	93.75
291.371	88.75
291.602	92.75
291.833	96.75
292.064	91.75
292.295	94.75
292.526	79.75
292.757	82.75
292.987	94.75
293.218	80.75
293.449	102.75
293.68	99.75
293.91	88.75
294.141	74.75
294.372	84.75
294.603	96.75
294.833	89.75
295.064	93.75
295.295	98.75
295.525	86.75
295.756	80.75
295.987	79.75
296.217	98.75
296.448	83.75
296.679	90.75
296.909	95.75
297.14	90.75
297.37	102.75
297.601	97.75
297.831	83.75
298.062	99.75
298.292	82.75
298.523	96.75
298.753	82.75
298.984	93.75
299.214	91.75
299.445	78.75
299.675	91.75
299.905	83.75
300.136	85.75
300.366	88.75
300.597	105.75
300.827	95.75
301.057	100.75
301.288	105.75
301.518	80.75
301.748	91.75
301.979	80.75
302.209	89.75
302.439	76.75
302.669	85.75
302.9	99.75
303.13	98.75
303.36	98.75
303.59	102.75
303.82	97.75
304.051	116.75
304.281	77.75
304.511	82.75
304.741	94.75
304.971	91.75
305.201	85.75
305.431	93.75
305.661	85.75
305.891	104.75
306.121	105.75
306.352	94.75
306.582	86.75
306.812	76.75
307.042	93.75
307.272	92.75
307.502	96.75
307.731	85.75
307.961	87.75
308.191	95.75
308.421	101.75
308.651	80.75
308.881	98.75
309.111	86.75
309.341	78.75
309.571	93.75
309.8	81.75
310.03	86.75
310.26	99.75
310.49	94.75
310.72	95.75
310.949	85.75
311.179	85.75
311.409	87.75
311.639	81.75
311.868	80.75
312.098	94.75
312.328	88.75
312.557	100.75
312.787	90.75
313.017	111.75
313.246	81.75
313.476	90.75
313.706	89.75
313.935	94.75
314.165	93.75
314.394	78.75
314.624	91.75
314.853	93.75
315.083	70.75
315.312	87.75
315.542	87.75
315.771	97.75
316.001	86.75
316.23	80.75
316.46	83.75
316.689	75.75
316.919	109.75
317.148	91.75
317.377	99.75
317.607	93.75
317.836	74.75
318.065	72.75
318.295	95.75
318.524	79.75
318.753	81.75
318.983	93.75
319.212	90.75
319.441	97.75
319.67	96.75
319.9	99.75
320.129	93.75
320.358	92.75
320.587	87.75
320.816	95.75
321.046	92.75
321.275	91.75
321.504	91.75
321.733	80.75
321.962	86.75
322.191	71.75
322.42	89.75
322.649	90.75
322.878	94.75
323.108	98.75
323.337	87.75
323.566	93.75
323.795	91.75
324.024	86.75
324.253	98.75
324.482	87.75
324.71	93.75
324.939	93.75
325.168	91.75
325.397	89.75
325.626	99.75
325.855	91.75
326.084	86.75
326.313	89.75
326.542	96.75
326.77	98.75
326.999	93.75
327.228	81.75
327.457	88.75
327.686	97.75
327.914	97.75
328.143	92.75
328.372	102.75
328.6	79.75
328.829	80.75
329.058	82.75
329.287	93.75
329.515	90.75
329.744	93.75
329.972	96.75
330.201	94.75
330.43	82.75
330.658	101.75
330.887	96.75
331.115	100.75
331.344	94.75
331.572	93.75
331.801	89.75
332.03	109.75
332.258	94.75
332.486	93.75
332.715	94.75
332.943	103.75
333.172	92.75
333.4	81.75
333.629	102.75
333.857	84.75
334.085	94.75
334.314	99.75
334.542	106.75
334.771	110.75
334.999	101.75
335.227	91.75
335.455	95.75
335.684	93.75
335.912	98.75
336.14	77.75
336.369	86.75
336.597	91.75
336.825	92.75
337.053	102.75
337.281	91.75
337.51	89.75
337.738	89.75
337.966	90.75
338.194	91.75
338.422	94.75
338.65	82.75
338.878	94.75
339.106	96.75
339.334	76.75
339.562	87.75
339.79	96.75
340.018	90.75
340.246	75.75
340.474	104.75
340.702	84.75
340.93	91.75
341.158	91.75
341.386	101.75
341.614	97.75
341.842	93.75
342.07	85.75
342.298	84.75
342.526	91.75
342.754	93.75
342.981	98.75
343.209	102.75
343.437	93.75
343.665	96.75
343.893	98.75
344.12	99.75
344.348	98.75
344.576	76.75
344.804	83.75
345.031	88.75
345.259	104.75
345.487	73.75
345.714	95.75
345.942	82.75
346.17	87.75
346.397	88.75
346.625	91.75
346.853	82.75
347.08	86.75
347.308	103.75
347.535	95.75
347.763	75.75
347.99	83.75
348.218	95.75
348.445	106.75
348.673	96.75
348.9	91.75
349.128	94.75
349.355	92.75
349.583	83.75
349.81	93.75
350.037	100.75
350.265	90.75
350.492	98.75
350.72	71.75
350.947	95.75
351.174	82.75
351.402	112.75
351.629	92.75
351.856	90.75
352.083	88.75
352.311	85.75
352.538	84.75
352.765	101.75
352.992	83.75
353.22	83.75
353.447	95.75
353.674	97.75
353.901	99.75
354.128	91.75
354.355	100.75
354.583	102.75
354.81	87.75
355.037	97.75
355.264	109.75
355.491	115.75
355.718	105.75
355.945	102.75
356.172	82.75
356.399	95.75
356.626	97.75
356.853	99.75
357.08	94.75
357.307	100.75
357.534	90.75
357.761	99.75
357.988	93.75
358.215	87.75
358.441	94.75
358.668	91.75
358.895	83.75
359.122	85.75
359.349	83.75
359.576	106.75
359.802	109.75
360.029	85.75
360.256	89.75
360.483	92.75
360.709	95.75
360.936	95.75
361.163	76.75
361.39	79.75
361.616	80.75
361.843	97.75
362.07	88.75
362.296	99.75
362.523	82.75
362.749	81.75
362.976	97.75
363.203	87.75
363.429	89.75
363.656	89.75
363.882	72.75
364.109	94.75
364.335	101.75
364.562	84.75
364.788	82.75
365.015	100.75
365.241	85.75
365.468	93.75
365.694	88.75
365.92	77.75
366.147	86.75
366.373	88.75
366.599	86.75
366.826	100.75
367.052	83.75
367.278	93.75
367.505	86.75
367.731	98.75
367.957	87.75
368.184	97.75
368.41	81.75
368.636	91.75
368.862	83.75
369.089	70.75
369.315	68.75
369.541	82.75
369.767	83.75
369.993	106.75
370.219	78.75
370.445	104.75
370.672	91.75
370.898	83.75
371.124	84.75
371.35	92.75
371.576	91.75
371.802	78.75
372.028	76.75
372.254	83.75
372.48	93.75
372.706	89.75
372.932	89.75
373.158	80.75
373.384	94.75
373.61	103.75
373.835	95.75
374.061	85.75
374.287	95.75
374.513	87.75
374.739	86.75
374.965	86.75
375.191	88.75
375.416	91.75
375.642	78.75
375.868	100.75
376.094	97.75
376.319	91.75
376.545	75.75
376.771	73.75
376.997	87.75
377.222	91.75
377.448	115.75
377.674	99.75
377.899	69.75
378.125	81.75
378.35	87.75
378.576	77.75
378.802	96.75
379.027	93.75
379.253	95.75
379.478	81.75
379.704	98.75
379.929	81.75
380.155	99.75
380.38	84.75
380.606	94.75
380.831	113.75
381.057	95.75
381.282	92.75
381.507	97.75
381.733	105.75
381.958	86.75
382.184	97.75
382.409	90.75
382.634	75.75
382.86	85.75
383.085	87.75
383.31	78.75
383.535	98.75
383.761	86.75
383.986	101.75
384.211	91.75
384.436	97.75
384.662	96.75
384.887	96.75
385.112	94.75
385.337	90.75
385.562	96.75
385.787	84.75
386.013	103.75
386.238	103.75
386.463	83.75
386.688	106.75
386.913	101.75
387.138	98.75
387.363	80.75
387.588	98.75
387.813	89.75
388.038	97.75
388.263	86.75
388.488	90.75
388.713	83.75
388.938	94.75
389.163	87.75
389.387	99.75
389.612	81.75
389.837	101.75
390.062	90.75
390.287	89.75
390.512	96.75
390.736	97.75
390.961	93.75
391.186	103.75
391.411	89.75
391.636	85.75
391.86	87.75
392.085	90.75
392.31	102.75
392.534	90.75
392.759	98.75
392.984	93.75
393.208	94.75
393.433	96.75
393.658	91.75
393.882	86.75
394.107	96.75
394.331	101.75
394.556	95.75
394.78	85.75
395.005	97.75
395.229	81.75
395.454	79.75
395.678	96.75
395.903	88.75
396.127	100.75
396.352	89.75
396.576	93.75
396.801	90.75
397.025	84.75
397.249	88.75
397.474	96.75
397.698	85.75
397.922	102.75
398.147	95.75
398.371	93.75
398.595	108.75
398.82	95.75
399.044	98.75
399.268	101.75
399.492	102.75
399.717	102.75
399.941	117.75
400.165	98.75
400.389	103.75
400.613	95.75
400.837	112.75
401.062	94.75
401.286	94.75
401.51	98.75
401.734	80.75
401.958	98.75
402.182	93.75
402.406	110.75
402.63	97.75
402.854	97.75
403.078	102.75
403.302	94.75
403.526	105.75
403.75	110.75
403.974	98.75
404.198	94.75
404.422	101.75
404.645	92.75
404.869	103.75
405.093	97.75
405.317	107.75
405.541	94.75
405.765	89.75
405.988	97.75
406.212	90.75
406.436	105.75
406.66	95.75
406.883	99.75
407.107	102.75
407.331	101.75
407.555	100.75
407.778	93.75
408.002	101.75
408.226	100.75
408.449	96.75
408.673	109.75
408.896	95.75
409.12	86.75
409.344	102.75
409.567	93.75
409.791	92.75
410.014	95.75
410.238	96.75
410.461	94.75
410.685	97.75
410.908	97.75
411.132	97.75
411.355	102.75
411.578	98.75
411.802	99.75
412.025	96.75
412.249	86.75
412.472	89.75
412.695	88.75
412.919	104.75
413.142	86.75
413.365	96.75
413.589	100.75
413.812	94.75
414.035	109.75
414.258	92.75
414.482	91.75
414.705	86.75
414.928	87.75
415.151	98.75
415.374	94.75
415.597	104.75
415.821	93.75
416.044	90.75
416.267	97.75
416.49	97.75
416.713	85.75
416.936	86.75
417.159	95.75
417.382	99.75
417.605	93.75
417.828	101.75
418.051	86.75
418.274	101.75
418.497	89.75
418.72	85.75
418.943	87.75
419.166	84.75
419.389	98.75
419.611	104.75
419.834	102.75
420.057	84.75
420.28	100.75
420.503	113.75
420.726	82.75
420.948	98.75
421.171	104.75
421.394	92.75
421.617	78.75
421.839	96.75
422.062	101.75
422.285	86.75
422.507	97.75
422.73	103.75
422.953	90.75
423.175	95.75
423.398	94.75
423.621	90.75
423.843	89.75
424.066	95.75
424.288	101.75
424.511	92.75
424.733	100.75
424.956	97.75
425.178	82.75
425.401	95.75
425.623	85.75
425.846	88.75
426.068	83.75
426.291	102.75
426.513	98.75
426.735	87.75
426.958	89.75
427.18	82.75
427.402	96.75
427.625	106.75
427.847	87.75
428.069	86.75
428.292	100.75
428.514	99.75
428.736	85.75
428.958	92.75
429.181	93.75
429.403	90.75
429.625	93.75
429.847	106.75
430.069	86.75
430.292	109.75
430.514	83.75
430.736	102.75
430.958	104.75
431.18	104.75
431.402	95.75
431.624	80.75
431.846	85.75
432.068	99.75
432.29	91.75
432.512	96.75
432.734	95.75
432.956	93.75
433.178	92.75
433.4	86.75
433.622	102.75
433.844	92.75
434.066	86.75
434.287	84.75
434.509	79.75
434.731	86.75
434.953	98.75
435.175	109.75
435.397	87.75
435.618	102.75
435.84	100.75
436.062	101.75
436.284	108.75
436.505	102.75
436.727	96.75
436.949	92.75
437.17	103.75
437.392	95.75
437.614	94.75
437.835	92.75
438.057	89.75
438.278	103.75
438.5	98.75
438.721	90.75
438.943	90.75
439.165	86.75
439.386	85.75
439.608	99.75
439.829	103.75
440.05	89.75
440.272	96.75
440.493	95.75
440.715	100.75
440.936	92.75
441.158	88.75
441.379	104.75
441.6	102.75
441.822	93.75
442.043	87.75
442.264	93.75
442.486	100.75
442.707	100.75
442.928	107.75
443.149	89.75
443.371	90.75
443.592	87.75
443.813	94.75
444.034	89.75
444.255	112.75
444.476	107.75
444.698	97.75
444.919	96.75
445.14	210.75
445.361	138.75
445.582	115.75
445.803	95.75
446.024	93.75
446.245	91.75
446.466	105.75
446.687	88.75
446.908	93.75
447.129	99.75
447.35	98.75
447.571	92.75
447.792	82.75
448.013	97.75
448.234	84.75
448.455	83.75
448.675	83.75
448.896	97.75
449.117	93.75
449.338	87.75
449.559	101.75
449.779	87.75
450	91.75
450.221	100.75
450.442	101.75
450.662	97.75
450.883	84.75
451.104	89.75
451.324	101.75
451.545	91.75
451.766	99.75
451.986	101.75
452.207	75.75
452.428	88.75
452.648	96.75
452.869	93.75
453.089	89.75
453.31	86.75
453.53	92.75
453.751	91.75
453.971	92.75
454.192	95.75
454.412	95.75
454.633	99.75
454.853	89.75
455.073	95.75
455.294	94.75
455.514	101.75
455.734	87.75
455.955	96.75
456.175	90.75
456.395	84.75
456.616	90.75
456.836	84.75
457.056	121.75
457.276	100.75
457.497	96.75
457.717	107.75
457.937	82.75
458.157	94.75
458.377	94.75
458.598	98.75
458.818	90.75
459.038	100.75
459.258	97.75
459.478	97.75
459.698	89.75
459.918	95.75
460.138	94.75
460.358	102.75
460.578	96.75
460.798	106.75
461.018	94.75
461.238	97.75
461.458	93.75
461.678	94.75
461.898	110.75
462.118	111.75
462.338	101.75
462.558	96.75
462.777	104.75
462.997	88.75
463.217	101.75
463.437	98.75
463.657	115.75
463.876	92.75
464.096	91.75
464.316	107.75
464.536	98.75
464.755	98.75
464.975	102.75
465.195	96.75
465.414	99.75
465.634	94.75
465.854	102.75
466.073	95.75
466.293	94.75
466.512	89.75
466.732	97.75
466.951	100.75
467.171	87.75
467.391	89.75
467.61	96.75
467.829	100.75
468.049	90.75
468.268	99.75
468.488	93.75
468.707	85.75
468.927	97.75
469.146	90.75
469.365	93.75
469.585	89.75
469.804	101.75
470.023	102.75
470.243	97.75
470.462	90.75
470.681	117.75
470.901	104.75
471.12	92.75
471.339	106.75
471.558	98.75
471.777	90.75
471.997	99.75
472.216	92.75
472.435	90.75
472.654	103.75
472.873	94.75
473.092	97.75
473.311	93.75
473.53	108.75
473.749	86.75
473.968	87.75
474.187	87.75
474.406	98.75
474.625	106.75
474.844	95.75
475.063	93.75
475.282	90.75
475.501	96.75
475.72	96.75
475.939	99.75
476.158	91.75
476.377	102.75
476.596	89.75
476.814	94.75
477.033	97.75
477.252	100.75
477.471	92.75
477.69	107.75
477.908	90.75
478.127	93.75
478.346	94.75
478.564	96.75
478.783	97.75
479.002	113.75
479.22	117.75
479.439	106.75
479.658	99.75
479.876	93.75
480.095	81.75
480.313	95.75
480.532	105.75
480.751	105.75
480.969	103.75
481.188	109.75
481.406	89.75
481.624	97.75
481.843	102.75
482.061	102.75
482.28	91.75
482.498	109.75
482.717	104.75
482.935	102.75
483.153	101.75
483.372	106.75
483.59	99.75
483.808	114.75
484.027	93.75
484.245	108.75
484.463	92.75
484.681	114.75
484.9	91.75
485.118	116.75
485.336	98.75
485.554	99.75
485.772	91.75
485.99	97.75
486.209	93.75
486.427	100.75
486.645	91.75
486.863	94.75
487.081	85.75
487.299	109.75
487.517	106.75
487.735	111.75
487.953	101.75
488.171	106.75
488.389	98.75
488.607	107.75
488.825	96.75
489.043	89.75
489.261	111.75
489.479	103.75
489.696	113.75
489.914	102.75
490.132	96.75
490.35	99.75
490.568	98.75
490.786	105.75
491.003	108.75
491.221	101.75
491.439	101.75
491.657	94.75
491.874	101.75
492.092	104.75
492.31	97.75
492.527	119.75
492.745	107.75
492.963	102.75
493.18	101.75
493.398	116.75
493.615	106.75
493.833	86.75
494.05	114.75
494.268	117.75
494.485	117.75
494.703	97.75
494.92	103.75
495.138	117.75
495.355	98.75
495.573	111.75
495.79	110.75
496.008	109.75
496.225	98.75
496.442	115.75
496.66	111.75
496.877	116.75
497.094	112.75
497.312	120.75
497.529	96.75
497.746	111.75
497.963	116.75
498.181	97.75
498.398	120.75
498.615	105.75
498.832	104.75
499.049	120.75
499.267	111.75
499.484	119.75
499.701	146.75
499.918	121.75
500.135	139.75
500.352	147.75
500.569	152.75
500.786	159.75
501.003	163.75
501.22	142.75
501.437	143.75
501.654	125.75
501.871	112.75
502.088	105.75
502.305	127.75
502.522	103.75
502.739	90.75
502.956	104.75
503.172	107.75
503.389	115.75
503.606	113.75
503.823	109.75
504.04	115.75
504.256	101.75
504.473	107.75
504.69	120.75
504.907	111.75
505.123	111.75
505.34	103.75
505.557	106.75
505.773	93.75
505.99	107.75
506.207	102.75
506.423	119.75
506.64	95.75
506.856	96.75
507.073	100.75
507.289	110.75
507.506	97.75
507.722	90.75
507.939	104.75
508.155	111.75
508.372	107.75
508.588	107.75
508.805	110.75
509.021	89.75
509.238	95.75
509.454	96.75
509.67	104.75
509.887	84.75
510.103	96.75
510.319	87.75
510.536	96.75
510.752	88.75
510.968	89.75
511.184	95.75
511.401	91.75
511.617	99.75
511.833	101.75
512.049	91.75
512.265	109.75
512.481	93.75
512.698	102.75
512.914	95.75
513.13	104.75
513.346	114.75
513.562	90.75
513.778	104.75
513.994	98.75
514.21	102.75
514.426	98.75
514.642	95.75
514.858	96.75
515.074	103.75
515.29	111.75
515.506	96.75
515.721	93.75
515.937	103.75
516.153	102.75
516.369	105.75
516.585	90.75
516.801	112.75
517.016	100.75
517.232	111.75
517.448	115.75
517.664	100.75
517.879	97.75
518.095	88.75
518.311	113.75
518.527	103.75
518.742	89.75
518.958	99.75
519.173	93.75
519.389	93.75
519.605	104.75
519.82	101.75
520.036	100.75
520.251	105.75
520.467	94.75
520.682	104.75
520.898	102.75
521.113	87.75
521.329	95.75
521.544	96.75
521.76	95.75
521.975	109.75
522.19	99.75
522.406	89.75
522.621	101.75
522.836	91.75
523.052	83.75
523.267	84.75
523.482	109.75
523.698	104.75
523.913	107.75
524.128	99.75
524.343	103.75
524.559	109.75
524.774	96.75
524.989	112.75
525.204	100.75
525.419	101.75
525.634	93.75
525.849	99.75
526.064	102.75
526.28	101.75
526.495	110.75
526.71	103.75
526.925	103.75
527.14	107.75
527.355	83.75
527.57	99.75
527.785	108.75
527.999	89.75
528.214	96.75
528.429	101.75
528.644	99.75
528.859	96.75
529.074	91.75
529.289	95.75
529.503	95.75
529.718	84.75
529.933	108.75
530.148	110.75
530.363	95.75
530.577	88.75
530.792	87.75
531.007	87.75
531.221	94.75
531.436	110.75
531.651	96.75
531.865	103.75
532.08	89.75
532.295	114.75
532.509	97.75
532.724	90.75
532.938	81.75
533.153	102.75
533.367	85.75
533.582	103.75
533.796	104.75
534.011	106.75
534.225	97.75
534.44	89.75
534.654	98.75
534.868	95.75
535.083	102.75
535.297	106.75
535.511	99.75
535.726	110.75
535.94	84.75
536.154	101.75
536.369	96.75
536.583	101.75
536.797	102.75
537.011	85.75
537.225	90.75
537.44	104.75
537.654	98.75
537.868	93.75
538.082	107.75
538.296	101.75
538.51	92.75
538.724	110.75
538.938	105.75
539.153	108.75
539.367	106.75
539.581	104.75
539.795	96.75
540.009	103.75
540.222	105.75
540.436	95.75
540.65	111.75
540.864	85.75
541.078	114.75
541.292	102.75
541.506	107.75
541.72	97.75
541.934	118.75
542.147	90.75
542.361	107.75
542.575	94.75
542.789	99.75
543.002	101.75
543.216	93.75
543.43	86.75
543.644	102.75
543.857	83.75
544.071	100.75
544.285	100.75
544.498	110.75
544.712	99.75
544.925	100.75
545.139	99.75
545.352	107.75
545.566	111.75
545.779	109.75
545.993	101.75
546.206	96.75
546.42	101.75
546.633	102.75
546.847	97.75
547.06	104.75
547.274	109.75
547.487	101.75
547.7	100.75
547.914	102.75
548.127	94.75
548.34	104.75
548.554	88.75
548.767	111.75
548.98	106.75
549.193	99.75
549.407	100.75
549.62	110.75
549.833	97.75
550.046	99.75
550.259	111.75
550.473	95.75
550.686	99.75
550.899	91.75
551.112	105.75
551.325	104.75
551.538	97.75
551.751	102.75
551.964	97.75
552.177	89.75
552.39	102.75
552.603	93.75
552.816	87.75
553.029	105.75
553.242	103.75
553.455	104.75
553.667	92.75
553.88	85.75
554.093	92.75
554.306	102.75
554.519	110.75
554.732	85.75
554.944	103.75
555.157	103.75
555.37	106.75
555.583	93.75
555.795	114.75
556.008	102.75
556.221	114.75
556.433	92.75
556.646	93.75
556.859	87.75
557.071	87.75
557.284	101.75
557.496	111.75
557.709	94.75
557.921	100.75
558.134	111.75
558.346	85.75
558.559	93.75
558.771	89.75
558.984	100.75
559.196	95.75
559.409	107.75
559.621	99.75
559.833	100.75
560.046	99.75
560.258	94.75
560.47	82.75
560.683	97.75
560.895	81.75
561.107	96.75
561.32	91.75
561.532	87.75
561.744	92.75
561.956	97.75
562.168	90.75
562.381	99.75
562.593	87.75
562.805	102.75
563.017	93.75
563.229	97.75
563.441	94.75
563.653	98.75
563.865	92.75
564.077	83.75
564.289	90.75
564.501	100.75
564.713	89.75
564.925	106.75
565.137	97.75
565.349	97.75
565.561	101.75
565.773	70.75
565.985	109.75
566.197	97.75
566.408	105.75
566.62	116.75
566.832	109.75
567.044	105.75
567.255	95.75
567.467	88.75
567.679	106.75
567.891	103.75
568.102	113.75
568.314	93.75
568.526	102.75
568.737	102.75
568.949	87.75
569.161	97.75
569.372	107.75
569.584	92.75
569.795	95.75
570.007	107.75
570.218	103.75
570.43	90.75
570.641	98.75
570.853	84.75
571.064	77.75
571.276	83.75
571.487	88.75
571.698	89.75
571.91	90.75
572.121	88.75
572.333	90.75
572.544	97.75
572.755	95.75
572.966	94.75
573.178	92.75
573.389	86.75
573.6	90.75
573.811	100.75
574.023	82.75
574.234	91.75
574.445	79.75
574.656	98.75
574.867	77.75
575.078	85.75
575.289	79.75
575.501	91.75
575.712	93.75
575.923	96.75
576.134	100.75
576.345	76.75
576.556	100.75
576.767	86.75
576.978	93.75
577.188	101.75
577.399	85.75
577.61	92.75
577.821	79.75
578.032	87.75
578.243	96.75
578.454	85.75
578.665	88.75
578.875	94.75
579.086	85.75
579.297	95.75
579.508	75.75
579.718	95.75
579.929	79.75
580.14	90.75
580.35	84.75
580.561	77.75
580.772	90.75
580.982	97.75
581.193	94.75
581.403	88.75
581.614	75.75
581.825	98.75
582.035	82.75
582.246	97.75
582.456	91.75
582.667	86.75
582.877	96.75
583.087	98.75
583.298	84.75
583.508	87.75
583.719	92.75
583.929	80.75
584.139	71.75
584.35	94.75
584.56	103.75
584.77	95.75
584.981	99.75
585.191	89.75
585.401	91.75
585.611	86.75
585.821	89.75
586.032	89.75
586.242	84.75
586.452	83.75
586.662	90.75
586.872	89.75
587.082	98.75
587.292	95.75
587.502	88.75
587.713	89.75
587.923	101.75
588.133	93.75
588.343	88.75
588.553	85.75
588.762	80.75
588.972	97.75
589.182	93.75
589.392	95.75
589.602	86.75
589.812	76.75
590.022	102.75
590.232	79.75
590.441	87.75
590.651	93.75
590.861	83.75
591.071	72.75
591.281	96.75
591.49	85.75
591.7	101.75
591.91	94.75
592.119	100.75
592.329	90.75
592.539	97.75
592.748	102.75
592.958	102.75
593.167	81.75
593.377	98.75
593.587	88.75
593.796	98.75
594.006	84.75
594.215	102.75
594.424	91.75
594.634	98.75
594.843	98.75
595.053	94.75
595.262	84.75
595.472	101.75
595.681	95.75
595.89	82.75
596.1	90.75
596.309	102.75
596.518	91.75
596.727	81.75
596.937	79.75
597.146	76.75
597.355	94.75
597.564	79.75
597.774	86.75
597.983	89.75
598.192	88.75
598.401	95.75
598.61	84.75
598.819	96.75
599.028	71.75
599.237	93.75
599.446	85.75
599.655	89.75
599.864	88.75
600.073	100.75
600.282	83.75
600.491	72.75
600.7	80.75
600.909	81.75
601.118	89.75
601.327	91.75
601.536	90.75
601.745	84.75
601.953	83.75
602.162	96.75
602.371	77.75
602.58	87.75
602.789	73.75
602.997	91.75
603.206	93.75
603.415	93.75
603.623	96.75
603.832	87.75
604.041	98.75
604.249	95.75
604.458	82.75
604.666	83.75
604.875	91.75
605.084	76.75
605.292	76.75
605.501	91.75
605.709	75.75
605.918	81.75
606.126	72.75
606.334	75.75
606.543	88.75
606.751	93.75
606.96	82.75
607.168	85.75
607.376	81.75
607.585	95.75
607.793	87.75
608.001	93.75
608.21	95.75
608.418	95.75
608.626	90.75
608.834	78.75
609.043	79.75
609.251	94.75
609.459	77.75
609.667	99.75
609.875	87.75
610.083	90.75
610.291	95.75
610.499	95.75
610.707	94.75
610.916	75.75
611.124	92.75
611.332	85.75
611.54	97.75
611.748	101.75
611.955	88.75
612.163	86.75
612.371	96.75
612.579	82.75
612.787	80.75
612.995	90.75
613.203	99.75
613.411	97.75
613.618	85.75
613.826	97.75
614.034	81.75
614.242	80.75
614.449	101.75
614.657	79.75
614.865	87.75
615.072	74.75
615.28	84.75
615.488	79.75
615.695	100.75
615.903	78.75
616.111	97.75
616.318	82.75
616.526	95.75
616.733	87.75
616.941	85.75
617.148	85.75
617.356	90.75
617.563	88.75
617.771	91.75
617.978	79.75
618.185	99.75
618.393	74.75
618.6	91.75
618.807	73.75
619.015	83.75
619.222	83.75
619.429	90.75
619.637	97.75
619.844	85.75
620.051	91.75
620.258	90.75
620.466	82.75
620.673	73.75
620.88	80.75
621.087	76.75
621.294	82.75
621.501	99.75
621.708	69.75
621.915	72.75
622.122	83.75
622.329	95.75
622.536	88.75
622.743	85.75
622.95	86.75
623.157	78.75
623.364	80.75
623.571	86.75
623.778	99.75
623.985	101.75
624.192	101.75
624.399	87.75
624.606	89.75
624.812	93.75
625.019	95.75
625.226	83.75
625.433	91.75
625.639	79.75
625.846	97.75
626.053	93.75
626.259	98.75
626.466	95.75
626.673	96.75
626.879	96.75
627.086	95.75
627.293	80.75
627.499	93.75
627.706	94.75
627.912	75.75
628.119	80.75
628.325	99.75
628.532	77.75
628.738	109.75
628.945	87.75
629.151	98.75
629.357	97.75
629.564	82.75
629.77	86.75
629.976	86.75
630.183	74.75
630.389	75.75
630.595	84.75
630.802	84.75
631.008	78.75
631.214	84.75
631.42	73.75
631.627	90.75
631.833	91.75
632.039	88.75
632.245	86.75
632.451	84.75
632.657	78.75
632.863	85.75
633.069	74.75
633.275	81.75
633.481	80.75
633.688	81.75
633.893	79.75
634.099	83.75
634.305	76.75
634.511	86.75
634.717	89.75
634.923	73.75
635.129	78.75
635.335	85.75
635.541	82.75
635.747	83.75
635.952	98.75
636.158	81.75
636.364	81.75
636.57	96.75
636.775	87.75
636.981	102.75
637.187	78.75
637.392	74.75
637.598	77.75
637.804	67.75
638.009	82.75
638.215	83.75
638.421	88.75
638.626	80.75
638.832	86.75
639.037	86.75
639.243	90.75
639.448	89.75
639.654	79.75
639.859	86.75
640.065	98.75
640.27	82.75
640.475	90.75
640.681	89.75
640.886	93.75
641.091	79.75
641.297	86.75
641.502	79.75
641.707	97.75
641.913	94.75
642.118	77.75
642.323	78.75
642.528	78.75
642.733	94.75
642.939	80.75
643.144	81.75
643.349	97.75
643.554	80.75
643.759	83.75
643.964	87.75
644.169	81.75
644.374	90.75
644.579	93.75
644.784	84.75
644.989	89.75
645.194	81.75
645.399	96.75
645.604	96.75
645.809	64.75
646.014	72.75
646.219	82.75
646.423	89.75
646.628	85.75
646.833	96.75
647.038	83.75
647.243	78.75
647.447	99.75
647.652	93.75
647.857	93.75
648.062	86.75
648.266	80.75
648.471	87.75
648.676	92.75
648.88	85.75
649.085	82.75
649.289	82.75
649.494	86.75
649.698	66.75
649.903	95.75
650.107	90.75
650.312	84.75
650.516	90.75
650.721	87.75
650.925	82.75
651.13	84.75
651.334	79.75
651.539	89.75
651.743	81.75
651.947	85.75
652.152	89.75
652.356	87.75
652.56	85.75
652.764	82.75
652.969	96.75
653.173	86.75
653.377	88.75
653.581	76.75
653.785	80.75
653.99	65.75
654.194	81.75
654.398	78.75
654.602	76.75
654.806	83.75
655.01	96.75
655.214	82.75
655.418	89.75
655.622	84.75
655.826	91.75
656.03	82.75
656.234	90.75
656.438	93.75
656.642	83.75
656.846	86.75
657.049	92.75
657.253	92.75
657.457	76.75
657.661	88.75
657.865	73.75
658.068	85.75
658.272	85.75
658.476	88.75
658.68	92.75
658.883	73.75
659.087	81.75
659.291	90.75
659.494	80.75
659.698	84.75
659.901	85.75
660.105	86.75
660.309	90.75
660.512	91.75
660.716	88.75
660.919	83.75
661.123	87.75
661.326	88.75
661.53	78.75
661.733	90.75
661.936	98.75
662.14	88.75
662.343	79.75
662.546	80.75
662.75	74.75
662.953	80.75
663.156	83.75
663.36	86.75
663.563	89.75
663.766	78.75
663.969	77.75
664.173	85.75
664.376	97.75
664.579	87.75
664.782	89.75
664.985	92.75
665.188	81.75
665.391	71.75
665.594	84.75
665.797	69.75
666	78.75
666.203	81.75
666.406	89.75
666.609	75.75
666.812	78.75
667.015	80.75
667.218	68.75
667.421	97.75
667.624	75.75
667.827	79.75
668.03	78.75
668.232	80.75
668.435	78.75
668.638	81.75
668.841	70.75
669.043	61.75
669.246	78.75
669.449	80.75
669.651	82.75
669.854	66.75
670.057	84.75
670.259	89.75
670.462	77.75
670.665	87.75
670.867	91.75
671.07	82.75
671.272	81.75
671.475	84.75
671.677	79.75
671.88	86.75
672.082	89.75
672.284	82.75
672.487	94.75
672.689	71.75
672.892	78.75
