Data from Location5.07152019.Energy5.Lamp.07192019.3%Agarose_HRD10591_16-05-18-629.txt Node
Date: Fri Jul 19 16:05:18 EDT 2019
User: cochatt
Spectrometer: HR+D1059
Trigger mode: 1
Integration Time (sec): 1.000000E-1
Scans to average: 1
Electric dark correction enabled: true
Nonlinearity correction enabled: false
Boxcar width: 0
XAxis mode: Wavelengths
Number of Pixels in Spectrum: 2048
>>>>>Begin Spectral Data<<<<<
223.165	-9.94
223.4	-9.94
223.635	-9.94
223.869	-23.94
224.104	-23.94
224.338	-16.94
224.573	-25.94
224.808	0.06
225.042	-1.94
225.277	14.06
225.511	-10.94
225.746	3.06
225.98	6.06
226.215	8.06
226.449	18.06
226.683	22.06
226.918	25.06
227.152	17.06
227.387	34.06
227.621	47.06
227.856	57.06
228.09	41.06
228.324	67.06
228.559	58.06
228.793	55.06
229.027	59.06
229.262	58.06
229.496	63.06
229.73	75.06
229.964	63.06
230.199	66.06
230.433	83.06
230.667	72.06
230.901	73.06
231.136	86.06
231.37	75.06
231.604	76.06
231.838	74.06
232.072	93.06
232.306	88.06
232.541	82.06
232.775	94.06
233.009	92.06
233.243	72.06
233.477	85.06
233.711	89.06
233.945	73.06
234.179	77.06
234.413	85.06
234.647	86.06
234.881	81.06
235.115	82.06
235.349	70.06
235.583	72.06
235.817	83.06
236.051	81.06
236.285	65.06
236.519	70.06
236.753	87.06
236.987	88.06
237.221	81.06
237.455	82.06
237.689	69.06
237.922	82.06
238.156	79.06
238.39	70.06
238.624	77.06
238.858	85.06
239.091	76.06
239.325	94.06
239.559	73.06
239.793	95.06
240.027	83.06
240.26	70.06
240.494	89.06
240.728	78.06
240.961	68.06
241.195	78.06
241.429	80.06
241.662	71.06
241.896	76.06
242.13	76.06
242.363	83.06
242.597	66.06
242.83	83.06
243.064	64.06
243.298	86.06
243.531	84.06
243.765	88.06
243.998	86.06
244.232	73.06
244.465	68.06
244.699	70.06
244.932	70.06
245.166	84.06
245.399	90.06
245.633	79.06
245.866	78.06
246.099	81.06
246.333	78.06
246.566	66.06
246.8	79.06
247.033	71.06
247.266	64.06
247.5	81.06
247.733	85.06
247.966	78.06
248.2	71.06
248.433	90.06
248.666	83.06
248.899	89.06
249.133	83.06
249.366	71.06
249.599	82.06
249.832	91.06
250.066	96.06
250.299	72.06
250.532	83.06
250.765	83.06
250.998	65.06
251.231	80.06
251.465	86.06
251.698	86.06
251.931	74.06
252.164	85.06
252.397	80.06
252.63	84.06
252.863	85.06
253.096	78.06
253.329	95.06
253.562	75.06
253.795	88.06
254.028	77.06
254.261	83.06
254.494	84.06
254.727	74.06
254.96	82.06
255.193	94.06
255.426	59.06
255.659	68.06
255.892	80.06
256.124	82.06
256.357	87.06
256.59	91.06
256.823	76.06
257.056	75.06
257.289	80.06
257.521	76.06
257.754	77.06
257.987	95.06
258.22	56.06
258.452	74.06
258.685	92.06
258.918	90.06
259.151	74.06
259.383	81.06
259.616	72.06
259.849	78.06
260.081	80.06
260.314	86.06
260.547	89.06
260.779	84.06
261.012	83.06
261.244	71.06
261.477	92.06
261.71	87.06
261.942	88.06
262.175	73.06
262.407	64.06
262.64	90.06
262.872	76.06
263.105	88.06
263.337	76.06
263.57	82.06
263.802	81.06
264.035	100.06
264.267	93.06
264.499	91.06
264.732	91.06
264.964	92.06
265.197	84.06
265.429	90.06
265.661	78.06
265.894	72.06
266.126	85.06
266.358	82.06
266.591	83.06
266.823	88.06
267.055	81.06
267.287	89.06
267.52	77.06
267.752	90.06
267.984	98.06
268.216	82.06
268.448	92.06
268.681	88.06
268.913	75.06
269.145	89.06
269.377	91.06
269.609	83.06
269.841	75.06
270.073	83.06
270.306	86.06
270.538	94.06
270.77	80.06
271.002	92.06
271.234	105.06
271.466	85.06
271.698	82.06
271.93	74.06
272.162	90.06
272.394	87.06
272.626	88.06
272.858	90.06
273.09	76.06
273.322	85.06
273.553	87.06
273.785	71.06
274.017	71.06
274.249	79.06
274.481	79.06
274.713	91.06
274.945	86.06
275.176	71.06
275.408	86.06
275.64	90.06
275.872	80.06
276.104	80.06
276.335	93.06
276.567	94.06
276.799	69.06
277.031	72.06
277.262	90.06
277.494	98.06
277.726	98.06
277.957	96.06
278.189	100.06
278.421	89.06
278.652	89.06
278.884	86.06
279.115	88.06
279.347	74.06
279.579	91.06
279.81	94.06
280.042	96.06
280.273	94.06
280.505	98.06
280.736	81.06
280.968	104.06
281.199	84.06
281.431	101.06
281.662	84.06
281.894	85.06
282.125	88.06
282.356	83.06
282.588	89.06
282.819	88.06
283.051	80.06
283.282	73.06
283.513	74.06
283.745	80.06
283.976	90.06
284.207	95.06
284.439	90.06
284.67	88.06
284.901	90.06
285.132	99.06
285.364	89.06
285.595	80.06
285.826	92.06
286.057	97.06
286.288	93.06
286.52	88.06
286.751	79.06
286.982	82.06
287.213	94.06
287.444	98.06
287.675	89.06
287.906	94.06
288.138	97.06
288.369	79.06
288.6	72.06
288.831	86.06
289.062	82.06
289.293	91.06
289.524	96.06
289.755	85.06
289.986	88.06
290.217	76.06
290.448	84.06
290.679	85.06
290.91	85.06
291.141	77.06
291.371	86.06
291.602	92.06
291.833	86.06
292.064	96.06
292.295	83.06
292.526	91.06
292.757	80.06
292.987	90.06
293.218	93.06
293.449	72.06
293.68	84.06
293.91	93.06
294.141	81.06
294.372	83.06
294.603	76.06
294.833	87.06
295.064	74.06
295.295	83.06
295.525	98.06
295.756	118.06
295.987	91.06
296.217	95.06
296.448	86.06
296.679	87.06
296.909	82.06
297.14	89.06
297.37	78.06
297.601	104.06
297.831	98.06
298.062	85.06
298.292	81.06
298.523	79.06
298.753	74.06
298.984	89.06
299.214	85.06
299.445	86.06
299.675	83.06
299.905	79.06
300.136	83.06
300.366	84.06
300.597	82.06
300.827	91.06
301.057	91.06
301.288	94.06
301.518	89.06
301.748	85.06
301.979	92.06
302.209	77.06
302.439	82.06
302.669	79.06
302.9	88.06
303.13	73.06
303.36	77.06
303.59	90.06
303.82	72.06
304.051	79.06
304.281	92.06
304.511	99.06
304.741	96.06
304.971	86.06
305.201	86.06
305.431	83.06
305.661	86.06
305.891	91.06
306.121	81.06
306.352	83.06
306.582	88.06
306.812	94.06
307.042	82.06
307.272	82.06
307.502	93.06
307.731	95.06
307.961	85.06
308.191	76.06
308.421	85.06
308.651	81.06
308.881	82.06
309.111	89.06
309.341	87.06
309.571	83.06
309.8	93.06
310.03	86.06
310.26	99.06
310.49	96.06
310.72	87.06
310.949	101.06
311.179	79.06
311.409	80.06
311.639	119.06
311.868	86.06
312.098	97.06
312.328	82.06
312.557	87.06
312.787	95.06
313.017	98.06
313.246	87.06
313.476	99.06
313.706	91.06
313.935	86.06
314.165	88.06
314.394	83.06
314.624	89.06
314.853	89.06
315.083	96.06
315.312	81.06
315.542	74.06
315.771	80.06
316.001	88.06
316.23	93.06
316.46	88.06
316.689	80.06
316.919	92.06
317.148	82.06
317.377	91.06
317.607	91.06
317.836	87.06
318.065	75.06
318.295	95.06
318.524	84.06
318.753	103.06
318.983	88.06
319.212	86.06
319.441	82.06
319.67	88.06
319.9	89.06
320.129	81.06
320.358	89.06
320.587	82.06
320.816	84.06
321.046	96.06
321.275	85.06
321.504	82.06
321.733	79.06
321.962	87.06
322.191	86.06
322.42	89.06
322.649	94.06
322.878	93.06
323.108	92.06
323.337	79.06
323.566	92.06
323.795	86.06
324.024	80.06
324.253	87.06
324.482	85.06
324.71	78.06
324.939	93.06
325.168	87.06
325.397	86.06
325.626	89.06
325.855	95.06
326.084	101.06
326.313	77.06
326.542	102.06
326.77	87.06
326.999	95.06
327.228	81.06
327.457	108.06
327.686	89.06
327.914	92.06
328.143	96.06
328.372	91.06
328.6	87.06
328.829	94.06
329.058	95.06
329.287	80.06
329.515	88.06
329.744	90.06
329.972	94.06
330.201	100.06
330.43	99.06
330.658	85.06
330.887	93.06
331.115	88.06
331.344	93.06
331.572	84.06
331.801	94.06
332.03	88.06
332.258	81.06
332.486	95.06
332.715	89.06
332.943	90.06
333.172	99.06
333.4	85.06
333.629	88.06
333.857	89.06
334.085	91.06
334.314	89.06
334.542	93.06
334.771	94.06
334.999	93.06
335.227	83.06
335.455	94.06
335.684	95.06
335.912	97.06
336.14	103.06
336.369	94.06
336.597	86.06
336.825	89.06
337.053	91.06
337.281	89.06
337.51	91.06
337.738	80.06
337.966	90.06
338.194	86.06
338.422	80.06
338.65	90.06
338.878	90.06
339.106	85.06
339.334	86.06
339.562	87.06
339.79	85.06
340.018	81.06
340.246	71.06
340.474	81.06
340.702	97.06
340.93	89.06
341.158	87.06
341.386	79.06
341.614	70.06
341.842	91.06
342.07	99.06
342.298	81.06
342.526	98.06
342.754	85.06
342.981	81.06
343.209	101.06
343.437	90.06
343.665	83.06
343.893	88.06
344.12	96.06
344.348	86.06
344.576	98.06
344.804	91.06
345.031	79.06
345.259	84.06
345.487	84.06
345.714	98.06
345.942	86.06
346.17	85.06
346.397	85.06
346.625	88.06
346.853	98.06
347.08	84.06
347.308	85.06
347.535	96.06
347.763	91.06
347.99	92.06
348.218	84.06
348.445	79.06
348.673	81.06
348.9	94.06
349.128	88.06
349.355	80.06
349.583	90.06
349.81	90.06
350.037	75.06
350.265	96.06
350.492	91.06
350.72	92.06
350.947	94.06
351.174	102.06
351.402	86.06
351.629	92.06
351.856	95.06
352.083	83.06
352.311	75.06
352.538	92.06
352.765	101.06
352.992	99.06
353.22	95.06
353.447	71.06
353.674	101.06
353.901	81.06
354.128	93.06
354.355	83.06
354.583	67.06
354.81	82.06
355.037	76.06
355.264	82.06
355.491	74.06
355.718	99.06
355.945	84.06
356.172	86.06
356.399	92.06
356.626	100.06
356.853	89.06
357.08	85.06
357.307	86.06
357.534	93.06
357.761	90.06
357.988	116.06
358.215	91.06
358.441	84.06
358.668	83.06
358.895	97.06
359.122	83.06
359.349	85.06
359.576	83.06
359.802	83.06
360.029	92.06
360.256	88.06
360.483	86.06
360.709	83.06
360.936	80.06
361.163	97.06
361.39	86.06
361.616	86.06
361.843	86.06
362.07	94.06
362.296	74.06
362.523	80.06
362.749	86.06
362.976	98.06
363.203	99.06
363.429	89.06
363.656	91.06
363.882	102.06
364.109	99.06
364.335	99.06
364.562	92.06
364.788	102.06
365.015	87.06
365.241	73.06
365.468	83.06
365.694	96.06
365.92	98.06
366.147	98.06
366.373	83.06
366.599	96.06
366.826	94.06
367.052	93.06
367.278	97.06
367.505	87.06
367.731	100.06
367.957	87.06
368.184	86.06
368.41	103.06
368.636	92.06
368.862	87.06
369.089	92.06
369.315	105.06
369.541	84.06
369.767	94.06
369.993	105.06
370.219	88.06
370.445	85.06
370.672	83.06
370.898	94.06
371.124	79.06
371.35	88.06
371.576	91.06
371.802	88.06
372.028	90.06
372.254	77.06
372.48	70.06
372.706	72.06
372.932	88.06
373.158	87.06
373.384	94.06
373.61	86.06
373.835	106.06
374.061	91.06
374.287	83.06
374.513	82.06
374.739	89.06
374.965	90.06
375.191	92.06
375.416	89.06
375.642	83.06
375.868	88.06
376.094	105.06
376.319	83.06
376.545	85.06
376.771	95.06
376.997	115.06
377.222	90.06
377.448	96.06
377.674	81.06
377.899	78.06
378.125	89.06
378.35	98.06
378.576	90.06
378.802	103.06
379.027	85.06
379.253	90.06
379.478	84.06
379.704	87.06
379.929	103.06
380.155	94.06
380.38	97.06
380.606	112.06
380.831	76.06
381.057	96.06
381.282	97.06
381.507	98.06
381.733	87.06
381.958	76.06
382.184	85.06
382.409	75.06
382.634	91.06
382.86	88.06
383.085	82.06
383.31	87.06
383.535	85.06
383.761	96.06
383.986	95.06
384.211	88.06
384.436	94.06
384.662	83.06
384.887	95.06
385.112	79.06
385.337	80.06
385.562	79.06
385.787	83.06
386.013	92.06
386.238	86.06
386.463	96.06
386.688	88.06
386.913	104.06
387.138	94.06
387.363	94.06
387.588	95.06
387.813	82.06
388.038	105.06
388.263	94.06
388.488	86.06
388.713	94.06
388.938	90.06
389.163	94.06
389.387	88.06
389.612	71.06
389.837	84.06
390.062	94.06
390.287	89.06
390.512	95.06
390.736	100.06
390.961	91.06
391.186	94.06
391.411	81.06
391.636	89.06
391.86	83.06
392.085	93.06
392.31	90.06
392.534	98.06
392.759	93.06
392.984	90.06
393.208	91.06
393.433	88.06
393.658	96.06
393.882	104.06
394.107	100.06
394.331	91.06
394.556	84.06
394.78	83.06
395.005	94.06
395.229	83.06
395.454	94.06
395.678	103.06
395.903	86.06
396.127	78.06
396.352	104.06
396.576	99.06
396.801	90.06
397.025	87.06
397.249	92.06
397.474	77.06
397.698	80.06
397.922	83.06
398.147	85.06
398.371	90.06
398.595	92.06
398.82	112.06
399.044	114.06
399.268	87.06
399.492	106.06
399.717	105.06
399.941	104.06
400.165	100.06
400.389	100.06
400.613	80.06
400.837	101.06
401.062	84.06
401.286	83.06
401.51	93.06
401.734	93.06
401.958	86.06
402.182	87.06
402.406	82.06
402.63	94.06
402.854	107.06
403.078	91.06
403.302	96.06
403.526	102.06
403.75	89.06
403.974	96.06
404.198	95.06
404.422	105.06
404.645	106.06
404.869	93.06
405.093	75.06
405.317	96.06
405.541	84.06
405.765	79.06
405.988	90.06
406.212	89.06
406.436	89.06
406.66	97.06
406.883	94.06
407.107	100.06
407.331	99.06
407.555	89.06
407.778	91.06
408.002	92.06
408.226	81.06
408.449	90.06
408.673	106.06
408.896	102.06
409.12	99.06
409.344	94.06
409.567	80.06
409.791	81.06
410.014	92.06
410.238	88.06
410.461	97.06
410.685	107.06
410.908	86.06
411.132	99.06
411.355	99.06
411.578	82.06
411.802	78.06
412.025	97.06
412.249	102.06
412.472	98.06
412.695	100.06
412.919	108.06
413.142	89.06
413.365	86.06
413.589	96.06
413.812	91.06
414.035	79.06
414.258	83.06
414.482	81.06
414.705	96.06
414.928	97.06
415.151	86.06
415.374	77.06
415.597	97.06
415.821	102.06
416.044	71.06
416.267	112.06
416.49	98.06
416.713	105.06
416.936	91.06
417.159	91.06
417.382	95.06
417.605	90.06
417.828	107.06
418.051	102.06
418.274	87.06
418.497	98.06
418.72	95.06
418.943	85.06
419.166	83.06
419.389	93.06
419.611	103.06
419.834	102.06
420.057	97.06
420.28	99.06
420.503	88.06
420.726	81.06
420.948	87.06
421.171	99.06
421.394	97.06
421.617	88.06
421.839	98.06
422.062	82.06
422.285	89.06
422.507	97.06
422.73	98.06
422.953	96.06
423.175	82.06
423.398	112.06
423.621	99.06
423.843	86.06
424.066	94.06
424.288	88.06
424.511	101.06
424.733	97.06
424.956	91.06
425.178	96.06
425.401	98.06
425.623	100.06
425.846	85.06
426.068	85.06
426.291	86.06
426.513	86.06
426.735	76.06
426.958	86.06
427.18	92.06
427.402	83.06
427.625	91.06
427.847	84.06
428.069	94.06
428.292	96.06
428.514	97.06
428.736	98.06
428.958	93.06
429.181	91.06
429.403	80.06
429.625	90.06
429.847	93.06
430.069	96.06
430.292	94.06
430.514	99.06
430.736	96.06
430.958	83.06
431.18	86.06
431.402	96.06
431.624	82.06
431.846	98.06
432.068	90.06
432.29	103.06
432.512	103.06
432.734	80.06
432.956	85.06
433.178	72.06
433.4	112.06
433.622	103.06
433.844	90.06
434.066	83.06
434.287	75.06
434.509	82.06
434.731	94.06
434.953	88.06
435.175	90.06
435.397	96.06
435.618	104.06
435.84	87.06
436.062	87.06
436.284	98.06
436.505	90.06
436.727	89.06
436.949	79.06
437.17	97.06
437.392	92.06
437.614	89.06
437.835	94.06
438.057	110.06
438.278	101.06
438.5	83.06
438.721	108.06
438.943	90.06
439.165	84.06
439.386	95.06
439.608	96.06
439.829	98.06
440.05	103.06
440.272	95.06
440.493	85.06
440.715	95.06
440.936	105.06
441.158	86.06
441.379	83.06
441.6	82.06
441.822	96.06
442.043	96.06
442.264	94.06
442.486	80.06
442.707	87.06
442.928	84.06
443.149	96.06
443.371	101.06
443.592	106.06
443.813	101.06
444.034	100.06
444.255	93.06
444.476	92.06
444.698	79.06
444.919	81.06
445.14	217.06
445.361	146.06
445.582	106.06
445.803	90.06
446.024	87.06
446.245	103.06
446.466	98.06
446.687	96.06
446.908	97.06
447.129	87.06
447.35	89.06
447.571	88.06
447.792	95.06
448.013	89.06
448.234	86.06
448.455	95.06
448.675	90.06
448.896	90.06
449.117	73.06
449.338	82.06
449.559	84.06
449.779	84.06
450	98.06
450.221	95.06
450.442	87.06
450.662	87.06
450.883	93.06
451.104	96.06
451.324	100.06
451.545	87.06
451.766	93.06
451.986	92.06
452.207	71.06
452.428	89.06
452.648	95.06
452.869	97.06
453.089	90.06
453.31	97.06
453.53	91.06
453.751	86.06
453.971	80.06
454.192	82.06
454.412	83.06
454.633	83.06
454.853	94.06
455.073	94.06
455.294	83.06
455.514	89.06
455.734	94.06
455.955	83.06
456.175	94.06
456.395	92.06
456.616	84.06
456.836	100.06
457.056	92.06
457.276	99.06
457.497	94.06
457.717	79.06
457.937	75.06
458.157	83.06
458.377	86.06
458.598	81.06
458.818	92.06
459.038	93.06
459.258	95.06
459.478	90.06
459.698	87.06
459.918	71.06
460.138	96.06
460.358	94.06
460.578	85.06
460.798	95.06
461.018	102.06
461.238	112.06
461.458	97.06
461.678	86.06
461.898	82.06
462.118	91.06
462.338	89.06
462.558	79.06
462.777	87.06
462.997	94.06
463.217	102.06
463.437	94.06
463.657	102.06
463.876	101.06
464.096	97.06
464.316	110.06
464.536	97.06
464.755	105.06
464.975	95.06
465.195	104.06
465.414	85.06
465.634	91.06
465.854	100.06
466.073	96.06
466.293	86.06
466.512	90.06
466.732	88.06
466.951	80.06
467.171	88.06
467.391	83.06
467.61	89.06
467.829	88.06
468.049	98.06
468.268	79.06
468.488	98.06
468.707	99.06
468.927	81.06
469.146	79.06
469.365	96.06
469.585	95.06
469.804	95.06
470.023	95.06
470.243	91.06
470.462	88.06
470.681	113.06
470.901	92.06
471.12	95.06
471.339	104.06
471.558	95.06
471.777	92.06
471.997	91.06
472.216	109.06
472.435	93.06
472.654	95.06
472.873	90.06
473.092	92.06
473.311	84.06
473.53	87.06
473.749	101.06
473.968	92.06
474.187	102.06
474.406	84.06
474.625	100.06
474.844	94.06
475.063	80.06
475.282	91.06
475.501	87.06
475.72	105.06
475.939	87.06
476.158	83.06
476.377	87.06
476.596	84.06
476.814	93.06
477.033	83.06
477.252	97.06
477.471	87.06
477.69	95.06
477.908	87.06
478.127	106.06
478.346	103.06
478.564	83.06
478.783	83.06
479.002	99.06
479.22	99.06
479.439	100.06
479.658	102.06
479.876	92.06
480.095	91.06
480.313	110.06
480.532	110.06
480.751	100.06
480.969	103.06
481.188	102.06
481.406	82.06
481.624	88.06
481.843	99.06
482.061	96.06
482.28	100.06
482.498	100.06
482.717	90.06
482.935	102.06
483.153	116.06
483.372	84.06
483.59	94.06
483.808	106.06
484.027	103.06
484.245	97.06
484.463	88.06
484.681	115.06
484.9	105.06
485.118	90.06
485.336	107.06
485.554	93.06
485.772	93.06
485.99	91.06
486.209	83.06
486.427	102.06
486.645	87.06
486.863	99.06
487.081	97.06
487.299	96.06
487.517	97.06
487.735	109.06
487.953	98.06
488.171	105.06
488.389	114.06
488.607	112.06
488.825	95.06
489.043	96.06
489.261	103.06
489.479	102.06
489.696	84.06
489.914	97.06
490.132	92.06
490.35	103.06
490.568	97.06
490.786	106.06
491.003	99.06
491.221	110.06
491.439	92.06
491.657	107.06
491.874	122.06
492.092	114.06
492.31	108.06
492.527	120.06
492.745	114.06
492.963	101.06
493.18	96.06
493.398	99.06
493.615	107.06
493.833	114.06
494.05	114.06
494.268	106.06
494.485	112.06
494.703	112.06
494.92	110.06
495.138	116.06
495.355	99.06
495.573	115.06
495.79	103.06
496.008	115.06
496.225	112.06
496.442	96.06
496.66	110.06
496.877	104.06
497.094	114.06
497.312	101.06
497.529	101.06
497.746	101.06
497.963	113.06
498.181	104.06
498.398	107.06
498.615	103.06
498.832	125.06
499.049	117.06
499.267	110.06
499.484	111.06
499.701	131.06
499.918	132.06
500.135	131.06
500.352	125.06
500.569	138.06
500.786	155.06
501.003	131.06
501.22	135.06
501.437	119.06
501.654	109.06
501.871	115.06
502.088	112.06
502.305	108.06
502.522	110.06
502.739	123.06
502.956	108.06
503.172	114.06
503.389	108.06
503.606	102.06
503.823	107.06
504.04	111.06
504.256	120.06
504.473	110.06
504.69	102.06
504.907	107.06
505.123	110.06
505.34	108.06
505.557	102.06
505.773	113.06
505.99	92.06
506.207	108.06
506.423	96.06
506.64	102.06
506.856	116.06
507.073	105.06
507.289	101.06
507.506	95.06
507.722	87.06
507.939	81.06
508.155	103.06
508.372	99.06
508.588	116.06
508.805	100.06
509.021	107.06
509.238	95.06
509.454	93.06
509.67	95.06
509.887	97.06
510.103	88.06
510.319	90.06
510.536	112.06
510.752	115.06
510.968	106.06
511.184	98.06
511.401	97.06
511.617	107.06
511.833	93.06
512.049	79.06
512.265	90.06
512.481	94.06
512.698	94.06
512.914	105.06
513.13	105.06
513.346	97.06
513.562	92.06
513.778	79.06
513.994	97.06
514.21	97.06
514.426	98.06
514.642	104.06
514.858	97.06
515.074	105.06
515.29	111.06
515.506	103.06
515.721	95.06
515.937	99.06
516.153	104.06
516.369	111.06
516.585	98.06
516.801	99.06
517.016	101.06
517.232	99.06
517.448	100.06
517.664	120.06
517.879	112.06
518.095	102.06
518.311	103.06
518.527	99.06
518.742	106.06
518.958	88.06
519.173	106.06
519.389	99.06
519.605	107.06
519.82	102.06
520.036	91.06
520.251	101.06
520.467	95.06
520.682	95.06
520.898	88.06
521.113	86.06
521.329	92.06
521.544	91.06
521.76	92.06
521.975	101.06
522.19	93.06
522.406	107.06
522.621	97.06
522.836	79.06
523.052	89.06
523.267	99.06
523.482	100.06
523.698	88.06
523.913	85.06
524.128	95.06
524.343	86.06
524.559	97.06
524.774	89.06
524.989	87.06
525.204	91.06
525.419	90.06
525.634	97.06
525.849	88.06
526.064	92.06
526.28	100.06
526.495	85.06
526.71	82.06
526.925	95.06
527.14	100.06
527.355	97.06
527.57	99.06
527.785	80.06
527.999	97.06
528.214	97.06
528.429	102.06
528.644	84.06
528.859	109.06
529.074	96.06
529.289	105.06
529.503	98.06
529.718	113.06
529.933	90.06
530.148	94.06
530.363	105.06
530.577	102.06
530.792	101.06
531.007	98.06
531.221	96.06
531.436	88.06
531.651	98.06
531.865	100.06
532.08	90.06
532.295	87.06
532.509	78.06
532.724	84.06
532.938	90.06
533.153	112.06
533.367	99.06
533.582	99.06
533.796	95.06
534.011	95.06
534.225	82.06
534.44	76.06
534.654	89.06
534.868	98.06
535.083	86.06
535.297	93.06
535.511	99.06
535.726	105.06
535.94	93.06
536.154	90.06
536.369	86.06
536.583	90.06
536.797	97.06
537.011	99.06
537.225	84.06
537.44	92.06
537.654	96.06
537.868	90.06
538.082	94.06
538.296	106.06
538.51	74.06
538.724	87.06
538.938	86.06
539.153	91.06
539.367	93.06
539.581	89.06
539.795	93.06
540.009	95.06
540.222	95.06
540.436	95.06
540.65	104.06
540.864	84.06
541.078	107.06
541.292	103.06
541.506	108.06
541.72	116.06
541.934	117.06
542.147	92.06
542.361	80.06
542.575	89.06
542.789	94.06
543.002	111.06
543.216	95.06
543.43	78.06
543.644	97.06
543.857	100.06
544.071	90.06
544.285	101.06
544.498	110.06
544.712	100.06
544.925	92.06
545.139	95.06
545.352	103.06
545.566	104.06
545.779	106.06
545.993	108.06
546.206	94.06
546.42	102.06
546.633	114.06
546.847	111.06
547.06	101.06
547.274	96.06
547.487	108.06
547.7	103.06
547.914	110.06
548.127	103.06
548.34	106.06
548.554	93.06
548.767	109.06
548.98	106.06
549.193	96.06
549.407	93.06
549.62	100.06
549.833	112.06
550.046	98.06
550.259	97.06
550.473	91.06
550.686	95.06
550.899	99.06
551.112	90.06
551.325	106.06
551.538	91.06
551.751	92.06
551.964	85.06
552.177	97.06
552.39	96.06
552.603	98.06
552.816	100.06
553.029	99.06
553.242	104.06
553.455	99.06
553.667	103.06
553.88	111.06
554.093	115.06
554.306	98.06
554.519	103.06
554.732	112.06
554.944	107.06
555.157	93.06
555.37	102.06
555.583	94.06
555.795	109.06
556.008	92.06
556.221	87.06
556.433	91.06
556.646	97.06
556.859	115.06
557.071	105.06
557.284	95.06
557.496	96.06
557.709	98.06
557.921	97.06
558.134	90.06
558.346	90.06
558.559	88.06
558.771	91.06
558.984	94.06
559.196	93.06
559.409	90.06
559.621	93.06
559.833	90.06
560.046	99.06
560.258	94.06
560.47	92.06
560.683	106.06
560.895	96.06
561.107	93.06
561.32	92.06
561.532	91.06
561.744	97.06
561.956	112.06
562.168	89.06
562.381	92.06
562.593	96.06
562.805	84.06
563.017	84.06
563.229	106.06
563.441	94.06
563.653	89.06
563.865	82.06
564.077	85.06
564.289	97.06
564.501	90.06
564.713	92.06
564.925	95.06
565.137	87.06
565.349	94.06
565.561	96.06
565.773	98.06
565.985	92.06
566.197	86.06
566.408	92.06
566.62	92.06
566.832	103.06
567.044	91.06
567.255	92.06
567.467	102.06
567.679	98.06
567.891	85.06
568.102	110.06
568.314	101.06
568.526	91.06
568.737	99.06
568.949	101.06
569.161	100.06
569.372	83.06
569.584	92.06
569.795	103.06
570.007	106.06
570.218	84.06
570.43	90.06
570.641	96.06
570.853	86.06
571.064	87.06
571.276	83.06
571.487	90.06
571.698	82.06
571.91	95.06
572.121	86.06
572.333	109.06
572.544	90.06
572.755	84.06
572.966	84.06
573.178	90.06
573.389	95.06
573.6	90.06
573.811	90.06
574.023	102.06
574.234	94.06
574.445	75.06
574.656	90.06
574.867	80.06
575.078	79.06
575.289	82.06
575.501	97.06
575.712	99.06
575.923	80.06
576.134	99.06
576.345	100.06
576.556	96.06
576.767	105.06
576.978	91.06
577.188	98.06
577.399	94.06
577.61	97.06
577.821	99.06
578.032	99.06
578.243	83.06
578.454	99.06
578.665	83.06
578.875	81.06
579.086	75.06
579.297	97.06
579.508	76.06
579.718	90.06
579.929	95.06
580.14	97.06
580.35	89.06
580.561	100.06
580.772	83.06
580.982	88.06
581.193	72.06
581.403	100.06
581.614	78.06
581.825	103.06
582.035	103.06
582.246	92.06
582.456	91.06
582.667	95.06
582.877	96.06
583.087	95.06
583.298	91.06
583.508	94.06
583.719	90.06
583.929	86.06
584.139	105.06
584.35	87.06
584.56	94.06
584.77	92.06
584.981	86.06
585.191	88.06
585.401	84.06
585.611	94.06
585.821	106.06
586.032	84.06
586.242	87.06
586.452	90.06
586.662	98.06
586.872	78.06
587.082	82.06
587.292	88.06
587.502	90.06
587.713	82.06
587.923	81.06
588.133	85.06
588.343	74.06
588.553	76.06
588.762	101.06
588.972	94.06
589.182	84.06
589.392	91.06
589.602	99.06
589.812	83.06
590.022	91.06
590.232	91.06
590.441	83.06
590.651	90.06
590.861	87.06
591.071	80.06
591.281	96.06
591.49	89.06
591.7	83.06
591.91	97.06
592.119	87.06
592.329	80.06
592.539	109.06
592.748	82.06
592.958	98.06
593.167	73.06
593.377	91.06
593.587	100.06
593.796	80.06
594.006	86.06
594.215	89.06
594.424	94.06
594.634	100.06
594.843	92.06
595.053	89.06
595.262	81.06
595.472	84.06
595.681	76.06
595.89	83.06
596.1	100.06
596.309	102.06
596.518	80.06
596.727	70.06
596.937	84.06
597.146	81.06
597.355	86.06
597.564	98.06
597.774	97.06
597.983	96.06
598.192	94.06
598.401	83.06
598.61	79.06
598.819	74.06
599.028	96.06
599.237	78.06
599.446	71.06
599.655	103.06
599.864	85.06
600.073	92.06
600.282	92.06
600.491	81.06
600.7	86.06
600.909	90.06
601.118	87.06
601.327	81.06
601.536	86.06
601.745	72.06
601.953	81.06
602.162	85.06
602.371	88.06
602.58	95.06
602.789	90.06
602.997	80.06
603.206	82.06
603.415	102.06
603.623	105.06
603.832	87.06
604.041	102.06
604.249	88.06
604.458	98.06
604.666	94.06
604.875	85.06
605.084	88.06
605.292	83.06
605.501	96.06
605.709	88.06
605.918	86.06
606.126	85.06
606.334	89.06
606.543	75.06
606.751	92.06
606.96	94.06
607.168	88.06
607.376	95.06
607.585	84.06
607.793	87.06
608.001	92.06
608.21	80.06
608.418	99.06
608.626	98.06
608.834	83.06
609.043	81.06
609.251	91.06
609.459	65.06
609.667	81.06
609.875	92.06
610.083	83.06
610.291	90.06
610.499	75.06
610.707	85.06
610.916	92.06
611.124	70.06
611.332	84.06
611.54	79.06
611.748	86.06
611.955	100.06
612.163	99.06
612.371	89.06
612.579	89.06
612.787	86.06
612.995	81.06
613.203	87.06
613.411	86.06
613.618	86.06
613.826	83.06
614.034	84.06
614.242	97.06
614.449	92.06
614.657	90.06
614.865	63.06
615.072	83.06
615.28	79.06
615.488	102.06
615.695	96.06
615.903	85.06
616.111	91.06
616.318	95.06
616.526	70.06
616.733	80.06
616.941	81.06
617.148	94.06
617.356	84.06
617.563	85.06
617.771	81.06
617.978	80.06
618.185	88.06
618.393	68.06
618.6	99.06
618.807	83.06
619.015	90.06
619.222	91.06
619.429	78.06
619.637	91.06
619.844	98.06
620.051	84.06
620.258	94.06
620.466	90.06
620.673	93.06
620.88	82.06
621.087	99.06
621.294	89.06
621.501	100.06
621.708	96.06
621.915	86.06
622.122	79.06
622.329	81.06
622.536	86.06
622.743	85.06
622.95	87.06
623.157	80.06
623.364	96.06
623.571	75.06
623.778	90.06
623.985	100.06
624.192	91.06
624.399	90.06
624.606	84.06
624.812	81.06
625.019	87.06
625.226	94.06
625.433	89.06
625.639	86.06
625.846	86.06
626.053	93.06
626.259	81.06
626.466	92.06
626.673	80.06
626.879	83.06
627.086	90.06
627.293	92.06
627.499	82.06
627.706	82.06
627.912	88.06
628.119	89.06
628.325	93.06
628.532	77.06
628.738	91.06
628.945	87.06
629.151	90.06
629.357	98.06
629.564	96.06
629.77	81.06
629.976	82.06
630.183	86.06
630.389	85.06
630.595	90.06
630.802	69.06
631.008	89.06
631.214	91.06
631.42	91.06
631.627	87.06
631.833	77.06
632.039	91.06
632.245	89.06
632.451	91.06
632.657	98.06
632.863	88.06
633.069	83.06
633.275	73.06
633.481	79.06
633.688	85.06
633.893	94.06
634.099	86.06
634.305	92.06
634.511	79.06
634.717	87.06
634.923	91.06
635.129	79.06
635.335	84.06
635.541	91.06
635.747	85.06
635.952	86.06
636.158	71.06
636.364	88.06
636.57	89.06
636.775	80.06
636.981	86.06
637.187	105.06
637.392	83.06
637.598	100.06
637.804	87.06
638.009	97.06
638.215	84.06
638.421	96.06
638.626	89.06
638.832	75.06
639.037	70.06
639.243	100.06
639.448	89.06
639.654	82.06
639.859	76.06
640.065	80.06
640.27	94.06
640.475	86.06
640.681	87.06
640.886	71.06
641.091	68.06
641.297	86.06
641.502	89.06
641.707	82.06
641.913	87.06
642.118	93.06
642.323	81.06
642.528	89.06
642.733	90.06
642.939	76.06
643.144	94.06
643.349	93.06
643.554	95.06
643.759	82.06
643.964	90.06
644.169	100.06
644.374	91.06
644.579	97.06
644.784	85.06
644.989	85.06
645.194	94.06
645.399	70.06
645.604	83.06
645.809	80.06
646.014	82.06
646.219	79.06
646.423	77.06
646.628	96.06
646.833	85.06
647.038	84.06
647.243	82.06
647.447	79.06
647.652	79.06
647.857	85.06
648.062	78.06
648.266	97.06
648.471	72.06
648.676	83.06
648.88	82.06
649.085	88.06
649.289	82.06
649.494	87.06
649.698	83.06
649.903	85.06
650.107	101.06
650.312	73.06
650.516	80.06
650.721	71.06
650.925	84.06
651.13	72.06
651.334	72.06
651.539	79.06
651.743	88.06
651.947	73.06
652.152	72.06
652.356	87.06
652.56	78.06
652.764	75.06
652.969	80.06
653.173	79.06
653.377	97.06
653.581	98.06
653.785	78.06
653.99	75.06
654.194	78.06
654.398	87.06
654.602	71.06
654.806	83.06
655.01	82.06
655.214	72.06
655.418	80.06
655.622	94.06
655.826	86.06
656.03	88.06
656.234	86.06
656.438	84.06
656.642	81.06
656.846	78.06
657.049	75.06
657.253	80.06
657.457	90.06
657.661	82.06
657.865	87.06
658.068	92.06
658.272	84.06
658.476	86.06
658.68	89.06
658.883	78.06
659.087	90.06
659.291	85.06
659.494	87.06
659.698	90.06
659.901	95.06
660.105	83.06
660.309	79.06
660.512	90.06
660.716	81.06
660.919	80.06
661.123	80.06
661.326	68.06
661.53	82.06
661.733	84.06
661.936	88.06
662.14	86.06
662.343	76.06
662.546	78.06
662.75	78.06
662.953	92.06
663.156	79.06
663.36	70.06
663.563	70.06
663.766	86.06
663.969	92.06
664.173	93.06
664.376	76.06
664.579	96.06
664.782	74.06
664.985	70.06
665.188	87.06
665.391	89.06
665.594	96.06
665.797	98.06
666	80.06
666.203	85.06
666.406	78.06
666.609	83.06
666.812	85.06
667.015	68.06
667.218	83.06
667.421	88.06
667.624	82.06
667.827	87.06
668.03	89.06
668.232	71.06
668.435	88.06
668.638	67.06
668.841	78.06
669.043	67.06
669.246	81.06
669.449	82.06
669.651	63.06
669.854	85.06
670.057	81.06
670.259	75.06
670.462	71.06
670.665	76.06
670.867	82.06
671.07	101.06
671.272	95.06
671.475	89.06
671.677	88.06
671.88	79.06
672.082	80.06
672.284	90.06
672.487	74.06
672.689	84.06
672.892	94.06
