Data from Location5.07152019.Energy5.Lamp.07192019.3%Agarose_HRD10591_16-04-05-629.txt Node
Date: Fri Jul 19 16:04:05 EDT 2019
User: cochatt
Spectrometer: HR+D1059
Trigger mode: 1
Integration Time (sec): 1.000000E-1
Scans to average: 1
Electric dark correction enabled: true
Nonlinearity correction enabled: false
Boxcar width: 0
XAxis mode: Wavelengths
Number of Pixels in Spectrum: 2048
>>>>>Begin Spectral Data<<<<<
223.165	-18.62
223.4	-18.62
223.635	-18.62
223.869	-8.62
224.104	-10.62
224.338	-11.62
224.573	1.38
224.808	-16.62
225.042	-17.62
225.277	1.38
225.511	-5.62
225.746	3.38
225.98	-13.62
226.215	5.38
226.449	3.38
226.683	17.38
226.918	34.38
227.152	36.38
227.387	33.38
227.621	21.38
227.856	31.38
228.09	44.38
228.324	29.38
228.559	50.38
228.793	53.38
229.027	59.38
229.262	62.38
229.496	56.38
229.73	65.38
229.964	70.38
230.199	68.38
230.433	65.38
230.667	77.38
230.901	64.38
231.136	74.38
231.37	84.38
231.604	82.38
231.838	71.38
232.072	76.38
232.306	74.38
232.541	73.38
232.775	75.38
233.009	77.38
233.243	84.38
233.477	65.38
233.711	75.38
233.945	53.38
234.179	66.38
234.413	84.38
234.647	83.38
234.881	88.38
235.115	67.38
235.349	77.38
235.583	82.38
235.817	70.38
236.051	94.38
236.285	81.38
236.519	73.38
236.753	80.38
236.987	75.38
237.221	80.38
237.455	65.38
237.689	66.38
237.922	72.38
238.156	67.38
238.39	61.38
238.624	90.38
238.858	68.38
239.091	82.38
239.325	69.38
239.559	86.38
239.793	87.38
240.027	79.38
240.26	76.38
240.494	78.38
240.728	69.38
240.961	75.38
241.195	72.38
241.429	73.38
241.662	60.38
241.896	63.38
242.13	68.38
242.363	70.38
242.597	81.38
242.83	70.38
243.064	71.38
243.298	85.38
243.531	87.38
243.765	68.38
243.998	80.38
244.232	66.38
244.465	73.38
244.699	70.38
244.932	85.38
245.166	85.38
245.399	75.38
245.633	81.38
245.866	65.38
246.099	77.38
246.333	72.38
246.566	76.38
246.8	96.38
247.033	83.38
247.266	76.38
247.5	73.38
247.733	88.38
247.966	61.38
248.2	66.38
248.433	76.38
248.666	71.38
248.899	72.38
249.133	75.38
249.366	71.38
249.599	87.38
249.832	77.38
250.066	71.38
250.299	95.38
250.532	73.38
250.765	64.38
250.998	66.38
251.231	67.38
251.465	90.38
251.698	82.38
251.931	66.38
252.164	79.38
252.397	97.38
252.63	82.38
252.863	83.38
253.096	64.38
253.329	80.38
253.562	73.38
253.795	79.38
254.028	91.38
254.261	75.38
254.494	86.38
254.727	69.38
254.96	65.38
255.193	75.38
255.426	84.38
255.659	77.38
255.892	83.38
256.124	82.38
256.357	82.38
256.59	91.38
256.823	75.38
257.056	74.38
257.289	79.38
257.521	73.38
257.754	79.38
257.987	81.38
258.22	80.38
258.452	76.38
258.685	87.38
258.918	72.38
259.151	81.38
259.383	77.38
259.616	66.38
259.849	83.38
260.081	76.38
260.314	87.38
260.547	75.38
260.779	78.38
261.012	76.38
261.244	76.38
261.477	92.38
261.71	72.38
261.942	76.38
262.175	68.38
262.407	68.38
262.64	71.38
262.872	79.38
263.105	83.38
263.337	87.38
263.57	89.38
263.802	77.38
264.035	64.38
264.267	76.38
264.499	88.38
264.732	84.38
264.964	73.38
265.197	84.38
265.429	79.38
265.661	90.38
265.894	73.38
266.126	77.38
266.358	87.38
266.591	60.38
266.823	71.38
267.055	74.38
267.287	82.38
267.52	77.38
267.752	81.38
267.984	74.38
268.216	84.38
268.448	77.38
268.681	69.38
268.913	84.38
269.145	85.38
269.377	94.38
269.609	73.38
269.841	80.38
270.073	88.38
270.306	91.38
270.538	66.38
270.77	73.38
271.002	75.38
271.234	86.38
271.466	84.38
271.698	82.38
271.93	71.38
272.162	84.38
272.394	82.38
272.626	84.38
272.858	79.38
273.09	68.38
273.322	86.38
273.553	78.38
273.785	82.38
274.017	96.38
274.249	68.38
274.481	81.38
274.713	87.38
274.945	96.38
275.176	77.38
275.408	84.38
275.64	66.38
275.872	75.38
276.104	77.38
276.335	69.38
276.567	84.38
276.799	81.38
277.031	76.38
277.262	77.38
277.494	79.38
277.726	77.38
277.957	80.38
278.189	79.38
278.421	75.38
278.652	87.38
278.884	79.38
279.115	87.38
279.347	66.38
279.579	75.38
279.81	82.38
280.042	72.38
280.273	82.38
280.505	79.38
280.736	76.38
280.968	88.38
281.199	78.38
281.431	75.38
281.662	71.38
281.894	81.38
282.125	88.38
282.356	79.38
282.588	95.38
282.819	80.38
283.051	73.38
283.282	99.38
283.513	99.38
283.745	82.38
283.976	82.38
284.207	96.38
284.439	83.38
284.67	84.38
284.901	99.38
285.132	76.38
285.364	88.38
285.595	79.38
285.826	77.38
286.057	85.38
286.288	81.38
286.52	77.38
286.751	78.38
286.982	68.38
287.213	80.38
287.444	75.38
287.675	77.38
287.906	96.38
288.138	89.38
288.369	83.38
288.6	80.38
288.831	86.38
289.062	76.38
289.293	89.38
289.524	80.38
289.755	85.38
289.986	83.38
290.217	70.38
290.448	81.38
290.679	78.38
290.91	83.38
291.141	79.38
291.371	89.38
291.602	94.38
291.833	89.38
292.064	74.38
292.295	80.38
292.526	91.38
292.757	81.38
292.987	93.38
293.218	71.38
293.449	88.38
293.68	80.38
293.91	87.38
294.141	96.38
294.372	85.38
294.603	77.38
294.833	79.38
295.064	83.38
295.295	83.38
295.525	94.38
295.756	89.38
295.987	76.38
296.217	103.38
296.448	87.38
296.679	80.38
296.909	97.38
297.14	80.38
297.37	97.38
297.601	72.38
297.831	78.38
298.062	81.38
298.292	78.38
298.523	92.38
298.753	80.38
298.984	88.38
299.214	96.38
299.445	90.38
299.675	88.38
299.905	81.38
300.136	110.38
300.366	89.38
300.597	88.38
300.827	106.38
301.057	87.38
301.288	95.38
301.518	87.38
301.748	97.38
301.979	77.38
302.209	72.38
302.439	87.38
302.669	91.38
302.9	82.38
303.13	69.38
303.36	71.38
303.59	85.38
303.82	72.38
304.051	82.38
304.281	90.38
304.511	80.38
304.741	90.38
304.971	88.38
305.201	80.38
305.431	79.38
305.661	80.38
305.891	82.38
306.121	83.38
306.352	80.38
306.582	67.38
306.812	82.38
307.042	85.38
307.272	83.38
307.502	76.38
307.731	69.38
307.961	84.38
308.191	88.38
308.421	93.38
308.651	80.38
308.881	82.38
309.111	77.38
309.341	88.38
309.571	81.38
309.8	87.38
310.03	83.38
310.26	75.38
310.49	91.38
310.72	90.38
310.949	73.38
311.179	81.38
311.409	95.38
311.639	94.38
311.868	77.38
312.098	83.38
312.328	87.38
312.557	91.38
312.787	106.38
313.017	91.38
313.246	111.38
313.476	90.38
313.706	89.38
313.935	92.38
314.165	77.38
314.394	83.38
314.624	92.38
314.853	92.38
315.083	85.38
315.312	83.38
315.542	76.38
315.771	88.38
316.001	88.38
316.23	71.38
316.46	84.38
316.689	81.38
316.919	90.38
317.148	93.38
317.377	91.38
317.607	98.38
317.836	84.38
318.065	82.38
318.295	92.38
318.524	74.38
318.753	85.38
318.983	89.38
319.212	78.38
319.441	92.38
319.67	76.38
319.9	72.38
320.129	85.38
320.358	85.38
320.587	84.38
320.816	84.38
321.046	98.38
321.275	88.38
321.504	77.38
321.733	89.38
321.962	89.38
322.191	89.38
322.42	81.38
322.649	91.38
322.878	86.38
323.108	90.38
323.337	95.38
323.566	72.38
323.795	77.38
324.024	81.38
324.253	95.38
324.482	86.38
324.71	77.38
324.939	88.38
325.168	83.38
325.397	93.38
325.626	85.38
325.855	84.38
326.084	82.38
326.313	84.38
326.542	79.38
326.77	80.38
326.999	95.38
327.228	92.38
327.457	85.38
327.686	95.38
327.914	79.38
328.143	71.38
328.372	82.38
328.6	75.38
328.829	88.38
329.058	99.38
329.287	89.38
329.515	76.38
329.744	82.38
329.972	65.38
330.201	95.38
330.43	89.38
330.658	87.38
330.887	74.38
331.115	88.38
331.344	72.38
331.572	90.38
331.801	96.38
332.03	93.38
332.258	98.38
332.486	99.38
332.715	83.38
332.943	93.38
333.172	96.38
333.4	97.38
333.629	88.38
333.857	90.38
334.085	80.38
334.314	93.38
334.542	85.38
334.771	83.38
334.999	80.38
335.227	66.38
335.455	87.38
335.684	91.38
335.912	97.38
336.14	90.38
336.369	87.38
336.597	93.38
336.825	103.38
337.053	97.38
337.281	76.38
337.51	97.38
337.738	81.38
337.966	76.38
338.194	78.38
338.422	83.38
338.65	85.38
338.878	86.38
339.106	79.38
339.334	74.38
339.562	73.38
339.79	84.38
340.018	81.38
340.246	91.38
340.474	86.38
340.702	91.38
340.93	80.38
341.158	85.38
341.386	81.38
341.614	97.38
341.842	75.38
342.07	88.38
342.298	82.38
342.526	91.38
342.754	88.38
342.981	82.38
343.209	89.38
343.437	89.38
343.665	84.38
343.893	84.38
344.12	94.38
344.348	71.38
344.576	92.38
344.804	90.38
345.031	94.38
345.259	93.38
345.487	97.38
345.714	87.38
345.942	94.38
346.17	78.38
346.397	89.38
346.625	87.38
346.853	81.38
347.08	73.38
347.308	91.38
347.535	94.38
347.763	80.38
347.99	83.38
348.218	87.38
348.445	97.38
348.673	84.38
348.9	79.38
349.128	92.38
349.355	95.38
349.583	88.38
349.81	81.38
350.037	92.38
350.265	88.38
350.492	82.38
350.72	79.38
350.947	93.38
351.174	77.38
351.402	77.38
351.629	100.38
351.856	89.38
352.083	78.38
352.311	81.38
352.538	81.38
352.765	85.38
352.992	81.38
353.22	69.38
353.447	89.38
353.674	84.38
353.901	111.38
354.128	89.38
354.355	86.38
354.583	90.38
354.81	90.38
355.037	92.38
355.264	68.38
355.491	78.38
355.718	84.38
355.945	94.38
356.172	82.38
356.399	73.38
356.626	83.38
356.853	77.38
357.08	88.38
357.307	69.38
357.534	75.38
357.761	78.38
357.988	90.38
358.215	84.38
358.441	76.38
358.668	100.38
358.895	78.38
359.122	77.38
359.349	83.38
359.576	80.38
359.802	88.38
360.029	88.38
360.256	87.38
360.483	82.38
360.709	85.38
360.936	91.38
361.163	98.38
361.39	92.38
361.616	85.38
361.843	82.38
362.07	80.38
362.296	89.38
362.523	81.38
362.749	79.38
362.976	91.38
363.203	88.38
363.429	93.38
363.656	83.38
363.882	86.38
364.109	84.38
364.335	69.38
364.562	72.38
364.788	88.38
365.015	69.38
365.241	88.38
365.468	85.38
365.694	94.38
365.92	93.38
366.147	77.38
366.373	78.38
366.599	90.38
366.826	73.38
367.052	79.38
367.278	69.38
367.505	97.38
367.731	80.38
367.957	91.38
368.184	95.38
368.41	81.38
368.636	84.38
368.862	80.38
369.089	88.38
369.315	92.38
369.541	75.38
369.767	70.38
369.993	84.38
370.219	87.38
370.445	63.38
370.672	91.38
370.898	75.38
371.124	92.38
371.35	77.38
371.576	97.38
371.802	87.38
372.028	83.38
372.254	90.38
372.48	82.38
372.706	88.38
372.932	89.38
373.158	93.38
373.384	95.38
373.61	77.38
373.835	85.38
374.061	104.38
374.287	99.38
374.513	80.38
374.739	80.38
374.965	91.38
375.191	96.38
375.416	96.38
375.642	75.38
375.868	79.38
376.094	72.38
376.319	86.38
376.545	97.38
376.771	77.38
376.997	90.38
377.222	67.38
377.448	87.38
377.674	92.38
377.899	85.38
378.125	84.38
378.35	82.38
378.576	79.38
378.802	82.38
379.027	82.38
379.253	79.38
379.478	87.38
379.704	86.38
379.929	84.38
380.155	91.38
380.38	82.38
380.606	92.38
380.831	107.38
381.057	92.38
381.282	87.38
381.507	85.38
381.733	90.38
381.958	89.38
382.184	79.38
382.409	87.38
382.634	91.38
382.86	88.38
383.085	88.38
383.31	88.38
383.535	90.38
383.761	80.38
383.986	81.38
384.211	95.38
384.436	95.38
384.662	94.38
384.887	76.38
385.112	67.38
385.337	86.38
385.562	92.38
385.787	85.38
386.013	103.38
386.238	80.38
386.463	84.38
386.688	84.38
386.913	86.38
387.138	86.38
387.363	76.38
387.588	83.38
387.813	98.38
388.038	97.38
388.263	90.38
388.488	88.38
388.713	69.38
388.938	82.38
389.163	74.38
389.387	73.38
389.612	90.38
389.837	87.38
390.062	105.38
390.287	80.38
390.512	91.38
390.736	66.38
390.961	81.38
391.186	84.38
391.411	91.38
391.636	87.38
391.86	89.38
392.085	85.38
392.31	84.38
392.534	78.38
392.759	92.38
392.984	88.38
393.208	74.38
393.433	81.38
393.658	81.38
393.882	99.38
394.107	83.38
394.331	83.38
394.556	77.38
394.78	94.38
395.005	87.38
395.229	83.38
395.454	100.38
395.678	82.38
395.903	88.38
396.127	95.38
396.352	77.38
396.576	86.38
396.801	108.38
397.025	89.38
397.249	83.38
397.474	80.38
397.698	85.38
397.922	91.38
398.147	95.38
398.371	88.38
398.595	73.38
398.82	90.38
399.044	91.38
399.268	96.38
399.492	109.38
399.717	95.38
399.941	98.38
400.165	88.38
400.389	92.38
400.613	92.38
400.837	99.38
401.062	91.38
401.286	90.38
401.51	82.38
401.734	88.38
401.958	89.38
402.182	82.38
402.406	87.38
402.63	83.38
402.854	83.38
403.078	95.38
403.302	91.38
403.526	91.38
403.75	99.38
403.974	83.38
404.198	97.38
404.422	85.38
404.645	84.38
404.869	92.38
405.093	91.38
405.317	90.38
405.541	86.38
405.765	75.38
405.988	98.38
406.212	92.38
406.436	90.38
406.66	90.38
406.883	87.38
407.107	78.38
407.331	95.38
407.555	98.38
407.778	91.38
408.002	103.38
408.226	87.38
408.449	81.38
408.673	99.38
408.896	79.38
409.12	84.38
409.344	84.38
409.567	98.38
409.791	101.38
410.014	103.38
410.238	99.38
410.461	103.38
410.685	90.38
410.908	87.38
411.132	100.38
411.355	89.38
411.578	96.38
411.802	84.38
412.025	93.38
412.249	85.38
412.472	85.38
412.695	86.38
412.919	90.38
413.142	85.38
413.365	87.38
413.589	81.38
413.812	84.38
414.035	88.38
414.258	77.38
414.482	81.38
414.705	80.38
414.928	81.38
415.151	92.38
415.374	87.38
415.597	85.38
415.821	92.38
416.044	84.38
416.267	94.38
416.49	101.38
416.713	93.38
416.936	97.38
417.159	93.38
417.382	106.38
417.605	94.38
417.828	84.38
418.051	94.38
418.274	97.38
418.497	90.38
418.72	87.38
418.943	101.38
419.166	88.38
419.389	86.38
419.611	85.38
419.834	93.38
420.057	92.38
420.28	84.38
420.503	80.38
420.726	102.38
420.948	85.38
421.171	80.38
421.394	91.38
421.617	79.38
421.839	90.38
422.062	74.38
422.285	86.38
422.507	73.38
422.73	83.38
422.953	89.38
423.175	104.38
423.398	94.38
423.621	96.38
423.843	81.38
424.066	83.38
424.288	91.38
424.511	103.38
424.733	95.38
424.956	87.38
425.178	83.38
425.401	95.38
425.623	81.38
425.846	86.38
426.068	91.38
426.291	101.38
426.513	90.38
426.735	91.38
426.958	88.38
427.18	85.38
427.402	84.38
427.625	79.38
427.847	94.38
428.069	80.38
428.292	93.38
428.514	86.38
428.736	81.38
428.958	88.38
429.181	90.38
429.403	91.38
429.625	95.38
429.847	74.38
430.069	88.38
430.292	83.38
430.514	88.38
430.736	85.38
430.958	81.38
431.18	82.38
431.402	85.38
431.624	90.38
431.846	91.38
432.068	86.38
432.29	88.38
432.512	96.38
432.734	94.38
432.956	81.38
433.178	89.38
433.4	101.38
433.622	95.38
433.844	96.38
434.066	92.38
434.287	107.38
434.509	96.38
434.731	94.38
434.953	84.38
435.175	89.38
435.397	77.38
435.618	88.38
435.84	90.38
436.062	67.38
436.284	89.38
436.505	74.38
436.727	84.38
436.949	84.38
437.17	91.38
437.392	75.38
437.614	96.38
437.835	91.38
438.057	92.38
438.278	88.38
438.5	90.38
438.721	85.38
438.943	94.38
439.165	89.38
439.386	85.38
439.608	88.38
439.829	96.38
440.05	90.38
440.272	87.38
440.493	79.38
440.715	98.38
440.936	92.38
441.158	69.38
441.379	76.38
441.6	84.38
441.822	91.38
442.043	97.38
442.264	92.38
442.486	96.38
442.707	94.38
442.928	97.38
443.149	93.38
443.371	88.38
443.592	92.38
443.813	86.38
444.034	95.38
444.255	105.38
444.476	106.38
444.698	88.38
444.919	99.38
445.14	198.38
445.361	137.38
445.582	84.38
445.803	84.38
446.024	96.38
446.245	85.38
446.466	84.38
446.687	88.38
446.908	89.38
447.129	91.38
447.35	96.38
447.571	82.38
447.792	99.38
448.013	84.38
448.234	92.38
448.455	80.38
448.675	80.38
448.896	99.38
449.117	91.38
449.338	93.38
449.559	91.38
449.779	85.38
450	77.38
450.221	87.38
450.442	92.38
450.662	101.38
450.883	88.38
451.104	99.38
451.324	87.38
451.545	82.38
451.766	83.38
451.986	87.38
452.207	76.38
452.428	93.38
452.648	96.38
452.869	81.38
453.089	93.38
453.31	88.38
453.53	88.38
453.751	81.38
453.971	93.38
454.192	83.38
454.412	82.38
454.633	81.38
454.853	84.38
455.073	58.38
455.294	73.38
455.514	93.38
455.734	96.38
455.955	92.38
456.175	79.38
456.395	83.38
456.616	84.38
456.836	85.38
457.056	97.38
457.276	78.38
457.497	71.38
457.717	81.38
457.937	83.38
458.157	89.38
458.377	94.38
458.598	80.38
458.818	84.38
459.038	72.38
459.258	91.38
459.478	101.38
459.698	77.38
459.918	84.38
460.138	89.38
460.358	89.38
460.578	89.38
460.798	91.38
461.018	91.38
461.238	89.38
461.458	84.38
461.678	92.38
461.898	97.38
462.118	113.38
462.338	105.38
462.558	84.38
462.777	79.38
462.997	87.38
463.217	90.38
463.437	104.38
463.657	98.38
463.876	93.38
464.096	99.38
464.316	98.38
464.536	83.38
464.755	93.38
464.975	92.38
465.195	74.38
465.414	82.38
465.634	93.38
465.854	95.38
466.073	107.38
466.293	85.38
466.512	82.38
466.732	93.38
466.951	90.38
467.171	97.38
467.391	77.38
467.61	109.38
467.829	85.38
468.049	85.38
468.268	87.38
468.488	75.38
468.707	108.38
468.927	80.38
469.146	86.38
469.365	87.38
469.585	85.38
469.804	87.38
470.023	77.38
470.243	88.38
470.462	82.38
470.681	94.38
470.901	92.38
471.12	96.38
471.339	98.38
471.558	82.38
471.777	85.38
471.997	98.38
472.216	90.38
472.435	94.38
472.654	96.38
472.873	97.38
473.092	81.38
473.311	91.38
473.53	100.38
473.749	93.38
473.968	110.38
474.187	87.38
474.406	94.38
474.625	86.38
474.844	98.38
475.063	95.38
475.282	78.38
475.501	75.38
475.72	95.38
475.939	80.38
476.158	103.38
476.377	92.38
476.596	92.38
476.814	91.38
477.033	95.38
477.252	89.38
477.471	88.38
477.69	88.38
477.908	84.38
478.127	87.38
478.346	85.38
478.564	99.38
478.783	94.38
479.002	97.38
479.22	84.38
479.439	89.38
479.658	93.38
479.876	89.38
480.095	96.38
480.313	87.38
480.532	101.38
480.751	99.38
480.969	102.38
481.188	90.38
481.406	97.38
481.624	95.38
481.843	97.38
482.061	82.38
482.28	90.38
482.498	85.38
482.717	91.38
482.935	95.38
483.153	97.38
483.372	103.38
483.59	87.38
483.808	95.38
484.027	105.38
484.245	93.38
484.463	100.38
484.681	99.38
484.9	84.38
485.118	98.38
485.336	89.38
485.554	97.38
485.772	113.38
485.99	94.38
486.209	91.38
486.427	95.38
486.645	108.38
486.863	89.38
487.081	107.38
487.299	108.38
487.517	100.38
487.735	100.38
487.953	106.38
488.171	105.38
488.389	105.38
488.607	100.38
488.825	96.38
489.043	108.38
489.261	86.38
489.479	103.38
489.696	103.38
489.914	89.38
490.132	83.38
490.35	97.38
490.568	100.38
490.786	114.38
491.003	117.38
491.221	106.38
491.439	113.38
491.657	104.38
491.874	119.38
492.092	119.38
492.31	105.38
492.527	112.38
492.745	111.38
492.963	121.38
493.18	117.38
493.398	110.38
493.615	97.38
493.833	106.38
494.05	118.38
494.268	110.38
494.485	88.38
494.703	99.38
494.92	112.38
495.138	100.38
495.355	95.38
495.573	109.38
495.79	103.38
496.008	100.38
496.225	90.38
496.442	96.38
496.66	112.38
496.877	113.38
497.094	113.38
497.312	123.38
497.529	96.38
497.746	115.38
497.963	104.38
498.181	111.38
498.398	87.38
498.615	115.38
498.832	115.38
499.049	108.38
499.267	115.38
499.484	119.38
499.701	127.38
499.918	122.38
500.135	133.38
500.352	154.38
500.569	160.38
500.786	143.38
501.003	148.38
501.22	129.38
501.437	136.38
501.654	93.38
501.871	104.38
502.088	115.38
502.305	109.38
502.522	124.38
502.739	111.38
502.956	105.38
503.172	109.38
503.389	108.38
503.606	118.38
503.823	105.38
504.04	97.38
504.256	103.38
504.473	96.38
504.69	98.38
504.907	107.38
505.123	109.38
505.34	101.38
505.557	98.38
505.773	96.38
505.99	86.38
506.207	101.38
506.423	104.38
506.64	100.38
506.856	82.38
507.073	116.38
507.289	83.38
507.506	95.38
507.722	86.38
507.939	89.38
508.155	96.38
508.372	95.38
508.588	89.38
508.805	109.38
509.021	95.38
509.238	83.38
509.454	94.38
509.67	106.38
509.887	94.38
510.103	86.38
510.319	96.38
510.536	88.38
510.752	83.38
510.968	83.38
511.184	92.38
511.401	88.38
511.617	95.38
511.833	90.38
512.049	88.38
512.265	104.38
512.481	100.38
512.698	87.38
512.914	87.38
513.13	92.38
513.346	89.38
513.562	89.38
513.778	93.38
513.994	84.38
514.21	95.38
514.426	104.38
514.642	87.38
514.858	95.38
515.074	80.38
515.29	98.38
515.506	87.38
515.721	98.38
515.937	90.38
516.153	74.38
516.369	95.38
516.585	90.38
516.801	89.38
517.016	124.38
517.232	97.38
517.448	109.38
517.664	104.38
517.879	116.38
518.095	119.38
518.311	100.38
518.527	99.38
518.742	88.38
518.958	93.38
519.173	91.38
519.389	79.38
519.605	78.38
519.82	88.38
520.036	108.38
520.251	109.38
520.467	93.38
520.682	90.38
520.898	82.38
521.113	90.38
521.329	77.38
521.544	102.38
521.76	98.38
521.975	88.38
522.19	97.38
522.406	84.38
522.621	91.38
522.836	78.38
523.052	84.38
523.267	96.38
523.482	98.38
523.698	104.38
523.913	100.38
524.128	86.38
524.343	83.38
524.559	95.38
524.774	93.38
524.989	96.38
525.204	95.38
525.419	100.38
525.634	91.38
525.849	88.38
526.064	92.38
526.28	86.38
526.495	93.38
526.71	107.38
526.925	84.38
527.14	88.38
527.355	90.38
527.57	92.38
527.785	91.38
527.999	75.38
528.214	92.38
528.429	88.38
528.644	84.38
528.859	92.38
529.074	83.38
529.289	92.38
529.503	106.38
529.718	91.38
529.933	89.38
530.148	90.38
530.363	92.38
530.577	96.38
530.792	91.38
531.007	103.38
531.221	91.38
531.436	100.38
531.651	81.38
531.865	87.38
532.08	88.38
532.295	84.38
532.509	87.38
532.724	88.38
532.938	75.38
533.153	82.38
533.367	81.38
533.582	100.38
533.796	107.38
534.011	82.38
534.225	93.38
534.44	81.38
534.654	105.38
534.868	87.38
535.083	76.38
535.297	85.38
535.511	83.38
535.726	89.38
535.94	86.38
536.154	90.38
536.369	99.38
536.583	76.38
536.797	80.38
537.011	85.38
537.225	98.38
537.44	79.38
537.654	88.38
537.868	90.38
538.082	104.38
538.296	89.38
538.51	84.38
538.724	81.38
538.938	95.38
539.153	93.38
539.367	89.38
539.581	85.38
539.795	95.38
540.009	91.38
540.222	106.38
540.436	85.38
540.65	95.38
540.864	96.38
541.078	94.38
541.292	104.38
541.506	105.38
541.72	101.38
541.934	88.38
542.147	105.38
542.361	95.38
542.575	109.38
542.789	109.38
543.002	95.38
543.216	89.38
543.43	103.38
543.644	83.38
543.857	80.38
544.071	90.38
544.285	101.38
544.498	90.38
544.712	104.38
544.925	97.38
545.139	89.38
545.352	99.38
545.566	89.38
545.779	110.38
545.993	89.38
546.206	96.38
546.42	97.38
546.633	90.38
546.847	96.38
547.06	84.38
547.274	74.38
547.487	97.38
547.7	106.38
547.914	96.38
548.127	97.38
548.34	96.38
548.554	87.38
548.767	92.38
548.98	89.38
549.193	77.38
549.407	95.38
549.62	103.38
549.833	95.38
550.046	107.38
550.259	87.38
550.473	107.38
550.686	107.38
550.899	94.38
551.112	93.38
551.325	96.38
551.538	93.38
551.751	100.38
551.964	96.38
552.177	85.38
552.39	90.38
552.603	98.38
552.816	80.38
553.029	105.38
553.242	107.38
553.455	75.38
553.667	90.38
553.88	115.38
554.093	103.38
554.306	95.38
554.519	103.38
554.732	95.38
554.944	86.38
555.157	89.38
555.37	85.38
555.583	100.38
555.795	96.38
556.008	91.38
556.221	83.38
556.433	99.38
556.646	85.38
556.859	81.38
557.071	90.38
557.284	101.38
557.496	87.38
557.709	77.38
557.921	84.38
558.134	85.38
558.346	76.38
558.559	94.38
558.771	99.38
558.984	86.38
559.196	91.38
559.409	89.38
559.621	81.38
559.833	94.38
560.046	101.38
560.258	81.38
560.47	103.38
560.683	85.38
560.895	90.38
561.107	95.38
561.32	90.38
561.532	94.38
561.744	95.38
561.956	91.38
562.168	92.38
562.381	77.38
562.593	92.38
562.805	92.38
563.017	87.38
563.229	74.38
563.441	87.38
563.653	76.38
563.865	97.38
564.077	86.38
564.289	85.38
564.501	106.38
564.713	93.38
564.925	88.38
565.137	88.38
565.349	84.38
565.561	96.38
565.773	95.38
565.985	95.38
566.197	79.38
566.408	102.38
566.62	96.38
566.832	90.38
567.044	85.38
567.255	92.38
567.467	92.38
567.679	103.38
567.891	98.38
568.102	100.38
568.314	101.38
568.526	97.38
568.737	94.38
568.949	88.38
569.161	91.38
569.372	95.38
569.584	105.38
569.795	96.38
570.007	88.38
570.218	104.38
570.43	91.38
570.641	101.38
570.853	97.38
571.064	81.38
571.276	87.38
571.487	75.38
571.698	85.38
571.91	74.38
572.121	84.38
572.333	85.38
572.544	81.38
572.755	94.38
572.966	81.38
573.178	82.38
573.389	84.38
573.6	103.38
573.811	84.38
574.023	82.38
574.234	87.38
574.445	93.38
574.656	79.38
574.867	94.38
575.078	88.38
575.289	92.38
575.501	84.38
575.712	78.38
575.923	98.38
576.134	77.38
576.345	80.38
576.556	73.38
576.767	86.38
576.978	76.38
577.188	95.38
577.399	90.38
577.61	83.38
577.821	77.38
578.032	96.38
578.243	70.38
578.454	89.38
578.665	93.38
578.875	95.38
579.086	82.38
579.297	79.38
579.508	101.38
579.718	98.38
579.929	92.38
580.14	85.38
580.35	74.38
580.561	77.38
580.772	87.38
580.982	76.38
581.193	82.38
581.403	78.38
581.614	80.38
581.825	91.38
582.035	81.38
582.246	83.38
582.456	77.38
582.667	69.38
582.877	79.38
583.087	77.38
583.298	80.38
583.508	83.38
583.719	74.38
583.929	79.38
584.139	96.38
584.35	91.38
584.56	72.38
584.77	86.38
584.981	78.38
585.191	69.38
585.401	99.38
585.611	73.38
585.821	89.38
586.032	92.38
586.242	72.38
586.452	66.38
586.662	103.38
586.872	73.38
587.082	68.38
587.292	78.38
587.502	78.38
587.713	89.38
587.923	71.38
588.133	72.38
588.343	78.38
588.553	101.38
588.762	71.38
588.972	90.38
589.182	87.38
589.392	103.38
589.602	80.38
589.812	89.38
590.022	88.38
590.232	77.38
590.441	82.38
590.651	90.38
590.861	97.38
591.071	84.38
591.281	85.38
591.49	99.38
591.7	87.38
591.91	85.38
592.119	75.38
592.329	86.38
592.539	79.38
592.748	87.38
592.958	81.38
593.167	80.38
593.377	84.38
593.587	90.38
593.796	84.38
594.006	96.38
594.215	89.38
594.424	83.38
594.634	79.38
594.843	74.38
595.053	83.38
595.262	88.38
595.472	76.38
595.681	82.38
595.89	84.38
596.1	94.38
596.309	99.38
596.518	78.38
596.727	91.38
596.937	103.38
597.146	76.38
597.355	86.38
597.564	73.38
597.774	89.38
597.983	79.38
598.192	94.38
598.401	91.38
598.61	75.38
598.819	78.38
599.028	82.38
599.237	69.38
599.446	84.38
599.655	75.38
599.864	81.38
600.073	79.38
600.282	76.38
600.491	79.38
600.7	83.38
600.909	84.38
601.118	79.38
601.327	88.38
601.536	78.38
601.745	73.38
601.953	84.38
602.162	76.38
602.371	78.38
602.58	81.38
602.789	83.38
602.997	76.38
603.206	87.38
603.415	79.38
603.623	77.38
603.832	85.38
604.041	78.38
604.249	83.38
604.458	76.38
604.666	82.38
604.875	76.38
605.084	83.38
605.292	70.38
605.501	76.38
605.709	86.38
605.918	77.38
606.126	91.38
606.334	76.38
606.543	74.38
606.751	86.38
606.96	81.38
607.168	93.38
607.376	94.38
607.585	85.38
607.793	73.38
608.001	83.38
608.21	81.38
608.418	93.38
608.626	88.38
608.834	84.38
609.043	89.38
609.251	79.38
609.459	81.38
609.667	85.38
609.875	93.38
610.083	80.38
610.291	83.38
610.499	97.38
610.707	75.38
610.916	92.38
611.124	82.38
611.332	89.38
611.54	77.38
611.748	71.38
611.955	71.38
612.163	84.38
612.371	79.38
612.579	90.38
612.787	75.38
612.995	89.38
613.203	99.38
613.411	81.38
613.618	80.38
613.826	86.38
614.034	81.38
614.242	76.38
614.449	77.38
614.657	63.38
614.865	78.38
615.072	87.38
615.28	79.38
615.488	83.38
615.695	72.38
615.903	82.38
616.111	86.38
616.318	86.38
616.526	69.38
616.733	77.38
616.941	89.38
617.148	76.38
617.356	79.38
617.563	99.38
617.771	84.38
617.978	81.38
618.185	72.38
618.393	90.38
618.6	87.38
618.807	68.38
619.015	76.38
619.222	76.38
619.429	79.38
619.637	77.38
619.844	84.38
620.051	84.38
620.258	77.38
620.466	79.38
620.673	67.38
620.88	77.38
621.087	79.38
621.294	86.38
621.501	94.38
621.708	76.38
621.915	80.38
622.122	81.38
622.329	82.38
622.536	79.38
622.743	80.38
622.95	77.38
623.157	90.38
623.364	75.38
623.571	79.38
623.778	70.38
623.985	78.38
624.192	77.38
624.399	83.38
624.606	94.38
624.812	97.38
625.019	80.38
625.226	92.38
625.433	79.38
625.639	85.38
625.846	98.38
626.053	79.38
626.259	80.38
626.466	77.38
626.673	94.38
626.879	76.38
627.086	91.38
627.293	90.38
627.499	71.38
627.706	70.38
627.912	87.38
628.119	81.38
628.325	83.38
628.532	78.38
628.738	66.38
628.945	97.38
629.151	71.38
629.357	77.38
629.564	83.38
629.77	92.38
629.976	80.38
630.183	79.38
630.389	82.38
630.595	83.38
630.802	88.38
631.008	78.38
631.214	65.38
631.42	83.38
631.627	75.38
631.833	70.38
632.039	69.38
632.245	76.38
632.451	83.38
632.657	83.38
632.863	77.38
633.069	83.38
633.275	100.38
633.481	75.38
633.688	76.38
633.893	83.38
634.099	71.38
634.305	67.38
634.511	69.38
634.717	82.38
634.923	66.38
635.129	82.38
635.335	75.38
635.541	81.38
635.747	63.38
635.952	83.38
636.158	83.38
636.364	78.38
636.57	76.38
636.775	87.38
636.981	73.38
637.187	76.38
637.392	59.38
637.598	69.38
637.804	71.38
638.009	86.38
638.215	90.38
638.421	83.38
638.626	74.38
638.832	89.38
639.037	80.38
639.243	81.38
639.448	92.38
639.654	84.38
639.859	70.38
640.065	76.38
640.27	84.38
640.475	80.38
640.681	68.38
640.886	80.38
641.091	94.38
641.297	81.38
641.502	86.38
641.707	83.38
641.913	96.38
642.118	82.38
642.323	65.38
642.528	82.38
642.733	94.38
642.939	70.38
643.144	80.38
643.349	74.38
643.554	73.38
643.759	89.38
643.964	72.38
644.169	77.38
644.374	80.38
644.579	78.38
644.784	81.38
644.989	77.38
645.194	74.38
645.399	78.38
645.604	73.38
645.809	70.38
646.014	56.38
646.219	66.38
646.423	76.38
646.628	85.38
646.833	77.38
647.038	66.38
647.243	78.38
647.447	70.38
647.652	76.38
647.857	72.38
648.062	81.38
648.266	69.38
648.471	78.38
648.676	82.38
648.88	68.38
649.085	79.38
649.289	94.38
649.494	64.38
649.698	84.38
649.903	76.38
650.107	80.38
650.312	77.38
650.516	73.38
650.721	100.38
650.925	84.38
651.13	73.38
651.334	79.38
651.539	81.38
651.743	77.38
651.947	72.38
652.152	88.38
652.356	81.38
652.56	80.38
652.764	70.38
652.969	77.38
653.173	78.38
653.377	89.38
653.581	68.38
653.785	71.38
653.99	84.38
654.194	69.38
654.398	88.38
654.602	94.38
654.806	85.38
655.01	83.38
655.214	79.38
655.418	82.38
655.622	72.38
655.826	79.38
656.03	79.38
656.234	63.38
656.438	67.38
656.642	82.38
656.846	76.38
657.049	81.38
657.253	84.38
657.457	76.38
657.661	79.38
657.865	84.38
658.068	79.38
658.272	84.38
658.476	72.38
658.68	79.38
658.883	77.38
659.087	98.38
659.291	83.38
659.494	61.38
659.698	72.38
659.901	59.38
660.105	77.38
660.309	82.38
660.512	76.38
660.716	74.38
660.919	73.38
661.123	75.38
661.326	69.38
661.53	78.38
661.733	83.38
661.936	80.38
662.14	71.38
662.343	43.38
662.546	77.38
662.75	79.38
662.953	78.38
663.156	76.38
663.36	74.38
663.563	81.38
663.766	64.38
663.969	80.38
664.173	67.38
664.376	78.38
664.579	57.38
664.782	77.38
664.985	63.38
665.188	58.38
665.391	84.38
665.594	73.38
665.797	76.38
666	80.38
666.203	70.38
666.406	71.38
666.609	73.38
666.812	68.38
667.015	73.38
667.218	81.38
667.421	64.38
667.624	89.38
667.827	85.38
668.03	91.38
668.232	92.38
668.435	75.38
668.638	66.38
668.841	75.38
669.043	61.38
669.246	70.38
669.449	61.38
669.651	91.38
669.854	85.38
670.057	74.38
670.259	83.38
670.462	82.38
670.665	71.38
670.867	73.38
671.07	80.38
671.272	70.38
671.475	86.38
671.677	85.38
671.88	72.38
672.082	86.38
672.284	76.38
672.487	77.38
672.689	77.38
672.892	75.38
