Data from Location5.07152019.Energy5.Lamp.07192019.3%Agarose_HRD10591_16-02-42-628.txt Node
Date: Fri Jul 19 16:02:42 EDT 2019
User: cochatt
Spectrometer: HR+D1059
Trigger mode: 1
Integration Time (sec): 1.000000E-1
Scans to average: 1
Electric dark correction enabled: true
Nonlinearity correction enabled: false
Boxcar width: 0
XAxis mode: Wavelengths
Number of Pixels in Spectrum: 2048
>>>>>Begin Spectral Data<<<<<
223.165	-9.31
223.4	-9.31
223.635	-9.31
223.869	-13.31
224.104	-8.31
224.338	-12.31
224.573	-14.31
224.808	-12.31
225.042	-1.31
225.277	-19.31
225.511	-8.31
225.746	-1.31
225.98	10.69
226.215	-0.31
226.449	24.69
226.683	12.69
226.918	39.69
227.152	12.69
227.387	35.69
227.621	39.69
227.856	37.69
228.09	26.69
228.324	48.69
228.559	58.69
228.793	65.69
229.027	72.69
229.262	64.69
229.496	76.69
229.73	69.69
229.964	68.69
230.199	67.69
230.433	76.69
230.667	78.69
230.901	72.69
231.136	77.69
231.37	84.69
231.604	84.69
231.838	74.69
232.072	73.69
232.306	73.69
232.541	80.69
232.775	93.69
233.009	85.69
233.243	85.69
233.477	72.69
233.711	76.69
233.945	79.69
234.179	89.69
234.413	80.69
234.647	72.69
234.881	80.69
235.115	91.69
235.349	84.69
235.583	89.69
235.817	82.69
236.051	88.69
236.285	82.69
236.519	77.69
236.753	73.69
236.987	81.69
237.221	80.69
237.455	69.69
237.689	70.69
237.922	72.69
238.156	75.69
238.39	69.69
238.624	83.69
238.858	73.69
239.091	73.69
239.325	67.69
239.559	80.69
239.793	84.69
240.027	75.69
240.26	84.69
240.494	99.69
240.728	90.69
240.961	80.69
241.195	80.69
241.429	78.69
241.662	77.69
241.896	75.69
242.13	80.69
242.363	87.69
242.597	82.69
242.83	82.69
243.064	74.69
243.298	88.69
243.531	83.69
243.765	91.69
243.998	80.69
244.232	67.69
244.465	86.69
244.699	83.69
244.932	83.69
245.166	79.69
245.399	78.69
245.633	76.69
245.866	68.69
246.099	85.69
246.333	79.69
246.566	78.69
246.8	80.69
247.033	82.69
247.266	76.69
247.5	88.69
247.733	78.69
247.966	71.69
248.2	80.69
248.433	71.69
248.666	78.69
248.899	82.69
249.133	83.69
249.366	87.69
249.599	73.69
249.832	78.69
250.066	79.69
250.299	84.69
250.532	82.69
250.765	84.69
250.998	82.69
251.231	85.69
251.465	83.69
251.698	90.69
251.931	68.69
252.164	89.69
252.397	79.69
252.63	81.69
252.863	75.69
253.096	74.69
253.329	81.69
253.562	83.69
253.795	78.69
254.028	83.69
254.261	85.69
254.494	96.69
254.727	93.69
254.96	73.69
255.193	75.69
255.426	90.69
255.659	91.69
255.892	79.69
256.124	83.69
256.357	87.69
256.59	91.69
256.823	85.69
257.056	95.69
257.289	64.69
257.521	71.69
257.754	88.69
257.987	76.69
258.22	89.69
258.452	93.69
258.685	88.69
258.918	90.69
259.151	86.69
259.383	102.69
259.616	77.69
259.849	83.69
260.081	72.69
260.314	96.69
260.547	73.69
260.779	78.69
261.012	95.69
261.244	70.69
261.477	79.69
261.71	82.69
261.942	87.69
262.175	93.69
262.407	102.69
262.64	97.69
262.872	52.69
263.105	75.69
263.337	81.69
263.57	95.69
263.802	91.69
264.035	87.69
264.267	81.69
264.499	87.69
264.732	94.69
264.964	80.69
265.197	81.69
265.429	92.69
265.661	87.69
265.894	90.69
266.126	95.69
266.358	84.69
266.591	79.69
266.823	85.69
267.055	82.69
267.287	86.69
267.52	79.69
267.752	96.69
267.984	94.69
268.216	91.69
268.448	98.69
268.681	86.69
268.913	88.69
269.145	86.69
269.377	85.69
269.609	89.69
269.841	71.69
270.073	83.69
270.306	83.69
270.538	86.69
270.77	74.69
271.002	80.69
271.234	75.69
271.466	87.69
271.698	89.69
271.93	82.69
272.162	74.69
272.394	82.69
272.626	87.69
272.858	88.69
273.09	97.69
273.322	98.69
273.553	82.69
273.785	93.69
274.017	88.69
274.249	90.69
274.481	86.69
274.713	90.69
274.945	91.69
275.176	89.69
275.408	110.69
275.64	102.69
275.872	83.69
276.104	79.69
276.335	73.69
276.567	87.69
276.799	78.69
277.031	87.69
277.262	99.69
277.494	97.69
277.726	91.69
277.957	72.69
278.189	84.69
278.421	83.69
278.652	82.69
278.884	92.69
279.115	79.69
279.347	91.69
279.579	87.69
279.81	96.69
280.042	87.69
280.273	83.69
280.505	83.69
280.736	91.69
280.968	82.69
281.199	81.69
281.431	84.69
281.662	94.69
281.894	82.69
282.125	83.69
282.356	85.69
282.588	90.69
282.819	91.69
283.051	83.69
283.282	84.69
283.513	78.69
283.745	76.69
283.976	91.69
284.207	75.69
284.439	79.69
284.67	98.69
284.901	77.69
285.132	84.69
285.364	88.69
285.595	83.69
285.826	87.69
286.057	86.69
286.288	86.69
286.52	92.69
286.751	86.69
286.982	88.69
287.213	96.69
287.444	94.69
287.675	87.69
287.906	81.69
288.138	84.69
288.369	94.69
288.6	87.69
288.831	91.69
289.062	105.69
289.293	82.69
289.524	95.69
289.755	76.69
289.986	97.69
290.217	98.69
290.448	87.69
290.679	80.69
290.91	91.69
291.141	89.69
291.371	94.69
291.602	80.69
291.833	97.69
292.064	89.69
292.295	96.69
292.526	104.69
292.757	93.69
292.987	88.69
293.218	96.69
293.449	88.69
293.68	92.69
293.91	89.69
294.141	102.69
294.372	88.69
294.603	89.69
294.833	96.69
295.064	95.69
295.295	80.69
295.525	101.69
295.756	99.69
295.987	85.69
296.217	82.69
296.448	90.69
296.679	105.69
296.909	88.69
297.14	90.69
297.37	106.69
297.601	86.69
297.831	98.69
298.062	86.69
298.292	92.69
298.523	87.69
298.753	91.69
298.984	98.69
299.214	86.69
299.445	78.69
299.675	106.69
299.905	92.69
300.136	90.69
300.366	107.69
300.597	84.69
300.827	81.69
301.057	91.69
301.288	103.69
301.518	69.69
301.748	91.69
301.979	98.69
302.209	93.69
302.439	98.69
302.669	102.69
302.9	101.69
303.13	92.69
303.36	83.69
303.59	69.69
303.82	89.69
304.051	93.69
304.281	91.69
304.511	103.69
304.741	96.69
304.971	95.69
305.201	91.69
305.431	91.69
305.661	85.69
305.891	75.69
306.121	97.69
306.352	88.69
306.582	93.69
306.812	87.69
307.042	95.69
307.272	105.69
307.502	90.69
307.731	112.69
307.961	90.69
308.191	89.69
308.421	83.69
308.651	83.69
308.881	94.69
309.111	83.69
309.341	86.69
309.571	93.69
309.8	90.69
310.03	78.69
310.26	100.69
310.49	82.69
310.72	92.69
310.949	81.69
311.179	84.69
311.409	84.69
311.639	90.69
311.868	79.69
312.098	88.69
312.328	81.69
312.557	97.69
312.787	89.69
313.017	89.69
313.246	91.69
313.476	85.69
313.706	84.69
313.935	110.69
314.165	99.69
314.394	104.69
314.624	79.69
314.853	90.69
315.083	92.69
315.312	90.69
315.542	94.69
315.771	103.69
316.001	96.69
316.23	96.69
316.46	99.69
316.689	83.69
316.919	89.69
317.148	101.69
317.377	97.69
317.607	103.69
317.836	91.69
318.065	94.69
318.295	85.69
318.524	86.69
318.753	81.69
318.983	107.69
319.212	91.69
319.441	89.69
319.67	83.69
319.9	85.69
320.129	88.69
320.358	94.69
320.587	88.69
320.816	89.69
321.046	85.69
321.275	94.69
321.504	86.69
321.733	83.69
321.962	87.69
322.191	94.69
322.42	91.69
322.649	89.69
322.878	107.69
323.108	98.69
323.337	95.69
323.566	86.69
323.795	78.69
324.024	102.69
324.253	114.69
324.482	86.69
324.71	82.69
324.939	101.69
325.168	92.69
325.397	101.69
325.626	96.69
325.855	98.69
326.084	96.69
326.313	102.69
326.542	88.69
326.77	86.69
326.999	101.69
327.228	80.69
327.457	104.69
327.686	97.69
327.914	86.69
328.143	104.69
328.372	113.69
328.6	94.69
328.829	90.69
329.058	89.69
329.287	76.69
329.515	76.69
329.744	105.69
329.972	96.69
330.201	99.69
330.43	77.69
330.658	90.69
330.887	87.69
331.115	86.69
331.344	92.69
331.572	97.69
331.801	81.69
332.03	83.69
332.258	95.69
332.486	105.69
332.715	90.69
332.943	114.69
333.172	93.69
333.4	99.69
333.629	99.69
333.857	108.69
334.085	86.69
334.314	82.69
334.542	87.69
334.771	103.69
334.999	96.69
335.227	85.69
335.455	89.69
335.684	76.69
335.912	90.69
336.14	88.69
336.369	99.69
336.597	86.69
336.825	101.69
337.053	85.69
337.281	103.69
337.51	104.69
337.738	99.69
337.966	90.69
338.194	88.69
338.422	85.69
338.65	86.69
338.878	95.69
339.106	94.69
339.334	105.69
339.562	85.69
339.79	80.69
340.018	88.69
340.246	84.69
340.474	91.69
340.702	101.69
340.93	95.69
341.158	80.69
341.386	102.69
341.614	103.69
341.842	96.69
342.07	95.69
342.298	106.69
342.526	98.69
342.754	84.69
342.981	90.69
343.209	100.69
343.437	89.69
343.665	85.69
343.893	97.69
344.12	103.69
344.348	100.69
344.576	90.69
344.804	76.69
345.031	82.69
345.259	108.69
345.487	84.69
345.714	92.69
345.942	90.69
346.17	89.69
346.397	95.69
346.625	92.69
346.853	91.69
347.08	95.69
347.308	80.69
347.535	80.69
347.763	94.69
347.99	97.69
348.218	96.69
348.445	95.69
348.673	105.69
348.9	112.69
349.128	94.69
349.355	85.69
349.583	95.69
349.81	93.69
350.037	96.69
350.265	86.69
350.492	91.69
350.72	99.69
350.947	90.69
351.174	92.69
351.402	81.69
351.629	87.69
351.856	99.69
352.083	101.69
352.311	95.69
352.538	84.69
352.765	101.69
352.992	89.69
353.22	93.69
353.447	77.69
353.674	83.69
353.901	113.69
354.128	89.69
354.355	87.69
354.583	94.69
354.81	99.69
355.037	107.69
355.264	91.69
355.491	91.69
355.718	104.69
355.945	87.69
356.172	88.69
356.399	80.69
356.626	89.69
356.853	90.69
357.08	108.69
357.307	81.69
357.534	91.69
357.761	98.69
357.988	101.69
358.215	98.69
358.441	88.69
358.668	94.69
358.895	92.69
359.122	108.69
359.349	95.69
359.576	95.69
359.802	84.69
360.029	99.69
360.256	98.69
360.483	91.69
360.709	85.69
360.936	88.69
361.163	95.69
361.39	92.69
361.616	92.69
361.843	102.69
362.07	91.69
362.296	96.69
362.523	92.69
362.749	91.69
362.976	84.69
363.203	91.69
363.429	89.69
363.656	88.69
363.882	83.69
364.109	92.69
364.335	98.69
364.562	85.69
364.788	85.69
365.015	85.69
365.241	111.69
365.468	99.69
365.694	93.69
365.92	79.69
366.147	93.69
366.373	82.69
366.599	85.69
366.826	82.69
367.052	88.69
367.278	97.69
367.505	82.69
367.731	98.69
367.957	96.69
368.184	94.69
368.41	103.69
368.636	102.69
368.862	81.69
369.089	101.69
369.315	97.69
369.541	79.69
369.767	89.69
369.993	93.69
370.219	84.69
370.445	93.69
370.672	90.69
370.898	88.69
371.124	86.69
371.35	97.69
371.576	85.69
371.802	88.69
372.028	97.69
372.254	80.69
372.48	84.69
372.706	93.69
372.932	85.69
373.158	90.69
373.384	83.69
373.61	97.69
373.835	92.69
374.061	86.69
374.287	105.69
374.513	95.69
374.739	86.69
374.965	81.69
375.191	99.69
375.416	101.69
375.642	100.69
375.868	103.69
376.094	93.69
376.319	107.69
376.545	89.69
376.771	94.69
376.997	92.69
377.222	92.69
377.448	92.69
377.674	83.69
377.899	98.69
378.125	85.69
378.35	103.69
378.576	80.69
378.802	84.69
379.027	91.69
379.253	100.69
379.478	93.69
379.704	88.69
379.929	87.69
380.155	87.69
380.38	79.69
380.606	91.69
380.831	91.69
381.057	95.69
381.282	95.69
381.507	91.69
381.733	91.69
381.958	100.69
382.184	77.69
382.409	89.69
382.634	91.69
382.86	84.69
383.085	97.69
383.31	88.69
383.535	110.69
383.761	94.69
383.986	86.69
384.211	98.69
384.436	92.69
384.662	91.69
384.887	103.69
385.112	98.69
385.337	88.69
385.562	97.69
385.787	94.69
386.013	95.69
386.238	87.69
386.463	90.69
386.688	96.69
386.913	97.69
387.138	87.69
387.363	92.69
387.588	102.69
387.813	83.69
388.038	96.69
388.263	100.69
388.488	89.69
388.713	90.69
388.938	86.69
389.163	89.69
389.387	87.69
389.612	94.69
389.837	105.69
390.062	96.69
390.287	99.69
390.512	78.69
390.736	111.69
390.961	90.69
391.186	79.69
391.411	75.69
391.636	99.69
391.86	94.69
392.085	93.69
392.31	106.69
392.534	90.69
392.759	82.69
392.984	91.69
393.208	92.69
393.433	88.69
393.658	88.69
393.882	97.69
394.107	98.69
394.331	95.69
394.556	107.69
394.78	95.69
395.005	82.69
395.229	87.69
395.454	99.69
395.678	98.69
395.903	89.69
396.127	92.69
396.352	87.69
396.576	99.69
396.801	97.69
397.025	96.69
397.249	92.69
397.474	91.69
397.698	94.69
397.922	96.69
398.147	92.69
398.371	101.69
398.595	94.69
398.82	92.69
399.044	97.69
399.268	108.69
399.492	111.69
399.717	124.69
399.941	96.69
400.165	92.69
400.389	112.69
400.613	96.69
400.837	98.69
401.062	96.69
401.286	107.69
401.51	89.69
401.734	98.69
401.958	101.69
402.182	87.69
402.406	96.69
402.63	84.69
402.854	111.69
403.078	102.69
403.302	119.69
403.526	110.69
403.75	102.69
403.974	112.69
404.198	102.69
404.422	111.69
404.645	98.69
404.869	108.69
405.093	105.69
405.317	95.69
405.541	100.69
405.765	97.69
405.988	98.69
406.212	93.69
406.436	104.69
406.66	103.69
406.883	114.69
407.107	106.69
407.331	97.69
407.555	104.69
407.778	87.69
408.002	102.69
408.226	101.69
408.449	106.69
408.673	104.69
408.896	105.69
409.12	91.69
409.344	98.69
409.567	105.69
409.791	95.69
410.014	94.69
410.238	99.69
410.461	100.69
410.685	106.69
410.908	106.69
411.132	86.69
411.355	104.69
411.578	92.69
411.802	97.69
412.025	108.69
412.249	102.69
412.472	105.69
412.695	97.69
412.919	101.69
413.142	96.69
413.365	110.69
413.589	104.69
413.812	110.69
414.035	77.69
414.258	102.69
414.482	122.69
414.705	94.69
414.928	100.69
415.151	105.69
415.374	99.69
415.597	100.69
415.821	102.69
416.044	92.69
416.267	96.69
416.49	100.69
416.713	111.69
416.936	88.69
417.159	90.69
417.382	99.69
417.605	101.69
417.828	102.69
418.051	104.69
418.274	114.69
418.497	97.69
418.72	103.69
418.943	104.69
419.166	118.69
419.389	86.69
419.611	92.69
419.834	99.69
420.057	89.69
420.28	95.69
420.503	89.69
420.726	90.69
420.948	92.69
421.171	92.69
421.394	93.69
421.617	86.69
421.839	107.69
422.062	107.69
422.285	98.69
422.507	102.69
422.73	97.69
422.953	100.69
423.175	98.69
423.398	89.69
423.621	91.69
423.843	94.69
424.066	107.69
424.288	97.69
424.511	96.69
424.733	96.69
424.956	101.69
425.178	91.69
425.401	102.69
425.623	84.69
425.846	91.69
426.068	99.69
426.291	94.69
426.513	89.69
426.735	80.69
426.958	102.69
427.18	94.69
427.402	93.69
427.625	91.69
427.847	92.69
428.069	96.69
428.292	97.69
428.514	102.69
428.736	94.69
428.958	103.69
429.181	97.69
429.403	94.69
429.625	86.69
429.847	90.69
430.069	97.69
430.292	97.69
430.514	106.69
430.736	90.69
430.958	99.69
431.18	90.69
431.402	92.69
431.624	102.69
431.846	87.69
432.068	87.69
432.29	82.69
432.512	85.69
432.734	89.69
432.956	106.69
433.178	106.69
433.4	98.69
433.622	104.69
433.844	106.69
434.066	96.69
434.287	91.69
434.509	89.69
434.731	101.69
434.953	113.69
435.175	101.69
435.397	85.69
435.618	98.69
435.84	83.69
436.062	87.69
436.284	86.69
436.505	97.69
436.727	94.69
436.949	103.69
437.17	88.69
437.392	98.69
437.614	79.69
437.835	68.69
438.057	83.69
438.278	99.69
438.5	84.69
438.721	96.69
438.943	100.69
439.165	100.69
439.386	91.69
439.608	110.69
439.829	96.69
440.05	89.69
440.272	106.69
440.493	102.69
440.715	104.69
440.936	101.69
441.158	93.69
441.379	92.69
441.6	82.69
441.822	88.69
442.043	96.69
442.264	104.69
442.486	97.69
442.707	87.69
442.928	107.69
443.149	95.69
443.371	96.69
443.592	104.69
443.813	98.69
444.034	118.69
444.255	102.69
444.476	101.69
444.698	82.69
444.919	99.69
445.14	212.69
445.361	152.69
445.582	98.69
445.803	87.69
446.024	94.69
446.245	105.69
446.466	88.69
446.687	96.69
446.908	99.69
447.129	101.69
447.35	88.69
447.571	103.69
447.792	84.69
448.013	93.69
448.234	97.69
448.455	108.69
448.675	98.69
448.896	87.69
449.117	99.69
449.338	96.69
449.559	104.69
449.779	82.69
450	89.69
450.221	91.69
450.442	91.69
450.662	82.69
450.883	87.69
451.104	98.69
451.324	95.69
451.545	102.69
451.766	107.69
451.986	84.69
452.207	90.69
452.428	106.69
452.648	105.69
452.869	101.69
453.089	89.69
453.31	94.69
453.53	87.69
453.751	104.69
453.971	89.69
454.192	85.69
454.412	92.69
454.633	112.69
454.853	93.69
455.073	100.69
455.294	95.69
455.514	107.69
455.734	89.69
455.955	89.69
456.175	86.69
456.395	87.69
456.616	103.69
456.836	99.69
457.056	100.69
457.276	86.69
457.497	91.69
457.717	95.69
457.937	91.69
458.157	92.69
458.377	87.69
458.598	87.69
458.818	76.69
459.038	87.69
459.258	89.69
459.478	93.69
459.698	105.69
459.918	106.69
460.138	104.69
460.358	99.69
460.578	112.69
460.798	102.69
461.018	97.69
461.238	106.69
461.458	102.69
461.678	93.69
461.898	97.69
462.118	110.69
462.338	114.69
462.558	100.69
462.777	103.69
462.997	106.69
463.217	120.69
463.437	114.69
463.657	116.69
463.876	89.69
464.096	114.69
464.316	94.69
464.536	86.69
464.755	110.69
464.975	103.69
465.195	96.69
465.414	111.69
465.634	100.69
465.854	105.69
466.073	101.69
466.293	97.69
466.512	95.69
466.732	95.69
466.951	86.69
467.171	103.69
467.391	90.69
467.61	91.69
467.829	104.69
468.049	103.69
468.268	85.69
468.488	97.69
468.707	94.69
468.927	91.69
469.146	96.69
469.365	86.69
469.585	90.69
469.804	102.69
470.023	103.69
470.243	106.69
470.462	107.69
470.681	101.69
470.901	106.69
471.12	97.69
471.339	96.69
471.558	107.69
471.777	113.69
471.997	97.69
472.216	104.69
472.435	102.69
472.654	86.69
472.873	110.69
473.092	105.69
473.311	107.69
473.53	88.69
473.749	101.69
473.968	87.69
474.187	89.69
474.406	92.69
474.625	91.69
474.844	118.69
475.063	91.69
475.282	90.69
475.501	87.69
475.72	99.69
475.939	100.69
476.158	113.69
476.377	99.69
476.596	113.69
476.814	108.69
477.033	80.69
477.252	111.69
477.471	105.69
477.69	107.69
477.908	95.69
478.127	110.69
478.346	104.69
478.564	114.69
478.783	108.69
479.002	92.69
479.22	109.69
479.439	100.69
479.658	108.69
479.876	116.69
480.095	118.69
480.313	98.69
480.532	104.69
480.751	99.69
480.969	99.69
481.188	104.69
481.406	92.69
481.624	96.69
481.843	94.69
482.061	95.69
482.28	98.69
482.498	106.69
482.717	103.69
482.935	102.69
483.153	110.69
483.372	96.69
483.59	117.69
483.808	94.69
484.027	88.69
484.245	107.69
484.463	111.69
484.681	119.69
484.9	104.69
485.118	117.69
485.336	105.69
485.554	111.69
485.772	107.69
485.99	111.69
486.209	100.69
486.427	114.69
486.645	105.69
486.863	110.69
487.081	114.69
487.299	105.69
487.517	114.69
487.735	104.69
487.953	120.69
488.171	96.69
488.389	112.69
488.607	115.69
488.825	123.69
489.043	114.69
489.261	114.69
489.479	116.69
489.696	113.69
489.914	114.69
490.132	122.69
490.35	98.69
490.568	112.69
490.786	107.69
491.003	105.69
491.221	107.69
491.439	122.69
491.657	108.69
491.874	118.69
492.092	132.69
492.31	136.69
492.527	111.69
492.745	115.69
492.963	116.69
493.18	123.69
493.398	112.69
493.615	112.69
493.833	118.69
494.05	116.69
494.268	101.69
494.485	90.69
494.703	127.69
494.92	128.69
495.138	111.69
495.355	112.69
495.573	121.69
495.79	121.69
496.008	117.69
496.225	106.69
496.442	101.69
496.66	124.69
496.877	110.69
497.094	104.69
497.312	119.69
497.529	130.69
497.746	121.69
497.963	123.69
498.181	118.69
498.398	99.69
498.615	118.69
498.832	122.69
499.049	118.69
499.267	130.69
499.484	144.69
499.701	137.69
499.918	142.69
500.135	147.69
500.352	159.69
500.569	170.69
500.786	164.69
501.003	151.69
501.22	133.69
501.437	146.69
501.654	122.69
501.871	127.69
502.088	130.69
502.305	131.69
502.522	126.69
502.739	119.69
502.956	107.69
503.172	118.69
503.389	107.69
503.606	115.69
503.823	110.69
504.04	113.69
504.256	124.69
504.473	121.69
504.69	118.69
504.907	121.69
505.123	97.69
505.34	108.69
505.557	115.69
505.773	120.69
505.99	96.69
506.207	100.69
506.423	117.69
506.64	114.69
506.856	97.69
507.073	96.69
507.289	113.69
507.506	103.69
507.722	117.69
507.939	106.69
508.155	107.69
508.372	101.69
508.588	96.69
508.805	89.69
509.021	103.69
509.238	122.69
509.454	108.69
509.67	86.69
509.887	103.69
510.103	103.69
510.319	99.69
510.536	96.69
510.752	115.69
510.968	107.69
511.184	110.69
511.401	92.69
511.617	104.69
511.833	105.69
512.049	88.69
512.265	100.69
512.481	100.69
512.698	100.69
512.914	122.69
513.13	111.69
513.346	87.69
513.562	98.69
513.778	104.69
513.994	109.69
514.21	116.69
514.426	110.69
514.642	99.69
514.858	87.69
515.074	88.69
515.29	103.69
515.506	97.69
515.721	87.69
515.937	103.69
516.153	96.69
516.369	88.69
516.585	104.69
516.801	99.69
517.016	104.69
517.232	109.69
517.448	120.69
517.664	122.69
517.879	105.69
518.095	118.69
518.311	112.69
518.527	95.69
518.742	111.69
518.958	112.69
519.173	118.69
519.389	99.69
519.605	107.69
519.82	104.69
520.036	94.69
520.251	114.69
520.467	107.69
520.682	101.69
520.898	106.69
521.113	106.69
521.329	106.69
521.544	107.69
521.76	105.69
521.975	93.69
522.19	100.69
522.406	92.69
522.621	104.69
522.836	94.69
523.052	104.69
523.267	102.69
523.482	95.69
523.698	93.69
523.913	92.69
524.128	100.69
524.343	90.69
524.559	94.69
524.774	116.69
524.989	102.69
525.204	99.69
525.419	101.69
525.634	96.69
525.849	102.69
526.064	116.69
526.28	108.69
526.495	97.69
526.71	108.69
526.925	94.69
527.14	90.69
527.355	89.69
527.57	106.69
527.785	92.69
527.999	111.69
528.214	105.69
528.429	104.69
528.644	101.69
528.859	103.69
529.074	97.69
529.289	98.69
529.503	101.69
529.718	86.69
529.933	103.69
530.148	95.69
530.363	101.69
530.577	90.69
530.792	121.69
531.007	99.69
531.221	113.69
531.436	100.69
531.651	102.69
531.865	95.69
532.08	97.69
532.295	111.69
532.509	85.69
532.724	90.69
532.938	105.69
533.153	98.69
533.367	86.69
533.582	91.69
533.796	106.69
534.011	104.69
534.225	97.69
534.44	88.69
534.654	88.69
534.868	89.69
535.083	94.69
535.297	99.69
535.511	95.69
535.726	87.69
535.94	103.69
536.154	91.69
536.369	90.69
536.583	111.69
536.797	107.69
537.011	87.69
537.225	101.69
537.44	103.69
537.654	105.69
537.868	104.69
538.082	94.69
538.296	94.69
538.51	101.69
538.724	102.69
538.938	99.69
539.153	115.69
539.367	106.69
539.581	99.69
539.795	109.69
540.009	99.69
540.222	91.69
540.436	100.69
540.65	114.69
540.864	103.69
541.078	111.69
541.292	98.69
541.506	105.69
541.72	108.69
541.934	98.69
542.147	105.69
542.361	95.69
542.575	106.69
542.789	107.69
543.002	102.69
543.216	119.69
543.43	97.69
543.644	114.69
543.857	108.69
544.071	88.69
544.285	96.69
544.498	107.69
544.712	100.69
544.925	104.69
545.139	100.69
545.352	94.69
545.566	95.69
545.779	104.69
545.993	98.69
546.206	111.69
546.42	95.69
546.633	92.69
546.847	107.69
547.06	111.69
547.274	95.69
547.487	93.69
547.7	113.69
547.914	105.69
548.127	103.69
548.34	114.69
548.554	104.69
548.767	122.69
548.98	92.69
549.193	94.69
549.407	111.69
549.62	95.69
549.833	109.69
550.046	91.69
550.259	90.69
550.473	98.69
550.686	104.69
550.899	110.69
551.112	90.69
551.325	94.69
551.538	100.69
551.751	103.69
551.964	89.69
552.177	94.69
552.39	95.69
552.603	102.69
552.816	112.69
553.029	108.69
553.242	113.69
553.455	107.69
553.667	104.69
553.88	100.69
554.093	104.69
554.306	103.69
554.519	91.69
554.732	93.69
554.944	112.69
555.157	100.69
555.37	103.69
555.583	101.69
555.795	101.69
556.008	88.69
556.221	97.69
556.433	80.69
556.646	112.69
556.859	91.69
557.071	92.69
557.284	104.69
557.496	87.69
557.709	82.69
557.921	95.69
558.134	108.69
558.346	101.69
558.559	96.69
558.771	92.69
558.984	107.69
559.196	106.69
559.409	102.69
559.621	79.69
559.833	93.69
560.046	93.69
560.258	106.69
560.47	94.69
560.683	96.69
560.895	88.69
561.107	110.69
561.32	90.69
561.532	101.69
561.744	103.69
561.956	98.69
562.168	93.69
562.381	96.69
562.593	95.69
562.805	108.69
563.017	105.69
563.229	99.69
563.441	95.69
563.653	98.69
563.865	98.69
564.077	91.69
564.289	104.69
564.501	100.69
564.713	114.69
564.925	88.69
565.137	104.69
565.349	99.69
565.561	100.69
565.773	110.69
565.985	105.69
566.197	90.69
566.408	100.69
566.62	110.69
566.832	118.69
567.044	99.69
567.255	102.69
567.467	103.69
567.679	123.69
567.891	107.69
568.102	107.69
568.314	100.69
568.526	97.69
568.737	94.69
568.949	116.69
569.161	99.69
569.372	100.69
569.584	106.69
569.795	98.69
570.007	106.69
570.218	102.69
570.43	110.69
570.641	96.69
570.853	79.69
571.064	99.69
571.276	94.69
571.487	95.69
571.698	97.69
571.91	105.69
572.121	107.69
572.333	93.69
572.544	84.69
572.755	86.69
572.966	85.69
573.178	100.69
573.389	105.69
573.6	86.69
573.811	92.69
574.023	92.69
574.234	90.69
574.445	90.69
574.656	95.69
574.867	87.69
575.078	81.69
575.289	92.69
575.501	98.69
575.712	87.69
575.923	99.69
576.134	89.69
576.345	98.69
576.556	82.69
576.767	91.69
576.978	113.69
577.188	89.69
577.399	102.69
577.61	83.69
577.821	83.69
578.032	98.69
578.243	89.69
578.454	93.69
578.665	82.69
578.875	88.69
579.086	89.69
579.297	76.69
579.508	85.69
579.718	92.69
579.929	82.69
580.14	94.69
580.35	91.69
580.561	92.69
580.772	91.69
580.982	90.69
581.193	81.69
581.403	92.69
581.614	79.69
581.825	84.69
582.035	83.69
582.246	86.69
582.456	82.69
582.667	74.69
582.877	93.69
583.087	91.69
583.298	92.69
583.508	84.69
583.719	104.69
583.929	84.69
584.139	99.69
584.35	85.69
584.56	104.69
584.77	96.69
584.981	81.69
585.191	100.69
585.401	93.69
585.611	83.69
585.821	92.69
586.032	84.69
586.242	86.69
586.452	99.69
586.662	100.69
586.872	94.69
587.082	95.69
587.292	95.69
587.502	90.69
587.713	78.69
587.923	87.69
588.133	84.69
588.343	87.69
588.553	87.69
588.762	77.69
588.972	89.69
589.182	89.69
589.392	88.69
589.602	89.69
589.812	84.69
590.022	89.69
590.232	95.69
590.441	76.69
590.651	78.69
590.861	96.69
591.071	98.69
591.281	103.69
591.49	94.69
591.7	99.69
591.91	96.69
592.119	86.69
592.329	95.69
592.539	93.69
592.748	92.69
592.958	90.69
593.167	106.69
593.377	91.69
593.587	103.69
593.796	106.69
594.006	98.69
594.215	96.69
594.424	105.69
594.634	86.69
594.843	86.69
595.053	86.69
595.262	84.69
595.472	88.69
595.681	89.69
595.89	78.69
596.1	103.69
596.309	74.69
596.518	82.69
596.727	99.69
596.937	99.69
597.146	64.69
597.355	89.69
597.564	83.69
597.774	91.69
597.983	92.69
598.192	92.69
598.401	88.69
598.61	88.69
598.819	85.69
599.028	98.69
599.237	91.69
599.446	91.69
599.655	82.69
599.864	98.69
600.073	84.69
600.282	93.69
600.491	80.69
600.7	93.69
600.909	97.69
601.118	85.69
601.327	88.69
601.536	79.69
601.745	93.69
601.953	86.69
602.162	103.69
602.371	73.69
602.58	73.69
602.789	84.69
602.997	93.69
603.206	89.69
603.415	84.69
603.623	83.69
603.832	96.69
604.041	79.69
604.249	100.69
604.458	102.69
604.666	86.69
604.875	95.69
605.084	94.69
605.292	92.69
605.501	84.69
605.709	82.69
605.918	91.69
606.126	84.69
606.334	96.69
606.543	87.69
606.751	97.69
606.96	87.69
607.168	83.69
607.376	88.69
607.585	86.69
607.793	77.69
608.001	79.69
608.21	91.69
608.418	86.69
608.626	84.69
608.834	96.69
609.043	90.69
609.251	97.69
609.459	98.69
609.667	86.69
609.875	92.69
610.083	88.69
610.291	76.69
610.499	90.69
610.707	87.69
610.916	90.69
611.124	87.69
611.332	104.69
611.54	88.69
611.748	87.69
611.955	84.69
612.163	77.69
612.371	99.69
612.579	89.69
612.787	88.69
612.995	98.69
613.203	74.69
613.411	88.69
613.618	87.69
613.826	94.69
614.034	70.69
614.242	102.69
614.449	84.69
614.657	74.69
614.865	81.69
615.072	91.69
615.28	91.69
615.488	87.69
615.695	74.69
615.903	94.69
616.111	84.69
616.318	88.69
616.526	80.69
616.733	97.69
616.941	94.69
617.148	98.69
617.356	86.69
617.563	82.69
617.771	101.69
617.978	80.69
618.185	92.69
618.393	68.69
618.6	96.69
618.807	93.69
619.015	89.69
619.222	76.69
619.429	83.69
619.637	103.69
619.844	85.69
620.051	85.69
620.258	91.69
620.466	86.69
620.673	84.69
620.88	81.69
621.087	89.69
621.294	85.69
621.501	88.69
621.708	86.69
621.915	82.69
622.122	99.69
622.329	89.69
622.536	94.69
622.743	94.69
622.95	83.69
623.157	97.69
623.364	80.69
623.571	102.69
623.778	81.69
623.985	79.69
624.192	84.69
624.399	84.69
624.606	94.69
624.812	87.69
625.019	84.69
625.226	82.69
625.433	90.69
625.639	78.69
625.846	79.69
626.053	75.69
626.259	101.69
626.466	96.69
626.673	97.69
626.879	87.69
627.086	87.69
627.293	105.69
627.499	88.69
627.706	66.69
627.912	80.69
628.119	83.69
628.325	99.69
628.532	88.69
628.738	95.69
628.945	72.69
629.151	96.69
629.357	85.69
629.564	90.69
629.77	94.69
629.976	94.69
630.183	84.69
630.389	96.69
630.595	79.69
630.802	85.69
631.008	79.69
631.214	94.69
631.42	91.69
631.627	94.69
631.833	98.69
632.039	91.69
632.245	82.69
632.451	92.69
632.657	82.69
632.863	82.69
633.069	92.69
633.275	85.69
633.481	66.69
633.688	87.69
633.893	89.69
634.099	82.69
634.305	99.69
634.511	94.69
634.717	83.69
634.923	90.69
635.129	98.69
635.335	84.69
635.541	79.69
635.747	92.69
635.952	73.69
636.158	91.69
636.364	81.69
636.57	94.69
636.775	93.69
636.981	91.69
637.187	95.69
637.392	82.69
637.598	82.69
637.804	92.69
638.009	88.69
638.215	68.69
638.421	97.69
638.626	79.69
638.832	83.69
639.037	79.69
639.243	66.69
639.448	91.69
639.654	96.69
639.859	67.69
640.065	84.69
640.27	91.69
640.475	87.69
640.681	83.69
640.886	75.69
641.091	92.69
641.297	80.69
641.502	90.69
641.707	86.69
641.913	96.69
642.118	85.69
642.323	80.69
642.528	91.69
642.733	81.69
642.939	94.69
643.144	81.69
643.349	97.69
643.554	91.69
643.759	93.69
643.964	88.69
644.169	93.69
644.374	88.69
644.579	76.69
644.784	95.69
644.989	76.69
645.194	69.69
645.399	92.69
645.604	89.69
645.809	92.69
646.014	92.69
646.219	97.69
646.423	96.69
646.628	84.69
646.833	93.69
647.038	89.69
647.243	94.69
647.447	82.69
647.652	77.69
647.857	82.69
648.062	81.69
648.266	81.69
648.471	101.69
648.676	79.69
648.88	81.69
649.085	80.69
649.289	81.69
649.494	89.69
649.698	85.69
649.903	87.69
650.107	94.69
650.312	88.69
650.516	75.69
650.721	83.69
650.925	81.69
651.13	82.69
651.334	84.69
651.539	83.69
651.743	89.69
651.947	64.69
652.152	84.69
652.356	74.69
652.56	77.69
652.764	93.69
652.969	77.69
653.173	80.69
653.377	82.69
653.581	71.69
653.785	96.69
653.99	74.69
654.194	73.69
654.398	94.69
654.602	79.69
654.806	81.69
655.01	75.69
655.214	87.69
655.418	85.69
655.622	91.69
655.826	75.69
656.03	82.69
656.234	84.69
656.438	83.69
656.642	83.69
656.846	96.69
657.049	78.69
657.253	66.69
657.457	101.69
657.661	93.69
657.865	84.69
658.068	87.69
658.272	81.69
658.476	93.69
658.68	81.69
658.883	68.69
659.087	89.69
659.291	86.69
659.494	80.69
659.698	75.69
659.901	78.69
660.105	66.69
660.309	80.69
660.512	76.69
660.716	80.69
660.919	79.69
661.123	82.69
661.326	75.69
661.53	87.69
661.733	95.69
661.936	82.69
662.14	83.69
662.343	81.69
662.546	90.69
662.75	92.69
662.953	96.69
663.156	93.69
663.36	74.69
663.563	85.69
663.766	78.69
663.969	77.69
664.173	84.69
664.376	82.69
664.579	84.69
664.782	78.69
664.985	94.69
665.188	82.69
665.391	86.69
665.594	81.69
665.797	70.69
666	79.69
666.203	86.69
666.406	69.69
666.609	89.69
666.812	78.69
667.015	59.69
667.218	76.69
667.421	70.69
667.624	69.69
667.827	82.69
668.03	74.69
668.232	98.69
668.435	89.69
668.638	81.69
668.841	82.69
669.043	89.69
669.246	75.69
669.449	87.69
669.651	86.69
669.854	85.69
670.057	89.69
670.259	73.69
670.462	81.69
670.665	88.69
670.867	95.69
671.07	81.69
671.272	91.69
671.475	91.69
671.677	76.69
671.88	84.69
672.082	82.69
672.284	71.69
672.487	74.69
672.689	73.69
672.892	86.69
