Data from Location5.07152019.Energy5.Lamp.07192019.3%Agarose_HRD10591_15-39-34-389.txt Node
Date: Fri Jul 19 15:39:34 EDT 2019
User: cochatt
Spectrometer: HR+D1059
Trigger mode: 1
Integration Time (sec): 1.000000E-1
Scans to average: 1
Electric dark correction enabled: true
Nonlinearity correction enabled: false
Boxcar width: 0
XAxis mode: Wavelengths
Number of Pixels in Spectrum: 2048
>>>>>Begin Spectral Data<<<<<
223.165	-20.12
223.4	-20.12
223.635	-20.12
223.869	-14.12
224.104	-22.12
224.338	-9.12
224.573	-3.12
224.808	-3.12
225.042	-5.12
225.277	-0.12
225.511	-5.12
225.746	3.88
225.98	3.88
226.215	5.88
226.449	18.88
226.683	3.88
226.918	25.88
227.152	19.88
227.387	36.88
227.621	28.88
227.856	36.88
228.09	44.88
228.324	51.88
228.559	60.88
228.793	54.88
229.027	57.88
229.262	60.88
229.496	63.88
229.73	67.88
229.964	65.88
230.199	67.88
230.433	72.88
230.667	76.88
230.901	76.88
231.136	64.88
231.37	75.88
231.604	84.88
231.838	67.88
232.072	88.88
232.306	72.88
232.541	71.88
232.775	85.88
233.009	81.88
233.243	82.88
233.477	82.88
233.711	69.88
233.945	91.88
234.179	73.88
234.413	87.88
234.647	86.88
234.881	72.88
235.115	81.88
235.349	79.88
235.583	70.88
235.817	72.88
236.051	87.88
236.285	89.88
236.519	73.88
236.753	59.88
236.987	77.88
237.221	67.88
237.455	83.88
237.689	59.88
237.922	65.88
238.156	60.88
238.39	70.88
238.624	76.88
238.858	77.88
239.091	73.88
239.325	81.88
239.559	71.88
239.793	75.88
240.027	70.88
240.26	64.88
240.494	78.88
240.728	84.88
240.961	69.88
241.195	77.88
241.429	71.88
241.662	61.88
241.896	72.88
242.13	94.88
242.363	80.88
242.597	82.88
242.83	89.88
243.064	71.88
243.298	65.88
243.531	82.88
243.765	74.88
243.998	75.88
244.232	74.88
244.465	71.88
244.699	72.88
244.932	77.88
245.166	68.88
245.399	85.88
245.633	71.88
245.866	71.88
246.099	78.88
246.333	80.88
246.566	71.88
246.8	83.88
247.033	71.88
247.266	71.88
247.5	81.88
247.733	73.88
247.966	75.88
248.2	71.88
248.433	82.88
248.666	74.88
248.899	74.88
249.133	71.88
249.366	80.88
249.599	69.88
249.832	77.88
250.066	70.88
250.299	82.88
250.532	83.88
250.765	77.88
250.998	69.88
251.231	74.88
251.465	88.88
251.698	76.88
251.931	84.88
252.164	84.88
252.397	65.88
252.63	78.88
252.863	75.88
253.096	80.88
253.329	73.88
253.562	79.88
253.795	68.88
254.028	65.88
254.261	83.88
254.494	88.88
254.727	80.88
254.96	64.88
255.193	76.88
255.426	84.88
255.659	73.88
255.892	68.88
256.124	83.88
256.357	69.88
256.59	70.88
256.823	69.88
257.056	73.88
257.289	73.88
257.521	70.88
257.754	81.88
257.987	84.88
258.22	83.88
258.452	75.88
258.685	81.88
258.918	73.88
259.151	92.88
259.383	76.88
259.616	70.88
259.849	86.88
260.081	74.88
260.314	73.88
260.547	77.88
260.779	79.88
261.012	81.88
261.244	67.88
261.477	83.88
261.71	94.88
261.942	64.88
262.175	83.88
262.407	75.88
262.64	71.88
262.872	101.88
263.105	92.88
263.337	83.88
263.57	86.88
263.802	81.88
264.035	78.88
264.267	79.88
264.499	78.88
264.732	86.88
264.964	84.88
265.197	82.88
265.429	78.88
265.661	71.88
265.894	61.88
266.126	79.88
266.358	81.88
266.591	83.88
266.823	84.88
267.055	74.88
267.287	70.88
267.52	73.88
267.752	80.88
267.984	81.88
268.216	90.88
268.448	83.88
268.681	85.88
268.913	73.88
269.145	88.88
269.377	88.88
269.609	69.88
269.841	74.88
270.073	76.88
270.306	77.88
270.538	81.88
270.77	85.88
271.002	67.88
271.234	73.88
271.466	74.88
271.698	73.88
271.93	96.88
272.162	88.88
272.394	73.88
272.626	69.88
272.858	67.88
273.09	83.88
273.322	67.88
273.553	70.88
273.785	84.88
274.017	65.88
274.249	88.88
274.481	76.88
274.713	75.88
274.945	91.88
275.176	78.88
275.408	79.88
275.64	76.88
275.872	62.88
276.104	76.88
276.335	86.88
276.567	75.88
276.799	72.88
277.031	78.88
277.262	92.88
277.494	67.88
277.726	93.88
277.957	78.88
278.189	73.88
278.421	99.88
278.652	82.88
278.884	85.88
279.115	71.88
279.347	77.88
279.579	81.88
279.81	68.88
280.042	91.88
280.273	83.88
280.505	74.88
280.736	76.88
280.968	97.88
281.199	87.88
281.431	77.88
281.662	81.88
281.894	52.88
282.125	83.88
282.356	89.88
282.588	85.88
282.819	78.88
283.051	74.88
283.282	81.88
283.513	92.88
283.745	85.88
283.976	75.88
284.207	79.88
284.439	85.88
284.67	90.88
284.901	78.88
285.132	88.88
285.364	90.88
285.595	87.88
285.826	81.88
286.057	76.88
286.288	73.88
286.52	68.88
286.751	78.88
286.982	75.88
287.213	73.88
287.444	74.88
287.675	67.88
287.906	84.88
288.138	87.88
288.369	69.88
288.6	79.88
288.831	81.88
289.062	81.88
289.293	97.88
289.524	102.88
289.755	81.88
289.986	82.88
290.217	92.88
290.448	80.88
290.679	78.88
290.91	87.88
291.141	63.88
291.371	69.88
291.602	74.88
291.833	73.88
292.064	83.88
292.295	76.88
292.526	78.88
292.757	77.88
292.987	75.88
293.218	90.88
293.449	81.88
293.68	81.88
293.91	70.88
294.141	81.88
294.372	70.88
294.603	83.88
294.833	68.88
295.064	83.88
295.295	79.88
295.525	91.88
295.756	79.88
295.987	73.88
296.217	83.88
296.448	76.88
296.679	70.88
296.909	88.88
297.14	87.88
297.37	90.88
297.601	74.88
297.831	82.88
298.062	73.88
298.292	84.88
298.523	87.88
298.753	70.88
298.984	85.88
299.214	74.88
299.445	83.88
299.675	79.88
299.905	72.88
300.136	68.88
300.366	81.88
300.597	74.88
300.827	84.88
301.057	71.88
301.288	80.88
301.518	88.88
301.748	86.88
301.979	76.88
302.209	72.88
302.439	75.88
302.669	86.88
302.9	78.88
303.13	88.88
303.36	88.88
303.59	90.88
303.82	81.88
304.051	80.88
304.281	71.88
304.511	93.88
304.741	72.88
304.971	80.88
305.201	78.88
305.431	83.88
305.661	90.88
305.891	72.88
306.121	92.88
306.352	92.88
306.582	74.88
306.812	79.88
307.042	74.88
307.272	84.88
307.502	71.88
307.731	83.88
307.961	86.88
308.191	96.88
308.421	76.88
308.651	75.88
308.881	84.88
309.111	87.88
309.341	75.88
309.571	81.88
309.8	88.88
310.03	82.88
310.26	83.88
310.49	87.88
310.72	72.88
310.949	79.88
311.179	85.88
311.409	69.88
311.639	68.88
311.868	87.88
312.098	73.88
312.328	79.88
312.557	79.88
312.787	93.88
313.017	85.88
313.246	77.88
313.476	88.88
313.706	92.88
313.935	74.88
314.165	77.88
314.394	81.88
314.624	81.88
314.853	86.88
315.083	77.88
315.312	80.88
315.542	73.88
315.771	88.88
316.001	79.88
316.23	79.88
316.46	69.88
316.689	84.88
316.919	80.88
317.148	88.88
317.377	78.88
317.607	76.88
317.836	79.88
318.065	76.88
318.295	84.88
318.524	84.88
318.753	80.88
318.983	73.88
319.212	79.88
319.441	73.88
319.67	86.88
319.9	77.88
320.129	72.88
320.358	77.88
320.587	74.88
320.816	67.88
321.046	72.88
321.275	83.88
321.504	70.88
321.733	85.88
321.962	91.88
322.191	75.88
322.42	84.88
322.649	89.88
322.878	60.88
323.108	79.88
323.337	76.88
323.566	91.88
323.795	95.88
324.024	81.88
324.253	78.88
324.482	90.88
324.71	76.88
324.939	71.88
325.168	92.88
325.397	85.88
325.626	75.88
325.855	84.88
326.084	73.88
326.313	92.88
326.542	88.88
326.77	68.88
326.999	82.88
327.228	95.88
327.457	85.88
327.686	83.88
327.914	91.88
328.143	99.88
328.372	80.88
328.6	83.88
328.829	91.88
329.058	88.88
329.287	78.88
329.515	83.88
329.744	87.88
329.972	88.88
330.201	76.88
330.43	88.88
330.658	73.88
330.887	78.88
331.115	85.88
331.344	71.88
331.572	89.88
331.801	76.88
332.03	78.88
332.258	78.88
332.486	88.88
332.715	81.88
332.943	87.88
333.172	76.88
333.4	81.88
333.629	71.88
333.857	88.88
334.085	73.88
334.314	80.88
334.542	88.88
334.771	81.88
334.999	95.88
335.227	81.88
335.455	73.88
335.684	95.88
335.912	72.88
336.14	68.88
336.369	77.88
336.597	86.88
336.825	74.88
337.053	83.88
337.281	81.88
337.51	75.88
337.738	86.88
337.966	80.88
338.194	85.88
338.422	85.88
338.65	80.88
338.878	86.88
339.106	72.88
339.334	86.88
339.562	84.88
339.79	88.88
340.018	80.88
340.246	85.88
340.474	75.88
340.702	67.88
340.93	77.88
341.158	97.88
341.386	80.88
341.614	72.88
341.842	87.88
342.07	75.88
342.298	94.88
342.526	91.88
342.754	71.88
342.981	88.88
343.209	71.88
343.437	72.88
343.665	87.88
343.893	77.88
344.12	86.88
344.348	68.88
344.576	80.88
344.804	81.88
345.031	82.88
345.259	75.88
345.487	87.88
345.714	82.88
345.942	78.88
346.17	96.88
346.397	73.88
346.625	84.88
346.853	89.88
347.08	92.88
347.308	80.88
347.535	83.88
347.763	87.88
347.99	77.88
348.218	85.88
348.445	81.88
348.673	81.88
348.9	80.88
349.128	88.88
349.355	89.88
349.583	72.88
349.81	69.88
350.037	86.88
350.265	77.88
350.492	68.88
350.72	79.88
350.947	78.88
351.174	78.88
351.402	79.88
351.629	79.88
351.856	77.88
352.083	77.88
352.311	67.88
352.538	74.88
352.765	88.88
352.992	82.88
353.22	80.88
353.447	80.88
353.674	83.88
353.901	78.88
354.128	81.88
354.355	86.88
354.583	81.88
354.81	87.88
355.037	90.88
355.264	72.88
355.491	81.88
355.718	75.88
355.945	85.88
356.172	87.88
356.399	72.88
356.626	83.88
356.853	84.88
357.08	85.88
357.307	83.88
357.534	65.88
357.761	80.88
357.988	87.88
358.215	69.88
358.441	73.88
358.668	80.88
358.895	84.88
359.122	87.88
359.349	94.88
359.576	76.88
359.802	75.88
360.029	86.88
360.256	88.88
360.483	77.88
360.709	91.88
360.936	84.88
361.163	73.88
361.39	84.88
361.616	90.88
361.843	83.88
362.07	77.88
362.296	71.88
362.523	77.88
362.749	86.88
362.976	77.88
363.203	72.88
363.429	64.88
363.656	67.88
363.882	63.88
364.109	75.88
364.335	96.88
364.562	79.88
364.788	75.88
365.015	87.88
365.241	80.88
365.468	77.88
365.694	82.88
365.92	84.88
366.147	80.88
366.373	89.88
366.599	71.88
366.826	90.88
367.052	84.88
367.278	81.88
367.505	81.88
367.731	78.88
367.957	76.88
368.184	70.88
368.41	77.88
368.636	78.88
368.862	87.88
369.089	88.88
369.315	83.88
369.541	79.88
369.767	85.88
369.993	73.88
370.219	88.88
370.445	88.88
370.672	84.88
370.898	82.88
371.124	74.88
371.35	76.88
371.576	86.88
371.802	92.88
372.028	72.88
372.254	90.88
372.48	82.88
372.706	87.88
372.932	79.88
373.158	79.88
373.384	89.88
373.61	87.88
373.835	91.88
374.061	79.88
374.287	75.88
374.513	65.88
374.739	79.88
374.965	74.88
375.191	69.88
375.416	92.88
375.642	81.88
375.868	86.88
376.094	83.88
376.319	79.88
376.545	79.88
376.771	80.88
376.997	77.88
377.222	73.88
377.448	80.88
377.674	81.88
377.899	80.88
378.125	79.88
378.35	73.88
378.576	77.88
378.802	85.88
379.027	85.88
379.253	71.88
379.478	83.88
379.704	86.88
379.929	83.88
380.155	78.88
380.38	83.88
380.606	72.88
380.831	76.88
381.057	71.88
381.282	80.88
381.507	92.88
381.733	83.88
381.958	94.88
382.184	75.88
382.409	76.88
382.634	71.88
382.86	78.88
383.085	80.88
383.31	70.88
383.535	86.88
383.761	86.88
383.986	77.88
384.211	90.88
384.436	79.88
384.662	70.88
384.887	89.88
385.112	79.88
385.337	79.88
385.562	69.88
385.787	79.88
386.013	96.88
386.238	100.88
386.463	85.88
386.688	89.88
386.913	83.88
387.138	86.88
387.363	72.88
387.588	94.88
387.813	76.88
388.038	81.88
388.263	89.88
388.488	85.88
388.713	90.88
388.938	75.88
389.163	83.88
389.387	87.88
389.612	79.88
389.837	91.88
390.062	73.88
390.287	80.88
390.512	89.88
390.736	73.88
390.961	82.88
391.186	83.88
391.411	90.88
391.636	77.88
391.86	89.88
392.085	80.88
392.31	88.88
392.534	78.88
392.759	78.88
392.984	85.88
393.208	89.88
393.433	98.88
393.658	79.88
393.882	82.88
394.107	70.88
394.331	84.88
394.556	68.88
394.78	81.88
395.005	81.88
395.229	89.88
395.454	92.88
395.678	85.88
395.903	78.88
396.127	79.88
396.352	90.88
396.576	81.88
396.801	89.88
397.025	64.88
397.249	94.88
397.474	84.88
397.698	85.88
397.922	94.88
398.147	69.88
398.371	84.88
398.595	82.88
398.82	90.88
399.044	89.88
399.268	86.88
399.492	93.88
399.717	94.88
399.941	90.88
400.165	85.88
400.389	80.88
400.613	101.88
400.837	86.88
401.062	79.88
401.286	67.88
401.51	80.88
401.734	91.88
401.958	87.88
402.182	98.88
402.406	95.88
402.63	73.88
402.854	97.88
403.078	85.88
403.302	85.88
403.526	78.88
403.75	80.88
403.974	96.88
404.198	99.88
404.422	82.88
404.645	100.88
404.869	82.88
405.093	101.88
405.317	74.88
405.541	87.88
405.765	81.88
405.988	82.88
406.212	76.88
406.436	93.88
406.66	87.88
406.883	67.88
407.107	86.88
407.331	91.88
407.555	78.88
407.778	91.88
408.002	91.88
408.226	83.88
408.449	93.88
408.673	92.88
408.896	79.88
409.12	89.88
409.344	97.88
409.567	81.88
409.791	88.88
410.014	98.88
410.238	93.88
410.461	85.88
410.685	93.88
410.908	81.88
411.132	90.88
411.355	91.88
411.578	90.88
411.802	98.88
412.025	70.88
412.249	88.88
412.472	86.88
412.695	76.88
412.919	88.88
413.142	96.88
413.365	94.88
413.589	84.88
413.812	91.88
414.035	84.88
414.258	89.88
414.482	77.88
414.705	79.88
414.928	84.88
415.151	81.88
415.374	94.88
415.597	83.88
415.821	96.88
416.044	86.88
416.267	84.88
416.49	75.88
416.713	88.88
416.936	89.88
417.159	87.88
417.382	87.88
417.605	92.88
417.828	89.88
418.051	92.88
418.274	84.88
418.497	99.88
418.72	82.88
418.943	90.88
419.166	87.88
419.389	82.88
419.611	93.88
419.834	111.88
420.057	97.88
420.28	79.88
420.503	94.88
420.726	84.88
420.948	102.88
421.171	90.88
421.394	94.88
421.617	110.88
421.839	103.88
422.062	91.88
422.285	95.88
422.507	97.88
422.73	89.88
422.953	79.88
423.175	79.88
423.398	91.88
423.621	89.88
423.843	94.88
424.066	100.88
424.288	103.88
424.511	74.88
424.733	99.88
424.956	91.88
425.178	80.88
425.401	86.88
425.623	110.88
425.846	89.88
426.068	96.88
426.291	84.88
426.513	89.88
426.735	84.88
426.958	91.88
427.18	89.88
427.402	86.88
427.625	73.88
427.847	90.88
428.069	90.88
428.292	107.88
428.514	87.88
428.736	92.88
428.958	97.88
429.181	87.88
429.403	92.88
429.625	92.88
429.847	88.88
430.069	81.88
430.292	96.88
430.514	87.88
430.736	88.88
430.958	105.88
431.18	79.88
431.402	84.88
431.624	85.88
431.846	91.88
432.068	82.88
432.29	80.88
432.512	78.88
432.734	77.88
432.956	91.88
433.178	88.88
433.4	93.88
433.622	100.88
433.844	85.88
434.066	87.88
434.287	81.88
434.509	86.88
434.731	78.88
434.953	96.88
435.175	90.88
435.397	85.88
435.618	102.88
435.84	86.88
436.062	81.88
436.284	68.88
436.505	87.88
436.727	91.88
436.949	77.88
437.17	95.88
437.392	79.88
437.614	77.88
437.835	78.88
438.057	75.88
438.278	79.88
438.5	87.88
438.721	94.88
438.943	93.88
439.165	91.88
439.386	99.88
439.608	84.88
439.829	88.88
440.05	95.88
440.272	96.88
440.493	96.88
440.715	75.88
440.936	103.88
441.158	101.88
441.379	93.88
441.6	101.88
441.822	93.88
442.043	83.88
442.264	90.88
442.486	94.88
442.707	93.88
442.928	97.88
443.149	76.88
443.371	93.88
443.592	90.88
443.813	92.88
444.034	96.88
444.255	93.88
444.476	85.88
444.698	95.88
444.919	97.88
445.14	232.88
445.361	161.88
445.582	96.88
445.803	92.88
446.024	91.88
446.245	93.88
446.466	97.88
446.687	97.88
446.908	102.88
447.129	73.88
447.35	87.88
447.571	95.88
447.792	97.88
448.013	100.88
448.234	91.88
448.455	86.88
448.675	93.88
448.896	99.88
449.117	96.88
449.338	82.88
449.559	72.88
449.779	76.88
450	83.88
450.221	79.88
450.442	91.88
450.662	104.88
450.883	97.88
451.104	100.88
451.324	89.88
451.545	98.88
451.766	84.88
451.986	84.88
452.207	94.88
452.428	101.88
452.648	84.88
452.869	93.88
453.089	96.88
453.31	77.88
453.53	72.88
453.751	76.88
453.971	92.88
454.192	77.88
454.412	97.88
454.633	85.88
454.853	95.88
455.073	92.88
455.294	87.88
455.514	99.88
455.734	87.88
455.955	86.88
456.175	82.88
456.395	86.88
456.616	78.88
456.836	84.88
457.056	88.88
457.276	84.88
457.497	80.88
457.717	86.88
457.937	79.88
458.157	84.88
458.377	83.88
458.598	93.88
458.818	74.88
459.038	72.88
459.258	84.88
459.478	93.88
459.698	70.88
459.918	77.88
460.138	84.88
460.358	91.88
460.578	95.88
460.798	98.88
461.018	95.88
461.238	92.88
461.458	76.88
461.678	90.88
461.898	101.88
462.118	82.88
462.338	83.88
462.558	84.88
462.777	77.88
462.997	97.88
463.217	82.88
463.437	73.88
463.657	92.88
463.876	97.88
464.096	80.88
464.316	88.88
464.536	94.88
464.755	78.88
464.975	96.88
465.195	78.88
465.414	91.88
465.634	88.88
465.854	91.88
466.073	84.88
466.293	91.88
466.512	109.88
466.732	102.88
466.951	75.88
467.171	91.88
467.391	88.88
467.61	89.88
467.829	83.88
468.049	76.88
468.268	77.88
468.488	82.88
468.707	90.88
468.927	111.88
469.146	98.88
469.365	92.88
469.585	86.88
469.804	93.88
470.023	108.88
470.243	97.88
470.462	89.88
470.681	93.88
470.901	98.88
471.12	88.88
471.339	108.88
471.558	98.88
471.777	88.88
471.997	94.88
472.216	84.88
472.435	67.88
472.654	90.88
472.873	98.88
473.092	81.88
473.311	68.88
473.53	96.88
473.749	97.88
473.968	106.88
474.187	98.88
474.406	84.88
474.625	96.88
474.844	89.88
475.063	87.88
475.282	79.88
475.501	81.88
475.72	93.88
475.939	88.88
476.158	78.88
476.377	102.88
476.596	99.88
476.814	66.88
477.033	83.88
477.252	99.88
477.471	84.88
477.69	93.88
477.908	88.88
478.127	100.88
478.346	103.88
478.564	95.88
478.783	103.88
479.002	92.88
479.22	92.88
479.439	103.88
479.658	87.88
479.876	70.88
480.095	79.88
480.313	83.88
480.532	77.88
480.751	94.88
480.969	76.88
481.188	86.88
481.406	81.88
481.624	83.88
481.843	79.88
482.061	78.88
482.28	92.88
482.498	78.88
482.717	89.88
482.935	92.88
483.153	95.88
483.372	109.88
483.59	98.88
483.808	93.88
484.027	87.88
484.245	93.88
484.463	97.88
484.681	110.88
484.9	96.88
485.118	99.88
485.336	93.88
485.554	92.88
485.772	100.88
485.99	91.88
486.209	74.88
486.427	84.88
486.645	91.88
486.863	92.88
487.081	89.88
487.299	79.88
487.517	92.88
487.735	115.88
487.953	113.88
488.171	101.88
488.389	105.88
488.607	96.88
488.825	86.88
489.043	102.88
489.261	101.88
489.479	95.88
489.696	91.88
489.914	94.88
490.132	94.88
490.35	87.88
490.568	104.88
490.786	95.88
491.003	88.88
491.221	107.88
491.439	111.88
491.657	109.88
491.874	120.88
492.092	128.88
492.31	114.88
492.527	114.88
492.745	110.88
492.963	119.88
493.18	90.88
493.398	113.88
493.615	110.88
493.833	107.88
494.05	106.88
494.268	109.88
494.485	96.88
494.703	106.88
494.92	104.88
495.138	104.88
495.355	116.88
495.573	104.88
495.79	103.88
496.008	103.88
496.225	105.88
496.442	88.88
496.66	104.88
496.877	108.88
497.094	110.88
497.312	99.88
497.529	89.88
497.746	91.88
497.963	77.88
498.181	104.88
498.398	111.88
498.615	91.88
498.832	94.88
499.049	86.88
499.267	104.88
499.484	94.88
499.701	98.88
499.918	86.88
500.135	99.88
500.352	97.88
500.569	88.88
500.786	104.88
501.003	100.88
501.22	100.88
501.437	73.88
501.654	98.88
501.871	85.88
502.088	96.88
502.305	105.88
502.522	108.88
502.739	96.88
502.956	90.88
503.172	90.88
503.389	86.88
503.606	74.88
503.823	74.88
504.04	88.88
504.256	103.88
504.473	95.88
504.69	88.88
504.907	91.88
505.123	94.88
505.34	97.88
505.557	88.88
505.773	97.88
505.99	79.88
506.207	85.88
506.423	91.88
506.64	82.88
506.856	96.88
507.073	96.88
507.289	88.88
507.506	81.88
507.722	101.88
507.939	79.88
508.155	95.88
508.372	96.88
508.588	84.88
508.805	90.88
509.021	96.88
509.238	91.88
509.454	77.88
509.67	77.88
509.887	81.88
510.103	88.88
510.319	79.88
510.536	73.88
510.752	88.88
510.968	70.88
511.184	85.88
511.401	78.88
511.617	88.88
511.833	84.88
512.049	68.88
512.265	79.88
512.481	79.88
512.698	82.88
512.914	77.88
513.13	81.88
513.346	87.88
513.562	56.88
513.778	74.88
513.994	85.88
514.21	96.88
514.426	90.88
514.642	83.88
514.858	89.88
515.074	88.88
515.29	96.88
515.506	85.88
515.721	101.88
515.937	96.88
516.153	85.88
516.369	77.88
516.585	81.88
516.801	96.88
517.016	79.88
517.232	74.88
517.448	88.88
517.664	86.88
517.879	73.88
518.095	76.88
518.311	83.88
518.527	79.88
518.742	81.88
518.958	77.88
519.173	91.88
519.389	90.88
519.605	86.88
519.82	82.88
520.036	87.88
520.251	80.88
520.467	84.88
520.682	84.88
520.898	89.88
521.113	72.88
521.329	81.88
521.544	73.88
521.76	77.88
521.975	87.88
522.19	85.88
522.406	77.88
522.621	84.88
522.836	84.88
523.052	79.88
523.267	98.88
523.482	87.88
523.698	91.88
523.913	97.88
524.128	88.88
524.343	92.88
524.559	88.88
524.774	92.88
524.989	90.88
525.204	84.88
525.419	80.88
525.634	83.88
525.849	81.88
526.064	93.88
526.28	96.88
526.495	83.88
526.71	88.88
526.925	95.88
527.14	68.88
527.355	85.88
527.57	81.88
527.785	87.88
527.999	76.88
528.214	87.88
528.429	78.88
528.644	103.88
528.859	98.88
529.074	96.88
529.289	113.88
529.503	100.88
529.718	94.88
529.933	98.88
530.148	80.88
530.363	80.88
530.577	81.88
530.792	89.88
531.007	85.88
531.221	72.88
531.436	68.88
531.651	84.88
531.865	88.88
532.08	82.88
532.295	100.88
532.509	79.88
532.724	73.88
532.938	80.88
533.153	83.88
533.367	92.88
533.582	87.88
533.796	96.88
534.011	98.88
534.225	96.88
534.44	78.88
534.654	79.88
534.868	88.88
535.083	82.88
535.297	71.88
535.511	86.88
535.726	94.88
535.94	98.88
536.154	98.88
536.369	88.88
536.583	90.88
536.797	83.88
537.011	91.88
537.225	80.88
537.44	92.88
537.654	85.88
537.868	85.88
538.082	88.88
538.296	92.88
538.51	81.88
538.724	87.88
538.938	102.88
539.153	103.88
539.367	91.88
539.581	83.88
539.795	92.88
540.009	83.88
540.222	84.88
540.436	77.88
540.65	94.88
540.864	88.88
541.078	91.88
541.292	96.88
541.506	106.88
541.72	108.88
541.934	99.88
542.147	105.88
542.361	96.88
542.575	110.88
542.789	114.88
543.002	86.88
543.216	99.88
543.43	109.88
543.644	97.88
543.857	102.88
544.071	95.88
544.285	111.88
544.498	100.88
544.712	109.88
544.925	89.88
545.139	93.88
545.352	103.88
545.566	95.88
545.779	109.88
545.993	116.88
546.206	110.88
546.42	111.88
546.633	101.88
546.847	87.88
547.06	104.88
547.274	118.88
547.487	119.88
547.7	98.88
547.914	104.88
548.127	104.88
548.34	96.88
548.554	99.88
548.767	100.88
548.98	110.88
549.193	99.88
549.407	92.88
549.62	102.88
549.833	115.88
550.046	94.88
550.259	98.88
550.473	109.88
550.686	93.88
550.899	99.88
551.112	104.88
551.325	100.88
551.538	91.88
551.751	87.88
551.964	93.88
552.177	96.88
552.39	84.88
552.603	102.88
552.816	100.88
553.029	98.88
553.242	97.88
553.455	90.88
553.667	109.88
553.88	107.88
554.093	98.88
554.306	86.88
554.519	99.88
554.732	99.88
554.944	108.88
555.157	101.88
555.37	97.88
555.583	84.88
555.795	96.88
556.008	85.88
556.221	84.88
556.433	92.88
556.646	87.88
556.859	100.88
557.071	96.88
557.284	98.88
557.496	107.88
557.709	91.88
557.921	95.88
558.134	80.88
558.346	111.88
558.559	93.88
558.771	91.88
558.984	102.88
559.196	98.88
559.409	88.88
559.621	95.88
559.833	98.88
560.046	97.88
560.258	92.88
560.47	91.88
560.683	89.88
560.895	84.88
561.107	98.88
561.32	117.88
561.532	92.88
561.744	111.88
561.956	108.88
562.168	99.88
562.381	82.88
562.593	99.88
562.805	91.88
563.017	94.88
563.229	107.88
563.441	99.88
563.653	95.88
563.865	88.88
564.077	95.88
564.289	87.88
564.501	80.88
564.713	92.88
564.925	89.88
565.137	97.88
565.349	89.88
565.561	81.88
565.773	85.88
565.985	80.88
566.197	99.88
566.408	93.88
566.62	86.88
566.832	86.88
567.044	94.88
567.255	98.88
567.467	92.88
567.679	81.88
567.891	80.88
568.102	82.88
568.314	82.88
568.526	84.88
568.737	90.88
568.949	97.88
569.161	84.88
569.372	74.88
569.584	83.88
569.795	72.88
570.007	89.88
570.218	66.88
570.43	80.88
570.641	87.88
570.853	92.88
571.064	91.88
571.276	63.88
571.487	82.88
571.698	107.88
571.91	98.88
572.121	94.88
572.333	83.88
572.544	84.88
572.755	89.88
572.966	80.88
573.178	94.88
573.389	71.88
573.6	80.88
573.811	72.88
574.023	83.88
574.234	88.88
574.445	86.88
574.656	96.88
574.867	69.88
575.078	83.88
575.289	70.88
575.501	75.88
575.712	91.88
575.923	86.88
576.134	90.88
576.345	93.88
576.556	96.88
576.767	92.88
576.978	83.88
577.188	94.88
577.399	84.88
577.61	77.88
577.821	72.88
578.032	94.88
578.243	78.88
578.454	79.88
578.665	71.88
578.875	76.88
579.086	89.88
579.297	70.88
579.508	96.88
579.718	84.88
579.929	86.88
580.14	81.88
580.35	90.88
580.561	86.88
580.772	68.88
580.982	81.88
581.193	70.88
581.403	88.88
581.614	83.88
581.825	81.88
582.035	84.88
582.246	91.88
582.456	79.88
582.667	86.88
582.877	91.88
583.087	94.88
583.298	89.88
583.508	76.88
583.719	89.88
583.929	86.88
584.139	77.88
584.35	83.88
584.56	94.88
584.77	91.88
584.981	92.88
585.191	80.88
585.401	79.88
585.611	83.88
585.821	65.88
586.032	89.88
586.242	87.88
586.452	72.88
586.662	82.88
586.872	104.88
587.082	86.88
587.292	95.88
587.502	78.88
587.713	76.88
587.923	92.88
588.133	105.88
588.343	79.88
588.553	84.88
588.762	94.88
588.972	77.88
589.182	77.88
589.392	78.88
589.602	82.88
589.812	88.88
590.022	85.88
590.232	70.88
590.441	94.88
590.651	74.88
590.861	84.88
591.071	81.88
591.281	63.88
591.49	90.88
591.7	82.88
591.91	75.88
592.119	90.88
592.329	84.88
592.539	86.88
592.748	84.88
592.958	86.88
593.167	76.88
593.377	84.88
593.587	85.88
593.796	86.88
594.006	79.88
594.215	71.88
594.424	73.88
594.634	87.88
594.843	73.88
595.053	89.88
595.262	83.88
595.472	87.88
595.681	87.88
595.89	84.88
596.1	88.88
596.309	97.88
596.518	81.88
596.727	84.88
596.937	96.88
597.146	88.88
597.355	87.88
597.564	93.88
597.774	98.88
597.983	96.88
598.192	75.88
598.401	85.88
598.61	87.88
598.819	70.88
599.028	81.88
599.237	75.88
599.446	83.88
599.655	75.88
599.864	83.88
600.073	81.88
600.282	76.88
600.491	92.88
600.7	71.88
600.909	85.88
601.118	105.88
601.327	80.88
601.536	67.88
601.745	93.88
601.953	96.88
602.162	81.88
602.371	107.88
602.58	86.88
602.789	88.88
602.997	86.88
603.206	100.88
603.415	94.88
603.623	101.88
603.832	84.88
604.041	85.88
604.249	86.88
604.458	84.88
604.666	78.88
604.875	71.88
605.084	83.88
605.292	88.88
605.501	84.88
605.709	96.88
605.918	76.88
606.126	105.88
606.334	83.88
606.543	94.88
606.751	91.88
606.96	78.88
607.168	87.88
607.376	79.88
607.585	85.88
607.793	83.88
608.001	83.88
608.21	92.88
608.418	80.88
608.626	85.88
608.834	90.88
609.043	96.88
609.251	108.88
609.459	93.88
609.667	79.88
609.875	99.88
610.083	86.88
610.291	91.88
610.499	91.88
610.707	78.88
610.916	94.88
611.124	80.88
611.332	87.88
611.54	95.88
611.748	96.88
611.955	86.88
612.163	91.88
612.371	84.88
612.579	78.88
612.787	80.88
612.995	85.88
613.203	85.88
613.411	79.88
613.618	85.88
613.826	91.88
614.034	96.88
614.242	98.88
614.449	95.88
614.657	75.88
614.865	92.88
615.072	98.88
615.28	98.88
615.488	85.88
615.695	93.88
615.903	93.88
616.111	88.88
616.318	92.88
616.526	81.88
616.733	92.88
616.941	75.88
617.148	80.88
617.356	83.88
617.563	76.88
617.771	85.88
617.978	84.88
618.185	87.88
618.393	95.88
618.6	84.88
618.807	79.88
619.015	85.88
619.222	87.88
619.429	99.88
619.637	100.88
619.844	72.88
620.051	96.88
620.258	93.88
620.466	88.88
620.673	89.88
620.88	92.88
621.087	76.88
621.294	84.88
621.501	84.88
621.708	85.88
621.915	99.88
622.122	85.88
622.329	86.88
622.536	87.88
622.743	93.88
622.95	101.88
623.157	77.88
623.364	96.88
623.571	97.88
623.778	100.88
623.985	104.88
624.192	92.88
624.399	83.88
624.606	88.88
624.812	80.88
625.019	85.88
625.226	87.88
625.433	81.88
625.639	91.88
625.846	91.88
626.053	99.88
626.259	81.88
626.466	77.88
626.673	87.88
626.879	89.88
627.086	85.88
627.293	86.88
627.499	91.88
627.706	91.88
627.912	87.88
628.119	96.88
628.325	92.88
628.532	80.88
628.738	96.88
628.945	90.88
629.151	88.88
629.357	85.88
629.564	97.88
629.77	97.88
629.976	85.88
630.183	89.88
630.389	91.88
630.595	88.88
630.802	91.88
631.008	93.88
631.214	105.88
631.42	87.88
631.627	80.88
631.833	85.88
632.039	102.88
632.245	86.88
632.451	79.88
632.657	91.88
632.863	73.88
633.069	89.88
633.275	89.88
633.481	98.88
633.688	92.88
633.893	87.88
634.099	82.88
634.305	76.88
634.511	96.88
634.717	94.88
634.923	77.88
635.129	92.88
635.335	86.88
635.541	75.88
635.747	92.88
635.952	98.88
636.158	79.88
636.364	72.88
636.57	81.88
636.775	83.88
636.981	90.88
637.187	83.88
637.392	84.88
637.598	94.88
637.804	94.88
638.009	89.88
638.215	88.88
638.421	70.88
638.626	94.88
638.832	78.88
639.037	78.88
639.243	77.88
639.448	81.88
639.654	77.88
639.859	80.88
640.065	82.88
640.27	109.88
640.475	73.88
640.681	75.88
640.886	75.88
641.091	76.88
641.297	82.88
641.502	71.88
641.707	88.88
641.913	76.88
642.118	71.88
642.323	91.88
642.528	83.88
642.733	95.88
642.939	70.88
643.144	77.88
643.349	89.88
643.554	74.88
643.759	81.88
643.964	87.88
644.169	88.88
644.374	90.88
644.579	89.88
644.784	101.88
644.989	79.88
645.194	83.88
645.399	72.88
645.604	76.88
645.809	92.88
646.014	80.88
646.219	81.88
646.423	91.88
646.628	93.88
646.833	84.88
647.038	86.88
647.243	87.88
647.447	93.88
647.652	93.88
647.857	96.88
648.062	83.88
648.266	99.88
648.471	75.88
648.676	88.88
648.88	87.88
649.085	72.88
649.289	81.88
649.494	75.88
649.698	74.88
649.903	86.88
650.107	87.88
650.312	86.88
650.516	78.88
650.721	89.88
650.925	87.88
651.13	87.88
651.334	76.88
651.539	83.88
651.743	85.88
651.947	64.88
652.152	85.88
652.356	77.88
652.56	84.88
652.764	79.88
652.969	79.88
653.173	88.88
653.377	87.88
653.581	74.88
653.785	88.88
653.99	87.88
654.194	75.88
654.398	75.88
654.602	85.88
654.806	92.88
655.01	92.88
655.214	61.88
655.418	83.88
655.622	101.88
655.826	101.88
656.03	78.88
656.234	79.88
656.438	82.88
656.642	90.88
656.846	77.88
657.049	84.88
657.253	79.88
657.457	67.88
657.661	81.88
657.865	78.88
658.068	86.88
658.272	61.88
658.476	78.88
658.68	80.88
658.883	73.88
659.087	99.88
659.291	74.88
659.494	76.88
659.698	87.88
659.901	70.88
660.105	80.88
660.309	92.88
660.512	78.88
660.716	85.88
660.919	98.88
661.123	83.88
661.326	80.88
661.53	72.88
661.733	85.88
661.936	83.88
662.14	87.88
662.343	87.88
662.546	91.88
662.75	91.88
662.953	87.88
663.156	86.88
663.36	75.88
663.563	88.88
663.766	91.88
663.969	79.88
664.173	86.88
664.376	80.88
664.579	76.88
664.782	86.88
664.985	68.88
665.188	86.88
665.391	72.88
665.594	75.88
665.797	100.88
666	94.88
666.203	72.88
666.406	71.88
666.609	71.88
666.812	66.88
667.015	87.88
667.218	88.88
667.421	80.88
667.624	78.88
667.827	73.88
668.03	77.88
668.232	74.88
668.435	95.88
668.638	88.88
668.841	82.88
669.043	89.88
669.246	88.88
669.449	84.88
669.651	63.88
669.854	85.88
670.057	89.88
670.259	81.88
670.462	76.88
670.665	75.88
670.867	80.88
671.07	72.88
671.272	78.88
671.475	87.88
671.677	83.88
671.88	71.88
672.082	78.88
672.284	80.88
672.487	88.88
672.689	76.88
672.892	73.88
