Data from Location5.07152019.Energy5.Lamp.07192019.3%Agarose_HRD10591_15-39-09-389.txt Node
Date: Fri Jul 19 15:39:09 EDT 2019
User: cochatt
Spectrometer: HR+D1059
Trigger mode: 1
Integration Time (sec): 1.000000E-1
Scans to average: 1
Electric dark correction enabled: true
Nonlinearity correction enabled: false
Boxcar width: 0
XAxis mode: Wavelengths
Number of Pixels in Spectrum: 2048
>>>>>Begin Spectral Data<<<<<
223.165	-22.31
223.4	-22.31
223.635	-22.31
223.869	-20.31
224.104	-17.31
224.338	-32.31
224.573	-9.31
224.808	-21.31
225.042	-9.31
225.277	4.69
225.511	14.69
225.746	12.69
225.98	1.69
226.215	5.69
226.449	24.69
226.683	20.69
226.918	28.69
227.152	18.69
227.387	37.69
227.621	41.69
227.856	50.69
228.09	48.69
228.324	56.69
228.559	62.69
228.793	62.69
229.027	59.69
229.262	63.69
229.496	67.69
229.73	66.69
229.964	74.69
230.199	62.69
230.433	73.69
230.667	59.69
230.901	74.69
231.136	68.69
231.37	68.69
231.604	90.69
231.838	84.69
232.072	82.69
232.306	82.69
232.541	82.69
232.775	97.69
233.009	83.69
233.243	78.69
233.477	87.69
233.711	85.69
233.945	84.69
234.179	84.69
234.413	91.69
234.647	75.69
234.881	84.69
235.115	80.69
235.349	91.69
235.583	88.69
235.817	72.69
236.051	75.69
236.285	81.69
236.519	62.69
236.753	88.69
236.987	88.69
237.221	67.69
237.455	76.69
237.689	78.69
237.922	78.69
238.156	82.69
238.39	75.69
238.624	70.69
238.858	88.69
239.091	80.69
239.325	79.69
239.559	85.69
239.793	78.69
240.027	78.69
240.26	82.69
240.494	81.69
240.728	73.69
240.961	80.69
241.195	85.69
241.429	71.69
241.662	77.69
241.896	81.69
242.13	85.69
242.363	73.69
242.597	71.69
242.83	90.69
243.064	73.69
243.298	73.69
243.531	78.69
243.765	63.69
243.998	92.69
244.232	82.69
244.465	78.69
244.699	93.69
244.932	73.69
245.166	72.69
245.399	83.69
245.633	83.69
245.866	82.69
246.099	84.69
246.333	75.69
246.566	82.69
246.8	89.69
247.033	89.69
247.266	86.69
247.5	75.69
247.733	80.69
247.966	67.69
248.2	67.69
248.433	82.69
248.666	86.69
248.899	90.69
249.133	79.69
249.366	69.69
249.599	76.69
249.832	76.69
250.066	76.69
250.299	81.69
250.532	84.69
250.765	88.69
250.998	72.69
251.231	67.69
251.465	79.69
251.698	79.69
251.931	82.69
252.164	85.69
252.397	76.69
252.63	76.69
252.863	72.69
253.096	79.69
253.329	79.69
253.562	69.69
253.795	91.69
254.028	81.69
254.261	81.69
254.494	89.69
254.727	71.69
254.96	74.69
255.193	88.69
255.426	84.69
255.659	76.69
255.892	76.69
256.124	79.69
256.357	83.69
256.59	79.69
256.823	85.69
257.056	87.69
257.289	96.69
257.521	72.69
257.754	80.69
257.987	105.69
258.22	82.69
258.452	96.69
258.685	76.69
258.918	80.69
259.151	84.69
259.383	84.69
259.616	91.69
259.849	88.69
260.081	83.69
260.314	89.69
260.547	89.69
260.779	81.69
261.012	74.69
261.244	92.69
261.477	73.69
261.71	77.69
261.942	90.69
262.175	81.69
262.407	88.69
262.64	84.69
262.872	69.69
263.105	72.69
263.337	78.69
263.57	102.69
263.802	70.69
264.035	67.69
264.267	77.69
264.499	77.69
264.732	72.69
264.964	77.69
265.197	72.69
265.429	86.69
265.661	86.69
265.894	81.69
266.126	77.69
266.358	79.69
266.591	83.69
266.823	90.69
267.055	77.69
267.287	85.69
267.52	77.69
267.752	75.69
267.984	74.69
268.216	72.69
268.448	86.69
268.681	92.69
268.913	87.69
269.145	74.69
269.377	79.69
269.609	89.69
269.841	89.69
270.073	84.69
270.306	91.69
270.538	87.69
270.77	83.69
271.002	82.69
271.234	75.69
271.466	90.69
271.698	81.69
271.93	88.69
272.162	73.69
272.394	77.69
272.626	87.69
272.858	77.69
273.09	77.69
273.322	89.69
273.553	81.69
273.785	76.69
274.017	73.69
274.249	93.69
274.481	73.69
274.713	82.69
274.945	87.69
275.176	61.69
275.408	85.69
275.64	76.69
275.872	77.69
276.104	87.69
276.335	88.69
276.567	64.69
276.799	83.69
277.031	86.69
277.262	81.69
277.494	91.69
277.726	82.69
277.957	77.69
278.189	89.69
278.421	84.69
278.652	89.69
278.884	94.69
279.115	103.69
279.347	72.69
279.579	91.69
279.81	81.69
280.042	88.69
280.273	96.69
280.505	92.69
280.736	80.69
280.968	75.69
281.199	83.69
281.431	73.69
281.662	79.69
281.894	82.69
282.125	80.69
282.356	96.69
282.588	78.69
282.819	84.69
283.051	95.69
283.282	99.69
283.513	108.69
283.745	95.69
283.976	83.69
284.207	88.69
284.439	87.69
284.67	88.69
284.901	84.69
285.132	97.69
285.364	83.69
285.595	99.69
285.826	85.69
286.057	98.69
286.288	106.69
286.52	89.69
286.751	105.69
286.982	63.69
287.213	90.69
287.444	79.69
287.675	89.69
287.906	86.69
288.138	84.69
288.369	81.69
288.6	90.69
288.831	70.69
289.062	84.69
289.293	78.69
289.524	81.69
289.755	66.69
289.986	98.69
290.217	82.69
290.448	76.69
290.679	75.69
290.91	90.69
291.141	88.69
291.371	81.69
291.602	98.69
291.833	93.69
292.064	78.69
292.295	88.69
292.526	84.69
292.757	75.69
292.987	84.69
293.218	73.69
293.449	87.69
293.68	78.69
293.91	87.69
294.141	88.69
294.372	87.69
294.603	84.69
294.833	88.69
295.064	75.69
295.295	94.69
295.525	92.69
295.756	77.69
295.987	70.69
296.217	82.69
296.448	90.69
296.679	85.69
296.909	78.69
297.14	85.69
297.37	72.69
297.601	84.69
297.831	87.69
298.062	92.69
298.292	95.69
298.523	91.69
298.753	82.69
298.984	98.69
299.214	87.69
299.445	91.69
299.675	89.69
299.905	94.69
300.136	77.69
300.366	87.69
300.597	82.69
300.827	73.69
301.057	87.69
301.288	82.69
301.518	87.69
301.748	76.69
301.979	88.69
302.209	91.69
302.439	95.69
302.669	90.69
302.9	84.69
303.13	88.69
303.36	85.69
303.59	75.69
303.82	74.69
304.051	73.69
304.281	85.69
304.511	96.69
304.741	78.69
304.971	85.69
305.201	76.69
305.431	74.69
305.661	91.69
305.891	95.69
306.121	93.69
306.352	72.69
306.582	96.69
306.812	81.69
307.042	86.69
307.272	79.69
307.502	76.69
307.731	91.69
307.961	82.69
308.191	84.69
308.421	89.69
308.651	87.69
308.881	86.69
309.111	97.69
309.341	94.69
309.571	82.69
309.8	93.69
310.03	84.69
310.26	81.69
310.49	77.69
310.72	87.69
310.949	85.69
311.179	84.69
311.409	80.69
311.639	86.69
311.868	83.69
312.098	95.69
312.328	68.69
312.557	81.69
312.787	76.69
313.017	92.69
313.246	92.69
313.476	86.69
313.706	83.69
313.935	90.69
314.165	83.69
314.394	72.69
314.624	86.69
314.853	87.69
315.083	84.69
315.312	98.69
315.542	85.69
315.771	82.69
316.001	64.69
316.23	84.69
316.46	75.69
316.689	91.69
316.919	94.69
317.148	87.69
317.377	100.69
317.607	95.69
317.836	100.69
318.065	86.69
318.295	99.69
318.524	77.69
318.753	87.69
318.983	82.69
319.212	93.69
319.441	105.69
319.67	79.69
319.9	90.69
320.129	94.69
320.358	77.69
320.587	88.69
320.816	80.69
321.046	94.69
321.275	86.69
321.504	75.69
321.733	91.69
321.962	93.69
322.191	82.69
322.42	93.69
322.649	85.69
322.878	75.69
323.108	87.69
323.337	90.69
323.566	79.69
323.795	82.69
324.024	103.69
324.253	69.69
324.482	88.69
324.71	77.69
324.939	75.69
325.168	90.69
325.397	92.69
325.626	95.69
325.855	81.69
326.084	91.69
326.313	77.69
326.542	89.69
326.77	78.69
326.999	93.69
327.228	94.69
327.457	90.69
327.686	79.69
327.914	75.69
328.143	82.69
328.372	75.69
328.6	87.69
328.829	77.69
329.058	73.69
329.287	86.69
329.515	89.69
329.744	84.69
329.972	78.69
330.201	87.69
330.43	76.69
330.658	82.69
330.887	86.69
331.115	92.69
331.344	89.69
331.572	87.69
331.801	82.69
332.03	89.69
332.258	84.69
332.486	101.69
332.715	101.69
332.943	76.69
333.172	73.69
333.4	84.69
333.629	92.69
333.857	81.69
334.085	88.69
334.314	87.69
334.542	72.69
334.771	96.69
334.999	92.69
335.227	79.69
335.455	82.69
335.684	87.69
335.912	102.69
336.14	99.69
336.369	96.69
336.597	87.69
336.825	80.69
337.053	88.69
337.281	88.69
337.51	77.69
337.738	87.69
337.966	86.69
338.194	92.69
338.422	76.69
338.65	88.69
338.878	89.69
339.106	87.69
339.334	89.69
339.562	79.69
339.79	80.69
340.018	87.69
340.246	88.69
340.474	82.69
340.702	87.69
340.93	91.69
341.158	96.69
341.386	83.69
341.614	76.69
341.842	77.69
342.07	93.69
342.298	87.69
342.526	101.69
342.754	91.69
342.981	96.69
343.209	89.69
343.437	101.69
343.665	82.69
343.893	87.69
344.12	75.69
344.348	88.69
344.576	75.69
344.804	93.69
345.031	79.69
345.259	94.69
345.487	88.69
345.714	81.69
345.942	74.69
346.17	79.69
346.397	72.69
346.625	87.69
346.853	101.69
347.08	86.69
347.308	90.69
347.535	75.69
347.763	86.69
347.99	101.69
348.218	89.69
348.445	98.69
348.673	100.69
348.9	77.69
349.128	84.69
349.355	86.69
349.583	104.69
349.81	88.69
350.037	84.69
350.265	78.69
350.492	96.69
350.72	88.69
350.947	91.69
351.174	97.69
351.402	76.69
351.629	85.69
351.856	90.69
352.083	96.69
352.311	84.69
352.538	81.69
352.765	73.69
352.992	98.69
353.22	86.69
353.447	94.69
353.674	86.69
353.901	82.69
354.128	81.69
354.355	78.69
354.583	92.69
354.81	84.69
355.037	92.69
355.264	88.69
355.491	83.69
355.718	90.69
355.945	88.69
356.172	100.69
356.399	90.69
356.626	86.69
356.853	89.69
357.08	88.69
357.307	92.69
357.534	91.69
357.761	93.69
357.988	93.69
358.215	94.69
358.441	87.69
358.668	86.69
358.895	89.69
359.122	82.69
359.349	94.69
359.576	69.69
359.802	76.69
360.029	89.69
360.256	90.69
360.483	87.69
360.709	89.69
360.936	105.69
361.163	78.69
361.39	67.69
361.616	86.69
361.843	78.69
362.07	85.69
362.296	78.69
362.523	79.69
362.749	84.69
362.976	98.69
363.203	91.69
363.429	91.69
363.656	78.69
363.882	87.69
364.109	72.69
364.335	70.69
364.562	89.69
364.788	84.69
365.015	95.69
365.241	82.69
365.468	86.69
365.694	75.69
365.92	76.69
366.147	85.69
366.373	88.69
366.599	89.69
366.826	75.69
367.052	91.69
367.278	66.69
367.505	74.69
367.731	94.69
367.957	90.69
368.184	87.69
368.41	83.69
368.636	77.69
368.862	86.69
369.089	96.69
369.315	92.69
369.541	87.69
369.767	77.69
369.993	98.69
370.219	78.69
370.445	86.69
370.672	74.69
370.898	101.69
371.124	84.69
371.35	69.69
371.576	75.69
371.802	87.69
372.028	81.69
372.254	78.69
372.48	78.69
372.706	78.69
372.932	88.69
373.158	91.69
373.384	82.69
373.61	78.69
373.835	91.69
374.061	95.69
374.287	88.69
374.513	85.69
374.739	82.69
374.965	87.69
375.191	92.69
375.416	83.69
375.642	85.69
375.868	88.69
376.094	79.69
376.319	94.69
376.545	89.69
376.771	99.69
376.997	88.69
377.222	80.69
377.448	92.69
377.674	92.69
377.899	86.69
378.125	88.69
378.35	74.69
378.576	84.69
378.802	82.69
379.027	94.69
379.253	85.69
379.478	88.69
379.704	87.69
379.929	88.69
380.155	89.69
380.38	82.69
380.606	89.69
380.831	100.69
381.057	93.69
381.282	99.69
381.507	91.69
381.733	85.69
381.958	83.69
382.184	101.69
382.409	99.69
382.634	91.69
382.86	73.69
383.085	76.69
383.31	89.69
383.535	75.69
383.761	86.69
383.986	93.69
384.211	99.69
384.436	92.69
384.662	86.69
384.887	73.69
385.112	101.69
385.337	89.69
385.562	72.69
385.787	85.69
386.013	96.69
386.238	74.69
386.463	100.69
386.688	77.69
386.913	96.69
387.138	80.69
387.363	78.69
387.588	83.69
387.813	77.69
388.038	93.69
388.263	92.69
388.488	86.69
388.713	97.69
388.938	76.69
389.163	88.69
389.387	73.69
389.612	78.69
389.837	72.69
390.062	88.69
390.287	99.69
390.512	101.69
390.736	92.69
390.961	104.69
391.186	88.69
391.411	79.69
391.636	88.69
391.86	83.69
392.085	81.69
392.31	84.69
392.534	78.69
392.759	70.69
392.984	91.69
393.208	75.69
393.433	93.69
393.658	81.69
393.882	91.69
394.107	92.69
394.331	83.69
394.556	89.69
394.78	77.69
395.005	89.69
395.229	79.69
395.454	99.69
395.678	71.69
395.903	90.69
396.127	93.69
396.352	88.69
396.576	80.69
396.801	85.69
397.025	103.69
397.249	82.69
397.474	100.69
397.698	100.69
397.922	96.69
398.147	92.69
398.371	92.69
398.595	75.69
398.82	92.69
399.044	73.69
399.268	85.69
399.492	86.69
399.717	100.69
399.941	92.69
400.165	74.69
400.389	85.69
400.613	100.69
400.837	98.69
401.062	98.69
401.286	94.69
401.51	94.69
401.734	91.69
401.958	93.69
402.182	106.69
402.406	90.69
402.63	97.69
402.854	88.69
403.078	78.69
403.302	92.69
403.526	101.69
403.75	93.69
403.974	89.69
404.198	97.69
404.422	95.69
404.645	86.69
404.869	96.69
405.093	90.69
405.317	95.69
405.541	77.69
405.765	93.69
405.988	84.69
406.212	90.69
406.436	92.69
406.66	102.69
406.883	99.69
407.107	96.69
407.331	91.69
407.555	83.69
407.778	84.69
408.002	86.69
408.226	98.69
408.449	90.69
408.673	84.69
408.896	95.69
409.12	96.69
409.344	95.69
409.567	78.69
409.791	84.69
410.014	93.69
410.238	87.69
410.461	89.69
410.685	83.69
410.908	99.69
411.132	81.69
411.355	93.69
411.578	84.69
411.802	82.69
412.025	86.69
412.249	89.69
412.472	108.69
412.695	83.69
412.919	85.69
413.142	86.69
413.365	94.69
413.589	107.69
413.812	78.69
414.035	83.69
414.258	107.69
414.482	102.69
414.705	77.69
414.928	99.69
415.151	104.69
415.374	99.69
415.597	102.69
415.821	85.69
416.044	87.69
416.267	77.69
416.49	107.69
416.713	92.69
416.936	88.69
417.159	92.69
417.382	104.69
417.605	78.69
417.828	95.69
418.051	107.69
418.274	90.69
418.497	85.69
418.72	89.69
418.943	111.69
419.166	95.69
419.389	103.69
419.611	84.69
419.834	97.69
420.057	94.69
420.28	99.69
420.503	105.69
420.726	81.69
420.948	74.69
421.171	102.69
421.394	90.69
421.617	90.69
421.839	93.69
422.062	112.69
422.285	94.69
422.507	101.69
422.73	103.69
422.953	88.69
423.175	87.69
423.398	105.69
423.621	98.69
423.843	87.69
424.066	82.69
424.288	98.69
424.511	97.69
424.733	105.69
424.956	90.69
425.178	101.69
425.401	105.69
425.623	104.69
425.846	89.69
426.068	102.69
426.291	96.69
426.513	103.69
426.735	99.69
426.958	85.69
427.18	84.69
427.402	88.69
427.625	93.69
427.847	85.69
428.069	92.69
428.292	89.69
428.514	89.69
428.736	88.69
428.958	85.69
429.181	97.69
429.403	105.69
429.625	101.69
429.847	100.69
430.069	86.69
430.292	96.69
430.514	96.69
430.736	91.69
430.958	93.69
431.18	85.69
431.402	78.69
431.624	93.69
431.846	84.69
432.068	101.69
432.29	75.69
432.512	94.69
432.734	94.69
432.956	95.69
433.178	95.69
433.4	108.69
433.622	94.69
433.844	93.69
434.066	93.69
434.287	93.69
434.509	92.69
434.731	80.69
434.953	70.69
435.175	87.69
435.397	97.69
435.618	84.69
435.84	89.69
436.062	99.69
436.284	93.69
436.505	99.69
436.727	96.69
436.949	103.69
437.17	109.69
437.392	88.69
437.614	98.69
437.835	99.69
438.057	94.69
438.278	89.69
438.5	102.69
438.721	89.69
438.943	105.69
439.165	97.69
439.386	96.69
439.608	82.69
439.829	86.69
440.05	73.69
440.272	106.69
440.493	95.69
440.715	109.69
440.936	92.69
441.158	94.69
441.379	102.69
441.6	110.69
441.822	97.69
442.043	100.69
442.264	110.69
442.486	99.69
442.707	105.69
442.928	98.69
443.149	88.69
443.371	109.69
443.592	94.69
443.813	90.69
444.034	98.69
444.255	88.69
444.476	99.69
444.698	96.69
444.919	100.69
445.14	214.69
445.361	149.69
445.582	95.69
445.803	100.69
446.024	93.69
446.245	101.69
446.466	102.69
446.687	110.69
446.908	99.69
447.129	104.69
447.35	91.69
447.571	107.69
447.792	95.69
448.013	89.69
448.234	94.69
448.455	103.69
448.675	101.69
448.896	101.69
449.117	103.69
449.338	100.69
449.559	82.69
449.779	87.69
450	92.69
450.221	95.69
450.442	78.69
450.662	103.69
450.883	100.69
451.104	92.69
451.324	103.69
451.545	89.69
451.766	105.69
451.986	89.69
452.207	95.69
452.428	100.69
452.648	89.69
452.869	83.69
453.089	95.69
453.31	96.69
453.53	78.69
453.751	105.69
453.971	91.69
454.192	98.69
454.412	88.69
454.633	85.69
454.853	88.69
455.073	83.69
455.294	105.69
455.514	90.69
455.734	100.69
455.955	80.69
456.175	82.69
456.395	86.69
456.616	78.69
456.836	79.69
457.056	90.69
457.276	80.69
457.497	71.69
457.717	83.69
457.937	89.69
458.157	103.69
458.377	88.69
458.598	96.69
458.818	84.69
459.038	81.69
459.258	81.69
459.478	81.69
459.698	90.69
459.918	95.69
460.138	93.69
460.358	87.69
460.578	92.69
460.798	84.69
461.018	77.69
461.238	90.69
461.458	92.69
461.678	100.69
461.898	93.69
462.118	90.69
462.338	87.69
462.558	97.69
462.777	87.69
462.997	85.69
463.217	88.69
463.437	92.69
463.657	84.69
463.876	94.69
464.096	84.69
464.316	92.69
464.536	89.69
464.755	84.69
464.975	82.69
465.195	95.69
465.414	85.69
465.634	81.69
465.854	78.69
466.073	90.69
466.293	91.69
466.512	95.69
466.732	86.69
466.951	102.69
467.171	90.69
467.391	105.69
467.61	107.69
467.829	96.69
468.049	82.69
468.268	99.69
468.488	101.69
468.707	104.69
468.927	100.69
469.146	85.69
469.365	89.69
469.585	100.69
469.804	98.69
470.023	109.69
470.243	94.69
470.462	104.69
470.681	96.69
470.901	99.69
471.12	97.69
471.339	105.69
471.558	93.69
471.777	91.69
471.997	86.69
472.216	88.69
472.435	83.69
472.654	88.69
472.873	81.69
473.092	86.69
473.311	85.69
473.53	90.69
473.749	99.69
473.968	107.69
474.187	90.69
474.406	95.69
474.625	88.69
474.844	80.69
475.063	94.69
475.282	96.69
475.501	95.69
475.72	106.69
475.939	96.69
476.158	93.69
476.377	97.69
476.596	95.69
476.814	101.69
477.033	87.69
477.252	92.69
477.471	89.69
477.69	99.69
477.908	87.69
478.127	104.69
478.346	99.69
478.564	94.69
478.783	88.69
479.002	95.69
479.22	102.69
479.439	112.69
479.658	85.69
479.876	77.69
480.095	69.69
480.313	81.69
480.532	83.69
480.751	76.69
480.969	85.69
481.188	76.69
481.406	83.69
481.624	82.69
481.843	84.69
482.061	107.69
482.28	89.69
482.498	84.69
482.717	104.69
482.935	90.69
483.153	91.69
483.372	107.69
483.59	102.69
483.808	93.69
484.027	102.69
484.245	93.69
484.463	94.69
484.681	94.69
484.9	102.69
485.118	109.69
485.336	103.69
485.554	91.69
485.772	87.69
485.99	74.69
486.209	84.69
486.427	85.69
486.645	90.69
486.863	103.69
487.081	103.69
487.299	102.69
487.517	103.69
487.735	105.69
487.953	124.69
488.171	100.69
488.389	96.69
488.607	98.69
488.825	94.69
489.043	103.69
489.261	98.69
489.479	98.69
489.696	97.69
489.914	102.69
490.132	93.69
490.35	85.69
490.568	88.69
490.786	104.69
491.003	103.69
491.221	112.69
491.439	109.69
491.657	120.69
491.874	116.69
492.092	124.69
492.31	131.69
492.527	130.69
492.745	118.69
492.963	124.69
493.18	110.69
493.398	102.69
493.615	114.69
493.833	99.69
494.05	112.69
494.268	109.69
494.485	98.69
494.703	118.69
494.92	106.69
495.138	107.69
495.355	98.69
495.573	95.69
495.79	94.69
496.008	122.69
496.225	94.69
496.442	112.69
496.66	121.69
496.877	107.69
497.094	113.69
497.312	109.69
497.529	106.69
497.746	117.69
497.963	93.69
498.181	94.69
498.398	89.69
498.615	100.69
498.832	96.69
499.049	76.69
499.267	94.69
499.484	86.69
499.701	100.69
499.918	103.69
500.135	92.69
500.352	88.69
500.569	97.69
500.786	92.69
501.003	106.69
501.22	89.69
501.437	91.69
501.654	96.69
501.871	101.69
502.088	99.69
502.305	93.69
502.522	98.69
502.739	100.69
502.956	86.69
503.172	97.69
503.389	98.69
503.606	91.69
503.823	93.69
504.04	100.69
504.256	107.69
504.473	100.69
504.69	86.69
504.907	78.69
505.123	80.69
505.34	88.69
505.557	90.69
505.773	86.69
505.99	113.69
506.207	95.69
506.423	86.69
506.64	86.69
506.856	96.69
507.073	91.69
507.289	84.69
507.506	92.69
507.722	81.69
507.939	92.69
508.155	108.69
508.372	97.69
508.588	90.69
508.805	88.69
509.021	79.69
509.238	104.69
509.454	84.69
509.67	72.69
509.887	93.69
510.103	92.69
510.319	85.69
510.536	84.69
510.752	84.69
510.968	73.69
511.184	78.69
511.401	87.69
511.617	84.69
511.833	76.69
512.049	88.69
512.265	86.69
512.481	89.69
512.698	84.69
512.914	70.69
513.13	80.69
513.346	76.69
513.562	87.69
513.778	92.69
513.994	89.69
514.21	97.69
514.426	89.69
514.642	88.69
514.858	64.69
515.074	81.69
515.29	91.69
515.506	71.69
515.721	98.69
515.937	94.69
516.153	93.69
516.369	81.69
516.585	89.69
516.801	71.69
517.016	71.69
517.232	89.69
517.448	72.69
517.664	98.69
517.879	78.69
518.095	87.69
518.311	88.69
518.527	86.69
518.742	86.69
518.958	90.69
519.173	90.69
519.389	84.69
519.605	87.69
519.82	96.69
520.036	89.69
520.251	86.69
520.467	91.69
520.682	102.69
520.898	90.69
521.113	78.69
521.329	98.69
521.544	78.69
521.76	77.69
521.975	99.69
522.19	81.69
522.406	95.69
522.621	99.69
522.836	97.69
523.052	84.69
523.267	94.69
523.482	97.69
523.698	80.69
523.913	90.69
524.128	95.69
524.343	86.69
524.559	92.69
524.774	89.69
524.989	99.69
525.204	91.69
525.419	88.69
525.634	78.69
525.849	89.69
526.064	84.69
526.28	90.69
526.495	99.69
526.71	91.69
526.925	89.69
527.14	68.69
527.355	87.69
527.57	80.69
527.785	74.69
527.999	91.69
528.214	84.69
528.429	106.69
528.644	112.69
528.859	96.69
529.074	104.69
529.289	108.69
529.503	107.69
529.718	89.69
529.933	89.69
530.148	90.69
530.363	84.69
530.577	89.69
530.792	85.69
531.007	88.69
531.221	77.69
531.436	79.69
531.651	85.69
531.865	84.69
532.08	82.69
532.295	89.69
532.509	86.69
532.724	83.69
532.938	91.69
533.153	98.69
533.367	100.69
533.582	103.69
533.796	99.69
534.011	80.69
534.225	76.69
534.44	76.69
534.654	90.69
534.868	90.69
535.083	78.69
535.297	96.69
535.511	81.69
535.726	85.69
535.94	85.69
536.154	81.69
536.369	78.69
536.583	79.69
536.797	100.69
537.011	104.69
537.225	85.69
537.44	79.69
537.654	89.69
537.868	88.69
538.082	75.69
538.296	84.69
538.51	98.69
538.724	105.69
538.938	78.69
539.153	105.69
539.367	98.69
539.581	109.69
539.795	86.69
540.009	92.69
540.222	89.69
540.436	91.69
540.65	85.69
540.864	107.69
541.078	97.69
541.292	102.69
541.506	107.69
541.72	103.69
541.934	112.69
542.147	106.69
542.361	117.69
542.575	112.69
542.789	93.69
543.002	107.69
543.216	101.69
543.43	81.69
543.644	96.69
543.857	94.69
544.071	106.69
544.285	120.69
544.498	86.69
544.712	114.69
544.925	120.69
545.139	96.69
545.352	105.69
545.566	96.69
545.779	99.69
545.993	100.69
546.206	108.69
546.42	109.69
546.633	114.69
546.847	99.69
547.06	108.69
547.274	106.69
547.487	108.69
547.7	104.69
547.914	106.69
548.127	117.69
548.34	107.69
548.554	97.69
548.767	96.69
548.98	98.69
549.193	115.69
549.407	96.69
549.62	99.69
549.833	113.69
550.046	108.69
550.259	105.69
550.473	98.69
550.686	102.69
550.899	94.69
551.112	109.69
551.325	107.69
551.538	94.69
551.751	93.69
551.964	111.69
552.177	104.69
552.39	97.69
552.603	104.69
552.816	105.69
553.029	100.69
553.242	104.69
553.455	102.69
553.667	99.69
553.88	102.69
554.093	105.69
554.306	106.69
554.519	106.69
554.732	117.69
554.944	100.69
555.157	125.69
555.37	93.69
555.583	112.69
555.795	92.69
556.008	90.69
556.221	81.69
556.433	103.69
556.646	108.69
556.859	94.69
557.071	93.69
557.284	94.69
557.496	102.69
557.709	100.69
557.921	89.69
558.134	97.69
558.346	103.69
558.559	101.69
558.771	89.69
558.984	107.69
559.196	98.69
559.409	82.69
559.621	93.69
559.833	84.69
560.046	99.69
560.258	106.69
560.47	100.69
560.683	100.69
560.895	89.69
561.107	100.69
561.32	100.69
561.532	98.69
561.744	110.69
561.956	100.69
562.168	113.69
562.381	87.69
562.593	93.69
562.805	83.69
563.017	104.69
563.229	107.69
563.441	96.69
563.653	97.69
563.865	88.69
564.077	101.69
564.289	105.69
564.501	101.69
564.713	96.69
564.925	98.69
565.137	95.69
565.349	80.69
565.561	94.69
565.773	96.69
565.985	91.69
566.197	105.69
566.408	100.69
566.62	93.69
566.832	100.69
567.044	98.69
567.255	106.69
567.467	93.69
567.679	86.69
567.891	88.69
568.102	99.69
568.314	72.69
568.526	94.69
568.737	84.69
568.949	88.69
569.161	83.69
569.372	91.69
569.584	90.69
569.795	81.69
570.007	73.69
570.218	99.69
570.43	90.69
570.641	94.69
570.853	83.69
571.064	96.69
571.276	86.69
571.487	79.69
571.698	88.69
571.91	84.69
572.121	97.69
572.333	91.69
572.544	87.69
572.755	104.69
572.966	91.69
573.178	91.69
573.389	91.69
573.6	97.69
573.811	90.69
574.023	101.69
574.234	96.69
574.445	95.69
574.656	84.69
574.867	82.69
575.078	88.69
575.289	83.69
575.501	77.69
575.712	76.69
575.923	94.69
576.134	85.69
576.345	89.69
576.556	98.69
576.767	83.69
576.978	85.69
577.188	79.69
577.399	80.69
577.61	83.69
577.821	84.69
578.032	77.69
578.243	87.69
578.454	98.69
578.665	91.69
578.875	96.69
579.086	77.69
579.297	73.69
579.508	114.69
579.718	96.69
579.929	94.69
580.14	85.69
580.35	86.69
580.561	89.69
580.772	92.69
580.982	86.69
581.193	79.69
581.403	83.69
581.614	94.69
581.825	89.69
582.035	71.69
582.246	92.69
582.456	97.69
582.667	81.69
582.877	92.69
583.087	90.69
583.298	80.69
583.508	92.69
583.719	101.69
583.929	97.69
584.139	80.69
584.35	84.69
584.56	83.69
584.77	94.69
584.981	74.69
585.191	74.69
585.401	84.69
585.611	91.69
585.821	92.69
586.032	83.69
586.242	76.69
586.452	78.69
586.662	76.69
586.872	80.69
587.082	80.69
587.292	88.69
587.502	81.69
587.713	85.69
587.923	80.69
588.133	80.69
588.343	92.69
588.553	86.69
588.762	95.69
588.972	85.69
589.182	86.69
589.392	93.69
589.602	91.69
589.812	90.69
590.022	93.69
590.232	91.69
590.441	76.69
590.651	78.69
590.861	89.69
591.071	88.69
591.281	89.69
591.49	84.69
591.7	91.69
591.91	95.69
592.119	78.69
592.329	86.69
592.539	79.69
592.748	79.69
592.958	95.69
593.167	93.69
593.377	90.69
593.587	85.69
593.796	97.69
594.006	88.69
594.215	92.69
594.424	88.69
594.634	97.69
594.843	84.69
595.053	87.69
595.262	86.69
595.472	84.69
595.681	99.69
595.89	82.69
596.1	77.69
596.309	87.69
596.518	85.69
596.727	96.69
596.937	84.69
597.146	83.69
597.355	87.69
597.564	82.69
597.774	104.69
597.983	84.69
598.192	82.69
598.401	87.69
598.61	68.69
598.819	87.69
599.028	85.69
599.237	78.69
599.446	97.69
599.655	90.69
599.864	83.69
600.073	88.69
600.282	93.69
600.491	92.69
600.7	72.69
600.909	82.69
601.118	106.69
601.327	75.69
601.536	86.69
601.745	101.69
601.953	100.69
602.162	102.69
602.371	83.69
602.58	92.69
602.789	95.69
602.997	94.69
603.206	91.69
603.415	76.69
603.623	78.69
603.832	86.69
604.041	84.69
604.249	88.69
604.458	93.69
604.666	83.69
604.875	96.69
605.084	89.69
605.292	91.69
605.501	86.69
605.709	85.69
605.918	96.69
606.126	84.69
606.334	94.69
606.543	82.69
606.751	79.69
606.96	97.69
607.168	82.69
607.376	88.69
607.585	84.69
607.793	94.69
608.001	77.69
608.21	87.69
608.418	68.69
608.626	81.69
608.834	84.69
609.043	94.69
609.251	107.69
609.459	91.69
609.667	91.69
609.875	94.69
610.083	91.69
610.291	107.69
610.499	96.69
610.707	102.69
610.916	97.69
611.124	105.69
611.332	83.69
611.54	81.69
611.748	85.69
611.955	102.69
612.163	91.69
612.371	81.69
612.579	98.69
612.787	93.69
612.995	79.69
613.203	100.69
613.411	94.69
613.618	94.69
613.826	103.69
614.034	96.69
614.242	91.69
614.449	93.69
614.657	98.69
614.865	88.69
615.072	81.69
615.28	95.69
615.488	91.69
615.695	97.69
615.903	102.69
616.111	103.69
616.318	98.69
616.526	90.69
616.733	96.69
616.941	97.69
617.148	99.69
617.356	99.69
617.563	91.69
617.771	93.69
617.978	99.69
618.185	100.69
618.393	93.69
618.6	101.69
618.807	94.69
619.015	93.69
619.222	96.69
619.429	67.69
619.637	91.69
619.844	82.69
620.051	86.69
620.258	102.69
620.466	99.69
620.673	94.69
620.88	85.69
621.087	95.69
621.294	81.69
621.501	100.69
621.708	78.69
621.915	98.69
622.122	75.69
622.329	101.69
622.536	97.69
622.743	95.69
622.95	87.69
623.157	101.69
623.364	91.69
623.571	84.69
623.778	82.69
623.985	84.69
624.192	83.69
624.399	87.69
624.606	96.69
624.812	85.69
625.019	79.69
625.226	76.69
625.433	90.69
625.639	90.69
625.846	93.69
626.053	93.69
626.259	81.69
626.466	88.69
626.673	86.69
626.879	99.69
627.086	100.69
627.293	88.69
627.499	92.69
627.706	90.69
627.912	94.69
628.119	92.69
628.325	91.69
628.532	84.69
628.738	94.69
628.945	87.69
629.151	97.69
629.357	90.69
629.564	98.69
629.77	96.69
629.976	89.69
630.183	100.69
630.389	108.69
630.595	81.69
630.802	92.69
631.008	81.69
631.214	100.69
631.42	81.69
631.627	92.69
631.833	101.69
632.039	92.69
632.245	105.69
632.451	97.69
632.657	93.69
632.863	96.69
633.069	93.69
633.275	88.69
633.481	66.69
633.688	91.69
633.893	98.69
634.099	72.69
634.305	97.69
634.511	79.69
634.717	93.69
634.923	78.69
635.129	85.69
635.335	81.69
635.541	85.69
635.747	91.69
635.952	84.69
636.158	99.69
636.364	91.69
636.57	97.69
636.775	96.69
636.981	76.69
637.187	88.69
637.392	88.69
637.598	91.69
637.804	78.69
638.009	86.69
638.215	79.69
638.421	93.69
638.626	101.69
638.832	95.69
639.037	84.69
639.243	95.69
639.448	99.69
639.654	85.69
639.859	103.69
640.065	83.69
640.27	83.69
640.475	96.69
640.681	91.69
640.886	88.69
641.091	93.69
641.297	83.69
641.502	65.69
641.707	84.69
641.913	91.69
642.118	92.69
642.323	98.69
642.528	90.69
642.733	79.69
642.939	79.69
643.144	81.69
643.349	90.69
643.554	101.69
643.759	93.69
643.964	86.69
644.169	87.69
644.374	92.69
644.579	96.69
644.784	109.69
644.989	107.69
645.194	83.69
645.399	97.69
645.604	90.69
645.809	95.69
646.014	88.69
646.219	92.69
646.423	109.69
646.628	96.69
646.833	96.69
647.038	100.69
647.243	96.69
647.447	113.69
647.652	78.69
647.857	92.69
648.062	83.69
648.266	85.69
648.471	80.69
648.676	93.69
648.88	87.69
649.085	88.69
649.289	87.69
649.494	111.69
649.698	87.69
649.903	93.69
650.107	90.69
650.312	97.69
650.516	98.69
650.721	77.69
650.925	73.69
651.13	90.69
651.334	95.69
651.539	84.69
651.743	89.69
651.947	79.69
652.152	107.69
652.356	89.69
652.56	92.69
652.764	82.69
652.969	83.69
653.173	91.69
653.377	93.69
653.581	88.69
653.785	76.69
653.99	85.69
654.194	98.69
654.398	103.69
654.602	94.69
654.806	82.69
655.01	99.69
655.214	86.69
655.418	83.69
655.622	82.69
655.826	86.69
656.03	82.69
656.234	97.69
656.438	87.69
656.642	87.69
656.846	79.69
657.049	96.69
657.253	85.69
657.457	86.69
657.661	93.69
657.865	82.69
658.068	92.69
658.272	96.69
658.476	96.69
658.68	68.69
658.883	82.69
659.087	86.69
659.291	85.69
659.494	66.69
659.698	77.69
659.901	89.69
660.105	85.69
660.309	87.69
660.512	86.69
660.716	82.69
660.919	86.69
661.123	82.69
661.326	92.69
661.53	79.69
661.733	96.69
661.936	92.69
662.14	76.69
662.343	75.69
662.546	83.69
662.75	87.69
662.953	99.69
663.156	87.69
663.36	87.69
663.563	97.69
663.766	81.69
663.969	86.69
664.173	81.69
664.376	71.69
664.579	92.69
664.782	90.69
664.985	68.69
665.188	88.69
665.391	75.69
665.594	66.69
665.797	78.69
666	66.69
666.203	83.69
666.406	88.69
666.609	90.69
666.812	76.69
667.015	73.69
667.218	76.69
667.421	87.69
667.624	85.69
667.827	68.69
668.03	78.69
668.232	69.69
668.435	84.69
668.638	85.69
668.841	79.69
669.043	84.69
669.246	88.69
669.449	89.69
669.651	83.69
669.854	79.69
670.057	97.69
670.259	91.69
670.462	75.69
670.665	88.69
670.867	86.69
671.07	84.69
671.272	86.69
671.475	86.69
671.677	82.69
671.88	73.69
672.082	85.69
672.284	87.69
672.487	98.69
672.689	78.69
672.892	72.69
