Data from Location5.07152019.Energy5.Lamp.07192019.3%Agarose_HRD10591_15-37-03-387.txt Node
Date: Fri Jul 19 15:37:03 EDT 2019
User: cochatt
Spectrometer: HR+D1059
Trigger mode: 1
Integration Time (sec): 1.000000E-1
Scans to average: 1
Electric dark correction enabled: true
Nonlinearity correction enabled: false
Boxcar width: 0
XAxis mode: Wavelengths
Number of Pixels in Spectrum: 2048
>>>>>Begin Spectral Data<<<<<
223.165	-17.12
223.4	-17.12
223.635	-17.12
223.869	-14.12
224.104	-22.12
224.338	-15.12
224.573	-22.12
224.808	-21.12
225.042	-0.12
225.277	-9.12
225.511	2.88
225.746	3.88
225.98	1.88
226.215	13.88
226.449	18.88
226.683	32.88
226.918	32.88
227.152	13.88
227.387	36.88
227.621	38.88
227.856	54.88
228.09	41.88
228.324	49.88
228.559	44.88
228.793	59.88
229.027	62.88
229.262	65.88
229.496	58.88
229.73	69.88
229.964	71.88
230.199	81.88
230.433	66.88
230.667	73.88
230.901	71.88
231.136	65.88
231.37	74.88
231.604	68.88
231.838	81.88
232.072	72.88
232.306	74.88
232.541	75.88
232.775	69.88
233.009	72.88
233.243	80.88
233.477	73.88
233.711	79.88
233.945	61.88
234.179	71.88
234.413	85.88
234.647	80.88
234.881	74.88
235.115	82.88
235.349	79.88
235.583	69.88
235.817	74.88
236.051	68.88
236.285	76.88
236.519	73.88
236.753	81.88
236.987	78.88
237.221	74.88
237.455	80.88
237.689	77.88
237.922	74.88
238.156	66.88
238.39	70.88
238.624	68.88
238.858	86.88
239.091	65.88
239.325	76.88
239.559	80.88
239.793	79.88
240.027	69.88
240.26	73.88
240.494	83.88
240.728	72.88
240.961	76.88
241.195	88.88
241.429	87.88
241.662	81.88
241.896	72.88
242.13	78.88
242.363	87.88
242.597	76.88
242.83	75.88
243.064	85.88
243.298	68.88
243.531	88.88
243.765	65.88
243.998	77.88
244.232	98.88
244.465	77.88
244.699	66.88
244.932	89.88
245.166	74.88
245.399	69.88
245.633	80.88
245.866	80.88
246.099	69.88
246.333	78.88
246.566	87.88
246.8	80.88
247.033	73.88
247.266	74.88
247.5	70.88
247.733	88.88
247.966	64.88
248.2	63.88
248.433	72.88
248.666	70.88
248.899	88.88
249.133	81.88
249.366	79.88
249.599	81.88
249.832	92.88
250.066	92.88
250.299	80.88
250.532	81.88
250.765	92.88
250.998	74.88
251.231	66.88
251.465	86.88
251.698	81.88
251.931	82.88
252.164	73.88
252.397	70.88
252.63	75.88
252.863	71.88
253.096	82.88
253.329	88.88
253.562	84.88
253.795	83.88
254.028	75.88
254.261	74.88
254.494	77.88
254.727	79.88
254.96	80.88
255.193	75.88
255.426	74.88
255.659	86.88
255.892	81.88
256.124	69.88
256.357	86.88
256.59	69.88
256.823	72.88
257.056	81.88
257.289	71.88
257.521	63.88
257.754	90.88
257.987	81.88
258.22	79.88
258.452	79.88
258.685	77.88
258.918	81.88
259.151	76.88
259.383	61.88
259.616	69.88
259.849	73.88
260.081	71.88
260.314	87.88
260.547	74.88
260.779	70.88
261.012	72.88
261.244	87.88
261.477	96.88
261.71	79.88
261.942	70.88
262.175	92.88
262.407	78.88
262.64	74.88
262.872	80.88
263.105	73.88
263.337	85.88
263.57	69.88
263.802	77.88
264.035	79.88
264.267	79.88
264.499	73.88
264.732	74.88
264.964	90.88
265.197	75.88
265.429	82.88
265.661	84.88
265.894	74.88
266.126	79.88
266.358	78.88
266.591	72.88
266.823	74.88
267.055	83.88
267.287	89.88
267.52	85.88
267.752	79.88
267.984	74.88
268.216	86.88
268.448	83.88
268.681	78.88
268.913	78.88
269.145	88.88
269.377	85.88
269.609	92.88
269.841	82.88
270.073	73.88
270.306	88.88
270.538	68.88
270.77	86.88
271.002	65.88
271.234	68.88
271.466	82.88
271.698	58.88
271.93	82.88
272.162	80.88
272.394	79.88
272.626	65.88
272.858	86.88
273.09	86.88
273.322	87.88
273.553	73.88
273.785	84.88
274.017	77.88
274.249	78.88
274.481	75.88
274.713	80.88
274.945	87.88
275.176	95.88
275.408	71.88
275.64	74.88
275.872	74.88
276.104	75.88
276.335	79.88
276.567	81.88
276.799	70.88
277.031	74.88
277.262	86.88
277.494	74.88
277.726	81.88
277.957	66.88
278.189	80.88
278.421	70.88
278.652	76.88
278.884	98.88
279.115	84.88
279.347	69.88
279.579	82.88
279.81	74.88
280.042	83.88
280.273	78.88
280.505	83.88
280.736	84.88
280.968	74.88
281.199	84.88
281.431	82.88
281.662	80.88
281.894	83.88
282.125	71.88
282.356	87.88
282.588	94.88
282.819	74.88
283.051	70.88
283.282	88.88
283.513	75.88
283.745	85.88
283.976	77.88
284.207	83.88
284.439	88.88
284.67	83.88
284.901	73.88
285.132	94.88
285.364	84.88
285.595	79.88
285.826	96.88
286.057	96.88
286.288	81.88
286.52	85.88
286.751	78.88
286.982	83.88
287.213	81.88
287.444	97.88
287.675	81.88
287.906	79.88
288.138	95.88
288.369	89.88
288.6	67.88
288.831	80.88
289.062	87.88
289.293	86.88
289.524	70.88
289.755	74.88
289.986	84.88
290.217	82.88
290.448	86.88
290.679	87.88
290.91	94.88
291.141	82.88
291.371	78.88
291.602	85.88
291.833	74.88
292.064	85.88
292.295	81.88
292.526	73.88
292.757	87.88
292.987	68.88
293.218	75.88
293.449	88.88
293.68	72.88
293.91	87.88
294.141	78.88
294.372	74.88
294.603	88.88
294.833	88.88
295.064	86.88
295.295	76.88
295.525	76.88
295.756	77.88
295.987	68.88
296.217	79.88
296.448	74.88
296.679	62.88
296.909	87.88
297.14	93.88
297.37	103.88
297.601	97.88
297.831	78.88
298.062	79.88
298.292	84.88
298.523	82.88
298.753	74.88
298.984	78.88
299.214	80.88
299.445	95.88
299.675	81.88
299.905	71.88
300.136	76.88
300.366	83.88
300.597	86.88
300.827	73.88
301.057	75.88
301.288	88.88
301.518	90.88
301.748	84.88
301.979	88.88
302.209	75.88
302.439	67.88
302.669	75.88
302.9	95.88
303.13	94.88
303.36	81.88
303.59	82.88
303.82	81.88
304.051	86.88
304.281	87.88
304.511	88.88
304.741	86.88
304.971	77.88
305.201	72.88
305.431	85.88
305.661	84.88
305.891	90.88
306.121	89.88
306.352	91.88
306.582	75.88
306.812	74.88
307.042	95.88
307.272	84.88
307.502	78.88
307.731	96.88
307.961	89.88
308.191	82.88
308.421	72.88
308.651	94.88
308.881	86.88
309.111	89.88
309.341	85.88
309.571	86.88
309.8	92.88
310.03	76.88
310.26	84.88
310.49	78.88
310.72	77.88
310.949	84.88
311.179	87.88
311.409	82.88
311.639	87.88
311.868	94.88
312.098	89.88
312.328	95.88
312.557	81.88
312.787	88.88
313.017	96.88
313.246	78.88
313.476	77.88
313.706	92.88
313.935	67.88
314.165	96.88
314.394	79.88
314.624	84.88
314.853	90.88
315.083	74.88
315.312	74.88
315.542	82.88
315.771	81.88
316.001	84.88
316.23	76.88
316.46	69.88
316.689	83.88
316.919	83.88
317.148	85.88
317.377	88.88
317.607	87.88
317.836	71.88
318.065	79.88
318.295	79.88
318.524	73.88
318.753	79.88
318.983	72.88
319.212	82.88
319.441	100.88
319.67	94.88
319.9	81.88
320.129	94.88
320.358	65.88
320.587	77.88
320.816	90.88
321.046	87.88
321.275	80.88
321.504	84.88
321.733	78.88
321.962	75.88
322.191	73.88
322.42	85.88
322.649	83.88
322.878	79.88
323.108	85.88
323.337	77.88
323.566	68.88
323.795	80.88
324.024	79.88
324.253	85.88
324.482	86.88
324.71	88.88
324.939	69.88
325.168	77.88
325.397	73.88
325.626	78.88
325.855	76.88
326.084	75.88
326.313	93.88
326.542	78.88
326.77	88.88
326.999	70.88
327.228	73.88
327.457	79.88
327.686	84.88
327.914	87.88
328.143	85.88
328.372	80.88
328.6	95.88
328.829	76.88
329.058	89.88
329.287	89.88
329.515	80.88
329.744	82.88
329.972	78.88
330.201	72.88
330.43	73.88
330.658	96.88
330.887	75.88
331.115	81.88
331.344	84.88
331.572	74.88
331.801	88.88
332.03	82.88
332.258	78.88
332.486	76.88
332.715	65.88
332.943	82.88
333.172	76.88
333.4	75.88
333.629	70.88
333.857	92.88
334.085	85.88
334.314	84.88
334.542	81.88
334.771	80.88
334.999	80.88
335.227	70.88
335.455	67.88
335.684	105.88
335.912	89.88
336.14	77.88
336.369	65.88
336.597	85.88
336.825	82.88
337.053	92.88
337.281	86.88
337.51	86.88
337.738	82.88
337.966	89.88
338.194	85.88
338.422	81.88
338.65	89.88
338.878	77.88
339.106	85.88
339.334	76.88
339.562	94.88
339.79	87.88
340.018	66.88
340.246	80.88
340.474	73.88
340.702	81.88
340.93	89.88
341.158	90.88
341.386	85.88
341.614	76.88
341.842	79.88
342.07	83.88
342.298	77.88
342.526	86.88
342.754	83.88
342.981	79.88
343.209	78.88
343.437	80.88
343.665	67.88
343.893	85.88
344.12	74.88
344.348	85.88
344.576	81.88
344.804	68.88
345.031	76.88
345.259	71.88
345.487	79.88
345.714	73.88
345.942	71.88
346.17	85.88
346.397	80.88
346.625	78.88
346.853	83.88
347.08	69.88
347.308	95.88
347.535	84.88
347.763	80.88
347.99	78.88
348.218	93.88
348.445	78.88
348.673	88.88
348.9	94.88
349.128	89.88
349.355	85.88
349.583	90.88
349.81	89.88
350.037	85.88
350.265	81.88
350.492	92.88
350.72	79.88
350.947	91.88
351.174	103.88
351.402	88.88
351.629	98.88
351.856	62.88
352.083	77.88
352.311	86.88
352.538	85.88
352.765	90.88
352.992	72.88
353.22	73.88
353.447	70.88
353.674	67.88
353.901	95.88
354.128	88.88
354.355	81.88
354.583	66.88
354.81	82.88
355.037	72.88
355.264	82.88
355.491	93.88
355.718	78.88
355.945	73.88
356.172	89.88
356.399	77.88
356.626	77.88
356.853	94.88
357.08	93.88
357.307	79.88
357.534	82.88
357.761	69.88
357.988	74.88
358.215	81.88
358.441	87.88
358.668	71.88
358.895	85.88
359.122	94.88
359.349	82.88
359.576	86.88
359.802	81.88
360.029	93.88
360.256	82.88
360.483	86.88
360.709	84.88
360.936	74.88
361.163	84.88
361.39	78.88
361.616	83.88
361.843	80.88
362.07	86.88
362.296	85.88
362.523	71.88
362.749	87.88
362.976	77.88
363.203	75.88
363.429	82.88
363.656	85.88
363.882	80.88
364.109	85.88
364.335	76.88
364.562	69.88
364.788	85.88
365.015	79.88
365.241	85.88
365.468	82.88
365.694	76.88
365.92	79.88
366.147	80.88
366.373	77.88
366.599	77.88
366.826	94.88
367.052	77.88
367.278	72.88
367.505	83.88
367.731	89.88
367.957	80.88
368.184	88.88
368.41	69.88
368.636	91.88
368.862	95.88
369.089	85.88
369.315	80.88
369.541	77.88
369.767	88.88
369.993	80.88
370.219	81.88
370.445	94.88
370.672	80.88
370.898	83.88
371.124	99.88
371.35	66.88
371.576	75.88
371.802	89.88
372.028	84.88
372.254	66.88
372.48	68.88
372.706	77.88
372.932	89.88
373.158	81.88
373.384	92.88
373.61	90.88
373.835	93.88
374.061	76.88
374.287	73.88
374.513	70.88
374.739	95.88
374.965	94.88
375.191	82.88
375.416	77.88
375.642	92.88
375.868	87.88
376.094	81.88
376.319	86.88
376.545	86.88
376.771	86.88
376.997	89.88
377.222	78.88
377.448	90.88
377.674	99.88
377.899	77.88
378.125	75.88
378.35	80.88
378.576	87.88
378.802	81.88
379.027	81.88
379.253	78.88
379.478	89.88
379.704	73.88
379.929	88.88
380.155	85.88
380.38	87.88
380.606	90.88
380.831	84.88
381.057	88.88
381.282	81.88
381.507	74.88
381.733	71.88
381.958	85.88
382.184	74.88
382.409	79.88
382.634	91.88
382.86	76.88
383.085	68.88
383.31	76.88
383.535	84.88
383.761	94.88
383.986	90.88
384.211	76.88
384.436	101.88
384.662	93.88
384.887	87.88
385.112	82.88
385.337	73.88
385.562	79.88
385.787	86.88
386.013	86.88
386.238	81.88
386.463	72.88
386.688	92.88
386.913	72.88
387.138	81.88
387.363	91.88
387.588	81.88
387.813	91.88
388.038	81.88
388.263	89.88
388.488	82.88
388.713	81.88
388.938	80.88
389.163	90.88
389.387	80.88
389.612	79.88
389.837	86.88
390.062	103.88
390.287	86.88
390.512	86.88
390.736	72.88
390.961	94.88
391.186	96.88
391.411	79.88
391.636	91.88
391.86	89.88
392.085	91.88
392.31	80.88
392.534	69.88
392.759	74.88
392.984	107.88
393.208	95.88
393.433	100.88
393.658	86.88
393.882	64.88
394.107	86.88
394.331	92.88
394.556	84.88
394.78	79.88
395.005	72.88
395.229	76.88
395.454	84.88
395.678	74.88
395.903	81.88
396.127	96.88
396.352	86.88
396.576	81.88
396.801	79.88
397.025	82.88
397.249	84.88
397.474	79.88
397.698	84.88
397.922	85.88
398.147	89.88
398.371	80.88
398.595	80.88
398.82	83.88
399.044	75.88
399.268	82.88
399.492	83.88
399.717	78.88
399.941	82.88
400.165	95.88
400.389	92.88
400.613	87.88
400.837	92.88
401.062	82.88
401.286	65.88
401.51	96.88
401.734	88.88
401.958	73.88
402.182	83.88
402.406	84.88
402.63	73.88
402.854	85.88
403.078	100.88
403.302	93.88
403.526	82.88
403.75	83.88
403.974	94.88
404.198	81.88
404.422	96.88
404.645	97.88
404.869	89.88
405.093	72.88
405.317	102.88
405.541	87.88
405.765	78.88
405.988	92.88
406.212	86.88
406.436	87.88
406.66	88.88
406.883	88.88
407.107	92.88
407.331	89.88
407.555	84.88
407.778	80.88
408.002	80.88
408.226	92.88
408.449	85.88
408.673	96.88
408.896	92.88
409.12	93.88
409.344	77.88
409.567	77.88
409.791	88.88
410.014	92.88
410.238	89.88
410.461	92.88
410.685	81.88
410.908	96.88
411.132	88.88
411.355	86.88
411.578	102.88
411.802	95.88
412.025	78.88
412.249	80.88
412.472	81.88
412.695	76.88
412.919	89.88
413.142	81.88
413.365	93.88
413.589	84.88
413.812	94.88
414.035	80.88
414.258	80.88
414.482	79.88
414.705	85.88
414.928	100.88
415.151	81.88
415.374	84.88
415.597	91.88
415.821	91.88
416.044	85.88
416.267	101.88
416.49	90.88
416.713	94.88
416.936	84.88
417.159	92.88
417.382	85.88
417.605	78.88
417.828	102.88
418.051	92.88
418.274	99.88
418.497	88.88
418.72	79.88
418.943	88.88
419.166	88.88
419.389	90.88
419.611	89.88
419.834	97.88
420.057	98.88
420.28	90.88
420.503	90.88
420.726	87.88
420.948	88.88
421.171	91.88
421.394	86.88
421.617	85.88
421.839	85.88
422.062	95.88
422.285	98.88
422.507	79.88
422.73	89.88
422.953	85.88
423.175	80.88
423.398	75.88
423.621	84.88
423.843	75.88
424.066	96.88
424.288	91.88
424.511	114.88
424.733	90.88
424.956	94.88
425.178	80.88
425.401	97.88
425.623	85.88
425.846	90.88
426.068	73.88
426.291	94.88
426.513	93.88
426.735	101.88
426.958	95.88
427.18	80.88
427.402	91.88
427.625	91.88
427.847	92.88
428.069	70.88
428.292	85.88
428.514	92.88
428.736	96.88
428.958	96.88
429.181	95.88
429.403	97.88
429.625	85.88
429.847	95.88
430.069	94.88
430.292	97.88
430.514	93.88
430.736	86.88
430.958	94.88
431.18	86.88
431.402	96.88
431.624	100.88
431.846	82.88
432.068	77.88
432.29	84.88
432.512	81.88
432.734	89.88
432.956	83.88
433.178	94.88
433.4	85.88
433.622	75.88
433.844	86.88
434.066	96.88
434.287	88.88
434.509	70.88
434.731	80.88
434.953	80.88
435.175	86.88
435.397	82.88
435.618	88.88
435.84	88.88
436.062	89.88
436.284	85.88
436.505	99.88
436.727	89.88
436.949	84.88
437.17	85.88
437.392	78.88
437.614	99.88
437.835	81.88
438.057	87.88
438.278	83.88
438.5	81.88
438.721	93.88
438.943	91.88
439.165	83.88
439.386	95.88
439.608	87.88
439.829	101.88
440.05	95.88
440.272	80.88
440.493	110.88
440.715	88.88
440.936	84.88
441.158	89.88
441.379	93.88
441.6	93.88
441.822	95.88
442.043	93.88
442.264	79.88
442.486	93.88
442.707	92.88
442.928	105.88
443.149	73.88
443.371	105.88
443.592	110.88
443.813	80.88
444.034	89.88
444.255	96.88
444.476	83.88
444.698	100.88
444.919	84.88
445.14	184.88
445.361	138.88
445.582	101.88
445.803	92.88
446.024	85.88
446.245	91.88
446.466	106.88
446.687	115.88
446.908	87.88
447.129	87.88
447.35	74.88
447.571	87.88
447.792	83.88
448.013	89.88
448.234	101.88
448.455	96.88
448.675	102.88
448.896	106.88
449.117	91.88
449.338	94.88
449.559	109.88
449.779	85.88
450	90.88
450.221	106.88
450.442	102.88
450.662	89.88
450.883	101.88
451.104	100.88
451.324	91.88
451.545	88.88
451.766	86.88
451.986	92.88
452.207	84.88
452.428	92.88
452.648	88.88
452.869	76.88
453.089	86.88
453.31	75.88
453.53	87.88
453.751	85.88
453.971	87.88
454.192	73.88
454.412	81.88
454.633	77.88
454.853	67.88
455.073	89.88
455.294	88.88
455.514	96.88
455.734	92.88
455.955	90.88
456.175	91.88
456.395	77.88
456.616	77.88
456.836	91.88
457.056	87.88
457.276	74.88
457.497	72.88
457.717	90.88
457.937	99.88
458.157	94.88
458.377	67.88
458.598	90.88
458.818	88.88
459.038	75.88
459.258	81.88
459.478	76.88
459.698	85.88
459.918	82.88
460.138	100.88
460.358	72.88
460.578	74.88
460.798	83.88
461.018	95.88
461.238	70.88
461.458	71.88
461.678	84.88
461.898	84.88
462.118	88.88
462.338	94.88
462.558	90.88
462.777	89.88
462.997	80.88
463.217	96.88
463.437	85.88
463.657	88.88
463.876	80.88
464.096	68.88
464.316	74.88
464.536	83.88
464.755	77.88
464.975	79.88
465.195	81.88
465.414	86.88
465.634	100.88
465.854	99.88
466.073	92.88
466.293	79.88
466.512	85.88
466.732	97.88
466.951	91.88
467.171	90.88
467.391	73.88
467.61	92.88
467.829	97.88
468.049	94.88
468.268	94.88
468.488	104.88
468.707	102.88
468.927	79.88
469.146	96.88
469.365	86.88
469.585	86.88
469.804	74.88
470.023	88.88
470.243	99.88
470.462	94.88
470.681	89.88
470.901	95.88
471.12	75.88
471.339	84.88
471.558	81.88
471.777	97.88
471.997	101.88
472.216	94.88
472.435	94.88
472.654	77.88
472.873	88.88
473.092	91.88
473.311	82.88
473.53	73.88
473.749	93.88
473.968	100.88
474.187	89.88
474.406	80.88
474.625	85.88
474.844	79.88
475.063	88.88
475.282	83.88
475.501	84.88
475.72	99.88
475.939	93.88
476.158	93.88
476.377	85.88
476.596	93.88
476.814	89.88
477.033	77.88
477.252	91.88
477.471	82.88
477.69	107.88
477.908	92.88
478.127	88.88
478.346	79.88
478.564	91.88
478.783	99.88
479.002	89.88
479.22	89.88
479.439	85.88
479.658	80.88
479.876	89.88
480.095	68.88
480.313	88.88
480.532	99.88
480.751	88.88
480.969	84.88
481.188	96.88
481.406	87.88
481.624	90.88
481.843	84.88
482.061	78.88
482.28	77.88
482.498	89.88
482.717	96.88
482.935	90.88
483.153	87.88
483.372	111.88
483.59	96.88
483.808	102.88
484.027	87.88
484.245	89.88
484.463	83.88
484.681	104.88
484.9	104.88
485.118	100.88
485.336	86.88
485.554	94.88
485.772	88.88
485.99	84.88
486.209	83.88
486.427	81.88
486.645	89.88
486.863	81.88
487.081	91.88
487.299	94.88
487.517	94.88
487.735	105.88
487.953	116.88
488.171	115.88
488.389	97.88
488.607	98.88
488.825	84.88
489.043	90.88
489.261	93.88
489.479	90.88
489.696	97.88
489.914	97.88
490.132	88.88
490.35	103.88
490.568	110.88
490.786	99.88
491.003	114.88
491.221	103.88
491.439	101.88
491.657	104.88
491.874	119.88
492.092	121.88
492.31	133.88
492.527	112.88
492.745	113.88
492.963	110.88
493.18	115.88
493.398	119.88
493.615	108.88
493.833	99.88
494.05	109.88
494.268	94.88
494.485	110.88
494.703	109.88
494.92	112.88
495.138	98.88
495.355	96.88
495.573	97.88
495.79	110.88
496.008	118.88
496.225	112.88
496.442	119.88
496.66	125.88
496.877	93.88
497.094	108.88
497.312	107.88
497.529	89.88
497.746	106.88
497.963	97.88
498.181	88.88
498.398	95.88
498.615	83.88
498.832	84.88
499.049	92.88
499.267	90.88
499.484	90.88
499.701	99.88
499.918	95.88
500.135	93.88
500.352	101.88
500.569	88.88
500.786	95.88
501.003	112.88
501.22	98.88
501.437	90.88
501.654	84.88
501.871	83.88
502.088	95.88
502.305	94.88
502.522	89.88
502.739	99.88
502.956	85.88
503.172	93.88
503.389	81.88
503.606	86.88
503.823	87.88
504.04	89.88
504.256	79.88
504.473	95.88
504.69	78.88
504.907	101.88
505.123	99.88
505.34	90.88
505.557	101.88
505.773	102.88
505.99	85.88
506.207	77.88
506.423	73.88
506.64	89.88
506.856	81.88
507.073	96.88
507.289	102.88
507.506	85.88
507.722	85.88
507.939	93.88
508.155	89.88
508.372	94.88
508.588	81.88
508.805	89.88
509.021	83.88
509.238	89.88
509.454	80.88
509.67	84.88
509.887	75.88
510.103	85.88
510.319	85.88
510.536	74.88
510.752	80.88
510.968	76.88
511.184	74.88
511.401	70.88
511.617	86.88
511.833	66.88
512.049	98.88
512.265	86.88
512.481	84.88
512.698	82.88
512.914	75.88
513.13	80.88
513.346	85.88
513.562	74.88
513.778	82.88
513.994	70.88
514.21	71.88
514.426	78.88
514.642	93.88
514.858	78.88
515.074	73.88
515.29	92.88
515.506	91.88
515.721	88.88
515.937	73.88
516.153	64.88
516.369	79.88
516.585	93.88
516.801	94.88
517.016	94.88
517.232	88.88
517.448	93.88
517.664	101.88
517.879	95.88
518.095	81.88
518.311	79.88
518.527	89.88
518.742	87.88
518.958	76.88
519.173	76.88
519.389	88.88
519.605	88.88
519.82	93.88
520.036	79.88
520.251	86.88
520.467	93.88
520.682	97.88
520.898	88.88
521.113	73.88
521.329	76.88
521.544	90.88
521.76	69.88
521.975	87.88
522.19	92.88
522.406	79.88
522.621	92.88
522.836	95.88
523.052	88.88
523.267	94.88
523.482	82.88
523.698	82.88
523.913	80.88
524.128	91.88
524.343	93.88
524.559	97.88
524.774	81.88
524.989	87.88
525.204	98.88
525.419	90.88
525.634	94.88
525.849	81.88
526.064	78.88
526.28	87.88
526.495	81.88
526.71	76.88
526.925	68.88
527.14	78.88
527.355	84.88
527.57	82.88
527.785	82.88
527.999	83.88
528.214	72.88
528.429	85.88
528.644	81.88
528.859	100.88
529.074	108.88
529.289	108.88
529.503	99.88
529.718	75.88
529.933	91.88
530.148	90.88
530.363	84.88
530.577	89.88
530.792	82.88
531.007	74.88
531.221	81.88
531.436	88.88
531.651	92.88
531.865	78.88
532.08	81.88
532.295	85.88
532.509	79.88
532.724	91.88
532.938	87.88
533.153	97.88
533.367	82.88
533.582	96.88
533.796	84.88
534.011	96.88
534.225	86.88
534.44	83.88
534.654	88.88
534.868	73.88
535.083	81.88
535.297	98.88
535.511	95.88
535.726	88.88
535.94	97.88
536.154	82.88
536.369	72.88
536.583	84.88
536.797	81.88
537.011	83.88
537.225	82.88
537.44	93.88
537.654	87.88
537.868	81.88
538.082	87.88
538.296	79.88
538.51	95.88
538.724	92.88
538.938	93.88
539.153	106.88
539.367	97.88
539.581	87.88
539.795	94.88
540.009	94.88
540.222	88.88
540.436	97.88
540.65	82.88
540.864	96.88
541.078	89.88
541.292	96.88
541.506	103.88
541.72	118.88
541.934	111.88
542.147	93.88
542.361	101.88
542.575	100.88
542.789	96.88
543.002	93.88
543.216	82.88
543.43	87.88
543.644	91.88
543.857	89.88
544.071	108.88
544.285	113.88
544.498	94.88
544.712	101.88
544.925	95.88
545.139	106.88
545.352	100.88
545.566	115.88
545.779	102.88
545.993	110.88
546.206	95.88
546.42	105.88
546.633	111.88
546.847	122.88
547.06	102.88
547.274	112.88
547.487	97.88
547.7	112.88
547.914	102.88
548.127	93.88
548.34	90.88
548.554	99.88
548.767	87.88
548.98	105.88
549.193	92.88
549.407	108.88
549.62	99.88
549.833	110.88
550.046	86.88
550.259	100.88
550.473	112.88
550.686	99.88
550.899	94.88
551.112	96.88
551.325	102.88
551.538	103.88
551.751	90.88
551.964	87.88
552.177	109.88
552.39	104.88
552.603	110.88
552.816	89.88
553.029	98.88
553.242	89.88
553.455	99.88
553.667	99.88
553.88	103.88
554.093	93.88
554.306	113.88
554.519	109.88
554.732	97.88
554.944	109.88
555.157	108.88
555.37	105.88
555.583	104.88
555.795	100.88
556.008	101.88
556.221	85.88
556.433	92.88
556.646	90.88
556.859	105.88
557.071	96.88
557.284	100.88
557.496	86.88
557.709	98.88
557.921	105.88
558.134	86.88
558.346	93.88
558.559	104.88
558.771	94.88
558.984	89.88
559.196	78.88
559.409	103.88
559.621	95.88
559.833	94.88
560.046	93.88
560.258	79.88
560.47	88.88
560.683	76.88
560.895	98.88
561.107	80.88
561.32	102.88
561.532	97.88
561.744	109.88
561.956	100.88
562.168	96.88
562.381	104.88
562.593	103.88
562.805	99.88
563.017	99.88
563.229	94.88
563.441	96.88
563.653	105.88
563.865	78.88
564.077	87.88
564.289	93.88
564.501	93.88
564.713	95.88
564.925	84.88
565.137	85.88
565.349	86.88
565.561	86.88
565.773	85.88
565.985	103.88
566.197	89.88
566.408	94.88
566.62	86.88
566.832	95.88
567.044	100.88
567.255	87.88
567.467	116.88
567.679	95.88
567.891	83.88
568.102	84.88
568.314	85.88
568.526	89.88
568.737	87.88
568.949	92.88
569.161	85.88
569.372	84.88
569.584	84.88
569.795	90.88
570.007	88.88
570.218	77.88
570.43	86.88
570.641	88.88
570.853	87.88
571.064	85.88
571.276	81.88
571.487	89.88
571.698	94.88
571.91	79.88
572.121	97.88
572.333	74.88
572.544	82.88
572.755	95.88
572.966	90.88
573.178	75.88
573.389	82.88
573.6	74.88
573.811	67.88
574.023	94.88
574.234	81.88
574.445	80.88
574.656	85.88
574.867	81.88
575.078	80.88
575.289	90.88
575.501	86.88
575.712	89.88
575.923	93.88
576.134	84.88
576.345	83.88
576.556	96.88
576.767	86.88
576.978	103.88
577.188	84.88
577.399	88.88
577.61	87.88
577.821	81.88
578.032	84.88
578.243	94.88
578.454	82.88
578.665	83.88
578.875	80.88
579.086	70.88
579.297	80.88
579.508	76.88
579.718	81.88
579.929	86.88
580.14	83.88
580.35	74.88
580.561	88.88
580.772	76.88
580.982	81.88
581.193	87.88
581.403	85.88
581.614	98.88
581.825	83.88
582.035	80.88
582.246	83.88
582.456	83.88
582.667	85.88
582.877	86.88
583.087	73.88
583.298	88.88
583.508	84.88
583.719	80.88
583.929	66.88
584.139	82.88
584.35	88.88
584.56	73.88
584.77	78.88
584.981	61.88
585.191	97.88
585.401	92.88
585.611	88.88
585.821	70.88
586.032	84.88
586.242	83.88
586.452	74.88
586.662	90.88
586.872	90.88
587.082	80.88
587.292	80.88
587.502	75.88
587.713	79.88
587.923	92.88
588.133	77.88
588.343	87.88
588.553	93.88
588.762	87.88
588.972	81.88
589.182	82.88
589.392	84.88
589.602	84.88
589.812	83.88
590.022	90.88
590.232	84.88
590.441	81.88
590.651	79.88
590.861	87.88
591.071	81.88
591.281	74.88
591.49	85.88
591.7	77.88
591.91	82.88
592.119	81.88
592.329	88.88
592.539	83.88
592.748	68.88
592.958	86.88
593.167	78.88
593.377	93.88
593.587	90.88
593.796	88.88
594.006	79.88
594.215	80.88
594.424	80.88
594.634	90.88
594.843	82.88
595.053	96.88
595.262	85.88
595.472	67.88
595.681	80.88
595.89	84.88
596.1	90.88
596.309	96.88
596.518	95.88
596.727	89.88
596.937	95.88
597.146	74.88
597.355	86.88
597.564	82.88
597.774	89.88
597.983	87.88
598.192	87.88
598.401	82.88
598.61	90.88
598.819	84.88
599.028	87.88
599.237	88.88
599.446	94.88
599.655	81.88
599.864	85.88
600.073	92.88
600.282	88.88
600.491	91.88
600.7	87.88
600.909	84.88
601.118	76.88
601.327	76.88
601.536	78.88
601.745	75.88
601.953	86.88
602.162	78.88
602.371	90.88
602.58	82.88
602.789	90.88
602.997	91.88
603.206	87.88
603.415	93.88
603.623	89.88
603.832	95.88
604.041	93.88
604.249	78.88
604.458	80.88
604.666	94.88
604.875	68.88
605.084	89.88
605.292	102.88
605.501	101.88
605.709	94.88
605.918	89.88
606.126	96.88
606.334	103.88
606.543	100.88
606.751	81.88
606.96	81.88
607.168	89.88
607.376	93.88
607.585	92.88
607.793	96.88
608.001	90.88
608.21	97.88
608.418	85.88
608.626	92.88
608.834	89.88
609.043	90.88
609.251	93.88
609.459	83.88
609.667	96.88
609.875	96.88
610.083	102.88
610.291	78.88
610.499	95.88
610.707	71.88
610.916	85.88
611.124	90.88
611.332	90.88
611.54	97.88
611.748	82.88
611.955	97.88
612.163	95.88
612.371	96.88
612.579	90.88
612.787	93.88
612.995	95.88
613.203	93.88
613.411	84.88
613.618	82.88
613.826	82.88
614.034	100.88
614.242	89.88
614.449	98.88
614.657	94.88
614.865	101.88
615.072	95.88
615.28	93.88
615.488	109.88
615.695	80.88
615.903	85.88
616.111	87.88
616.318	92.88
616.526	81.88
616.733	102.88
616.941	93.88
617.148	92.88
617.356	96.88
617.563	84.88
617.771	86.88
617.978	90.88
618.185	88.88
618.393	79.88
618.6	93.88
618.807	89.88
619.015	94.88
619.222	82.88
619.429	77.88
619.637	89.88
619.844	96.88
620.051	92.88
620.258	81.88
620.466	84.88
620.673	82.88
620.88	86.88
621.087	75.88
621.294	93.88
621.501	97.88
621.708	80.88
621.915	81.88
622.122	81.88
622.329	80.88
622.536	93.88
622.743	90.88
622.95	91.88
623.157	84.88
623.364	82.88
623.571	96.88
623.778	103.88
623.985	92.88
624.192	81.88
624.399	91.88
624.606	104.88
624.812	88.88
625.019	73.88
625.226	82.88
625.433	89.88
625.639	96.88
625.846	64.88
626.053	88.88
626.259	77.88
626.466	76.88
626.673	79.88
626.879	95.88
627.086	88.88
627.293	77.88
627.499	99.88
627.706	86.88
627.912	82.88
628.119	89.88
628.325	86.88
628.532	97.88
628.738	97.88
628.945	96.88
629.151	86.88
629.357	83.88
629.564	92.88
629.77	86.88
629.976	102.88
630.183	70.88
630.389	78.88
630.595	80.88
630.802	80.88
631.008	85.88
631.214	90.88
631.42	86.88
631.627	99.88
631.833	66.88
632.039	85.88
632.245	71.88
632.451	86.88
632.657	89.88
632.863	80.88
633.069	78.88
633.275	89.88
633.481	89.88
633.688	80.88
633.893	80.88
634.099	84.88
634.305	85.88
634.511	84.88
634.717	86.88
634.923	86.88
635.129	79.88
635.335	80.88
635.541	92.88
635.747	72.88
635.952	97.88
636.158	91.88
636.364	84.88
636.57	96.88
636.775	86.88
636.981	85.88
637.187	80.88
637.392	94.88
637.598	85.88
637.804	103.88
638.009	82.88
638.215	84.88
638.421	77.88
638.626	80.88
638.832	82.88
639.037	91.88
639.243	84.88
639.448	82.88
639.654	83.88
639.859	99.88
640.065	72.88
640.27	87.88
640.475	87.88
640.681	81.88
640.886	78.88
641.091	78.88
641.297	99.88
641.502	84.88
641.707	73.88
641.913	85.88
642.118	76.88
642.323	90.88
642.528	92.88
642.733	84.88
642.939	91.88
643.144	80.88
643.349	88.88
643.554	88.88
643.759	82.88
643.964	86.88
644.169	83.88
644.374	79.88
644.579	70.88
644.784	84.88
644.989	82.88
645.194	91.88
645.399	89.88
645.604	87.88
645.809	96.88
646.014	73.88
646.219	101.88
646.423	87.88
646.628	85.88
646.833	77.88
647.038	85.88
647.243	97.88
647.447	97.88
647.652	88.88
647.857	87.88
648.062	83.88
648.266	82.88
648.471	84.88
648.676	76.88
648.88	90.88
649.085	65.88
649.289	89.88
649.494	93.88
649.698	90.88
649.903	95.88
650.107	77.88
650.312	78.88
650.516	89.88
650.721	84.88
650.925	91.88
651.13	86.88
651.334	83.88
651.539	104.88
651.743	84.88
651.947	80.88
652.152	82.88
652.356	78.88
652.56	79.88
652.764	89.88
652.969	81.88
653.173	84.88
653.377	85.88
653.581	82.88
653.785	81.88
653.99	89.88
654.194	82.88
654.398	85.88
654.602	76.88
654.806	85.88
655.01	87.88
655.214	82.88
655.418	82.88
655.622	95.88
655.826	86.88
656.03	80.88
656.234	78.88
656.438	82.88
656.642	85.88
656.846	96.88
657.049	88.88
657.253	76.88
657.457	69.88
657.661	84.88
657.865	73.88
658.068	74.88
658.272	86.88
658.476	77.88
658.68	89.88
658.883	78.88
659.087	96.88
659.291	66.88
659.494	76.88
659.698	69.88
659.901	76.88
660.105	82.88
660.309	85.88
660.512	84.88
660.716	95.88
660.919	89.88
661.123	85.88
661.326	84.88
661.53	83.88
661.733	85.88
661.936	102.88
662.14	77.88
662.343	74.88
662.546	83.88
662.75	71.88
662.953	86.88
663.156	77.88
663.36	75.88
663.563	87.88
663.766	78.88
663.969	81.88
664.173	88.88
664.376	77.88
664.579	71.88
664.782	70.88
664.985	80.88
665.188	90.88
665.391	78.88
665.594	76.88
665.797	87.88
666	81.88
666.203	73.88
666.406	78.88
666.609	74.88
666.812	74.88
667.015	76.88
667.218	72.88
667.421	91.88
667.624	83.88
667.827	70.88
668.03	83.88
668.232	84.88
668.435	84.88
668.638	78.88
668.841	89.88
669.043	56.88
669.246	83.88
669.449	86.88
669.651	92.88
669.854	76.88
670.057	75.88
670.259	82.88
670.462	71.88
670.665	69.88
670.867	89.88
671.07	83.88
671.272	85.88
671.475	80.88
671.677	78.88
671.88	73.88
672.082	91.88
672.284	76.88
672.487	74.88
672.689	67.88
672.892	76.88
