Data from Location5.07152019.Energy5.Lamp.07192019.3%Agarose_HRD10591_16-03-18-628.txt Node
Date: Fri Jul 19 16:03:18 EDT 2019
User: cochatt
Spectrometer: HR+D1059
Trigger mode: 1
Integration Time (sec): 1.000000E-1
Scans to average: 1
Electric dark correction enabled: true
Nonlinearity correction enabled: false
Boxcar width: 0
XAxis mode: Wavelengths
Number of Pixels in Spectrum: 2048
>>>>>Begin Spectral Data<<<<<
223.165	-12.62
223.4	-12.62
223.635	-12.62
223.869	-21.62
224.104	-20.62
224.338	-10.62
224.573	-12.62
224.808	-18.62
225.042	-10.62
225.277	2.38
225.511	8.38
225.746	-6.62
225.98	9.38
226.215	13.38
226.449	10.38
226.683	13.38
226.918	27.38
227.152	29.38
227.387	32.38
227.621	38.38
227.856	45.38
228.09	47.38
228.324	51.38
228.559	52.38
228.793	51.38
229.027	61.38
229.262	63.38
229.496	68.38
229.73	78.38
229.964	69.38
230.199	82.38
230.433	81.38
230.667	82.38
230.901	68.38
231.136	73.38
231.37	89.38
231.604	72.38
231.838	85.38
232.072	91.38
232.306	85.38
232.541	92.38
232.775	91.38
233.009	89.38
233.243	88.38
233.477	72.38
233.711	75.38
233.945	66.38
234.179	80.38
234.413	75.38
234.647	88.38
234.881	89.38
235.115	80.38
235.349	82.38
235.583	82.38
235.817	81.38
236.051	81.38
236.285	88.38
236.519	78.38
236.753	70.38
236.987	71.38
237.221	83.38
237.455	76.38
237.689	86.38
237.922	82.38
238.156	88.38
238.39	74.38
238.624	86.38
238.858	81.38
239.091	72.38
239.325	85.38
239.559	80.38
239.793	72.38
240.027	69.38
240.26	88.38
240.494	79.38
240.728	81.38
240.961	82.38
241.195	71.38
241.429	72.38
241.662	84.38
241.896	75.38
242.13	89.38
242.363	67.38
242.597	83.38
242.83	90.38
243.064	82.38
243.298	87.38
243.531	79.38
243.765	85.38
243.998	83.38
244.232	89.38
244.465	82.38
244.699	84.38
244.932	96.38
245.166	81.38
245.399	95.38
245.633	85.38
245.866	96.38
246.099	73.38
246.333	89.38
246.566	85.38
246.8	87.38
247.033	79.38
247.266	83.38
247.5	82.38
247.733	78.38
247.966	74.38
248.2	74.38
248.433	81.38
248.666	72.38
248.899	74.38
249.133	93.38
249.366	80.38
249.599	84.38
249.832	91.38
250.066	85.38
250.299	78.38
250.532	66.38
250.765	95.38
250.998	80.38
251.231	85.38
251.465	89.38
251.698	84.38
251.931	79.38
252.164	77.38
252.397	86.38
252.63	91.38
252.863	80.38
253.096	87.38
253.329	87.38
253.562	70.38
253.795	89.38
254.028	83.38
254.261	71.38
254.494	79.38
254.727	92.38
254.96	91.38
255.193	71.38
255.426	84.38
255.659	76.38
255.892	80.38
256.124	86.38
256.357	87.38
256.59	85.38
256.823	84.38
257.056	79.38
257.289	79.38
257.521	83.38
257.754	84.38
257.987	82.38
258.22	82.38
258.452	82.38
258.685	75.38
258.918	96.38
259.151	77.38
259.383	96.38
259.616	89.38
259.849	75.38
260.081	87.38
260.314	73.38
260.547	73.38
260.779	77.38
261.012	88.38
261.244	85.38
261.477	94.38
261.71	84.38
261.942	88.38
262.175	94.38
262.407	93.38
262.64	106.38
262.872	107.38
263.105	84.38
263.337	96.38
263.57	78.38
263.802	86.38
264.035	84.38
264.267	85.38
264.499	92.38
264.732	79.38
264.964	80.38
265.197	93.38
265.429	82.38
265.661	95.38
265.894	86.38
266.126	93.38
266.358	84.38
266.591	91.38
266.823	96.38
267.055	89.38
267.287	93.38
267.52	76.38
267.752	83.38
267.984	83.38
268.216	75.38
268.448	88.38
268.681	101.38
268.913	81.38
269.145	103.38
269.377	82.38
269.609	90.38
269.841	97.38
270.073	89.38
270.306	85.38
270.538	90.38
270.77	87.38
271.002	95.38
271.234	93.38
271.466	94.38
271.698	95.38
271.93	88.38
272.162	87.38
272.394	90.38
272.626	76.38
272.858	90.38
273.09	88.38
273.322	80.38
273.553	83.38
273.785	90.38
274.017	81.38
274.249	86.38
274.481	93.38
274.713	115.38
274.945	95.38
275.176	90.38
275.408	75.38
275.64	82.38
275.872	83.38
276.104	100.38
276.335	111.38
276.567	102.38
276.799	107.38
277.031	91.38
277.262	100.38
277.494	79.38
277.726	83.38
277.957	92.38
278.189	93.38
278.421	91.38
278.652	89.38
278.884	96.38
279.115	99.38
279.347	93.38
279.579	88.38
279.81	85.38
280.042	99.38
280.273	91.38
280.505	99.38
280.736	95.38
280.968	87.38
281.199	107.38
281.431	86.38
281.662	94.38
281.894	74.38
282.125	79.38
282.356	95.38
282.588	75.38
282.819	89.38
283.051	103.38
283.282	73.38
283.513	77.38
283.745	81.38
283.976	99.38
284.207	85.38
284.439	88.38
284.67	97.38
284.901	90.38
285.132	94.38
285.364	83.38
285.595	104.38
285.826	88.38
286.057	89.38
286.288	83.38
286.52	90.38
286.751	76.38
286.982	88.38
287.213	94.38
287.444	86.38
287.675	97.38
287.906	91.38
288.138	96.38
288.369	90.38
288.6	86.38
288.831	86.38
289.062	92.38
289.293	103.38
289.524	84.38
289.755	82.38
289.986	74.38
290.217	98.38
290.448	101.38
290.679	104.38
290.91	97.38
291.141	84.38
291.371	98.38
291.602	81.38
291.833	78.38
292.064	84.38
292.295	87.38
292.526	88.38
292.757	88.38
292.987	91.38
293.218	92.38
293.449	104.38
293.68	96.38
293.91	95.38
294.141	103.38
294.372	95.38
294.603	90.38
294.833	82.38
295.064	99.38
295.295	95.38
295.525	87.38
295.756	91.38
295.987	79.38
296.217	95.38
296.448	104.38
296.679	88.38
296.909	97.38
297.14	97.38
297.37	98.38
297.601	96.38
297.831	104.38
298.062	89.38
298.292	111.38
298.523	99.38
298.753	98.38
298.984	98.38
299.214	91.38
299.445	83.38
299.675	89.38
299.905	118.38
300.136	87.38
300.366	90.38
300.597	85.38
300.827	92.38
301.057	98.38
301.288	102.38
301.518	94.38
301.748	87.38
301.979	83.38
302.209	104.38
302.439	100.38
302.669	99.38
302.9	109.38
303.13	85.38
303.36	86.38
303.59	95.38
303.82	99.38
304.051	92.38
304.281	98.38
304.511	95.38
304.741	84.38
304.971	91.38
305.201	83.38
305.431	83.38
305.661	94.38
305.891	108.38
306.121	95.38
306.352	97.38
306.582	86.38
306.812	98.38
307.042	105.38
307.272	90.38
307.502	93.38
307.731	89.38
307.961	88.38
308.191	95.38
308.421	103.38
308.651	105.38
308.881	85.38
309.111	102.38
309.341	95.38
309.571	99.38
309.8	99.38
310.03	92.38
310.26	87.38
310.49	86.38
310.72	101.38
310.949	87.38
311.179	96.38
311.409	87.38
311.639	93.38
311.868	102.38
312.098	102.38
312.328	97.38
312.557	88.38
312.787	93.38
313.017	103.38
313.246	99.38
313.476	97.38
313.706	104.38
313.935	87.38
314.165	99.38
314.394	103.38
314.624	89.38
314.853	100.38
315.083	88.38
315.312	80.38
315.542	104.38
315.771	78.38
316.001	100.38
316.23	90.38
316.46	75.38
316.689	90.38
316.919	96.38
317.148	103.38
317.377	95.38
317.607	104.38
317.836	79.38
318.065	101.38
318.295	100.38
318.524	99.38
318.753	88.38
318.983	72.38
319.212	87.38
319.441	96.38
319.67	99.38
319.9	103.38
320.129	99.38
320.358	85.38
320.587	99.38
320.816	88.38
321.046	91.38
321.275	88.38
321.504	87.38
321.733	83.38
321.962	92.38
322.191	102.38
322.42	103.38
322.649	107.38
322.878	90.38
323.108	97.38
323.337	91.38
323.566	94.38
323.795	100.38
324.024	102.38
324.253	91.38
324.482	93.38
324.71	103.38
324.939	113.38
325.168	93.38
325.397	108.38
325.626	95.38
325.855	85.38
326.084	88.38
326.313	80.38
326.542	106.38
326.77	100.38
326.999	96.38
327.228	95.38
327.457	94.38
327.686	101.38
327.914	91.38
328.143	89.38
328.372	96.38
328.6	106.38
328.829	87.38
329.058	91.38
329.287	95.38
329.515	90.38
329.744	83.38
329.972	89.38
330.201	87.38
330.43	82.38
330.658	94.38
330.887	90.38
331.115	108.38
331.344	98.38
331.572	89.38
331.801	97.38
332.03	107.38
332.258	95.38
332.486	91.38
332.715	92.38
332.943	82.38
333.172	106.38
333.4	112.38
333.629	104.38
333.857	99.38
334.085	93.38
334.314	91.38
334.542	101.38
334.771	103.38
334.999	86.38
335.227	103.38
335.455	102.38
335.684	104.38
335.912	88.38
336.14	112.38
336.369	96.38
336.597	106.38
336.825	89.38
337.053	95.38
337.281	98.38
337.51	81.38
337.738	108.38
337.966	100.38
338.194	82.38
338.422	90.38
338.65	101.38
338.878	86.38
339.106	88.38
339.334	86.38
339.562	87.38
339.79	104.38
340.018	85.38
340.246	101.38
340.474	100.38
340.702	82.38
340.93	105.38
341.158	93.38
341.386	89.38
341.614	92.38
341.842	83.38
342.07	93.38
342.298	93.38
342.526	100.38
342.754	80.38
342.981	100.38
343.209	99.38
343.437	92.38
343.665	101.38
343.893	90.38
344.12	101.38
344.348	112.38
344.576	96.38
344.804	113.38
345.031	105.38
345.259	104.38
345.487	111.38
345.714	90.38
345.942	84.38
346.17	82.38
346.397	92.38
346.625	90.38
346.853	96.38
347.08	92.38
347.308	107.38
347.535	97.38
347.763	102.38
347.99	96.38
348.218	100.38
348.445	90.38
348.673	87.38
348.9	84.38
349.128	77.38
349.355	87.38
349.583	96.38
349.81	93.38
350.037	99.38
350.265	99.38
350.492	83.38
350.72	95.38
350.947	94.38
351.174	99.38
351.402	114.38
351.629	100.38
351.856	92.38
352.083	89.38
352.311	91.38
352.538	85.38
352.765	100.38
352.992	82.38
353.22	95.38
353.447	96.38
353.674	86.38
353.901	100.38
354.128	97.38
354.355	92.38
354.583	85.38
354.81	90.38
355.037	93.38
355.264	91.38
355.491	89.38
355.718	85.38
355.945	90.38
356.172	91.38
356.399	102.38
356.626	92.38
356.853	89.38
357.08	92.38
357.307	99.38
357.534	90.38
357.761	86.38
357.988	100.38
358.215	98.38
358.441	76.38
358.668	98.38
358.895	91.38
359.122	100.38
359.349	93.38
359.576	81.38
359.802	97.38
360.029	94.38
360.256	100.38
360.483	89.38
360.709	82.38
360.936	89.38
361.163	100.38
361.39	87.38
361.616	92.38
361.843	93.38
362.07	80.38
362.296	85.38
362.523	84.38
362.749	92.38
362.976	100.38
363.203	100.38
363.429	86.38
363.656	87.38
363.882	102.38
364.109	103.38
364.335	94.38
364.562	95.38
364.788	99.38
365.015	84.38
365.241	101.38
365.468	103.38
365.694	92.38
365.92	94.38
366.147	85.38
366.373	88.38
366.599	95.38
366.826	91.38
367.052	88.38
367.278	101.38
367.505	99.38
367.731	87.38
367.957	94.38
368.184	103.38
368.41	101.38
368.636	97.38
368.862	83.38
369.089	105.38
369.315	91.38
369.541	86.38
369.767	103.38
369.993	90.38
370.219	78.38
370.445	89.38
370.672	102.38
370.898	90.38
371.124	85.38
371.35	97.38
371.576	103.38
371.802	86.38
372.028	111.38
372.254	89.38
372.48	98.38
372.706	84.38
372.932	88.38
373.158	95.38
373.384	95.38
373.61	95.38
373.835	95.38
374.061	81.38
374.287	87.38
374.513	84.38
374.739	105.38
374.965	97.38
375.191	100.38
375.416	95.38
375.642	89.38
375.868	107.38
376.094	117.38
376.319	89.38
376.545	92.38
376.771	89.38
376.997	88.38
377.222	106.38
377.448	82.38
377.674	87.38
377.899	91.38
378.125	90.38
378.35	80.38
378.576	86.38
378.802	94.38
379.027	98.38
379.253	101.38
379.478	90.38
379.704	82.38
379.929	97.38
380.155	89.38
380.38	88.38
380.606	84.38
380.831	101.38
381.057	86.38
381.282	90.38
381.507	94.38
381.733	91.38
381.958	100.38
382.184	83.38
382.409	98.38
382.634	96.38
382.86	76.38
383.085	93.38
383.31	96.38
383.535	99.38
383.761	88.38
383.986	96.38
384.211	93.38
384.436	84.38
384.662	88.38
384.887	101.38
385.112	90.38
385.337	100.38
385.562	91.38
385.787	101.38
386.013	114.38
386.238	94.38
386.463	94.38
386.688	102.38
386.913	101.38
387.138	91.38
387.363	92.38
387.588	104.38
387.813	86.38
388.038	109.38
388.263	103.38
388.488	89.38
388.713	101.38
388.938	90.38
389.163	108.38
389.387	102.38
389.612	88.38
389.837	92.38
390.062	92.38
390.287	81.38
390.512	98.38
390.736	87.38
390.961	78.38
391.186	94.38
391.411	81.38
391.636	93.38
391.86	105.38
392.085	94.38
392.31	86.38
392.534	95.38
392.759	103.38
392.984	98.38
393.208	90.38
393.433	100.38
393.658	96.38
393.882	93.38
394.107	101.38
394.331	109.38
394.556	103.38
394.78	97.38
395.005	101.38
395.229	86.38
395.454	96.38
395.678	102.38
395.903	107.38
396.127	100.38
396.352	88.38
396.576	106.38
396.801	96.38
397.025	92.38
397.249	108.38
397.474	99.38
397.698	85.38
397.922	98.38
398.147	115.38
398.371	92.38
398.595	102.38
398.82	97.38
399.044	85.38
399.268	122.38
399.492	116.38
399.717	110.38
399.941	113.38
400.165	116.38
400.389	107.38
400.613	97.38
400.837	107.38
401.062	88.38
401.286	100.38
401.51	113.38
401.734	81.38
401.958	103.38
402.182	104.38
402.406	108.38
402.63	97.38
402.854	105.38
403.078	97.38
403.302	97.38
403.526	101.38
403.75	99.38
403.974	114.38
404.198	93.38
404.422	108.38
404.645	95.38
404.869	95.38
405.093	93.38
405.317	103.38
405.541	98.38
405.765	109.38
405.988	102.38
406.212	100.38
406.436	103.38
406.66	96.38
406.883	115.38
407.107	99.38
407.331	113.38
407.555	99.38
407.778	105.38
408.002	119.38
408.226	99.38
408.449	93.38
408.673	102.38
408.896	98.38
409.12	107.38
409.344	112.38
409.567	103.38
409.791	97.38
410.014	113.38
410.238	82.38
410.461	108.38
410.685	103.38
410.908	104.38
411.132	103.38
411.355	107.38
411.578	102.38
411.802	91.38
412.025	101.38
412.249	110.38
412.472	94.38
412.695	92.38
412.919	97.38
413.142	91.38
413.365	115.38
413.589	102.38
413.812	96.38
414.035	97.38
414.258	98.38
414.482	105.38
414.705	104.38
414.928	102.38
415.151	105.38
415.374	96.38
415.597	108.38
415.821	97.38
416.044	95.38
416.267	99.38
416.49	97.38
416.713	87.38
416.936	94.38
417.159	96.38
417.382	104.38
417.605	96.38
417.828	96.38
418.051	91.38
418.274	104.38
418.497	95.38
418.72	104.38
418.943	93.38
419.166	96.38
419.389	101.38
419.611	95.38
419.834	118.38
420.057	97.38
420.28	105.38
420.503	101.38
420.726	90.38
420.948	99.38
421.171	92.38
421.394	93.38
421.617	85.38
421.839	105.38
422.062	88.38
422.285	98.38
422.507	110.38
422.73	106.38
422.953	101.38
423.175	100.38
423.398	106.38
423.621	104.38
423.843	104.38
424.066	88.38
424.288	92.38
424.511	111.38
424.733	104.38
424.956	105.38
425.178	105.38
425.401	101.38
425.623	81.38
425.846	95.38
426.068	89.38
426.291	101.38
426.513	101.38
426.735	96.38
426.958	102.38
427.18	91.38
427.402	97.38
427.625	99.38
427.847	91.38
428.069	80.38
428.292	91.38
428.514	85.38
428.736	93.38
428.958	108.38
429.181	104.38
429.403	99.38
429.625	105.38
429.847	97.38
430.069	102.38
430.292	108.38
430.514	92.38
430.736	96.38
430.958	95.38
431.18	83.38
431.402	102.38
431.624	88.38
431.846	97.38
432.068	96.38
432.29	100.38
432.512	101.38
432.734	93.38
432.956	92.38
433.178	81.38
433.4	113.38
433.622	101.38
433.844	101.38
434.066	105.38
434.287	90.38
434.509	85.38
434.731	106.38
434.953	103.38
435.175	98.38
435.397	105.38
435.618	93.38
435.84	95.38
436.062	95.38
436.284	97.38
436.505	100.38
436.727	105.38
436.949	89.38
437.17	99.38
437.392	98.38
437.614	100.38
437.835	84.38
438.057	95.38
438.278	85.38
438.5	96.38
438.721	102.38
438.943	106.38
439.165	97.38
439.386	93.38
439.608	104.38
439.829	93.38
440.05	102.38
440.272	113.38
440.493	111.38
440.715	89.38
440.936	96.38
441.158	99.38
441.379	85.38
441.6	100.38
441.822	97.38
442.043	111.38
442.264	101.38
442.486	88.38
442.707	89.38
442.928	112.38
443.149	96.38
443.371	107.38
443.592	96.38
443.813	106.38
444.034	99.38
444.255	96.38
444.476	114.38
444.698	107.38
444.919	93.38
445.14	218.38
445.361	151.38
445.582	105.38
445.803	101.38
446.024	99.38
446.245	97.38
446.466	103.38
446.687	90.38
446.908	98.38
447.129	96.38
447.35	85.38
447.571	105.38
447.792	92.38
448.013	93.38
448.234	101.38
448.455	102.38
448.675	115.38
448.896	112.38
449.117	99.38
449.338	94.38
449.559	79.38
449.779	88.38
450	99.38
450.221	88.38
450.442	84.38
450.662	100.38
450.883	91.38
451.104	87.38
451.324	96.38
451.545	105.38
451.766	85.38
451.986	90.38
452.207	74.38
452.428	88.38
452.648	107.38
452.869	92.38
453.089	92.38
453.31	92.38
453.53	95.38
453.751	91.38
453.971	106.38
454.192	100.38
454.412	92.38
454.633	96.38
454.853	95.38
455.073	94.38
455.294	87.38
455.514	93.38
455.734	96.38
455.955	95.38
456.175	101.38
456.395	89.38
456.616	94.38
456.836	102.38
457.056	90.38
457.276	72.38
457.497	108.38
457.717	90.38
457.937	92.38
458.157	99.38
458.377	90.38
458.598	97.38
458.818	106.38
459.038	82.38
459.258	91.38
459.478	101.38
459.698	105.38
459.918	112.38
460.138	99.38
460.358	99.38
460.578	107.38
460.798	93.38
461.018	94.38
461.238	102.38
461.458	105.38
461.678	103.38
461.898	103.38
462.118	101.38
462.338	111.38
462.558	104.38
462.777	103.38
462.997	94.38
463.217	93.38
463.437	107.38
463.657	96.38
463.876	97.38
464.096	115.38
464.316	96.38
464.536	101.38
464.755	98.38
464.975	114.38
465.195	99.38
465.414	101.38
465.634	102.38
465.854	102.38
466.073	112.38
466.293	97.38
466.512	106.38
466.732	99.38
466.951	104.38
467.171	101.38
467.391	87.38
467.61	98.38
467.829	99.38
468.049	112.38
468.268	110.38
468.488	101.38
468.707	79.38
468.927	93.38
469.146	107.38
469.365	105.38
469.585	115.38
469.804	95.38
470.023	92.38
470.243	90.38
470.462	100.38
470.681	115.38
470.901	107.38
471.12	109.38
471.339	95.38
471.558	113.38
471.777	86.38
471.997	105.38
472.216	107.38
472.435	108.38
472.654	99.38
472.873	92.38
473.092	103.38
473.311	101.38
473.53	95.38
473.749	103.38
473.968	105.38
474.187	112.38
474.406	107.38
474.625	89.38
474.844	97.38
475.063	101.38
475.282	104.38
475.501	97.38
475.72	99.38
475.939	104.38
476.158	85.38
476.377	97.38
476.596	97.38
476.814	93.38
477.033	105.38
477.252	106.38
477.471	103.38
477.69	101.38
477.908	102.38
478.127	105.38
478.346	92.38
478.564	98.38
478.783	96.38
479.002	103.38
479.22	99.38
479.439	120.38
479.658	118.38
479.876	120.38
480.095	99.38
480.313	111.38
480.532	97.38
480.751	117.38
480.969	102.38
481.188	92.38
481.406	101.38
481.624	95.38
481.843	102.38
482.061	111.38
482.28	93.38
482.498	96.38
482.717	88.38
482.935	113.38
483.153	120.38
483.372	123.38
483.59	122.38
483.808	108.38
484.027	100.38
484.245	106.38
484.463	109.38
484.681	97.38
484.9	104.38
485.118	103.38
485.336	106.38
485.554	113.38
485.772	89.38
485.99	100.38
486.209	124.38
486.427	113.38
486.645	96.38
486.863	105.38
487.081	109.38
487.299	115.38
487.517	112.38
487.735	113.38
487.953	116.38
488.171	115.38
488.389	116.38
488.607	100.38
488.825	96.38
489.043	121.38
489.261	111.38
489.479	105.38
489.696	104.38
489.914	106.38
490.132	105.38
490.35	114.38
490.568	119.38
490.786	120.38
491.003	107.38
491.221	113.38
491.439	104.38
491.657	125.38
491.874	133.38
492.092	116.38
492.31	121.38
492.527	123.38
492.745	123.38
492.963	107.38
493.18	120.38
493.398	115.38
493.615	125.38
493.833	104.38
494.05	113.38
494.268	117.38
494.485	115.38
494.703	98.38
494.92	120.38
495.138	111.38
495.355	115.38
495.573	126.38
495.79	110.38
496.008	100.38
496.225	121.38
496.442	108.38
496.66	121.38
496.877	105.38
497.094	118.38
497.312	112.38
497.529	120.38
497.746	128.38
497.963	105.38
498.181	106.38
498.398	130.38
498.615	120.38
498.832	127.38
499.049	136.38
499.267	119.38
499.484	127.38
499.701	158.38
499.918	141.38
500.135	156.38
500.352	167.38
500.569	166.38
500.786	170.38
501.003	151.38
501.22	129.38
501.437	142.38
501.654	151.38
501.871	128.38
502.088	121.38
502.305	115.38
502.522	106.38
502.739	110.38
502.956	123.38
503.172	121.38
503.389	125.38
503.606	106.38
503.823	115.38
504.04	104.38
504.256	129.38
504.473	123.38
504.69	124.38
504.907	124.38
505.123	103.38
505.34	118.38
505.557	114.38
505.773	125.38
505.99	112.38
506.207	95.38
506.423	98.38
506.64	99.38
506.856	108.38
507.073	119.38
507.289	101.38
507.506	115.38
507.722	109.38
507.939	104.38
508.155	100.38
508.372	96.38
508.588	108.38
508.805	108.38
509.021	119.38
509.238	110.38
509.454	101.38
509.67	104.38
509.887	102.38
510.103	102.38
510.319	98.38
510.536	88.38
510.752	104.38
510.968	98.38
511.184	92.38
511.401	100.38
511.617	103.38
511.833	118.38
512.049	117.38
512.265	101.38
512.481	106.38
512.698	87.38
512.914	107.38
513.13	99.38
513.346	132.38
513.562	115.38
513.778	95.38
513.994	116.38
514.21	103.38
514.426	101.38
514.642	106.38
514.858	100.38
515.074	102.38
515.29	105.38
515.506	103.38
515.721	102.38
515.937	99.38
516.153	105.38
516.369	103.38
516.585	134.38
516.801	123.38
517.016	115.38
517.232	115.38
517.448	117.38
517.664	113.38
517.879	116.38
518.095	124.38
518.311	106.38
518.527	118.38
518.742	105.38
518.958	107.38
519.173	112.38
519.389	111.38
519.605	125.38
519.82	99.38
520.036	118.38
520.251	99.38
520.467	92.38
520.682	98.38
520.898	97.38
521.113	104.38
521.329	108.38
521.544	100.38
521.76	108.38
521.975	99.38
522.19	97.38
522.406	108.38
522.621	110.38
522.836	107.38
523.052	109.38
523.267	104.38
523.482	99.38
523.698	101.38
523.913	120.38
524.128	101.38
524.343	97.38
524.559	108.38
524.774	96.38
524.989	98.38
525.204	90.38
525.419	105.38
525.634	106.38
525.849	98.38
526.064	102.38
526.28	107.38
526.495	90.38
526.71	91.38
526.925	103.38
527.14	91.38
527.355	100.38
527.57	107.38
527.785	89.38
527.999	103.38
528.214	116.38
528.429	121.38
528.644	122.38
528.859	99.38
529.074	99.38
529.289	103.38
529.503	111.38
529.718	85.38
529.933	99.38
530.148	99.38
530.363	101.38
530.577	104.38
530.792	95.38
531.007	101.38
531.221	112.38
531.436	104.38
531.651	101.38
531.865	106.38
532.08	107.38
532.295	95.38
532.509	88.38
532.724	100.38
532.938	108.38
533.153	97.38
533.367	88.38
533.582	97.38
533.796	123.38
534.011	102.38
534.225	99.38
534.44	115.38
534.654	98.38
534.868	87.38
535.083	109.38
535.297	108.38
535.511	104.38
535.726	98.38
535.94	97.38
536.154	100.38
536.369	87.38
536.583	102.38
536.797	103.38
537.011	93.38
537.225	88.38
537.44	100.38
537.654	111.38
537.868	106.38
538.082	97.38
538.296	99.38
538.51	92.38
538.724	116.38
538.938	112.38
539.153	105.38
539.367	100.38
539.581	101.38
539.795	100.38
540.009	95.38
540.222	99.38
540.436	94.38
540.65	114.38
540.864	95.38
541.078	103.38
541.292	100.38
541.506	106.38
541.72	114.38
541.934	96.38
542.147	104.38
542.361	120.38
542.575	106.38
542.789	107.38
543.002	106.38
543.216	102.38
543.43	113.38
543.644	95.38
543.857	121.38
544.071	101.38
544.285	107.38
544.498	123.38
544.712	124.38
544.925	106.38
545.139	108.38
545.352	116.38
545.566	109.38
545.779	114.38
545.993	112.38
546.206	96.38
546.42	109.38
546.633	117.38
546.847	107.38
547.06	106.38
547.274	95.38
547.487	130.38
547.7	98.38
547.914	116.38
548.127	95.38
548.34	111.38
548.554	111.38
548.767	101.38
548.98	87.38
549.193	102.38
549.407	100.38
549.62	124.38
549.833	107.38
550.046	119.38
550.259	104.38
550.473	112.38
550.686	95.38
550.899	103.38
551.112	104.38
551.325	102.38
551.538	102.38
551.751	106.38
551.964	113.38
552.177	111.38
552.39	103.38
552.603	90.38
552.816	92.38
553.029	91.38
553.242	101.38
553.455	124.38
553.667	115.38
553.88	106.38
554.093	96.38
554.306	94.38
554.519	107.38
554.732	104.38
554.944	123.38
555.157	110.38
555.37	99.38
555.583	99.38
555.795	108.38
556.008	103.38
556.221	119.38
556.433	99.38
556.646	107.38
556.859	96.38
557.071	109.38
557.284	96.38
557.496	97.38
557.709	113.38
557.921	103.38
558.134	97.38
558.346	99.38
558.559	97.38
558.771	98.38
558.984	112.38
559.196	105.38
559.409	98.38
559.621	96.38
559.833	107.38
560.046	95.38
560.258	86.38
560.47	95.38
560.683	95.38
560.895	114.38
561.107	89.38
561.32	87.38
561.532	85.38
561.744	86.38
561.956	98.38
562.168	99.38
562.381	99.38
562.593	111.38
562.805	106.38
563.017	105.38
563.229	114.38
563.441	96.38
563.653	101.38
563.865	106.38
564.077	93.38
564.289	100.38
564.501	114.38
564.713	85.38
564.925	101.38
565.137	99.38
565.349	107.38
565.561	99.38
565.773	91.38
565.985	101.38
566.197	100.38
566.408	99.38
566.62	99.38
566.832	116.38
567.044	111.38
567.255	98.38
567.467	118.38
567.679	101.38
567.891	100.38
568.102	115.38
568.314	106.38
568.526	95.38
568.737	101.38
568.949	116.38
569.161	110.38
569.372	111.38
569.584	100.38
569.795	107.38
570.007	103.38
570.218	100.38
570.43	111.38
570.641	107.38
570.853	104.38
571.064	98.38
571.276	98.38
571.487	101.38
571.698	87.38
571.91	107.38
572.121	96.38
572.333	91.38
572.544	88.38
572.755	98.38
572.966	100.38
573.178	91.38
573.389	103.38
573.6	92.38
573.811	102.38
574.023	108.38
574.234	98.38
574.445	104.38
574.656	97.38
574.867	93.38
575.078	94.38
575.289	100.38
575.501	92.38
575.712	92.38
575.923	102.38
576.134	93.38
576.345	88.38
576.556	97.38
576.767	85.38
576.978	85.38
577.188	96.38
577.399	93.38
577.61	105.38
577.821	94.38
578.032	97.38
578.243	97.38
578.454	93.38
578.665	88.38
578.875	89.38
579.086	109.38
579.297	83.38
579.508	95.38
579.718	98.38
579.929	104.38
580.14	107.38
580.35	101.38
580.561	103.38
580.772	96.38
580.982	95.38
581.193	93.38
581.403	96.38
581.614	91.38
581.825	97.38
582.035	106.38
582.246	105.38
582.456	99.38
582.667	89.38
582.877	90.38
583.087	91.38
583.298	108.38
583.508	92.38
583.719	85.38
583.929	102.38
584.139	92.38
584.35	82.38
584.56	103.38
584.77	90.38
584.981	94.38
585.191	103.38
585.401	103.38
585.611	101.38
585.821	108.38
586.032	98.38
586.242	96.38
586.452	91.38
586.662	94.38
586.872	100.38
587.082	86.38
587.292	100.38
587.502	103.38
587.713	85.38
587.923	89.38
588.133	76.38
588.343	75.38
588.553	97.38
588.762	97.38
588.972	93.38
589.182	104.38
589.392	107.38
589.602	96.38
589.812	95.38
590.022	111.38
590.232	89.38
590.441	91.38
590.651	87.38
590.861	90.38
591.071	99.38
591.281	84.38
591.49	88.38
591.7	97.38
591.91	107.38
592.119	80.38
592.329	95.38
592.539	89.38
592.748	92.38
592.958	93.38
593.167	92.38
593.377	100.38
593.587	108.38
593.796	103.38
594.006	84.38
594.215	91.38
594.424	108.38
594.634	92.38
594.843	91.38
595.053	86.38
595.262	98.38
595.472	105.38
595.681	91.38
595.89	107.38
596.1	100.38
596.309	95.38
596.518	99.38
596.727	92.38
596.937	98.38
597.146	97.38
597.355	97.38
597.564	87.38
597.774	101.38
597.983	77.38
598.192	75.38
598.401	90.38
598.61	84.38
598.819	92.38
599.028	84.38
599.237	95.38
599.446	91.38
599.655	103.38
599.864	96.38
600.073	105.38
600.282	84.38
600.491	94.38
600.7	99.38
600.909	103.38
601.118	80.38
601.327	87.38
601.536	102.38
601.745	90.38
601.953	98.38
602.162	84.38
602.371	99.38
602.58	96.38
602.789	94.38
602.997	97.38
603.206	85.38
603.415	100.38
603.623	105.38
603.832	103.38
604.041	95.38
604.249	92.38
604.458	80.38
604.666	94.38
604.875	88.38
605.084	88.38
605.292	98.38
605.501	111.38
605.709	95.38
605.918	107.38
606.126	94.38
606.334	99.38
606.543	90.38
606.751	85.38
606.96	101.38
607.168	94.38
607.376	94.38
607.585	93.38
607.793	86.38
608.001	88.38
608.21	99.38
608.418	92.38
608.626	93.38
608.834	85.38
609.043	88.38
609.251	96.38
609.459	80.38
609.667	79.38
609.875	102.38
610.083	79.38
610.291	80.38
610.499	109.38
610.707	74.38
610.916	82.38
611.124	87.38
611.332	75.38
611.54	92.38
611.748	97.38
611.955	93.38
612.163	82.38
612.371	95.38
612.579	83.38
612.787	97.38
612.995	106.38
613.203	95.38
613.411	91.38
613.618	82.38
613.826	72.38
614.034	92.38
614.242	106.38
614.449	84.38
614.657	76.38
614.865	77.38
615.072	100.38
615.28	91.38
615.488	96.38
615.695	92.38
615.903	76.38
616.111	92.38
616.318	93.38
616.526	101.38
616.733	98.38
616.941	85.38
617.148	91.38
617.356	85.38
617.563	76.38
617.771	88.38
617.978	88.38
618.185	92.38
618.393	84.38
618.6	92.38
618.807	85.38
619.015	84.38
619.222	96.38
619.429	81.38
619.637	91.38
619.844	87.38
620.051	87.38
620.258	87.38
620.466	92.38
620.673	87.38
620.88	103.38
621.087	84.38
621.294	91.38
621.501	82.38
621.708	98.38
621.915	89.38
622.122	96.38
622.329	85.38
622.536	93.38
622.743	84.38
622.95	96.38
623.157	85.38
623.364	73.38
623.571	89.38
623.778	95.38
623.985	86.38
624.192	85.38
624.399	90.38
624.606	100.38
624.812	92.38
625.019	94.38
625.226	86.38
625.433	99.38
625.639	95.38
625.846	82.38
626.053	88.38
626.259	87.38
626.466	82.38
626.673	81.38
626.879	76.38
627.086	77.38
627.293	96.38
627.499	85.38
627.706	84.38
627.912	93.38
628.119	84.38
628.325	93.38
628.532	86.38
628.738	95.38
628.945	95.38
629.151	85.38
629.357	99.38
629.564	101.38
629.77	91.38
629.976	83.38
630.183	76.38
630.389	78.38
630.595	91.38
630.802	88.38
631.008	86.38
631.214	75.38
631.42	85.38
631.627	108.38
631.833	84.38
632.039	91.38
632.245	92.38
632.451	94.38
632.657	87.38
632.863	75.38
633.069	79.38
633.275	104.38
633.481	91.38
633.688	87.38
633.893	97.38
634.099	88.38
634.305	83.38
634.511	98.38
634.717	91.38
634.923	92.38
635.129	90.38
635.335	76.38
635.541	97.38
635.747	88.38
635.952	78.38
636.158	93.38
636.364	82.38
636.57	79.38
636.775	85.38
636.981	83.38
637.187	93.38
637.392	95.38
637.598	81.38
637.804	82.38
638.009	81.38
638.215	79.38
638.421	84.38
638.626	91.38
638.832	85.38
639.037	99.38
639.243	87.38
639.448	91.38
639.654	80.38
639.859	96.38
640.065	75.38
640.27	88.38
640.475	76.38
640.681	93.38
640.886	74.38
641.091	88.38
641.297	95.38
641.502	96.38
641.707	83.38
641.913	79.38
642.118	90.38
642.323	87.38
642.528	74.38
642.733	93.38
642.939	79.38
643.144	86.38
643.349	95.38
643.554	89.38
643.759	98.38
643.964	81.38
644.169	90.38
644.374	92.38
644.579	88.38
644.784	91.38
644.989	83.38
645.194	92.38
645.399	92.38
645.604	80.38
645.809	86.38
646.014	88.38
646.219	89.38
646.423	84.38
646.628	91.38
646.833	91.38
647.038	97.38
647.243	83.38
647.447	88.38
647.652	92.38
647.857	78.38
648.062	93.38
648.266	84.38
648.471	84.38
648.676	67.38
648.88	86.38
649.085	91.38
649.289	104.38
649.494	87.38
649.698	88.38
649.903	78.38
650.107	81.38
650.312	104.38
650.516	93.38
650.721	84.38
650.925	103.38
651.13	81.38
651.334	97.38
651.539	96.38
651.743	93.38
651.947	101.38
652.152	87.38
652.356	90.38
652.56	83.38
652.764	102.38
652.969	78.38
653.173	89.38
653.377	92.38
653.581	86.38
653.785	79.38
653.99	80.38
654.194	82.38
654.398	92.38
654.602	89.38
654.806	71.38
655.01	96.38
655.214	81.38
655.418	89.38
655.622	102.38
655.826	81.38
656.03	91.38
656.234	89.38
656.438	77.38
656.642	85.38
656.846	80.38
657.049	79.38
657.253	85.38
657.457	88.38
657.661	94.38
657.865	93.38
658.068	87.38
658.272	80.38
658.476	75.38
658.68	95.38
658.883	83.38
659.087	83.38
659.291	93.38
659.494	74.38
659.698	78.38
659.901	79.38
660.105	79.38
660.309	91.38
660.512	76.38
660.716	88.38
660.919	98.38
661.123	100.38
661.326	88.38
661.53	95.38
661.733	78.38
661.936	105.38
662.14	91.38
662.343	71.38
662.546	91.38
662.75	86.38
662.953	93.38
663.156	79.38
663.36	78.38
663.563	83.38
663.766	88.38
663.969	92.38
664.173	81.38
664.376	81.38
664.579	87.38
664.782	81.38
664.985	92.38
665.188	80.38
665.391	84.38
665.594	69.38
665.797	78.38
666	84.38
666.203	88.38
666.406	83.38
666.609	103.38
666.812	85.38
667.015	91.38
667.218	91.38
667.421	97.38
667.624	89.38
667.827	83.38
668.03	100.38
668.232	89.38
668.435	71.38
668.638	78.38
668.841	92.38
669.043	82.38
669.246	86.38
669.449	87.38
669.651	87.38
669.854	85.38
670.057	78.38
670.259	90.38
670.462	82.38
670.665	80.38
670.867	85.38
671.07	87.38
671.272	93.38
671.475	81.38
671.677	83.38
671.88	84.38
672.082	87.38
672.284	65.38
672.487	82.38
672.689	83.38
672.892	78.38
