Data from Location5.07152019.Energy5.Lamp.07192019.3%Agarose_HRD10591_16-04-15-629.txt Node
Date: Fri Jul 19 16:04:15 EDT 2019
User: cochatt
Spectrometer: HR+D1059
Trigger mode: 1
Integration Time (sec): 1.000000E-1
Scans to average: 1
Electric dark correction enabled: true
Nonlinearity correction enabled: false
Boxcar width: 0
XAxis mode: Wavelengths
Number of Pixels in Spectrum: 2048
>>>>>Begin Spectral Data<<<<<
223.165	-14.62
223.4	-14.62
223.635	-14.62
223.869	-11.62
224.104	-24.62
224.338	-6.62
224.573	-23.62
224.808	5.38
225.042	-13.62
225.277	-3.62
225.511	-7.62
225.746	0.38
225.98	4.38
226.215	0.38
226.449	22.38
226.683	15.38
226.918	34.38
227.152	23.38
227.387	31.38
227.621	42.38
227.856	32.38
228.09	46.38
228.324	44.38
228.559	63.38
228.793	65.38
229.027	71.38
229.262	79.38
229.496	76.38
229.73	73.38
229.964	74.38
230.199	74.38
230.433	88.38
230.667	76.38
230.901	75.38
231.136	78.38
231.37	71.38
231.604	88.38
231.838	74.38
232.072	69.38
232.306	72.38
232.541	75.38
232.775	80.38
233.009	86.38
233.243	72.38
233.477	86.38
233.711	80.38
233.945	90.38
234.179	78.38
234.413	92.38
234.647	97.38
234.881	81.38
235.115	64.38
235.349	88.38
235.583	95.38
235.817	83.38
236.051	76.38
236.285	78.38
236.519	75.38
236.753	87.38
236.987	92.38
237.221	79.38
237.455	59.38
237.689	89.38
237.922	95.38
238.156	72.38
238.39	82.38
238.624	84.38
238.858	83.38
239.091	88.38
239.325	87.38
239.559	78.38
239.793	87.38
240.027	78.38
240.26	88.38
240.494	94.38
240.728	80.38
240.961	75.38
241.195	79.38
241.429	97.38
241.662	85.38
241.896	84.38
242.13	91.38
242.363	98.38
242.597	100.38
242.83	90.38
243.064	74.38
243.298	62.38
243.531	78.38
243.765	80.38
243.998	87.38
244.232	91.38
244.465	92.38
244.699	78.38
244.932	87.38
245.166	92.38
245.399	92.38
245.633	91.38
245.866	83.38
246.099	94.38
246.333	76.38
246.566	89.38
246.8	91.38
247.033	76.38
247.266	77.38
247.5	85.38
247.733	94.38
247.966	80.38
248.2	85.38
248.433	87.38
248.666	77.38
248.899	75.38
249.133	86.38
249.366	80.38
249.599	86.38
249.832	93.38
250.066	99.38
250.299	78.38
250.532	78.38
250.765	80.38
250.998	72.38
251.231	90.38
251.465	94.38
251.698	99.38
251.931	93.38
252.164	76.38
252.397	80.38
252.63	75.38
252.863	79.38
253.096	80.38
253.329	87.38
253.562	79.38
253.795	96.38
254.028	94.38
254.261	84.38
254.494	74.38
254.727	84.38
254.96	72.38
255.193	80.38
255.426	83.38
255.659	90.38
255.892	105.38
256.124	82.38
256.357	83.38
256.59	91.38
256.823	82.38
257.056	95.38
257.289	91.38
257.521	95.38
257.754	86.38
257.987	73.38
258.22	80.38
258.452	93.38
258.685	94.38
258.918	82.38
259.151	88.38
259.383	93.38
259.616	96.38
259.849	79.38
260.081	71.38
260.314	91.38
260.547	90.38
260.779	86.38
261.012	84.38
261.244	88.38
261.477	89.38
261.71	85.38
261.942	90.38
262.175	71.38
262.407	90.38
262.64	84.38
262.872	83.38
263.105	83.38
263.337	92.38
263.57	85.38
263.802	79.38
264.035	81.38
264.267	86.38
264.499	105.38
264.732	99.38
264.964	89.38
265.197	86.38
265.429	91.38
265.661	94.38
265.894	94.38
266.126	80.38
266.358	89.38
266.591	98.38
266.823	90.38
267.055	98.38
267.287	93.38
267.52	91.38
267.752	75.38
267.984	85.38
268.216	88.38
268.448	85.38
268.681	105.38
268.913	90.38
269.145	93.38
269.377	99.38
269.609	101.38
269.841	83.38
270.073	75.38
270.306	83.38
270.538	94.38
270.77	88.38
271.002	98.38
271.234	86.38
271.466	90.38
271.698	77.38
271.93	94.38
272.162	91.38
272.394	97.38
272.626	84.38
272.858	92.38
273.09	99.38
273.322	98.38
273.553	91.38
273.785	95.38
274.017	85.38
274.249	88.38
274.481	100.38
274.713	79.38
274.945	80.38
275.176	92.38
275.408	81.38
275.64	87.38
275.872	85.38
276.104	89.38
276.335	97.38
276.567	90.38
276.799	96.38
277.031	89.38
277.262	107.38
277.494	103.38
277.726	88.38
277.957	88.38
278.189	74.38
278.421	91.38
278.652	94.38
278.884	89.38
279.115	94.38
279.347	100.38
279.579	86.38
279.81	91.38
280.042	96.38
280.273	98.38
280.505	96.38
280.736	107.38
280.968	97.38
281.199	96.38
281.431	72.38
281.662	91.38
281.894	92.38
282.125	82.38
282.356	95.38
282.588	92.38
282.819	96.38
283.051	96.38
283.282	82.38
283.513	74.38
283.745	106.38
283.976	96.38
284.207	74.38
284.439	80.38
284.67	80.38
284.901	89.38
285.132	93.38
285.364	105.38
285.595	87.38
285.826	88.38
286.057	93.38
286.288	108.38
286.52	89.38
286.751	91.38
286.982	94.38
287.213	81.38
287.444	88.38
287.675	87.38
287.906	99.38
288.138	98.38
288.369	108.38
288.6	83.38
288.831	100.38
289.062	93.38
289.293	94.38
289.524	86.38
289.755	98.38
289.986	89.38
290.217	90.38
290.448	95.38
290.679	94.38
290.91	109.38
291.141	98.38
291.371	108.38
291.602	86.38
291.833	98.38
292.064	103.38
292.295	98.38
292.526	99.38
292.757	86.38
292.987	104.38
293.218	82.38
293.449	91.38
293.68	90.38
293.91	93.38
294.141	95.38
294.372	93.38
294.603	93.38
294.833	86.38
295.064	92.38
295.295	92.38
295.525	93.38
295.756	103.38
295.987	106.38
296.217	101.38
296.448	101.38
296.679	108.38
296.909	91.38
297.14	108.38
297.37	100.38
297.601	89.38
297.831	90.38
298.062	115.38
298.292	97.38
298.523	97.38
298.753	95.38
298.984	102.38
299.214	94.38
299.445	92.38
299.675	99.38
299.905	97.38
300.136	102.38
300.366	100.38
300.597	106.38
300.827	92.38
301.057	103.38
301.288	96.38
301.518	98.38
301.748	79.38
301.979	86.38
302.209	96.38
302.439	99.38
302.669	92.38
302.9	79.38
303.13	97.38
303.36	98.38
303.59	118.38
303.82	103.38
304.051	98.38
304.281	102.38
304.511	104.38
304.741	114.38
304.971	103.38
305.201	93.38
305.431	104.38
305.661	95.38
305.891	89.38
306.121	97.38
306.352	102.38
306.582	92.38
306.812	91.38
307.042	94.38
307.272	88.38
307.502	108.38
307.731	101.38
307.961	86.38
308.191	102.38
308.421	116.38
308.651	92.38
308.881	116.38
309.111	106.38
309.341	110.38
309.571	101.38
309.8	99.38
310.03	97.38
310.26	92.38
310.49	96.38
310.72	105.38
310.949	102.38
311.179	94.38
311.409	86.38
311.639	102.38
311.868	99.38
312.098	105.38
312.328	105.38
312.557	100.38
312.787	106.38
313.017	87.38
313.246	91.38
313.476	102.38
313.706	111.38
313.935	95.38
314.165	108.38
314.394	99.38
314.624	78.38
314.853	104.38
315.083	101.38
315.312	80.38
315.542	105.38
315.771	88.38
316.001	86.38
316.23	100.38
316.46	95.38
316.689	79.38
316.919	99.38
317.148	100.38
317.377	114.38
317.607	96.38
317.836	98.38
318.065	103.38
318.295	94.38
318.524	90.38
318.753	100.38
318.983	109.38
319.212	89.38
319.441	91.38
319.67	98.38
319.9	114.38
320.129	92.38
320.358	94.38
320.587	85.38
320.816	87.38
321.046	73.38
321.275	98.38
321.504	97.38
321.733	112.38
321.962	99.38
322.191	89.38
322.42	119.38
322.649	90.38
322.878	110.38
323.108	83.38
323.337	118.38
323.566	99.38
323.795	103.38
324.024	106.38
324.253	95.38
324.482	94.38
324.71	68.38
324.939	107.38
325.168	88.38
325.397	96.38
325.626	91.38
325.855	89.38
326.084	93.38
326.313	97.38
326.542	98.38
326.77	108.38
326.999	93.38
327.228	99.38
327.457	95.38
327.686	98.38
327.914	99.38
328.143	107.38
328.372	104.38
328.6	108.38
328.829	98.38
329.058	98.38
329.287	106.38
329.515	94.38
329.744	92.38
329.972	85.38
330.201	82.38
330.43	98.38
330.658	105.38
330.887	108.38
331.115	105.38
331.344	106.38
331.572	97.38
331.801	98.38
332.03	101.38
332.258	95.38
332.486	106.38
332.715	109.38
332.943	109.38
333.172	105.38
333.4	92.38
333.629	95.38
333.857	103.38
334.085	114.38
334.314	102.38
334.542	107.38
334.771	102.38
334.999	104.38
335.227	102.38
335.455	101.38
335.684	107.38
335.912	90.38
336.14	94.38
336.369	104.38
336.597	111.38
336.825	93.38
337.053	99.38
337.281	102.38
337.51	103.38
337.738	111.38
337.966	105.38
338.194	101.38
338.422	90.38
338.65	101.38
338.878	108.38
339.106	103.38
339.334	97.38
339.562	92.38
339.79	95.38
340.018	90.38
340.246	94.38
340.474	115.38
340.702	101.38
340.93	110.38
341.158	92.38
341.386	100.38
341.614	91.38
341.842	86.38
342.07	94.38
342.298	109.38
342.526	106.38
342.754	94.38
342.981	107.38
343.209	91.38
343.437	95.38
343.665	105.38
343.893	102.38
344.12	103.38
344.348	101.38
344.576	90.38
344.804	91.38
345.031	99.38
345.259	89.38
345.487	95.38
345.714	96.38
345.942	101.38
346.17	93.38
346.397	100.38
346.625	85.38
346.853	110.38
347.08	89.38
347.308	111.38
347.535	96.38
347.763	91.38
347.99	92.38
348.218	84.38
348.445	87.38
348.673	100.38
348.9	94.38
349.128	104.38
349.355	84.38
349.583	88.38
349.81	95.38
350.037	108.38
350.265	109.38
350.492	111.38
350.72	94.38
350.947	80.38
351.174	99.38
351.402	102.38
351.629	117.38
351.856	84.38
352.083	100.38
352.311	88.38
352.538	98.38
352.765	93.38
352.992	103.38
353.22	109.38
353.447	104.38
353.674	108.38
353.901	95.38
354.128	91.38
354.355	99.38
354.583	97.38
354.81	111.38
355.037	101.38
355.264	82.38
355.491	94.38
355.718	100.38
355.945	96.38
356.172	90.38
356.399	94.38
356.626	94.38
356.853	101.38
357.08	101.38
357.307	89.38
357.534	99.38
357.761	94.38
357.988	107.38
358.215	84.38
358.441	81.38
358.668	85.38
358.895	90.38
359.122	89.38
359.349	121.38
359.576	110.38
359.802	87.38
360.029	107.38
360.256	108.38
360.483	97.38
360.709	87.38
360.936	95.38
361.163	104.38
361.39	107.38
361.616	100.38
361.843	94.38
362.07	90.38
362.296	83.38
362.523	106.38
362.749	94.38
362.976	99.38
363.203	96.38
363.429	99.38
363.656	93.38
363.882	89.38
364.109	87.38
364.335	96.38
364.562	86.38
364.788	98.38
365.015	99.38
365.241	88.38
365.468	95.38
365.694	91.38
365.92	106.38
366.147	76.38
366.373	79.38
366.599	84.38
366.826	99.38
367.052	99.38
367.278	108.38
367.505	88.38
367.731	94.38
367.957	89.38
368.184	97.38
368.41	91.38
368.636	88.38
368.862	90.38
369.089	91.38
369.315	92.38
369.541	92.38
369.767	107.38
369.993	114.38
370.219	90.38
370.445	99.38
370.672	101.38
370.898	87.38
371.124	92.38
371.35	90.38
371.576	98.38
371.802	106.38
372.028	91.38
372.254	99.38
372.48	105.38
372.706	99.38
372.932	88.38
373.158	91.38
373.384	99.38
373.61	106.38
373.835	92.38
374.061	87.38
374.287	100.38
374.513	107.38
374.739	106.38
374.965	102.38
375.191	101.38
375.416	99.38
375.642	107.38
375.868	108.38
376.094	96.38
376.319	99.38
376.545	83.38
376.771	96.38
376.997	99.38
377.222	90.38
377.448	95.38
377.674	109.38
377.899	88.38
378.125	94.38
378.35	92.38
378.576	95.38
378.802	89.38
379.027	107.38
379.253	84.38
379.478	92.38
379.704	97.38
379.929	90.38
380.155	103.38
380.38	105.38
380.606	78.38
380.831	104.38
381.057	110.38
381.282	102.38
381.507	88.38
381.733	88.38
381.958	87.38
382.184	97.38
382.409	98.38
382.634	106.38
382.86	105.38
383.085	95.38
383.31	98.38
383.535	98.38
383.761	90.38
383.986	88.38
384.211	95.38
384.436	94.38
384.662	105.38
384.887	102.38
385.112	104.38
385.337	87.38
385.562	98.38
385.787	98.38
386.013	86.38
386.238	92.38
386.463	92.38
386.688	101.38
386.913	103.38
387.138	101.38
387.363	109.38
387.588	100.38
387.813	94.38
388.038	90.38
388.263	102.38
388.488	108.38
388.713	93.38
388.938	103.38
389.163	94.38
389.387	112.38
389.612	111.38
389.837	95.38
390.062	101.38
390.287	79.38
390.512	114.38
390.736	94.38
390.961	87.38
391.186	103.38
391.411	94.38
391.636	107.38
391.86	80.38
392.085	94.38
392.31	112.38
392.534	95.38
392.759	94.38
392.984	112.38
393.208	94.38
393.433	100.38
393.658	90.38
393.882	99.38
394.107	112.38
394.331	100.38
394.556	98.38
394.78	91.38
395.005	111.38
395.229	91.38
395.454	100.38
395.678	94.38
395.903	106.38
396.127	104.38
396.352	97.38
396.576	107.38
396.801	102.38
397.025	115.38
397.249	94.38
397.474	96.38
397.698	117.38
397.922	95.38
398.147	98.38
398.371	98.38
398.595	110.38
398.82	118.38
399.044	120.38
399.268	105.38
399.492	110.38
399.717	100.38
399.941	95.38
400.165	115.38
400.389	109.38
400.613	114.38
400.837	113.38
401.062	107.38
401.286	108.38
401.51	99.38
401.734	92.38
401.958	100.38
402.182	106.38
402.406	101.38
402.63	99.38
402.854	107.38
403.078	96.38
403.302	103.38
403.526	107.38
403.75	96.38
403.974	99.38
404.198	106.38
404.422	112.38
404.645	108.38
404.869	102.38
405.093	103.38
405.317	106.38
405.541	96.38
405.765	100.38
405.988	113.38
406.212	95.38
406.436	98.38
406.66	110.38
406.883	108.38
407.107	121.38
407.331	104.38
407.555	105.38
407.778	113.38
408.002	96.38
408.226	107.38
408.449	110.38
408.673	126.38
408.896	111.38
409.12	104.38
409.344	112.38
409.567	113.38
409.791	111.38
410.014	87.38
410.238	99.38
410.461	114.38
410.685	98.38
410.908	104.38
411.132	96.38
411.355	94.38
411.578	95.38
411.802	107.38
412.025	104.38
412.249	85.38
412.472	94.38
412.695	105.38
412.919	101.38
413.142	107.38
413.365	99.38
413.589	99.38
413.812	87.38
414.035	102.38
414.258	95.38
414.482	96.38
414.705	96.38
414.928	115.38
415.151	98.38
415.374	83.38
415.597	107.38
415.821	102.38
416.044	94.38
416.267	107.38
416.49	86.38
416.713	94.38
416.936	103.38
417.159	97.38
417.382	101.38
417.605	92.38
417.828	110.38
418.051	101.38
418.274	108.38
418.497	102.38
418.72	110.38
418.943	106.38
419.166	89.38
419.389	98.38
419.611	116.38
419.834	116.38
420.057	103.38
420.28	106.38
420.503	96.38
420.726	93.38
420.948	103.38
421.171	88.38
421.394	109.38
421.617	95.38
421.839	104.38
422.062	108.38
422.285	111.38
422.507	99.38
422.73	105.38
422.953	91.38
423.175	100.38
423.398	100.38
423.621	92.38
423.843	112.38
424.066	98.38
424.288	99.38
424.511	107.38
424.733	102.38
424.956	108.38
425.178	107.38
425.401	109.38
425.623	98.38
425.846	112.38
426.068	95.38
426.291	93.38
426.513	90.38
426.735	92.38
426.958	93.38
427.18	101.38
427.402	99.38
427.625	92.38
427.847	89.38
428.069	93.38
428.292	93.38
428.514	100.38
428.736	107.38
428.958	109.38
429.181	92.38
429.403	92.38
429.625	107.38
429.847	105.38
430.069	96.38
430.292	95.38
430.514	93.38
430.736	96.38
430.958	108.38
431.18	94.38
431.402	104.38
431.624	106.38
431.846	88.38
432.068	93.38
432.29	109.38
432.512	97.38
432.734	95.38
432.956	98.38
433.178	107.38
433.4	109.38
433.622	103.38
433.844	105.38
434.066	95.38
434.287	98.38
434.509	84.38
434.731	106.38
434.953	94.38
435.175	106.38
435.397	95.38
435.618	91.38
435.84	96.38
436.062	112.38
436.284	94.38
436.505	108.38
436.727	89.38
436.949	105.38
437.17	95.38
437.392	101.38
437.614	97.38
437.835	106.38
438.057	96.38
438.278	95.38
438.5	100.38
438.721	97.38
438.943	102.38
439.165	92.38
439.386	114.38
439.608	95.38
439.829	100.38
440.05	96.38
440.272	99.38
440.493	95.38
440.715	101.38
440.936	109.38
441.158	100.38
441.379	98.38
441.6	109.38
441.822	122.38
442.043	112.38
442.264	94.38
442.486	94.38
442.707	99.38
442.928	93.38
443.149	92.38
443.371	99.38
443.592	114.38
443.813	104.38
444.034	110.38
444.255	108.38
444.476	114.38
444.698	98.38
444.919	103.38
445.14	211.38
445.361	156.38
445.582	99.38
445.803	96.38
446.024	96.38
446.245	95.38
446.466	97.38
446.687	92.38
446.908	97.38
447.129	105.38
447.35	98.38
447.571	91.38
447.792	99.38
448.013	98.38
448.234	99.38
448.455	91.38
448.675	94.38
448.896	80.38
449.117	101.38
449.338	104.38
449.559	116.38
449.779	98.38
450	98.38
450.221	98.38
450.442	104.38
450.662	90.38
450.883	88.38
451.104	95.38
451.324	100.38
451.545	87.38
451.766	80.38
451.986	99.38
452.207	94.38
452.428	96.38
452.648	117.38
452.869	93.38
453.089	97.38
453.31	95.38
453.53	80.38
453.751	99.38
453.971	97.38
454.192	99.38
454.412	108.38
454.633	84.38
454.853	93.38
455.073	91.38
455.294	95.38
455.514	83.38
455.734	108.38
455.955	97.38
456.175	99.38
456.395	106.38
456.616	97.38
456.836	99.38
457.056	99.38
457.276	83.38
457.497	90.38
457.717	102.38
457.937	87.38
458.157	94.38
458.377	73.38
458.598	99.38
458.818	99.38
459.038	90.38
459.258	90.38
459.478	95.38
459.698	90.38
459.918	99.38
460.138	118.38
460.358	97.38
460.578	98.38
460.798	103.38
461.018	93.38
461.238	100.38
461.458	110.38
461.678	98.38
461.898	105.38
462.118	103.38
462.338	105.38
462.558	97.38
462.777	104.38
462.997	106.38
463.217	92.38
463.437	117.38
463.657	108.38
463.876	112.38
464.096	116.38
464.316	101.38
464.536	120.38
464.755	95.38
464.975	87.38
465.195	90.38
465.414	117.38
465.634	109.38
465.854	97.38
466.073	96.38
466.293	95.38
466.512	94.38
466.732	103.38
466.951	95.38
467.171	98.38
467.391	92.38
467.61	97.38
467.829	111.38
468.049	103.38
468.268	104.38
468.488	111.38
468.707	100.38
468.927	107.38
469.146	108.38
469.365	118.38
469.585	107.38
469.804	94.38
470.023	95.38
470.243	101.38
470.462	99.38
470.681	95.38
470.901	110.38
471.12	104.38
471.339	107.38
471.558	101.38
471.777	93.38
471.997	80.38
472.216	100.38
472.435	104.38
472.654	108.38
472.873	107.38
473.092	106.38
473.311	111.38
473.53	87.38
473.749	100.38
473.968	109.38
474.187	103.38
474.406	118.38
474.625	100.38
474.844	122.38
475.063	102.38
475.282	110.38
475.501	89.38
475.72	101.38
475.939	104.38
476.158	103.38
476.377	102.38
476.596	93.38
476.814	96.38
477.033	124.38
477.252	106.38
477.471	89.38
477.69	121.38
477.908	103.38
478.127	105.38
478.346	104.38
478.564	97.38
478.783	98.38
479.002	100.38
479.22	101.38
479.439	105.38
479.658	103.38
479.876	95.38
480.095	103.38
480.313	103.38
480.532	115.38
480.751	107.38
480.969	112.38
481.188	98.38
481.406	95.38
481.624	114.38
481.843	107.38
482.061	119.38
482.28	102.38
482.498	86.38
482.717	103.38
482.935	114.38
483.153	115.38
483.372	101.38
483.59	104.38
483.808	108.38
484.027	110.38
484.245	102.38
484.463	109.38
484.681	111.38
484.9	102.38
485.118	98.38
485.336	107.38
485.554	110.38
485.772	105.38
485.99	96.38
486.209	104.38
486.427	107.38
486.645	119.38
486.863	101.38
487.081	102.38
487.299	105.38
487.517	99.38
487.735	113.38
487.953	133.38
488.171	108.38
488.389	102.38
488.607	109.38
488.825	90.38
489.043	96.38
489.261	93.38
489.479	131.38
489.696	90.38
489.914	112.38
490.132	116.38
490.35	92.38
490.568	107.38
490.786	110.38
491.003	94.38
491.221	110.38
491.439	114.38
491.657	116.38
491.874	132.38
492.092	113.38
492.31	119.38
492.527	120.38
492.745	136.38
492.963	115.38
493.18	102.38
493.398	106.38
493.615	103.38
493.833	116.38
494.05	118.38
494.268	129.38
494.485	124.38
494.703	124.38
494.92	114.38
495.138	99.38
495.355	102.38
495.573	114.38
495.79	120.38
496.008	126.38
496.225	114.38
496.442	117.38
496.66	116.38
496.877	104.38
497.094	124.38
497.312	111.38
497.529	119.38
497.746	110.38
497.963	115.38
498.181	110.38
498.398	117.38
498.615	117.38
498.832	123.38
499.049	125.38
499.267	127.38
499.484	135.38
499.701	129.38
499.918	134.38
500.135	152.38
500.352	170.38
500.569	178.38
500.786	173.38
501.003	132.38
501.22	148.38
501.437	158.38
501.654	141.38
501.871	137.38
502.088	123.38
502.305	118.38
502.522	121.38
502.739	141.38
502.956	121.38
503.172	116.38
503.389	117.38
503.606	102.38
503.823	109.38
504.04	115.38
504.256	106.38
504.473	114.38
504.69	114.38
504.907	114.38
505.123	107.38
505.34	102.38
505.557	110.38
505.773	111.38
505.99	100.38
506.207	102.38
506.423	110.38
506.64	120.38
506.856	105.38
507.073	118.38
507.289	117.38
507.506	109.38
507.722	103.38
507.939	103.38
508.155	103.38
508.372	106.38
508.588	113.38
508.805	100.38
509.021	100.38
509.238	98.38
509.454	100.38
509.67	107.38
509.887	103.38
510.103	108.38
510.319	108.38
510.536	102.38
510.752	93.38
510.968	102.38
511.184	116.38
511.401	93.38
511.617	100.38
511.833	103.38
512.049	91.38
512.265	117.38
512.481	95.38
512.698	112.38
512.914	102.38
513.13	116.38
513.346	108.38
513.562	102.38
513.778	96.38
513.994	98.38
514.21	96.38
514.426	117.38
514.642	102.38
514.858	107.38
515.074	102.38
515.29	106.38
515.506	104.38
515.721	115.38
515.937	106.38
516.153	101.38
516.369	116.38
516.585	99.38
516.801	93.38
517.016	110.38
517.232	101.38
517.448	105.38
517.664	119.38
517.879	106.38
518.095	122.38
518.311	109.38
518.527	111.38
518.742	119.38
518.958	110.38
519.173	110.38
519.389	107.38
519.605	108.38
519.82	94.38
520.036	108.38
520.251	98.38
520.467	106.38
520.682	99.38
520.898	124.38
521.113	98.38
521.329	107.38
521.544	93.38
521.76	110.38
521.975	105.38
522.19	101.38
522.406	103.38
522.621	91.38
522.836	105.38
523.052	100.38
523.267	96.38
523.482	117.38
523.698	94.38
523.913	103.38
524.128	96.38
524.343	110.38
524.559	120.38
524.774	100.38
524.989	102.38
525.204	107.38
525.419	105.38
525.634	115.38
525.849	118.38
526.064	90.38
526.28	104.38
526.495	112.38
526.71	99.38
526.925	102.38
527.14	104.38
527.355	100.38
527.57	99.38
527.785	97.38
527.999	102.38
528.214	110.38
528.429	115.38
528.644	117.38
528.859	101.38
529.074	109.38
529.289	118.38
529.503	116.38
529.718	112.38
529.933	110.38
530.148	97.38
530.363	105.38
530.577	115.38
530.792	114.38
531.007	101.38
531.221	112.38
531.436	96.38
531.651	104.38
531.865	104.38
532.08	110.38
532.295	100.38
532.509	101.38
532.724	103.38
532.938	96.38
533.153	114.38
533.367	103.38
533.582	95.38
533.796	106.38
534.011	92.38
534.225	95.38
534.44	105.38
534.654	104.38
534.868	88.38
535.083	115.38
535.297	116.38
535.511	106.38
535.726	95.38
535.94	111.38
536.154	112.38
536.369	106.38
536.583	87.38
536.797	114.38
537.011	103.38
537.225	98.38
537.44	99.38
537.654	105.38
537.868	95.38
538.082	94.38
538.296	94.38
538.51	95.38
538.724	96.38
538.938	101.38
539.153	107.38
539.367	107.38
539.581	110.38
539.795	97.38
540.009	108.38
540.222	98.38
540.436	102.38
540.65	101.38
540.864	101.38
541.078	115.38
541.292	89.38
541.506	104.38
541.72	114.38
541.934	108.38
542.147	96.38
542.361	118.38
542.575	108.38
542.789	116.38
543.002	110.38
543.216	114.38
543.43	116.38
543.644	99.38
543.857	96.38
544.071	107.38
544.285	119.38
544.498	99.38
544.712	108.38
544.925	110.38
545.139	111.38
545.352	106.38
545.566	100.38
545.779	98.38
545.993	102.38
546.206	118.38
546.42	110.38
546.633	122.38
546.847	108.38
547.06	114.38
547.274	119.38
547.487	120.38
547.7	119.38
547.914	103.38
548.127	105.38
548.34	114.38
548.554	86.38
548.767	106.38
548.98	99.38
549.193	107.38
549.407	100.38
549.62	109.38
549.833	100.38
550.046	106.38
550.259	101.38
550.473	101.38
550.686	119.38
550.899	112.38
551.112	101.38
551.325	99.38
551.538	118.38
551.751	96.38
551.964	107.38
552.177	119.38
552.39	104.38
552.603	108.38
552.816	105.38
553.029	98.38
553.242	115.38
553.455	91.38
553.667	115.38
553.88	102.38
554.093	95.38
554.306	96.38
554.519	117.38
554.732	102.38
554.944	110.38
555.157	98.38
555.37	117.38
555.583	96.38
555.795	114.38
556.008	97.38
556.221	110.38
556.433	103.38
556.646	84.38
556.859	112.38
557.071	106.38
557.284	99.38
557.496	106.38
557.709	101.38
557.921	105.38
558.134	112.38
558.346	102.38
558.559	81.38
558.771	108.38
558.984	105.38
559.196	94.38
559.409	102.38
559.621	97.38
559.833	110.38
560.046	104.38
560.258	105.38
560.47	100.38
560.683	97.38
560.895	96.38
561.107	94.38
561.32	107.38
561.532	114.38
561.744	96.38
561.956	102.38
562.168	109.38
562.381	113.38
562.593	106.38
562.805	102.38
563.017	98.38
563.229	105.38
563.441	102.38
563.653	92.38
563.865	89.38
564.077	115.38
564.289	92.38
564.501	110.38
564.713	120.38
564.925	115.38
565.137	108.38
565.349	104.38
565.561	107.38
565.773	107.38
565.985	104.38
566.197	91.38
566.408	111.38
566.62	101.38
566.832	113.38
567.044	99.38
567.255	120.38
567.467	110.38
567.679	85.38
567.891	108.38
568.102	109.38
568.314	126.38
568.526	111.38
568.737	105.38
568.949	108.38
569.161	87.38
569.372	88.38
569.584	101.38
569.795	106.38
570.007	111.38
570.218	95.38
570.43	108.38
570.641	103.38
570.853	114.38
571.064	107.38
571.276	99.38
571.487	110.38
571.698	94.38
571.91	85.38
572.121	91.38
572.333	98.38
572.544	104.38
572.755	93.38
572.966	83.38
573.178	96.38
573.389	108.38
573.6	94.38
573.811	94.38
574.023	95.38
574.234	88.38
574.445	93.38
574.656	102.38
574.867	99.38
575.078	93.38
575.289	89.38
575.501	101.38
575.712	99.38
575.923	99.38
576.134	78.38
576.345	91.38
576.556	94.38
576.767	91.38
576.978	99.38
577.188	82.38
577.399	95.38
577.61	118.38
577.821	91.38
578.032	111.38
578.243	96.38
578.454	100.38
578.665	98.38
578.875	102.38
579.086	84.38
579.297	99.38
579.508	102.38
579.718	96.38
579.929	99.38
580.14	86.38
580.35	93.38
580.561	88.38
580.772	95.38
580.982	93.38
581.193	104.38
581.403	89.38
581.614	91.38
581.825	88.38
582.035	95.38
582.246	87.38
582.456	85.38
582.667	97.38
582.877	97.38
583.087	94.38
583.298	95.38
583.508	90.38
583.719	107.38
583.929	86.38
584.139	88.38
584.35	106.38
584.56	101.38
584.77	91.38
584.981	84.38
585.191	91.38
585.401	105.38
585.611	104.38
585.821	93.38
586.032	91.38
586.242	91.38
586.452	91.38
586.662	94.38
586.872	101.38
587.082	104.38
587.292	102.38
587.502	93.38
587.713	92.38
587.923	99.38
588.133	90.38
588.343	90.38
588.553	97.38
588.762	100.38
588.972	88.38
589.182	109.38
589.392	92.38
589.602	88.38
589.812	107.38
590.022	108.38
590.232	97.38
590.441	93.38
590.651	70.38
590.861	94.38
591.071	106.38
591.281	86.38
591.49	97.38
591.7	111.38
591.91	101.38
592.119	96.38
592.329	79.38
592.539	83.38
592.748	111.38
592.958	88.38
593.167	107.38
593.377	88.38
593.587	99.38
593.796	98.38
594.006	99.38
594.215	86.38
594.424	101.38
594.634	92.38
594.843	92.38
595.053	119.38
595.262	87.38
595.472	88.38
595.681	99.38
595.89	105.38
596.1	101.38
596.309	94.38
596.518	99.38
596.727	96.38
596.937	86.38
597.146	92.38
597.355	97.38
597.564	95.38
597.774	87.38
597.983	92.38
598.192	92.38
598.401	82.38
598.61	94.38
598.819	95.38
599.028	75.38
599.237	99.38
599.446	91.38
599.655	101.38
599.864	103.38
600.073	87.38
600.282	87.38
600.491	92.38
600.7	97.38
600.909	110.38
601.118	101.38
601.327	81.38
601.536	98.38
601.745	112.38
601.953	116.38
602.162	97.38
602.371	102.38
602.58	99.38
602.789	98.38
602.997	96.38
603.206	107.38
603.415	109.38
603.623	96.38
603.832	86.38
604.041	83.38
604.249	82.38
604.458	108.38
604.666	98.38
604.875	100.38
605.084	91.38
605.292	107.38
605.501	87.38
605.709	87.38
605.918	95.38
606.126	87.38
606.334	83.38
606.543	99.38
606.751	94.38
606.96	91.38
607.168	98.38
607.376	91.38
607.585	94.38
607.793	87.38
608.001	99.38
608.21	78.38
608.418	98.38
608.626	100.38
608.834	86.38
609.043	88.38
609.251	86.38
609.459	99.38
609.667	109.38
609.875	93.38
610.083	113.38
610.291	101.38
610.499	79.38
610.707	89.38
610.916	89.38
611.124	87.38
611.332	90.38
611.54	95.38
611.748	93.38
611.955	92.38
612.163	100.38
612.371	87.38
612.579	90.38
612.787	92.38
612.995	89.38
613.203	106.38
613.411	93.38
613.618	90.38
613.826	87.38
614.034	98.38
614.242	92.38
614.449	85.38
614.657	99.38
614.865	88.38
615.072	98.38
615.28	95.38
615.488	79.38
615.695	84.38
615.903	96.38
616.111	69.38
616.318	96.38
616.526	86.38
616.733	102.38
616.941	102.38
617.148	109.38
617.356	94.38
617.563	86.38
617.771	86.38
617.978	96.38
618.185	99.38
618.393	76.38
618.6	99.38
618.807	94.38
619.015	105.38
619.222	104.38
619.429	67.38
619.637	96.38
619.844	98.38
620.051	91.38
620.258	82.38
620.466	80.38
620.673	82.38
620.88	92.38
621.087	86.38
621.294	89.38
621.501	93.38
621.708	81.38
621.915	99.38
622.122	90.38
622.329	86.38
622.536	94.38
622.743	93.38
622.95	84.38
623.157	80.38
623.364	79.38
623.571	79.38
623.778	88.38
623.985	99.38
624.192	88.38
624.399	89.38
624.606	90.38
624.812	97.38
625.019	103.38
625.226	98.38
625.433	98.38
625.639	92.38
625.846	73.38
626.053	84.38
626.259	95.38
626.466	95.38
626.673	89.38
626.879	95.38
627.086	95.38
627.293	84.38
627.499	79.38
627.706	89.38
627.912	91.38
628.119	101.38
628.325	81.38
628.532	103.38
628.738	95.38
628.945	95.38
629.151	96.38
629.357	79.38
629.564	96.38
629.77	89.38
629.976	90.38
630.183	85.38
630.389	100.38
630.595	94.38
630.802	73.38
631.008	85.38
631.214	95.38
631.42	84.38
631.627	96.38
631.833	94.38
632.039	97.38
632.245	98.38
632.451	90.38
632.657	97.38
632.863	86.38
633.069	106.38
633.275	79.38
633.481	101.38
633.688	93.38
633.893	88.38
634.099	84.38
634.305	85.38
634.511	93.38
634.717	95.38
634.923	70.38
635.129	95.38
635.335	79.38
635.541	96.38
635.747	104.38
635.952	71.38
636.158	92.38
636.364	102.38
636.57	86.38
636.775	85.38
636.981	90.38
637.187	78.38
637.392	81.38
637.598	90.38
637.804	88.38
638.009	102.38
638.215	86.38
638.421	103.38
638.626	95.38
638.832	104.38
639.037	96.38
639.243	91.38
639.448	86.38
639.654	94.38
639.859	107.38
640.065	94.38
640.27	91.38
640.475	85.38
640.681	85.38
640.886	91.38
641.091	92.38
641.297	99.38
641.502	87.38
641.707	85.38
641.913	81.38
642.118	85.38
642.323	74.38
642.528	98.38
642.733	100.38
642.939	98.38
643.144	101.38
643.349	95.38
643.554	92.38
643.759	77.38
643.964	78.38
644.169	91.38
644.374	85.38
644.579	93.38
644.784	87.38
644.989	105.38
645.194	106.38
645.399	91.38
645.604	85.38
645.809	95.38
646.014	88.38
646.219	92.38
646.423	78.38
646.628	100.38
646.833	92.38
647.038	92.38
647.243	112.38
647.447	80.38
647.652	83.38
647.857	90.38
648.062	84.38
648.266	80.38
648.471	96.38
648.676	77.38
648.88	73.38
649.085	95.38
649.289	90.38
649.494	75.38
649.698	84.38
649.903	90.38
650.107	93.38
650.312	86.38
650.516	91.38
650.721	89.38
650.925	96.38
651.13	97.38
651.334	64.38
651.539	91.38
651.743	88.38
651.947	85.38
652.152	90.38
652.356	79.38
652.56	74.38
652.764	87.38
652.969	86.38
653.173	77.38
653.377	87.38
653.581	89.38
653.785	90.38
653.99	86.38
654.194	90.38
654.398	88.38
654.602	79.38
654.806	100.38
655.01	96.38
655.214	95.38
655.418	86.38
655.622	94.38
655.826	75.38
656.03	97.38
656.234	90.38
656.438	83.38
656.642	94.38
656.846	86.38
657.049	91.38
657.253	96.38
657.457	89.38
657.661	95.38
657.865	89.38
658.068	95.38
658.272	80.38
658.476	77.38
658.68	84.38
658.883	89.38
659.087	94.38
659.291	80.38
659.494	71.38
659.698	89.38
659.901	92.38
660.105	76.38
660.309	80.38
660.512	98.38
660.716	86.38
660.919	84.38
661.123	89.38
661.326	85.38
661.53	82.38
661.733	84.38
661.936	76.38
662.14	94.38
662.343	77.38
662.546	71.38
662.75	77.38
662.953	99.38
663.156	99.38
663.36	89.38
663.563	92.38
663.766	83.38
663.969	102.38
664.173	70.38
664.376	87.38
664.579	98.38
664.782	85.38
664.985	71.38
665.188	78.38
665.391	84.38
665.594	92.38
665.797	101.38
666	77.38
666.203	89.38
666.406	65.38
666.609	95.38
666.812	86.38
667.015	82.38
667.218	77.38
667.421	98.38
667.624	91.38
667.827	80.38
668.03	96.38
668.232	84.38
668.435	98.38
668.638	88.38
668.841	94.38
669.043	79.38
669.246	84.38
669.449	85.38
669.651	89.38
669.854	72.38
670.057	74.38
670.259	86.38
670.462	78.38
670.665	99.38
670.867	86.38
671.07	93.38
671.272	99.38
671.475	86.38
671.677	93.38
671.88	83.38
672.082	89.38
672.284	73.38
672.487	88.38
672.689	84.38
672.892	93.38
