Data from Location5.07152019.Energy5.Lamp.07192019.3%Agarose_HRD10591_16-03-23-628.txt Node
Date: Fri Jul 19 16:03:23 EDT 2019
User: cochatt
Spectrometer: HR+D1059
Trigger mode: 1
Integration Time (sec): 1.000000E-1
Scans to average: 1
Electric dark correction enabled: true
Nonlinearity correction enabled: false
Boxcar width: 0
XAxis mode: Wavelengths
Number of Pixels in Spectrum: 2048
>>>>>Begin Spectral Data<<<<<
223.165	0.06
223.4	0.06
223.635	0.06
223.869	-17.94
224.104	-32.94
224.338	-7.94
224.573	-16.94
224.808	-26.94
225.042	0.06
225.277	3.06
225.511	-0.94
225.746	2.06
225.98	1.06
226.215	15.06
226.449	28.06
226.683	20.06
226.918	16.06
227.152	18.06
227.387	35.06
227.621	34.06
227.856	47.06
228.09	43.06
228.324	50.06
228.559	56.06
228.793	63.06
229.027	56.06
229.262	66.06
229.496	62.06
229.73	73.06
229.964	63.06
230.199	68.06
230.433	73.06
230.667	84.06
230.901	68.06
231.136	79.06
231.37	83.06
231.604	76.06
231.838	83.06
232.072	91.06
232.306	81.06
232.541	73.06
232.775	94.06
233.009	70.06
233.243	85.06
233.477	85.06
233.711	78.06
233.945	85.06
234.179	94.06
234.413	78.06
234.647	73.06
234.881	75.06
235.115	87.06
235.349	85.06
235.583	89.06
235.817	77.06
236.051	72.06
236.285	90.06
236.519	82.06
236.753	84.06
236.987	79.06
237.221	81.06
237.455	76.06
237.689	73.06
237.922	82.06
238.156	78.06
238.39	76.06
238.624	77.06
238.858	76.06
239.091	73.06
239.325	75.06
239.559	87.06
239.793	84.06
240.027	78.06
240.26	72.06
240.494	65.06
240.728	70.06
240.961	73.06
241.195	84.06
241.429	79.06
241.662	74.06
241.896	79.06
242.13	70.06
242.363	77.06
242.597	83.06
242.83	79.06
243.064	82.06
243.298	74.06
243.531	64.06
243.765	81.06
243.998	76.06
244.232	75.06
244.465	87.06
244.699	84.06
244.932	89.06
245.166	88.06
245.399	87.06
245.633	95.06
245.866	79.06
246.099	60.06
246.333	85.06
246.566	78.06
246.8	83.06
247.033	76.06
247.266	82.06
247.5	83.06
247.733	82.06
247.966	89.06
248.2	76.06
248.433	83.06
248.666	81.06
248.899	89.06
249.133	74.06
249.366	73.06
249.599	82.06
249.832	75.06
250.066	82.06
250.299	72.06
250.532	75.06
250.765	94.06
250.998	68.06
251.231	78.06
251.465	73.06
251.698	90.06
251.931	84.06
252.164	86.06
252.397	81.06
252.63	71.06
252.863	79.06
253.096	86.06
253.329	96.06
253.562	83.06
253.795	96.06
254.028	80.06
254.261	88.06
254.494	77.06
254.727	72.06
254.96	94.06
255.193	81.06
255.426	82.06
255.659	88.06
255.892	95.06
256.124	90.06
256.357	79.06
256.59	87.06
256.823	88.06
257.056	75.06
257.289	79.06
257.521	84.06
257.754	69.06
257.987	82.06
258.22	82.06
258.452	88.06
258.685	88.06
258.918	86.06
259.151	91.06
259.383	88.06
259.616	83.06
259.849	88.06
260.081	90.06
260.314	89.06
260.547	76.06
260.779	74.06
261.012	89.06
261.244	66.06
261.477	84.06
261.71	103.06
261.942	84.06
262.175	87.06
262.407	73.06
262.64	75.06
262.872	103.06
263.105	84.06
263.337	86.06
263.57	83.06
263.802	90.06
264.035	76.06
264.267	84.06
264.499	87.06
264.732	83.06
264.964	84.06
265.197	76.06
265.429	92.06
265.661	72.06
265.894	88.06
266.126	69.06
266.358	84.06
266.591	82.06
266.823	87.06
267.055	91.06
267.287	89.06
267.52	90.06
267.752	84.06
267.984	83.06
268.216	91.06
268.448	98.06
268.681	80.06
268.913	83.06
269.145	78.06
269.377	101.06
269.609	76.06
269.841	84.06
270.073	88.06
270.306	78.06
270.538	97.06
270.77	81.06
271.002	87.06
271.234	98.06
271.466	100.06
271.698	98.06
271.93	82.06
272.162	86.06
272.394	91.06
272.626	80.06
272.858	90.06
273.09	71.06
273.322	82.06
273.553	102.06
273.785	77.06
274.017	81.06
274.249	89.06
274.481	97.06
274.713	85.06
274.945	98.06
275.176	90.06
275.408	82.06
275.64	87.06
275.872	82.06
276.104	72.06
276.335	94.06
276.567	83.06
276.799	86.06
277.031	76.06
277.262	82.06
277.494	90.06
277.726	87.06
277.957	105.06
278.189	83.06
278.421	89.06
278.652	99.06
278.884	100.06
279.115	89.06
279.347	83.06
279.579	88.06
279.81	76.06
280.042	79.06
280.273	101.06
280.505	79.06
280.736	78.06
280.968	99.06
281.199	97.06
281.431	90.06
281.662	96.06
281.894	97.06
282.125	105.06
282.356	93.06
282.588	90.06
282.819	86.06
283.051	77.06
283.282	79.06
283.513	97.06
283.745	92.06
283.976	82.06
284.207	88.06
284.439	93.06
284.67	87.06
284.901	82.06
285.132	83.06
285.364	89.06
285.595	96.06
285.826	78.06
286.057	94.06
286.288	89.06
286.52	84.06
286.751	84.06
286.982	84.06
287.213	107.06
287.444	95.06
287.675	95.06
287.906	99.06
288.138	98.06
288.369	77.06
288.6	85.06
288.831	91.06
289.062	100.06
289.293	95.06
289.524	84.06
289.755	90.06
289.986	90.06
290.217	92.06
290.448	88.06
290.679	90.06
290.91	105.06
291.141	99.06
291.371	91.06
291.602	90.06
291.833	91.06
292.064	95.06
292.295	89.06
292.526	94.06
292.757	97.06
292.987	97.06
293.218	96.06
293.449	86.06
293.68	100.06
293.91	90.06
294.141	95.06
294.372	88.06
294.603	86.06
294.833	87.06
295.064	98.06
295.295	94.06
295.525	102.06
295.756	89.06
295.987	91.06
296.217	94.06
296.448	89.06
296.679	80.06
296.909	100.06
297.14	93.06
297.37	90.06
297.601	88.06
297.831	80.06
298.062	83.06
298.292	96.06
298.523	89.06
298.753	94.06
298.984	83.06
299.214	98.06
299.445	97.06
299.675	91.06
299.905	100.06
300.136	76.06
300.366	91.06
300.597	83.06
300.827	98.06
301.057	98.06
301.288	90.06
301.518	95.06
301.748	92.06
301.979	95.06
302.209	90.06
302.439	103.06
302.669	94.06
302.9	94.06
303.13	92.06
303.36	81.06
303.59	84.06
303.82	102.06
304.051	90.06
304.281	96.06
304.511	80.06
304.741	90.06
304.971	83.06
305.201	94.06
305.431	103.06
305.661	112.06
305.891	98.06
306.121	83.06
306.352	94.06
306.582	96.06
306.812	80.06
307.042	105.06
307.272	101.06
307.502	97.06
307.731	81.06
307.961	94.06
308.191	91.06
308.421	95.06
308.651	94.06
308.881	93.06
309.111	81.06
309.341	93.06
309.571	93.06
309.8	86.06
310.03	90.06
310.26	89.06
310.49	82.06
310.72	90.06
310.949	92.06
311.179	102.06
311.409	91.06
311.639	99.06
311.868	86.06
312.098	88.06
312.328	77.06
312.557	93.06
312.787	95.06
313.017	108.06
313.246	91.06
313.476	86.06
313.706	73.06
313.935	88.06
314.165	93.06
314.394	98.06
314.624	92.06
314.853	95.06
315.083	92.06
315.312	98.06
315.542	97.06
315.771	92.06
316.001	98.06
316.23	95.06
316.46	110.06
316.689	87.06
316.919	97.06
317.148	89.06
317.377	104.06
317.607	101.06
317.836	78.06
318.065	94.06
318.295	95.06
318.524	84.06
318.753	90.06
318.983	82.06
319.212	81.06
319.441	99.06
319.67	104.06
319.9	104.06
320.129	94.06
320.358	79.06
320.587	95.06
320.816	102.06
321.046	101.06
321.275	90.06
321.504	79.06
321.733	87.06
321.962	98.06
322.191	96.06
322.42	87.06
322.649	86.06
322.878	91.06
323.108	95.06
323.337	71.06
323.566	74.06
323.795	100.06
324.024	95.06
324.253	86.06
324.482	88.06
324.71	95.06
324.939	92.06
325.168	99.06
325.397	91.06
325.626	95.06
325.855	96.06
326.084	86.06
326.313	102.06
326.542	88.06
326.77	100.06
326.999	92.06
327.228	86.06
327.457	82.06
327.686	80.06
327.914	101.06
328.143	91.06
328.372	95.06
328.6	96.06
328.829	100.06
329.058	95.06
329.287	88.06
329.515	86.06
329.744	100.06
329.972	101.06
330.201	91.06
330.43	101.06
330.658	91.06
330.887	79.06
331.115	88.06
331.344	87.06
331.572	83.06
331.801	108.06
332.03	108.06
332.258	86.06
332.486	91.06
332.715	100.06
332.943	101.06
333.172	101.06
333.4	78.06
333.629	91.06
333.857	110.06
334.085	103.06
334.314	95.06
334.542	109.06
334.771	89.06
334.999	89.06
335.227	96.06
335.455	89.06
335.684	89.06
335.912	100.06
336.14	114.06
336.369	105.06
336.597	99.06
336.825	96.06
337.053	95.06
337.281	90.06
337.51	91.06
337.738	102.06
337.966	90.06
338.194	101.06
338.422	100.06
338.65	84.06
338.878	89.06
339.106	99.06
339.334	105.06
339.562	101.06
339.79	112.06
340.018	99.06
340.246	85.06
340.474	87.06
340.702	100.06
340.93	85.06
341.158	94.06
341.386	89.06
341.614	89.06
341.842	99.06
342.07	103.06
342.298	98.06
342.526	96.06
342.754	100.06
342.981	100.06
343.209	87.06
343.437	90.06
343.665	101.06
343.893	107.06
344.12	96.06
344.348	103.06
344.576	98.06
344.804	92.06
345.031	91.06
345.259	92.06
345.487	86.06
345.714	87.06
345.942	95.06
346.17	97.06
346.397	101.06
346.625	92.06
346.853	97.06
347.08	92.06
347.308	100.06
347.535	90.06
347.763	92.06
347.99	98.06
348.218	85.06
348.445	99.06
348.673	105.06
348.9	114.06
349.128	89.06
349.355	90.06
349.583	81.06
349.81	81.06
350.037	87.06
350.265	89.06
350.492	93.06
350.72	95.06
350.947	87.06
351.174	91.06
351.402	82.06
351.629	96.06
351.856	83.06
352.083	89.06
352.311	110.06
352.538	88.06
352.765	91.06
352.992	88.06
353.22	95.06
353.447	88.06
353.674	99.06
353.901	86.06
354.128	92.06
354.355	89.06
354.583	95.06
354.81	96.06
355.037	96.06
355.264	100.06
355.491	99.06
355.718	82.06
355.945	96.06
356.172	97.06
356.399	84.06
356.626	97.06
356.853	96.06
357.08	96.06
357.307	97.06
357.534	89.06
357.761	80.06
357.988	112.06
358.215	89.06
358.441	97.06
358.668	106.06
358.895	89.06
359.122	94.06
359.349	90.06
359.576	94.06
359.802	94.06
360.029	94.06
360.256	107.06
360.483	102.06
360.709	83.06
360.936	93.06
361.163	93.06
361.39	98.06
361.616	91.06
361.843	90.06
362.07	82.06
362.296	82.06
362.523	89.06
362.749	89.06
362.976	88.06
363.203	92.06
363.429	96.06
363.656	94.06
363.882	80.06
364.109	105.06
364.335	99.06
364.562	94.06
364.788	83.06
365.015	94.06
365.241	93.06
365.468	90.06
365.694	88.06
365.92	81.06
366.147	93.06
366.373	78.06
366.599	92.06
366.826	96.06
367.052	96.06
367.278	101.06
367.505	94.06
367.731	96.06
367.957	102.06
368.184	98.06
368.41	82.06
368.636	95.06
368.862	94.06
369.089	103.06
369.315	102.06
369.541	96.06
369.767	95.06
369.993	84.06
370.219	75.06
370.445	88.06
370.672	89.06
370.898	102.06
371.124	90.06
371.35	88.06
371.576	95.06
371.802	104.06
372.028	87.06
372.254	91.06
372.48	75.06
372.706	96.06
372.932	94.06
373.158	98.06
373.384	101.06
373.61	97.06
373.835	101.06
374.061	100.06
374.287	95.06
374.513	90.06
374.739	94.06
374.965	96.06
375.191	86.06
375.416	103.06
375.642	94.06
375.868	94.06
376.094	111.06
376.319	92.06
376.545	94.06
376.771	98.06
376.997	94.06
377.222	85.06
377.448	110.06
377.674	90.06
377.899	90.06
378.125	98.06
378.35	91.06
378.576	94.06
378.802	91.06
379.027	93.06
379.253	99.06
379.478	110.06
379.704	104.06
379.929	108.06
380.155	86.06
380.38	102.06
380.606	83.06
380.831	95.06
381.057	89.06
381.282	74.06
381.507	88.06
381.733	90.06
381.958	98.06
382.184	76.06
382.409	110.06
382.634	87.06
382.86	98.06
383.085	101.06
383.31	89.06
383.535	90.06
383.761	91.06
383.986	106.06
384.211	92.06
384.436	102.06
384.662	98.06
384.887	89.06
385.112	100.06
385.337	88.06
385.562	86.06
385.787	91.06
386.013	94.06
386.238	97.06
386.463	90.06
386.688	107.06
386.913	87.06
387.138	111.06
387.363	92.06
387.588	95.06
387.813	94.06
388.038	102.06
388.263	94.06
388.488	95.06
388.713	84.06
388.938	92.06
389.163	98.06
389.387	87.06
389.612	100.06
389.837	96.06
390.062	111.06
390.287	81.06
390.512	102.06
390.736	94.06
390.961	105.06
391.186	104.06
391.411	104.06
391.636	86.06
391.86	95.06
392.085	83.06
392.31	96.06
392.534	99.06
392.759	92.06
392.984	115.06
393.208	96.06
393.433	101.06
393.658	103.06
393.882	99.06
394.107	95.06
394.331	93.06
394.556	97.06
394.78	97.06
395.005	97.06
395.229	104.06
395.454	84.06
395.678	99.06
395.903	104.06
396.127	99.06
396.352	105.06
396.576	103.06
396.801	101.06
397.025	96.06
397.249	89.06
397.474	97.06
397.698	95.06
397.922	92.06
398.147	91.06
398.371	92.06
398.595	107.06
398.82	90.06
399.044	99.06
399.268	103.06
399.492	119.06
399.717	113.06
399.941	96.06
400.165	102.06
400.389	100.06
400.613	89.06
400.837	92.06
401.062	95.06
401.286	102.06
401.51	100.06
401.734	114.06
401.958	106.06
402.182	99.06
402.406	98.06
402.63	94.06
402.854	103.06
403.078	103.06
403.302	117.06
403.526	105.06
403.75	97.06
403.974	107.06
404.198	113.06
404.422	99.06
404.645	97.06
404.869	102.06
405.093	100.06
405.317	101.06
405.541	97.06
405.765	112.06
405.988	96.06
406.212	107.06
406.436	101.06
406.66	106.06
406.883	101.06
407.107	108.06
407.331	107.06
407.555	109.06
407.778	103.06
408.002	111.06
408.226	109.06
408.449	110.06
408.673	106.06
408.896	98.06
409.12	93.06
409.344	102.06
409.567	100.06
409.791	110.06
410.014	97.06
410.238	101.06
410.461	103.06
410.685	106.06
410.908	105.06
411.132	89.06
411.355	96.06
411.578	101.06
411.802	106.06
412.025	117.06
412.249	103.06
412.472	94.06
412.695	93.06
412.919	97.06
413.142	97.06
413.365	95.06
413.589	106.06
413.812	109.06
414.035	112.06
414.258	95.06
414.482	103.06
414.705	87.06
414.928	100.06
415.151	94.06
415.374	84.06
415.597	97.06
415.821	102.06
416.044	105.06
416.267	97.06
416.49	114.06
416.713	94.06
416.936	103.06
417.159	99.06
417.382	96.06
417.605	103.06
417.828	78.06
418.051	83.06
418.274	101.06
418.497	98.06
418.72	112.06
418.943	89.06
419.166	101.06
419.389	99.06
419.611	97.06
419.834	93.06
420.057	100.06
420.28	96.06
420.503	110.06
420.726	105.06
420.948	89.06
421.171	99.06
421.394	92.06
421.617	96.06
421.839	93.06
422.062	111.06
422.285	98.06
422.507	104.06
422.73	85.06
422.953	95.06
423.175	90.06
423.398	89.06
423.621	102.06
423.843	92.06
424.066	99.06
424.288	89.06
424.511	107.06
424.733	105.06
424.956	110.06
425.178	103.06
425.401	97.06
425.623	101.06
425.846	102.06
426.068	103.06
426.291	95.06
426.513	105.06
426.735	91.06
426.958	97.06
427.18	99.06
427.402	94.06
427.625	94.06
427.847	90.06
428.069	102.06
428.292	110.06
428.514	109.06
428.736	92.06
428.958	97.06
429.181	98.06
429.403	98.06
429.625	81.06
429.847	96.06
430.069	101.06
430.292	107.06
430.514	91.06
430.736	95.06
430.958	96.06
431.18	98.06
431.402	105.06
431.624	105.06
431.846	103.06
432.068	88.06
432.29	100.06
432.512	105.06
432.734	90.06
432.956	98.06
433.178	101.06
433.4	107.06
433.622	92.06
433.844	92.06
434.066	112.06
434.287	90.06
434.509	88.06
434.731	100.06
434.953	105.06
435.175	94.06
435.397	94.06
435.618	102.06
435.84	106.06
436.062	111.06
436.284	97.06
436.505	89.06
436.727	100.06
436.949	93.06
437.17	85.06
437.392	95.06
437.614	103.06
437.835	100.06
438.057	79.06
438.278	75.06
438.5	100.06
438.721	103.06
438.943	86.06
439.165	94.06
439.386	88.06
439.608	102.06
439.829	100.06
440.05	102.06
440.272	95.06
440.493	108.06
440.715	98.06
440.936	104.06
441.158	94.06
441.379	94.06
441.6	96.06
441.822	100.06
442.043	91.06
442.264	110.06
442.486	99.06
442.707	84.06
442.928	95.06
443.149	81.06
443.371	106.06
443.592	97.06
443.813	97.06
444.034	91.06
444.255	108.06
444.476	90.06
444.698	103.06
444.919	86.06
445.14	216.06
445.361	151.06
445.582	108.06
445.803	91.06
446.024	104.06
446.245	107.06
446.466	103.06
446.687	71.06
446.908	84.06
447.129	96.06
447.35	102.06
447.571	97.06
447.792	101.06
448.013	101.06
448.234	93.06
448.455	83.06
448.675	87.06
448.896	91.06
449.117	87.06
449.338	97.06
449.559	86.06
449.779	96.06
450	107.06
450.221	89.06
450.442	88.06
450.662	86.06
450.883	86.06
451.104	100.06
451.324	85.06
451.545	95.06
451.766	95.06
451.986	85.06
452.207	100.06
452.428	82.06
452.648	101.06
452.869	107.06
453.089	87.06
453.31	92.06
453.53	100.06
453.751	101.06
453.971	85.06
454.192	95.06
454.412	95.06
454.633	91.06
454.853	94.06
455.073	89.06
455.294	101.06
455.514	98.06
455.734	94.06
455.955	91.06
456.175	90.06
456.395	102.06
456.616	87.06
456.836	90.06
457.056	95.06
457.276	89.06
457.497	88.06
457.717	89.06
457.937	101.06
458.157	92.06
458.377	91.06
458.598	90.06
458.818	96.06
459.038	107.06
459.258	92.06
459.478	98.06
459.698	92.06
459.918	103.06
460.138	90.06
460.358	104.06
460.578	95.06
460.798	104.06
461.018	105.06
461.238	105.06
461.458	111.06
461.678	100.06
461.898	112.06
462.118	97.06
462.338	100.06
462.558	106.06
462.777	114.06
462.997	110.06
463.217	106.06
463.437	111.06
463.657	116.06
463.876	109.06
464.096	115.06
464.316	116.06
464.536	110.06
464.755	105.06
464.975	88.06
465.195	105.06
465.414	114.06
465.634	110.06
465.854	94.06
466.073	102.06
466.293	89.06
466.512	88.06
466.732	91.06
466.951	106.06
467.171	108.06
467.391	98.06
467.61	98.06
467.829	94.06
468.049	104.06
468.268	106.06
468.488	100.06
468.707	90.06
468.927	100.06
469.146	90.06
469.365	94.06
469.585	107.06
469.804	110.06
470.023	88.06
470.243	107.06
470.462	105.06
470.681	94.06
470.901	109.06
471.12	90.06
471.339	106.06
471.558	91.06
471.777	94.06
471.997	83.06
472.216	103.06
472.435	82.06
472.654	103.06
472.873	98.06
473.092	98.06
473.311	91.06
473.53	102.06
473.749	99.06
473.968	112.06
474.187	106.06
474.406	91.06
474.625	100.06
474.844	98.06
475.063	77.06
475.282	94.06
475.501	101.06
475.72	100.06
475.939	95.06
476.158	106.06
476.377	111.06
476.596	98.06
476.814	109.06
477.033	108.06
477.252	95.06
477.471	100.06
477.69	100.06
477.908	87.06
478.127	120.06
478.346	105.06
478.564	108.06
478.783	116.06
479.002	111.06
479.22	101.06
479.439	98.06
479.658	106.06
479.876	105.06
480.095	107.06
480.313	119.06
480.532	120.06
480.751	105.06
480.969	102.06
481.188	94.06
481.406	99.06
481.624	115.06
481.843	100.06
482.061	106.06
482.28	99.06
482.498	99.06
482.717	103.06
482.935	105.06
483.153	118.06
483.372	102.06
483.59	113.06
483.808	103.06
484.027	121.06
484.245	97.06
484.463	103.06
484.681	93.06
484.9	93.06
485.118	106.06
485.336	110.06
485.554	99.06
485.772	104.06
485.99	100.06
486.209	113.06
486.427	100.06
486.645	97.06
486.863	123.06
487.081	115.06
487.299	106.06
487.517	110.06
487.735	120.06
487.953	120.06
488.171	111.06
488.389	107.06
488.607	109.06
488.825	105.06
489.043	100.06
489.261	103.06
489.479	110.06
489.696	110.06
489.914	107.06
490.132	118.06
490.35	112.06
490.568	108.06
490.786	107.06
491.003	119.06
491.221	105.06
491.439	122.06
491.657	119.06
491.874	111.06
492.092	117.06
492.31	118.06
492.527	115.06
492.745	119.06
492.963	110.06
493.18	118.06
493.398	112.06
493.615	105.06
493.833	116.06
494.05	116.06
494.268	96.06
494.485	120.06
494.703	103.06
494.92	107.06
495.138	121.06
495.355	120.06
495.573	131.06
495.79	114.06
496.008	121.06
496.225	110.06
496.442	110.06
496.66	110.06
496.877	119.06
497.094	113.06
497.312	116.06
497.529	111.06
497.746	117.06
497.963	130.06
498.181	114.06
498.398	121.06
498.615	119.06
498.832	113.06
499.049	116.06
499.267	128.06
499.484	132.06
499.701	152.06
499.918	127.06
500.135	163.06
500.352	157.06
500.569	163.06
500.786	176.06
501.003	151.06
501.22	146.06
501.437	129.06
501.654	125.06
501.871	126.06
502.088	115.06
502.305	121.06
502.522	122.06
502.739	118.06
502.956	108.06
503.172	114.06
503.389	125.06
503.606	98.06
503.823	108.06
504.04	96.06
504.256	115.06
504.473	117.06
504.69	126.06
504.907	124.06
505.123	115.06
505.34	111.06
505.557	107.06
505.773	118.06
505.99	110.06
506.207	107.06
506.423	111.06
506.64	113.06
506.856	116.06
507.073	122.06
507.289	103.06
507.506	100.06
507.722	100.06
507.939	105.06
508.155	109.06
508.372	104.06
508.588	97.06
508.805	111.06
509.021	95.06
509.238	106.06
509.454	104.06
509.67	94.06
509.887	87.06
510.103	95.06
510.319	98.06
510.536	107.06
510.752	96.06
510.968	103.06
511.184	103.06
511.401	110.06
511.617	110.06
511.833	111.06
512.049	94.06
512.265	103.06
512.481	113.06
512.698	107.06
512.914	104.06
513.13	84.06
513.346	112.06
513.562	101.06
513.778	117.06
513.994	107.06
514.21	114.06
514.426	102.06
514.642	114.06
514.858	99.06
515.074	104.06
515.29	102.06
515.506	105.06
515.721	101.06
515.937	100.06
516.153	108.06
516.369	90.06
516.585	107.06
516.801	94.06
517.016	94.06
517.232	111.06
517.448	119.06
517.664	115.06
517.879	122.06
518.095	121.06
518.311	104.06
518.527	81.06
518.742	100.06
518.958	84.06
519.173	108.06
519.389	113.06
519.605	102.06
519.82	105.06
520.036	112.06
520.251	106.06
520.467	114.06
520.682	92.06
520.898	116.06
521.113	107.06
521.329	107.06
521.544	112.06
521.76	111.06
521.975	101.06
522.19	109.06
522.406	105.06
522.621	91.06
522.836	115.06
523.052	115.06
523.267	120.06
523.482	96.06
523.698	97.06
523.913	94.06
524.128	98.06
524.343	98.06
524.559	110.06
524.774	106.06
524.989	96.06
525.204	105.06
525.419	111.06
525.634	110.06
525.849	112.06
526.064	106.06
526.28	110.06
526.495	113.06
526.71	104.06
526.925	99.06
527.14	91.06
527.355	103.06
527.57	101.06
527.785	98.06
527.999	103.06
528.214	100.06
528.429	90.06
528.644	115.06
528.859	107.06
529.074	114.06
529.289	100.06
529.503	115.06
529.718	112.06
529.933	95.06
530.148	94.06
530.363	116.06
530.577	100.06
530.792	90.06
531.007	98.06
531.221	115.06
531.436	98.06
531.651	97.06
531.865	107.06
532.08	110.06
532.295	114.06
532.509	104.06
532.724	107.06
532.938	96.06
533.153	105.06
533.367	99.06
533.582	115.06
533.796	104.06
534.011	109.06
534.225	105.06
534.44	85.06
534.654	86.06
534.868	91.06
535.083	116.06
535.297	111.06
535.511	95.06
535.726	123.06
535.94	115.06
536.154	93.06
536.369	94.06
536.583	94.06
536.797	112.06
537.011	110.06
537.225	100.06
537.44	89.06
537.654	91.06
537.868	96.06
538.082	104.06
538.296	106.06
538.51	96.06
538.724	105.06
538.938	100.06
539.153	115.06
539.367	108.06
539.581	95.06
539.795	103.06
540.009	88.06
540.222	105.06
540.436	98.06
540.65	97.06
540.864	102.06
541.078	108.06
541.292	113.06
541.506	107.06
541.72	104.06
541.934	102.06
542.147	114.06
542.361	100.06
542.575	104.06
542.789	98.06
543.002	103.06
543.216	107.06
543.43	104.06
543.644	99.06
543.857	111.06
544.071	100.06
544.285	117.06
544.498	98.06
544.712	104.06
544.925	115.06
545.139	96.06
545.352	99.06
545.566	108.06
545.779	112.06
545.993	107.06
546.206	114.06
546.42	96.06
546.633	108.06
546.847	104.06
547.06	104.06
547.274	95.06
547.487	98.06
547.7	103.06
547.914	110.06
548.127	86.06
548.34	99.06
548.554	107.06
548.767	101.06
548.98	105.06
549.193	104.06
549.407	97.06
549.62	119.06
549.833	114.06
550.046	114.06
550.259	119.06
550.473	105.06
550.686	104.06
550.899	105.06
551.112	94.06
551.325	108.06
551.538	115.06
551.751	111.06
551.964	98.06
552.177	107.06
552.39	101.06
552.603	95.06
552.816	103.06
553.029	107.06
553.242	103.06
553.455	107.06
553.667	116.06
553.88	117.06
554.093	94.06
554.306	98.06
554.519	119.06
554.732	100.06
554.944	115.06
555.157	94.06
555.37	98.06
555.583	86.06
555.795	104.06
556.008	112.06
556.221	90.06
556.433	103.06
556.646	90.06
556.859	110.06
557.071	94.06
557.284	99.06
557.496	94.06
557.709	95.06
557.921	98.06
558.134	81.06
558.346	92.06
558.559	98.06
558.771	93.06
558.984	104.06
559.196	107.06
559.409	92.06
559.621	110.06
559.833	107.06
560.046	100.06
560.258	90.06
560.47	98.06
560.683	83.06
560.895	91.06
561.107	96.06
561.32	101.06
561.532	99.06
561.744	91.06
561.956	97.06
562.168	117.06
562.381	105.06
562.593	117.06
562.805	96.06
563.017	90.06
563.229	99.06
563.441	80.06
563.653	94.06
563.865	108.06
564.077	84.06
564.289	99.06
564.501	98.06
564.713	92.06
564.925	87.06
565.137	94.06
565.349	98.06
565.561	100.06
565.773	102.06
565.985	102.06
566.197	107.06
566.408	105.06
566.62	99.06
566.832	103.06
567.044	105.06
567.255	96.06
567.467	103.06
567.679	95.06
567.891	128.06
568.102	105.06
568.314	123.06
568.526	113.06
568.737	105.06
568.949	95.06
569.161	98.06
569.372	92.06
569.584	102.06
569.795	105.06
570.007	94.06
570.218	100.06
570.43	100.06
570.641	96.06
570.853	92.06
571.064	102.06
571.276	91.06
571.487	88.06
571.698	108.06
571.91	94.06
572.121	109.06
572.333	102.06
572.544	89.06
572.755	89.06
572.966	98.06
573.178	106.06
573.389	90.06
573.6	83.06
573.811	107.06
574.023	106.06
574.234	97.06
574.445	99.06
574.656	79.06
574.867	99.06
575.078	87.06
575.289	97.06
575.501	102.06
575.712	92.06
575.923	90.06
576.134	91.06
576.345	104.06
576.556	97.06
576.767	93.06
576.978	89.06
577.188	85.06
577.399	83.06
577.61	93.06
577.821	105.06
578.032	96.06
578.243	92.06
578.454	101.06
578.665	83.06
578.875	92.06
579.086	87.06
579.297	88.06
579.508	99.06
579.718	91.06
579.929	98.06
580.14	100.06
580.35	91.06
580.561	90.06
580.772	89.06
580.982	106.06
581.193	93.06
581.403	92.06
581.614	99.06
581.825	90.06
582.035	92.06
582.246	91.06
582.456	86.06
582.667	97.06
582.877	96.06
583.087	94.06
583.298	90.06
583.508	98.06
583.719	81.06
583.929	99.06
584.139	91.06
584.35	77.06
584.56	91.06
584.77	90.06
584.981	99.06
585.191	97.06
585.401	113.06
585.611	97.06
585.821	110.06
586.032	92.06
586.242	90.06
586.452	84.06
586.662	94.06
586.872	87.06
587.082	102.06
587.292	95.06
587.502	95.06
587.713	90.06
587.923	82.06
588.133	95.06
588.343	101.06
588.553	78.06
588.762	93.06
588.972	107.06
589.182	83.06
589.392	101.06
589.602	96.06
589.812	99.06
590.022	104.06
590.232	95.06
590.441	94.06
590.651	93.06
590.861	89.06
591.071	83.06
591.281	98.06
591.49	102.06
591.7	102.06
591.91	96.06
592.119	87.06
592.329	97.06
592.539	88.06
592.748	95.06
592.958	88.06
593.167	92.06
593.377	99.06
593.587	105.06
593.796	92.06
594.006	100.06
594.215	91.06
594.424	91.06
594.634	85.06
594.843	84.06
595.053	99.06
595.262	88.06
595.472	84.06
595.681	96.06
595.89	93.06
596.1	89.06
596.309	101.06
596.518	76.06
596.727	86.06
596.937	86.06
597.146	84.06
597.355	99.06
597.564	94.06
597.774	96.06
597.983	87.06
598.192	76.06
598.401	84.06
598.61	83.06
598.819	97.06
599.028	96.06
599.237	85.06
599.446	96.06
599.655	87.06
599.864	90.06
600.073	90.06
600.282	85.06
600.491	88.06
600.7	84.06
600.909	83.06
601.118	87.06
601.327	88.06
601.536	76.06
601.745	88.06
601.953	94.06
602.162	87.06
602.371	86.06
602.58	89.06
602.789	85.06
602.997	83.06
603.206	95.06
603.415	91.06
603.623	86.06
603.832	90.06
604.041	94.06
604.249	84.06
604.458	89.06
604.666	76.06
604.875	91.06
605.084	97.06
605.292	90.06
605.501	86.06
605.709	88.06
605.918	84.06
606.126	82.06
606.334	73.06
606.543	87.06
606.751	96.06
606.96	91.06
607.168	85.06
607.376	90.06
607.585	96.06
607.793	100.06
608.001	90.06
608.21	90.06
608.418	98.06
608.626	83.06
608.834	103.06
609.043	87.06
609.251	86.06
609.459	93.06
609.667	73.06
609.875	71.06
610.083	84.06
610.291	101.06
610.499	89.06
610.707	97.06
610.916	95.06
611.124	87.06
611.332	92.06
611.54	102.06
611.748	80.06
611.955	82.06
612.163	78.06
612.371	93.06
612.579	87.06
612.787	104.06
612.995	99.06
613.203	91.06
613.411	86.06
613.618	91.06
613.826	74.06
614.034	69.06
614.242	87.06
614.449	76.06
614.657	91.06
614.865	88.06
615.072	90.06
615.28	91.06
615.488	91.06
615.695	88.06
615.903	85.06
616.111	84.06
616.318	95.06
616.526	98.06
616.733	92.06
616.941	82.06
617.148	88.06
617.356	87.06
617.563	83.06
617.771	108.06
617.978	99.06
618.185	78.06
618.393	90.06
618.6	82.06
618.807	85.06
619.015	94.06
619.222	78.06
619.429	71.06
619.637	94.06
619.844	79.06
620.051	78.06
620.258	84.06
620.466	97.06
620.673	82.06
620.88	99.06
621.087	94.06
621.294	96.06
621.501	90.06
621.708	93.06
621.915	87.06
622.122	73.06
622.329	85.06
622.536	76.06
622.743	82.06
622.95	78.06
623.157	93.06
623.364	83.06
623.571	95.06
623.778	83.06
623.985	78.06
624.192	81.06
624.399	90.06
624.606	97.06
624.812	86.06
625.019	86.06
625.226	75.06
625.433	87.06
625.639	73.06
625.846	83.06
626.053	95.06
626.259	75.06
626.466	88.06
626.673	74.06
626.879	75.06
627.086	91.06
627.293	100.06
627.499	84.06
627.706	86.06
627.912	86.06
628.119	92.06
628.325	103.06
628.532	90.06
628.738	89.06
628.945	92.06
629.151	88.06
629.357	91.06
629.564	88.06
629.77	91.06
629.976	75.06
630.183	78.06
630.389	85.06
630.595	84.06
630.802	91.06
631.008	96.06
631.214	80.06
631.42	75.06
631.627	94.06
631.833	88.06
632.039	83.06
632.245	103.06
632.451	84.06
632.657	75.06
632.863	88.06
633.069	95.06
633.275	68.06
633.481	71.06
633.688	96.06
633.893	87.06
634.099	89.06
634.305	89.06
634.511	98.06
634.717	83.06
634.923	86.06
635.129	76.06
635.335	87.06
635.541	81.06
635.747	102.06
635.952	84.06
636.158	91.06
636.364	76.06
636.57	83.06
636.775	89.06
636.981	72.06
637.187	77.06
637.392	85.06
637.598	94.06
637.804	77.06
638.009	91.06
638.215	92.06
638.421	91.06
638.626	90.06
638.832	81.06
639.037	99.06
639.243	91.06
639.448	69.06
639.654	87.06
639.859	80.06
640.065	90.06
640.27	91.06
640.475	87.06
640.681	81.06
640.886	89.06
641.091	73.06
641.297	70.06
641.502	87.06
641.707	90.06
641.913	89.06
642.118	89.06
642.323	84.06
642.528	88.06
642.733	89.06
642.939	89.06
643.144	85.06
643.349	72.06
643.554	74.06
643.759	84.06
643.964	89.06
644.169	80.06
644.374	90.06
644.579	72.06
644.784	80.06
644.989	82.06
645.194	90.06
645.399	78.06
645.604	97.06
645.809	80.06
646.014	82.06
646.219	87.06
646.423	80.06
646.628	86.06
646.833	78.06
647.038	83.06
647.243	87.06
647.447	86.06
647.652	97.06
647.857	70.06
648.062	91.06
648.266	89.06
648.471	80.06
648.676	85.06
648.88	83.06
649.085	87.06
649.289	85.06
649.494	81.06
649.698	88.06
649.903	89.06
650.107	79.06
650.312	94.06
650.516	85.06
650.721	90.06
650.925	83.06
651.13	78.06
651.334	91.06
651.539	85.06
651.743	72.06
651.947	98.06
652.152	82.06
652.356	85.06
652.56	80.06
652.764	84.06
652.969	95.06
653.173	98.06
653.377	79.06
653.581	83.06
653.785	89.06
653.99	91.06
654.194	81.06
654.398	98.06
654.602	72.06
654.806	78.06
655.01	90.06
655.214	77.06
655.418	91.06
655.622	69.06
655.826	81.06
656.03	87.06
656.234	78.06
656.438	78.06
656.642	75.06
656.846	90.06
657.049	68.06
657.253	80.06
657.457	79.06
657.661	86.06
657.865	95.06
658.068	78.06
658.272	86.06
658.476	69.06
658.68	68.06
658.883	78.06
659.087	80.06
659.291	87.06
659.494	91.06
659.698	91.06
659.901	90.06
660.105	92.06
660.309	78.06
660.512	71.06
660.716	75.06
660.919	83.06
661.123	95.06
661.326	95.06
661.53	88.06
661.733	79.06
661.936	87.06
662.14	80.06
662.343	75.06
662.546	82.06
662.75	82.06
662.953	85.06
663.156	73.06
663.36	84.06
663.563	86.06
663.766	78.06
663.969	83.06
664.173	85.06
664.376	76.06
664.579	72.06
664.782	84.06
664.985	81.06
665.188	73.06
665.391	90.06
665.594	69.06
665.797	84.06
666	86.06
666.203	74.06
666.406	83.06
666.609	86.06
666.812	76.06
667.015	87.06
667.218	73.06
667.421	91.06
667.624	77.06
667.827	83.06
668.03	81.06
668.232	73.06
668.435	94.06
668.638	76.06
668.841	80.06
669.043	88.06
669.246	90.06
669.449	83.06
669.651	81.06
669.854	75.06
670.057	93.06
670.259	71.06
670.462	89.06
670.665	102.06
670.867	76.06
671.07	85.06
671.272	90.06
671.475	91.06
671.677	81.06
671.88	79.06
672.082	92.06
672.284	79.06
672.487	87.06
672.689	85.06
672.892	80.06
