Data from Location5.07152019.Energy5.Lamp.07192019.3%Agarose_HRD10591_15-38-38-388.txt Node
Date: Fri Jul 19 15:38:38 EDT 2019
User: cochatt
Spectrometer: HR+D1059
Trigger mode: 1
Integration Time (sec): 1.000000E-1
Scans to average: 1
Electric dark correction enabled: true
Nonlinearity correction enabled: false
Boxcar width: 0
XAxis mode: Wavelengths
Number of Pixels in Spectrum: 2048
>>>>>Begin Spectral Data<<<<<
223.165	-11.25
223.4	-11.25
223.635	-11.25
223.869	-11.25
224.104	-23.25
224.338	-14.25
224.573	2.75
224.808	-10.25
225.042	-12.25
225.277	-5.25
225.511	-7.25
225.746	-4.25
225.98	8.75
226.215	17.75
226.449	15.75
226.683	25.75
226.918	11.75
227.152	16.75
227.387	31.75
227.621	48.75
227.856	53.75
228.09	53.75
228.324	54.75
228.559	53.75
228.793	62.75
229.027	41.75
229.262	50.75
229.496	67.75
229.73	80.75
229.964	56.75
230.199	71.75
230.433	60.75
230.667	74.75
230.901	87.75
231.136	102.75
231.37	83.75
231.604	78.75
231.838	71.75
232.072	71.75
232.306	91.75
232.541	84.75
232.775	83.75
233.009	86.75
233.243	81.75
233.477	80.75
233.711	88.75
233.945	72.75
234.179	91.75
234.413	79.75
234.647	91.75
234.881	88.75
235.115	72.75
235.349	68.75
235.583	71.75
235.817	70.75
236.051	84.75
236.285	72.75
236.519	73.75
236.753	75.75
236.987	92.75
237.221	76.75
237.455	80.75
237.689	75.75
237.922	77.75
238.156	72.75
238.39	71.75
238.624	81.75
238.858	76.75
239.091	82.75
239.325	72.75
239.559	62.75
239.793	85.75
240.027	69.75
240.26	55.75
240.494	72.75
240.728	76.75
240.961	70.75
241.195	81.75
241.429	74.75
241.662	61.75
241.896	67.75
242.13	69.75
242.363	83.75
242.597	68.75
242.83	79.75
243.064	70.75
243.298	90.75
243.531	75.75
243.765	97.75
243.998	86.75
244.232	82.75
244.465	80.75
244.699	82.75
244.932	84.75
245.166	72.75
245.399	74.75
245.633	76.75
245.866	79.75
246.099	59.75
246.333	80.75
246.566	78.75
246.8	65.75
247.033	83.75
247.266	91.75
247.5	71.75
247.733	84.75
247.966	75.75
248.2	70.75
248.433	80.75
248.666	84.75
248.899	92.75
249.133	72.75
249.366	85.75
249.599	73.75
249.832	80.75
250.066	71.75
250.299	85.75
250.532	86.75
250.765	84.75
250.998	92.75
251.231	83.75
251.465	93.75
251.698	70.75
251.931	82.75
252.164	69.75
252.397	80.75
252.63	90.75
252.863	74.75
253.096	78.75
253.329	81.75
253.562	81.75
253.795	76.75
254.028	73.75
254.261	88.75
254.494	91.75
254.727	71.75
254.96	83.75
255.193	73.75
255.426	82.75
255.659	85.75
255.892	84.75
256.124	75.75
256.357	82.75
256.59	73.75
256.823	76.75
257.056	90.75
257.289	79.75
257.521	82.75
257.754	85.75
257.987	84.75
258.22	92.75
258.452	80.75
258.685	72.75
258.918	84.75
259.151	84.75
259.383	80.75
259.616	83.75
259.849	76.75
260.081	86.75
260.314	79.75
260.547	70.75
260.779	81.75
261.012	97.75
261.244	84.75
261.477	79.75
261.71	75.75
261.942	83.75
262.175	83.75
262.407	84.75
262.64	77.75
262.872	75.75
263.105	72.75
263.337	78.75
263.57	94.75
263.802	75.75
264.035	86.75
264.267	80.75
264.499	72.75
264.732	86.75
264.964	88.75
265.197	88.75
265.429	86.75
265.661	91.75
265.894	92.75
266.126	87.75
266.358	81.75
266.591	79.75
266.823	80.75
267.055	82.75
267.287	70.75
267.52	83.75
267.752	86.75
267.984	107.75
268.216	83.75
268.448	80.75
268.681	90.75
268.913	83.75
269.145	85.75
269.377	90.75
269.609	77.75
269.841	89.75
270.073	78.75
270.306	84.75
270.538	82.75
270.77	87.75
271.002	69.75
271.234	81.75
271.466	80.75
271.698	82.75
271.93	89.75
272.162	71.75
272.394	65.75
272.626	84.75
272.858	90.75
273.09	88.75
273.322	77.75
273.553	80.75
273.785	81.75
274.017	102.75
274.249	83.75
274.481	88.75
274.713	81.75
274.945	89.75
275.176	86.75
275.408	87.75
275.64	86.75
275.872	87.75
276.104	82.75
276.335	66.75
276.567	84.75
276.799	83.75
277.031	89.75
277.262	90.75
277.494	95.75
277.726	89.75
277.957	79.75
278.189	89.75
278.421	70.75
278.652	74.75
278.884	82.75
279.115	71.75
279.347	83.75
279.579	87.75
279.81	77.75
280.042	88.75
280.273	73.75
280.505	79.75
280.736	81.75
280.968	83.75
281.199	84.75
281.431	76.75
281.662	80.75
281.894	85.75
282.125	85.75
282.356	71.75
282.588	83.75
282.819	83.75
283.051	70.75
283.282	103.75
283.513	81.75
283.745	83.75
283.976	78.75
284.207	91.75
284.439	75.75
284.67	82.75
284.901	75.75
285.132	92.75
285.364	71.75
285.595	68.75
285.826	84.75
286.057	84.75
286.288	85.75
286.52	79.75
286.751	70.75
286.982	80.75
287.213	98.75
287.444	80.75
287.675	72.75
287.906	93.75
288.138	70.75
288.369	83.75
288.6	74.75
288.831	93.75
289.062	79.75
289.293	85.75
289.524	81.75
289.755	82.75
289.986	90.75
290.217	76.75
290.448	75.75
290.679	89.75
290.91	90.75
291.141	90.75
291.371	94.75
291.602	79.75
291.833	73.75
292.064	86.75
292.295	78.75
292.526	83.75
292.757	88.75
292.987	78.75
293.218	91.75
293.449	76.75
293.68	83.75
293.91	75.75
294.141	82.75
294.372	91.75
294.603	89.75
294.833	94.75
295.064	88.75
295.295	90.75
295.525	85.75
295.756	80.75
295.987	103.75
296.217	68.75
296.448	88.75
296.679	87.75
296.909	81.75
297.14	79.75
297.37	79.75
297.601	98.75
297.831	98.75
298.062	89.75
298.292	83.75
298.523	78.75
298.753	79.75
298.984	90.75
299.214	80.75
299.445	80.75
299.675	76.75
299.905	83.75
300.136	82.75
300.366	84.75
300.597	91.75
300.827	79.75
301.057	94.75
301.288	86.75
301.518	91.75
301.748	77.75
301.979	88.75
302.209	88.75
302.439	76.75
302.669	85.75
302.9	87.75
303.13	80.75
303.36	72.75
303.59	77.75
303.82	93.75
304.051	99.75
304.281	86.75
304.511	81.75
304.741	80.75
304.971	79.75
305.201	92.75
305.431	79.75
305.661	80.75
305.891	93.75
306.121	86.75
306.352	80.75
306.582	91.75
306.812	82.75
307.042	95.75
307.272	84.75
307.502	95.75
307.731	81.75
307.961	103.75
308.191	88.75
308.421	85.75
308.651	70.75
308.881	71.75
309.111	76.75
309.341	84.75
309.571	70.75
309.8	91.75
310.03	80.75
310.26	89.75
310.49	75.75
310.72	78.75
310.949	76.75
311.179	73.75
311.409	80.75
311.639	94.75
311.868	92.75
312.098	95.75
312.328	100.75
312.557	87.75
312.787	87.75
313.017	91.75
313.246	79.75
313.476	77.75
313.706	95.75
313.935	93.75
314.165	101.75
314.394	97.75
314.624	75.75
314.853	85.75
315.083	91.75
315.312	89.75
315.542	84.75
315.771	86.75
316.001	83.75
316.23	79.75
316.46	76.75
316.689	85.75
316.919	89.75
317.148	94.75
317.377	71.75
317.607	83.75
317.836	80.75
318.065	87.75
318.295	88.75
318.524	85.75
318.753	88.75
318.983	99.75
319.212	82.75
319.441	75.75
319.67	90.75
319.9	90.75
320.129	84.75
320.358	91.75
320.587	105.75
320.816	88.75
321.046	82.75
321.275	80.75
321.504	86.75
321.733	81.75
321.962	76.75
322.191	94.75
322.42	90.75
322.649	85.75
322.878	85.75
323.108	95.75
323.337	79.75
323.566	86.75
323.795	94.75
324.024	83.75
324.253	76.75
324.482	88.75
324.71	73.75
324.939	83.75
325.168	63.75
325.397	87.75
325.626	87.75
325.855	72.75
326.084	96.75
326.313	86.75
326.542	78.75
326.77	86.75
326.999	79.75
327.228	95.75
327.457	78.75
327.686	89.75
327.914	83.75
328.143	74.75
328.372	86.75
328.6	70.75
328.829	85.75
329.058	82.75
329.287	76.75
329.515	84.75
329.744	83.75
329.972	76.75
330.201	81.75
330.43	71.75
330.658	75.75
330.887	76.75
331.115	92.75
331.344	84.75
331.572	91.75
331.801	85.75
332.03	86.75
332.258	91.75
332.486	86.75
332.715	80.75
332.943	87.75
333.172	89.75
333.4	85.75
333.629	81.75
333.857	84.75
334.085	95.75
334.314	72.75
334.542	70.75
334.771	72.75
334.999	76.75
335.227	79.75
335.455	77.75
335.684	87.75
335.912	82.75
336.14	80.75
336.369	82.75
336.597	92.75
336.825	87.75
337.053	75.75
337.281	81.75
337.51	93.75
337.738	83.75
337.966	74.75
338.194	82.75
338.422	95.75
338.65	81.75
338.878	83.75
339.106	86.75
339.334	94.75
339.562	90.75
339.79	67.75
340.018	85.75
340.246	80.75
340.474	83.75
340.702	80.75
340.93	81.75
341.158	83.75
341.386	95.75
341.614	82.75
341.842	80.75
342.07	65.75
342.298	90.75
342.526	73.75
342.754	95.75
342.981	78.75
343.209	90.75
343.437	92.75
343.665	75.75
343.893	84.75
344.12	95.75
344.348	97.75
344.576	91.75
344.804	79.75
345.031	84.75
345.259	91.75
345.487	85.75
345.714	74.75
345.942	95.75
346.17	82.75
346.397	90.75
346.625	83.75
346.853	86.75
347.08	88.75
347.308	85.75
347.535	79.75
347.763	83.75
347.99	96.75
348.218	88.75
348.445	74.75
348.673	76.75
348.9	88.75
349.128	92.75
349.355	79.75
349.583	78.75
349.81	87.75
350.037	81.75
350.265	87.75
350.492	71.75
350.72	81.75
350.947	98.75
351.174	87.75
351.402	83.75
351.629	75.75
351.856	99.75
352.083	88.75
352.311	89.75
352.538	90.75
352.765	75.75
352.992	78.75
353.22	88.75
353.447	79.75
353.674	89.75
353.901	80.75
354.128	76.75
354.355	95.75
354.583	87.75
354.81	77.75
355.037	84.75
355.264	76.75
355.491	93.75
355.718	83.75
355.945	81.75
356.172	88.75
356.399	97.75
356.626	90.75
356.853	84.75
357.08	86.75
357.307	73.75
357.534	83.75
357.761	83.75
357.988	75.75
358.215	76.75
358.441	78.75
358.668	91.75
358.895	83.75
359.122	88.75
359.349	72.75
359.576	75.75
359.802	81.75
360.029	86.75
360.256	81.75
360.483	95.75
360.709	79.75
360.936	83.75
361.163	92.75
361.39	92.75
361.616	77.75
361.843	75.75
362.07	70.75
362.296	88.75
362.523	88.75
362.749	80.75
362.976	86.75
363.203	86.75
363.429	86.75
363.656	87.75
363.882	81.75
364.109	101.75
364.335	101.75
364.562	79.75
364.788	89.75
365.015	80.75
365.241	70.75
365.468	79.75
365.694	76.75
365.92	92.75
366.147	76.75
366.373	80.75
366.599	89.75
366.826	78.75
367.052	72.75
367.278	77.75
367.505	78.75
367.731	89.75
367.957	83.75
368.184	83.75
368.41	85.75
368.636	84.75
368.862	90.75
369.089	85.75
369.315	89.75
369.541	87.75
369.767	88.75
369.993	83.75
370.219	81.75
370.445	72.75
370.672	77.75
370.898	87.75
371.124	90.75
371.35	89.75
371.576	81.75
371.802	64.75
372.028	88.75
372.254	77.75
372.48	72.75
372.706	96.75
372.932	90.75
373.158	94.75
373.384	82.75
373.61	85.75
373.835	80.75
374.061	96.75
374.287	71.75
374.513	89.75
374.739	91.75
374.965	88.75
375.191	90.75
375.416	82.75
375.642	77.75
375.868	87.75
376.094	75.75
376.319	80.75
376.545	71.75
376.771	85.75
376.997	80.75
377.222	79.75
377.448	95.75
377.674	93.75
377.899	75.75
378.125	82.75
378.35	83.75
378.576	98.75
378.802	84.75
379.027	83.75
379.253	86.75
379.478	86.75
379.704	89.75
379.929	85.75
380.155	89.75
380.38	86.75
380.606	88.75
380.831	92.75
381.057	98.75
381.282	93.75
381.507	79.75
381.733	81.75
381.958	86.75
382.184	86.75
382.409	86.75
382.634	78.75
382.86	88.75
383.085	80.75
383.31	87.75
383.535	84.75
383.761	86.75
383.986	84.75
384.211	85.75
384.436	88.75
384.662	75.75
384.887	76.75
385.112	67.75
385.337	77.75
385.562	93.75
385.787	84.75
386.013	92.75
386.238	92.75
386.463	91.75
386.688	66.75
386.913	84.75
387.138	93.75
387.363	88.75
387.588	93.75
387.813	86.75
388.038	86.75
388.263	78.75
388.488	77.75
388.713	71.75
388.938	90.75
389.163	81.75
389.387	84.75
389.612	78.75
389.837	79.75
390.062	89.75
390.287	100.75
390.512	95.75
390.736	93.75
390.961	79.75
391.186	84.75
391.411	93.75
391.636	70.75
391.86	79.75
392.085	80.75
392.31	84.75
392.534	84.75
392.759	84.75
392.984	80.75
393.208	90.75
393.433	86.75
393.658	84.75
393.882	88.75
394.107	89.75
394.331	95.75
394.556	84.75
394.78	89.75
395.005	85.75
395.229	90.75
395.454	69.75
395.678	99.75
395.903	73.75
396.127	89.75
396.352	72.75
396.576	86.75
396.801	78.75
397.025	90.75
397.249	103.75
397.474	97.75
397.698	82.75
397.922	88.75
398.147	72.75
398.371	83.75
398.595	86.75
398.82	88.75
399.044	86.75
399.268	84.75
399.492	76.75
399.717	82.75
399.941	91.75
400.165	88.75
400.389	94.75
400.613	81.75
400.837	84.75
401.062	83.75
401.286	86.75
401.51	96.75
401.734	97.75
401.958	97.75
402.182	85.75
402.406	66.75
402.63	84.75
402.854	86.75
403.078	95.75
403.302	88.75
403.526	86.75
403.75	81.75
403.974	84.75
404.198	87.75
404.422	84.75
404.645	91.75
404.869	96.75
405.093	77.75
405.317	81.75
405.541	111.75
405.765	79.75
405.988	98.75
406.212	97.75
406.436	86.75
406.66	93.75
406.883	76.75
407.107	86.75
407.331	66.75
407.555	88.75
407.778	89.75
408.002	101.75
408.226	90.75
408.449	83.75
408.673	90.75
408.896	82.75
409.12	90.75
409.344	103.75
409.567	104.75
409.791	76.75
410.014	90.75
410.238	73.75
410.461	82.75
410.685	100.75
410.908	94.75
411.132	85.75
411.355	78.75
411.578	79.75
411.802	82.75
412.025	88.75
412.249	73.75
412.472	94.75
412.695	76.75
412.919	104.75
413.142	90.75
413.365	100.75
413.589	76.75
413.812	100.75
414.035	85.75
414.258	83.75
414.482	79.75
414.705	90.75
414.928	94.75
415.151	89.75
415.374	84.75
415.597	90.75
415.821	82.75
416.044	88.75
416.267	96.75
416.49	94.75
416.713	84.75
416.936	88.75
417.159	88.75
417.382	90.75
417.605	85.75
417.828	91.75
418.051	95.75
418.274	90.75
418.497	106.75
418.72	79.75
418.943	76.75
419.166	98.75
419.389	96.75
419.611	90.75
419.834	85.75
420.057	87.75
420.28	83.75
420.503	92.75
420.726	89.75
420.948	98.75
421.171	96.75
421.394	90.75
421.617	99.75
421.839	96.75
422.062	99.75
422.285	91.75
422.507	74.75
422.73	91.75
422.953	105.75
423.175	87.75
423.398	95.75
423.621	97.75
423.843	91.75
424.066	82.75
424.288	86.75
424.511	85.75
424.733	93.75
424.956	90.75
425.178	84.75
425.401	88.75
425.623	89.75
425.846	93.75
426.068	92.75
426.291	96.75
426.513	81.75
426.735	101.75
426.958	90.75
427.18	91.75
427.402	98.75
427.625	80.75
427.847	97.75
428.069	91.75
428.292	101.75
428.514	96.75
428.736	82.75
428.958	93.75
429.181	107.75
429.403	87.75
429.625	78.75
429.847	99.75
430.069	101.75
430.292	90.75
430.514	96.75
430.736	92.75
430.958	88.75
431.18	100.75
431.402	82.75
431.624	99.75
431.846	71.75
432.068	94.75
432.29	87.75
432.512	100.75
432.734	97.75
432.956	92.75
433.178	107.75
433.4	111.75
433.622	113.75
433.844	103.75
434.066	95.75
434.287	98.75
434.509	70.75
434.731	89.75
434.953	92.75
435.175	88.75
435.397	88.75
435.618	87.75
435.84	91.75
436.062	92.75
436.284	85.75
436.505	90.75
436.727	88.75
436.949	102.75
437.17	109.75
437.392	96.75
437.614	99.75
437.835	84.75
438.057	80.75
438.278	88.75
438.5	99.75
438.721	91.75
438.943	84.75
439.165	79.75
439.386	89.75
439.608	95.75
439.829	91.75
440.05	105.75
440.272	102.75
440.493	98.75
440.715	98.75
440.936	106.75
441.158	87.75
441.379	103.75
441.6	92.75
441.822	94.75
442.043	94.75
442.264	75.75
442.486	98.75
442.707	86.75
442.928	101.75
443.149	93.75
443.371	99.75
443.592	87.75
443.813	101.75
444.034	94.75
444.255	88.75
444.476	105.75
444.698	89.75
444.919	91.75
445.14	209.75
445.361	145.75
445.582	94.75
445.803	100.75
446.024	101.75
446.245	99.75
446.466	119.75
446.687	96.75
446.908	101.75
447.129	109.75
447.35	99.75
447.571	110.75
447.792	94.75
448.013	84.75
448.234	85.75
448.455	90.75
448.675	87.75
448.896	103.75
449.117	86.75
449.338	90.75
449.559	98.75
449.779	102.75
450	96.75
450.221	86.75
450.442	99.75
450.662	89.75
450.883	105.75
451.104	91.75
451.324	86.75
451.545	85.75
451.766	99.75
451.986	90.75
452.207	86.75
452.428	79.75
452.648	88.75
452.869	108.75
453.089	85.75
453.31	92.75
453.53	76.75
453.751	94.75
453.971	94.75
454.192	87.75
454.412	84.75
454.633	78.75
454.853	95.75
455.073	97.75
455.294	88.75
455.514	78.75
455.734	86.75
455.955	105.75
456.175	89.75
456.395	98.75
456.616	88.75
456.836	93.75
457.056	88.75
457.276	81.75
457.497	96.75
457.717	90.75
457.937	86.75
458.157	98.75
458.377	78.75
458.598	87.75
458.818	84.75
459.038	96.75
459.258	86.75
459.478	77.75
459.698	93.75
459.918	81.75
460.138	88.75
460.358	83.75
460.578	93.75
460.798	82.75
461.018	98.75
461.238	89.75
461.458	90.75
461.678	81.75
461.898	85.75
462.118	87.75
462.338	88.75
462.558	93.75
462.777	85.75
462.997	98.75
463.217	80.75
463.437	87.75
463.657	78.75
463.876	83.75
464.096	103.75
464.316	90.75
464.536	89.75
464.755	86.75
464.975	92.75
465.195	86.75
465.414	91.75
465.634	73.75
465.854	88.75
466.073	79.75
466.293	92.75
466.512	94.75
466.732	80.75
466.951	86.75
467.171	106.75
467.391	99.75
467.61	91.75
467.829	85.75
468.049	80.75
468.268	92.75
468.488	106.75
468.707	97.75
468.927	96.75
469.146	91.75
469.365	94.75
469.585	94.75
469.804	98.75
470.023	87.75
470.243	87.75
470.462	99.75
470.681	102.75
470.901	86.75
471.12	83.75
471.339	83.75
471.558	99.75
471.777	103.75
471.997	82.75
472.216	93.75
472.435	99.75
472.654	84.75
472.873	88.75
473.092	89.75
473.311	86.75
473.53	89.75
473.749	88.75
473.968	88.75
474.187	89.75
474.406	91.75
474.625	97.75
474.844	83.75
475.063	83.75
475.282	83.75
475.501	89.75
475.72	90.75
475.939	91.75
476.158	84.75
476.377	91.75
476.596	87.75
476.814	86.75
477.033	79.75
477.252	98.75
477.471	86.75
477.69	100.75
477.908	89.75
478.127	102.75
478.346	97.75
478.564	104.75
478.783	88.75
479.002	107.75
479.22	90.75
479.439	96.75
479.658	100.75
479.876	88.75
480.095	81.75
480.313	79.75
480.532	95.75
480.751	71.75
480.969	80.75
481.188	81.75
481.406	75.75
481.624	96.75
481.843	81.75
482.061	104.75
482.28	94.75
482.498	90.75
482.717	99.75
482.935	97.75
483.153	110.75
483.372	97.75
483.59	97.75
483.808	105.75
484.027	96.75
484.245	92.75
484.463	99.75
484.681	122.75
484.9	102.75
485.118	95.75
485.336	87.75
485.554	98.75
485.772	78.75
485.99	88.75
486.209	96.75
486.427	104.75
486.645	102.75
486.863	104.75
487.081	92.75
487.299	110.75
487.517	93.75
487.735	112.75
487.953	102.75
488.171	94.75
488.389	110.75
488.607	91.75
488.825	95.75
489.043	94.75
489.261	103.75
489.479	85.75
489.696	97.75
489.914	99.75
490.132	102.75
490.35	113.75
490.568	100.75
490.786	103.75
491.003	116.75
491.221	106.75
491.439	112.75
491.657	120.75
491.874	118.75
492.092	110.75
492.31	123.75
492.527	110.75
492.745	109.75
492.963	105.75
493.18	114.75
493.398	94.75
493.615	116.75
493.833	110.75
494.05	102.75
494.268	89.75
494.485	103.75
494.703	96.75
494.92	102.75
495.138	90.75
495.355	119.75
495.573	105.75
495.79	99.75
496.008	101.75
496.225	107.75
496.442	102.75
496.66	101.75
496.877	114.75
497.094	112.75
497.312	102.75
497.529	103.75
497.746	112.75
497.963	109.75
498.181	89.75
498.398	70.75
498.615	88.75
498.832	98.75
499.049	87.75
499.267	100.75
499.484	86.75
499.701	96.75
499.918	107.75
500.135	91.75
500.352	85.75
500.569	96.75
500.786	76.75
501.003	90.75
501.22	98.75
501.437	91.75
501.654	90.75
501.871	94.75
502.088	94.75
502.305	109.75
502.522	98.75
502.739	110.75
502.956	88.75
503.172	94.75
503.389	88.75
503.606	110.75
503.823	90.75
504.04	103.75
504.256	84.75
504.473	83.75
504.69	105.75
504.907	84.75
505.123	87.75
505.34	99.75
505.557	77.75
505.773	95.75
505.99	95.75
506.207	97.75
506.423	91.75
506.64	103.75
506.856	96.75
507.073	90.75
507.289	81.75
507.506	97.75
507.722	96.75
507.939	72.75
508.155	103.75
508.372	87.75
508.588	87.75
508.805	101.75
509.021	93.75
509.238	93.75
509.454	78.75
509.67	88.75
509.887	84.75
510.103	89.75
510.319	94.75
510.536	82.75
510.752	88.75
510.968	95.75
511.184	66.75
511.401	90.75
511.617	88.75
511.833	84.75
512.049	94.75
512.265	98.75
512.481	84.75
512.698	73.75
512.914	93.75
513.13	82.75
513.346	83.75
513.562	97.75
513.778	80.75
513.994	102.75
514.21	93.75
514.426	88.75
514.642	91.75
514.858	81.75
515.074	87.75
515.29	89.75
515.506	86.75
515.721	86.75
515.937	89.75
516.153	88.75
516.369	81.75
516.585	80.75
516.801	72.75
517.016	83.75
517.232	72.75
517.448	91.75
517.664	90.75
517.879	95.75
518.095	90.75
518.311	88.75
518.527	84.75
518.742	71.75
518.958	75.75
519.173	80.75
519.389	95.75
519.605	92.75
519.82	84.75
520.036	82.75
520.251	84.75
520.467	99.75
520.682	87.75
520.898	87.75
521.113	78.75
521.329	88.75
521.544	90.75
521.76	82.75
521.975	81.75
522.19	103.75
522.406	98.75
522.621	91.75
522.836	83.75
523.052	85.75
523.267	93.75
523.482	91.75
523.698	83.75
523.913	84.75
524.128	91.75
524.343	98.75
524.559	76.75
524.774	87.75
524.989	100.75
525.204	98.75
525.419	95.75
525.634	86.75
525.849	94.75
526.064	84.75
526.28	89.75
526.495	82.75
526.71	85.75
526.925	65.75
527.14	83.75
527.355	83.75
527.57	88.75
527.785	76.75
527.999	90.75
528.214	96.75
528.429	87.75
528.644	88.75
528.859	102.75
529.074	102.75
529.289	106.75
529.503	107.75
529.718	97.75
529.933	91.75
530.148	90.75
530.363	92.75
530.577	73.75
530.792	79.75
531.007	82.75
531.221	98.75
531.436	80.75
531.651	92.75
531.865	83.75
532.08	81.75
532.295	90.75
532.509	80.75
532.724	85.75
532.938	91.75
533.153	88.75
533.367	87.75
533.582	103.75
533.796	98.75
534.011	90.75
534.225	75.75
534.44	74.75
534.654	75.75
534.868	81.75
535.083	80.75
535.297	102.75
535.511	97.75
535.726	102.75
535.94	72.75
536.154	96.75
536.369	88.75
536.583	84.75
536.797	93.75
537.011	98.75
537.225	88.75
537.44	88.75
537.654	80.75
537.868	95.75
538.082	89.75
538.296	87.75
538.51	91.75
538.724	102.75
538.938	87.75
539.153	92.75
539.367	104.75
539.581	88.75
539.795	104.75
540.009	96.75
540.222	84.75
540.436	79.75
540.65	99.75
540.864	90.75
541.078	112.75
541.292	105.75
541.506	106.75
541.72	108.75
541.934	118.75
542.147	106.75
542.361	103.75
542.575	91.75
542.789	111.75
543.002	102.75
543.216	103.75
543.43	99.75
543.644	103.75
543.857	105.75
544.071	98.75
544.285	118.75
544.498	103.75
544.712	97.75
544.925	117.75
545.139	110.75
545.352	101.75
545.566	102.75
545.779	98.75
545.993	95.75
546.206	114.75
546.42	96.75
546.633	99.75
546.847	99.75
547.06	113.75
547.274	113.75
547.487	111.75
547.7	102.75
547.914	116.75
548.127	99.75
548.34	112.75
548.554	100.75
548.767	107.75
548.98	106.75
549.193	92.75
549.407	96.75
549.62	100.75
549.833	108.75
550.046	97.75
550.259	99.75
550.473	112.75
550.686	113.75
550.899	98.75
551.112	99.75
551.325	92.75
551.538	96.75
551.751	111.75
551.964	114.75
552.177	85.75
552.39	114.75
552.603	100.75
552.816	99.75
553.029	112.75
553.242	107.75
553.455	106.75
553.667	99.75
553.88	103.75
554.093	93.75
554.306	97.75
554.519	113.75
554.732	111.75
554.944	91.75
555.157	103.75
555.37	102.75
555.583	97.75
555.795	104.75
556.008	96.75
556.221	107.75
556.433	95.75
556.646	106.75
556.859	95.75
557.071	92.75
557.284	100.75
557.496	86.75
557.709	103.75
557.921	95.75
558.134	98.75
558.346	110.75
558.559	82.75
558.771	88.75
558.984	88.75
559.196	102.75
559.409	95.75
559.621	101.75
559.833	111.75
560.046	103.75
560.258	108.75
560.47	92.75
560.683	100.75
560.895	93.75
561.107	86.75
561.32	92.75
561.532	83.75
561.744	91.75
561.956	106.75
562.168	111.75
562.381	97.75
562.593	105.75
562.805	87.75
563.017	102.75
563.229	91.75
563.441	96.75
563.653	91.75
563.865	99.75
564.077	95.75
564.289	94.75
564.501	98.75
564.713	97.75
564.925	93.75
565.137	94.75
565.349	95.75
565.561	89.75
565.773	99.75
565.985	91.75
566.197	101.75
566.408	84.75
566.62	75.75
566.832	104.75
567.044	95.75
567.255	99.75
567.467	91.75
567.679	96.75
567.891	94.75
568.102	90.75
568.314	75.75
568.526	76.75
568.737	77.75
568.949	87.75
569.161	98.75
569.372	87.75
569.584	97.75
569.795	75.75
570.007	73.75
570.218	80.75
570.43	85.75
570.641	81.75
570.853	78.75
571.064	90.75
571.276	97.75
571.487	97.75
571.698	106.75
571.91	94.75
572.121	101.75
572.333	75.75
572.544	90.75
572.755	93.75
572.966	85.75
573.178	91.75
573.389	73.75
573.6	96.75
573.811	72.75
574.023	91.75
574.234	86.75
574.445	82.75
574.656	92.75
574.867	87.75
575.078	79.75
575.289	88.75
575.501	78.75
575.712	93.75
575.923	84.75
576.134	75.75
576.345	91.75
576.556	92.75
576.767	83.75
576.978	91.75
577.188	96.75
577.399	86.75
577.61	77.75
577.821	84.75
578.032	95.75
578.243	88.75
578.454	87.75
578.665	91.75
578.875	99.75
579.086	83.75
579.297	89.75
579.508	79.75
579.718	85.75
579.929	97.75
580.14	87.75
580.35	86.75
580.561	74.75
580.772	79.75
580.982	86.75
581.193	87.75
581.403	83.75
581.614	83.75
581.825	89.75
582.035	90.75
582.246	85.75
582.456	89.75
582.667	77.75
582.877	91.75
583.087	82.75
583.298	73.75
583.508	89.75
583.719	82.75
583.929	88.75
584.139	75.75
584.35	76.75
584.56	86.75
584.77	92.75
584.981	89.75
585.191	73.75
585.401	83.75
585.611	84.75
585.821	93.75
586.032	92.75
586.242	84.75
586.452	79.75
586.662	87.75
586.872	96.75
587.082	95.75
587.292	76.75
587.502	85.75
587.713	80.75
587.923	68.75
588.133	90.75
588.343	84.75
588.553	97.75
588.762	89.75
588.972	74.75
589.182	84.75
589.392	83.75
589.602	92.75
589.812	82.75
590.022	89.75
590.232	89.75
590.441	87.75
590.651	86.75
590.861	86.75
591.071	92.75
591.281	81.75
591.49	76.75
591.7	84.75
591.91	103.75
592.119	83.75
592.329	79.75
592.539	62.75
592.748	76.75
592.958	96.75
593.167	90.75
593.377	71.75
593.587	88.75
593.796	89.75
594.006	102.75
594.215	87.75
594.424	83.75
594.634	88.75
594.843	87.75
595.053	89.75
595.262	86.75
595.472	85.75
595.681	70.75
595.89	95.75
596.1	89.75
596.309	82.75
596.518	83.75
596.727	91.75
596.937	73.75
597.146	105.75
597.355	96.75
597.564	90.75
597.774	90.75
597.983	86.75
598.192	90.75
598.401	108.75
598.61	94.75
598.819	89.75
599.028	86.75
599.237	76.75
599.446	79.75
599.655	84.75
599.864	87.75
600.073	83.75
600.282	92.75
600.491	92.75
600.7	66.75
600.909	93.75
601.118	87.75
601.327	91.75
601.536	94.75
601.745	88.75
601.953	90.75
602.162	104.75
602.371	93.75
602.58	95.75
602.789	94.75
602.997	89.75
603.206	97.75
603.415	96.75
603.623	89.75
603.832	97.75
604.041	92.75
604.249	84.75
604.458	72.75
604.666	89.75
604.875	89.75
605.084	86.75
605.292	98.75
605.501	99.75
605.709	88.75
605.918	72.75
606.126	85.75
606.334	102.75
606.543	91.75
606.751	92.75
606.96	103.75
607.168	89.75
607.376	93.75
607.585	96.75
607.793	103.75
608.001	96.75
608.21	88.75
608.418	84.75
608.626	87.75
608.834	88.75
609.043	79.75
609.251	105.75
609.459	87.75
609.667	90.75
609.875	102.75
610.083	89.75
610.291	96.75
610.499	88.75
610.707	77.75
610.916	99.75
611.124	103.75
611.332	102.75
611.54	103.75
611.748	103.75
611.955	94.75
612.163	95.75
612.371	90.75
612.579	91.75
612.787	98.75
612.995	88.75
613.203	99.75
613.411	93.75
613.618	90.75
613.826	97.75
614.034	107.75
614.242	89.75
614.449	79.75
614.657	97.75
614.865	82.75
615.072	95.75
615.28	104.75
615.488	107.75
615.695	92.75
615.903	110.75
616.111	96.75
616.318	98.75
616.526	102.75
616.733	90.75
616.941	86.75
617.148	92.75
617.356	90.75
617.563	88.75
617.771	88.75
617.978	97.75
618.185	97.75
618.393	99.75
618.6	86.75
618.807	94.75
619.015	87.75
619.222	94.75
619.429	115.75
619.637	111.75
619.844	100.75
620.051	89.75
620.258	88.75
620.466	94.75
620.673	85.75
620.88	83.75
621.087	90.75
621.294	96.75
621.501	82.75
621.708	86.75
621.915	104.75
622.122	86.75
622.329	95.75
622.536	92.75
622.743	104.75
622.95	88.75
623.157	94.75
623.364	78.75
623.571	85.75
623.778	90.75
623.985	88.75
624.192	90.75
624.399	88.75
624.606	86.75
624.812	89.75
625.019	95.75
625.226	97.75
625.433	86.75
625.639	90.75
625.846	100.75
626.053	86.75
626.259	74.75
626.466	83.75
626.673	88.75
626.879	91.75
627.086	89.75
627.293	89.75
627.499	99.75
627.706	95.75
627.912	86.75
628.119	83.75
628.325	108.75
628.532	76.75
628.738	104.75
628.945	97.75
629.151	91.75
629.357	76.75
629.564	95.75
629.77	101.75
629.976	84.75
630.183	76.75
630.389	92.75
630.595	74.75
630.802	94.75
631.008	98.75
631.214	96.75
631.42	79.75
631.627	89.75
631.833	97.75
632.039	86.75
632.245	94.75
632.451	79.75
632.657	83.75
632.863	74.75
633.069	102.75
633.275	90.75
633.481	91.75
633.688	80.75
633.893	96.75
634.099	87.75
634.305	58.75
634.511	84.75
634.717	90.75
634.923	76.75
635.129	89.75
635.335	91.75
635.541	86.75
635.747	83.75
635.952	86.75
636.158	94.75
636.364	96.75
636.57	83.75
636.775	84.75
636.981	79.75
637.187	88.75
637.392	82.75
637.598	83.75
637.804	100.75
638.009	84.75
638.215	83.75
638.421	83.75
638.626	85.75
638.832	100.75
639.037	77.75
639.243	83.75
639.448	90.75
639.654	99.75
639.859	87.75
640.065	100.75
640.27	99.75
640.475	83.75
640.681	79.75
640.886	78.75
641.091	83.75
641.297	88.75
641.502	86.75
641.707	97.75
641.913	74.75
642.118	78.75
642.323	89.75
642.528	101.75
642.733	81.75
642.939	93.75
643.144	87.75
643.349	86.75
643.554	98.75
643.759	81.75
643.964	82.75
644.169	110.75
644.374	85.75
644.579	105.75
644.784	83.75
644.989	87.75
645.194	73.75
645.399	81.75
645.604	89.75
645.809	87.75
646.014	98.75
646.219	95.75
646.423	85.75
646.628	101.75
646.833	96.75
647.038	88.75
647.243	94.75
647.447	92.75
647.652	99.75
647.857	95.75
648.062	84.75
648.266	85.75
648.471	95.75
648.676	86.75
648.88	93.75
649.085	75.75
649.289	89.75
649.494	87.75
649.698	93.75
649.903	62.75
650.107	83.75
650.312	84.75
650.516	96.75
650.721	84.75
650.925	65.75
651.13	80.75
651.334	82.75
651.539	79.75
651.743	77.75
651.947	81.75
652.152	83.75
652.356	88.75
652.56	85.75
652.764	76.75
652.969	79.75
653.173	90.75
653.377	90.75
653.581	94.75
653.785	77.75
653.99	83.75
654.194	88.75
654.398	91.75
654.602	86.75
654.806	77.75
655.01	87.75
655.214	88.75
655.418	92.75
655.622	88.75
655.826	79.75
656.03	88.75
656.234	93.75
656.438	91.75
656.642	78.75
656.846	83.75
657.049	88.75
657.253	86.75
657.457	80.75
657.661	84.75
657.865	94.75
658.068	89.75
658.272	76.75
658.476	85.75
658.68	88.75
658.883	84.75
659.087	85.75
659.291	91.75
659.494	76.75
659.698	72.75
659.901	81.75
660.105	77.75
660.309	88.75
660.512	92.75
660.716	79.75
660.919	78.75
661.123	77.75
661.326	99.75
661.53	91.75
661.733	85.75
661.936	87.75
662.14	71.75
662.343	97.75
662.546	74.75
662.75	88.75
662.953	75.75
663.156	84.75
663.36	81.75
663.563	85.75
663.766	81.75
663.969	76.75
664.173	82.75
664.376	76.75
664.579	81.75
664.782	83.75
664.985	67.75
665.188	91.75
665.391	89.75
665.594	90.75
665.797	87.75
666	80.75
666.203	75.75
666.406	78.75
666.609	71.75
666.812	88.75
667.015	84.75
667.218	80.75
667.421	88.75
667.624	76.75
667.827	66.75
668.03	107.75
668.232	84.75
668.435	70.75
668.638	77.75
668.841	92.75
669.043	86.75
669.246	81.75
669.449	82.75
669.651	91.75
669.854	97.75
670.057	84.75
670.259	66.75
670.462	78.75
670.665	83.75
670.867	89.75
671.07	75.75
671.272	77.75
671.475	92.75
671.677	79.75
671.88	71.75
672.082	74.75
672.284	82.75
672.487	105.75
672.689	92.75
672.892	86.75
