Data from Location5.07152019.Energy5.Lamp.07192019.3%Agarose_HRD10591_15-37-18-388.txt Node
Date: Fri Jul 19 15:37:18 EDT 2019
User: cochatt
Spectrometer: HR+D1059
Trigger mode: 1
Integration Time (sec): 1.000000E-1
Scans to average: 1
Electric dark correction enabled: true
Nonlinearity correction enabled: false
Boxcar width: 0
XAxis mode: Wavelengths
Number of Pixels in Spectrum: 2048
>>>>>Begin Spectral Data<<<<<
223.165	-18.31
223.4	-18.31
223.635	-18.31
223.869	1.69
224.104	-13.31
224.338	-7.31
224.573	-21.31
224.808	-18.31
225.042	-10.31
225.277	-20.31
225.511	-3.31
225.746	-1.31
225.98	3.69
226.215	11.69
226.449	11.69
226.683	15.69
226.918	38.69
227.152	30.69
227.387	34.69
227.621	49.69
227.856	42.69
228.09	42.69
228.324	45.69
228.559	45.69
228.793	49.69
229.027	52.69
229.262	77.69
229.496	82.69
229.73	70.69
229.964	76.69
230.199	74.69
230.433	75.69
230.667	79.69
230.901	78.69
231.136	68.69
231.37	86.69
231.604	78.69
231.838	74.69
232.072	75.69
232.306	81.69
232.541	77.69
232.775	86.69
233.009	81.69
233.243	80.69
233.477	94.69
233.711	70.69
233.945	78.69
234.179	81.69
234.413	86.69
234.647	79.69
234.881	82.69
235.115	85.69
235.349	86.69
235.583	93.69
235.817	72.69
236.051	64.69
236.285	74.69
236.519	79.69
236.753	80.69
236.987	70.69
237.221	83.69
237.455	73.69
237.689	78.69
237.922	66.69
238.156	80.69
238.39	81.69
238.624	87.69
238.858	67.69
239.091	74.69
239.325	74.69
239.559	79.69
239.793	82.69
240.027	83.69
240.26	68.69
240.494	72.69
240.728	69.69
240.961	66.69
241.195	79.69
241.429	82.69
241.662	74.69
241.896	80.69
242.13	77.69
242.363	79.69
242.597	72.69
242.83	77.69
243.064	80.69
243.298	67.69
243.531	82.69
243.765	81.69
243.998	86.69
244.232	87.69
244.465	85.69
244.699	64.69
244.932	71.69
245.166	85.69
245.399	68.69
245.633	76.69
245.866	74.69
246.099	79.69
246.333	87.69
246.566	80.69
246.8	87.69
247.033	65.69
247.266	64.69
247.5	83.69
247.733	86.69
247.966	78.69
248.2	82.69
248.433	81.69
248.666	71.69
248.899	87.69
249.133	91.69
249.366	91.69
249.599	72.69
249.832	78.69
250.066	77.69
250.299	76.69
250.532	92.69
250.765	76.69
250.998	71.69
251.231	84.69
251.465	87.69
251.698	79.69
251.931	76.69
252.164	79.69
252.397	72.69
252.63	85.69
252.863	75.69
253.096	69.69
253.329	89.69
253.562	87.69
253.795	70.69
254.028	82.69
254.261	67.69
254.494	94.69
254.727	90.69
254.96	89.69
255.193	84.69
255.426	81.69
255.659	75.69
255.892	82.69
256.124	88.69
256.357	82.69
256.59	75.69
256.823	81.69
257.056	65.69
257.289	80.69
257.521	84.69
257.754	76.69
257.987	69.69
258.22	88.69
258.452	87.69
258.685	72.69
258.918	77.69
259.151	63.69
259.383	87.69
259.616	73.69
259.849	70.69
260.081	90.69
260.314	72.69
260.547	74.69
260.779	81.69
261.012	69.69
261.244	73.69
261.477	91.69
261.71	62.69
261.942	82.69
262.175	78.69
262.407	82.69
262.64	82.69
262.872	88.69
263.105	92.69
263.337	84.69
263.57	94.69
263.802	75.69
264.035	79.69
264.267	89.69
264.499	81.69
264.732	74.69
264.964	82.69
265.197	85.69
265.429	85.69
265.661	76.69
265.894	75.69
266.126	75.69
266.358	82.69
266.591	80.69
266.823	82.69
267.055	84.69
267.287	82.69
267.52	89.69
267.752	64.69
267.984	82.69
268.216	85.69
268.448	84.69
268.681	91.69
268.913	90.69
269.145	68.69
269.377	97.69
269.609	88.69
269.841	76.69
270.073	68.69
270.306	78.69
270.538	90.69
270.77	88.69
271.002	79.69
271.234	83.69
271.466	94.69
271.698	85.69
271.93	85.69
272.162	86.69
272.394	75.69
272.626	69.69
272.858	75.69
273.09	84.69
273.322	87.69
273.553	86.69
273.785	81.69
274.017	88.69
274.249	76.69
274.481	87.69
274.713	82.69
274.945	84.69
275.176	86.69
275.408	90.69
275.64	80.69
275.872	82.69
276.104	81.69
276.335	88.69
276.567	79.69
276.799	79.69
277.031	83.69
277.262	84.69
277.494	84.69
277.726	75.69
277.957	90.69
278.189	91.69
278.421	75.69
278.652	87.69
278.884	84.69
279.115	85.69
279.347	90.69
279.579	87.69
279.81	87.69
280.042	74.69
280.273	90.69
280.505	81.69
280.736	74.69
280.968	82.69
281.199	79.69
281.431	94.69
281.662	90.69
281.894	83.69
282.125	88.69
282.356	76.69
282.588	97.69
282.819	80.69
283.051	73.69
283.282	92.69
283.513	97.69
283.745	78.69
283.976	72.69
284.207	83.69
284.439	83.69
284.67	92.69
284.901	85.69
285.132	81.69
285.364	95.69
285.595	75.69
285.826	66.69
286.057	75.69
286.288	75.69
286.52	91.69
286.751	85.69
286.982	91.69
287.213	86.69
287.444	75.69
287.675	100.69
287.906	84.69
288.138	80.69
288.369	80.69
288.6	89.69
288.831	105.69
289.062	79.69
289.293	88.69
289.524	79.69
289.755	91.69
289.986	81.69
290.217	79.69
290.448	89.69
290.679	87.69
290.91	79.69
291.141	76.69
291.371	79.69
291.602	84.69
291.833	97.69
292.064	92.69
292.295	82.69
292.526	81.69
292.757	86.69
292.987	96.69
293.218	88.69
293.449	90.69
293.68	86.69
293.91	88.69
294.141	101.69
294.372	96.69
294.603	89.69
294.833	91.69
295.064	91.69
295.295	99.69
295.525	74.69
295.756	82.69
295.987	92.69
296.217	89.69
296.448	85.69
296.679	96.69
296.909	71.69
297.14	97.69
297.37	96.69
297.601	85.69
297.831	80.69
298.062	92.69
298.292	86.69
298.523	92.69
298.753	89.69
298.984	83.69
299.214	79.69
299.445	83.69
299.675	89.69
299.905	83.69
300.136	80.69
300.366	70.69
300.597	75.69
300.827	73.69
301.057	87.69
301.288	70.69
301.518	94.69
301.748	75.69
301.979	77.69
302.209	89.69
302.439	82.69
302.669	82.69
302.9	84.69
303.13	84.69
303.36	87.69
303.59	96.69
303.82	90.69
304.051	72.69
304.281	80.69
304.511	87.69
304.741	91.69
304.971	87.69
305.201	89.69
305.431	80.69
305.661	74.69
305.891	86.69
306.121	91.69
306.352	96.69
306.582	80.69
306.812	78.69
307.042	72.69
307.272	93.69
307.502	81.69
307.731	84.69
307.961	75.69
308.191	72.69
308.421	91.69
308.651	86.69
308.881	78.69
309.111	93.69
309.341	93.69
309.571	89.69
309.8	71.69
310.03	83.69
310.26	96.69
310.49	78.69
310.72	88.69
310.949	91.69
311.179	82.69
311.409	88.69
311.639	89.69
311.868	94.69
312.098	88.69
312.328	83.69
312.557	75.69
312.787	75.69
313.017	76.69
313.246	75.69
313.476	91.69
313.706	79.69
313.935	81.69
314.165	84.69
314.394	78.69
314.624	92.69
314.853	84.69
315.083	85.69
315.312	87.69
315.542	88.69
315.771	75.69
316.001	95.69
316.23	79.69
316.46	89.69
316.689	83.69
316.919	90.69
317.148	95.69
317.377	75.69
317.607	71.69
317.836	93.69
318.065	84.69
318.295	91.69
318.524	83.69
318.753	91.69
318.983	83.69
319.212	92.69
319.441	94.69
319.67	80.69
319.9	89.69
320.129	79.69
320.358	79.69
320.587	84.69
320.816	76.69
321.046	73.69
321.275	77.69
321.504	89.69
321.733	91.69
321.962	88.69
322.191	77.69
322.42	100.69
322.649	89.69
322.878	77.69
323.108	95.69
323.337	81.69
323.566	84.69
323.795	75.69
324.024	71.69
324.253	89.69
324.482	88.69
324.71	77.69
324.939	86.69
325.168	95.69
325.397	84.69
325.626	77.69
325.855	90.69
326.084	97.69
326.313	76.69
326.542	85.69
326.77	101.69
326.999	85.69
327.228	82.69
327.457	94.69
327.686	80.69
327.914	87.69
328.143	90.69
328.372	92.69
328.6	84.69
328.829	91.69
329.058	74.69
329.287	84.69
329.515	79.69
329.744	92.69
329.972	85.69
330.201	89.69
330.43	82.69
330.658	90.69
330.887	71.69
331.115	73.69
331.344	83.69
331.572	88.69
331.801	76.69
332.03	79.69
332.258	92.69
332.486	74.69
332.715	89.69
332.943	86.69
333.172	84.69
333.4	83.69
333.629	75.69
333.857	81.69
334.085	84.69
334.314	93.69
334.542	84.69
334.771	78.69
334.999	84.69
335.227	88.69
335.455	84.69
335.684	85.69
335.912	80.69
336.14	83.69
336.369	93.69
336.597	95.69
336.825	89.69
337.053	90.69
337.281	74.69
337.51	80.69
337.738	79.69
337.966	78.69
338.194	93.69
338.422	85.69
338.65	97.69
338.878	83.69
339.106	82.69
339.334	97.69
339.562	87.69
339.79	81.69
340.018	70.69
340.246	74.69
340.474	101.69
340.702	81.69
340.93	80.69
341.158	80.69
341.386	87.69
341.614	98.69
341.842	90.69
342.07	80.69
342.298	95.69
342.526	83.69
342.754	96.69
342.981	81.69
343.209	86.69
343.437	99.69
343.665	82.69
343.893	60.69
344.12	76.69
344.348	90.69
344.576	91.69
344.804	86.69
345.031	86.69
345.259	85.69
345.487	91.69
345.714	68.69
345.942	67.69
346.17	78.69
346.397	76.69
346.625	93.69
346.853	84.69
347.08	70.69
347.308	93.69
347.535	85.69
347.763	78.69
347.99	93.69
348.218	77.69
348.445	89.69
348.673	78.69
348.9	85.69
349.128	97.69
349.355	85.69
349.583	83.69
349.81	99.69
350.037	77.69
350.265	65.69
350.492	78.69
350.72	93.69
350.947	86.69
351.174	81.69
351.402	81.69
351.629	87.69
351.856	87.69
352.083	82.69
352.311	95.69
352.538	74.69
352.765	85.69
352.992	88.69
353.22	92.69
353.447	88.69
353.674	80.69
353.901	89.69
354.128	81.69
354.355	87.69
354.583	90.69
354.81	82.69
355.037	106.69
355.264	96.69
355.491	76.69
355.718	86.69
355.945	81.69
356.172	88.69
356.399	79.69
356.626	97.69
356.853	82.69
357.08	75.69
357.307	66.69
357.534	75.69
357.761	80.69
357.988	78.69
358.215	94.69
358.441	85.69
358.668	86.69
358.895	92.69
359.122	100.69
359.349	80.69
359.576	82.69
359.802	73.69
360.029	86.69
360.256	88.69
360.483	86.69
360.709	74.69
360.936	99.69
361.163	80.69
361.39	87.69
361.616	81.69
361.843	85.69
362.07	86.69
362.296	97.69
362.523	81.69
362.749	79.69
362.976	87.69
363.203	79.69
363.429	86.69
363.656	93.69
363.882	81.69
364.109	72.69
364.335	83.69
364.562	81.69
364.788	68.69
365.015	71.69
365.241	71.69
365.468	86.69
365.694	82.69
365.92	72.69
366.147	75.69
366.373	87.69
366.599	80.69
366.826	82.69
367.052	82.69
367.278	86.69
367.505	84.69
367.731	75.69
367.957	78.69
368.184	74.69
368.41	76.69
368.636	88.69
368.862	92.69
369.089	87.69
369.315	91.69
369.541	86.69
369.767	91.69
369.993	90.69
370.219	84.69
370.445	84.69
370.672	80.69
370.898	71.69
371.124	76.69
371.35	89.69
371.576	76.69
371.802	76.69
372.028	73.69
372.254	86.69
372.48	80.69
372.706	82.69
372.932	88.69
373.158	79.69
373.384	90.69
373.61	76.69
373.835	84.69
374.061	89.69
374.287	92.69
374.513	83.69
374.739	102.69
374.965	91.69
375.191	80.69
375.416	85.69
375.642	77.69
375.868	95.69
376.094	88.69
376.319	86.69
376.545	96.69
376.771	80.69
376.997	70.69
377.222	73.69
377.448	90.69
377.674	90.69
377.899	95.69
378.125	98.69
378.35	84.69
378.576	89.69
378.802	84.69
379.027	87.69
379.253	86.69
379.478	83.69
379.704	85.69
379.929	87.69
380.155	76.69
380.38	84.69
380.606	73.69
380.831	87.69
381.057	86.69
381.282	76.69
381.507	64.69
381.733	99.69
381.958	86.69
382.184	86.69
382.409	92.69
382.634	81.69
382.86	75.69
383.085	86.69
383.31	82.69
383.535	69.69
383.761	88.69
383.986	104.69
384.211	107.69
384.436	95.69
384.662	81.69
384.887	83.69
385.112	88.69
385.337	77.69
385.562	79.69
385.787	90.69
386.013	92.69
386.238	90.69
386.463	96.69
386.688	94.69
386.913	77.69
387.138	84.69
387.363	77.69
387.588	90.69
387.813	85.69
388.038	84.69
388.263	92.69
388.488	91.69
388.713	73.69
388.938	92.69
389.163	101.69
389.387	65.69
389.612	82.69
389.837	84.69
390.062	79.69
390.287	88.69
390.512	70.69
390.736	84.69
390.961	82.69
391.186	91.69
391.411	88.69
391.636	81.69
391.86	87.69
392.085	80.69
392.31	83.69
392.534	82.69
392.759	82.69
392.984	72.69
393.208	75.69
393.433	84.69
393.658	95.69
393.882	93.69
394.107	100.69
394.331	93.69
394.556	75.69
394.78	81.69
395.005	81.69
395.229	81.69
395.454	69.69
395.678	82.69
395.903	84.69
396.127	93.69
396.352	85.69
396.576	90.69
396.801	86.69
397.025	91.69
397.249	86.69
397.474	97.69
397.698	77.69
397.922	95.69
398.147	82.69
398.371	83.69
398.595	91.69
398.82	77.69
399.044	79.69
399.268	95.69
399.492	105.69
399.717	102.69
399.941	86.69
400.165	69.69
400.389	79.69
400.613	89.69
400.837	89.69
401.062	108.69
401.286	82.69
401.51	82.69
401.734	90.69
401.958	91.69
402.182	84.69
402.406	97.69
402.63	97.69
402.854	71.69
403.078	83.69
403.302	86.69
403.526	98.69
403.75	72.69
403.974	97.69
404.198	93.69
404.422	79.69
404.645	78.69
404.869	103.69
405.093	91.69
405.317	83.69
405.541	88.69
405.765	92.69
405.988	78.69
406.212	88.69
406.436	83.69
406.66	81.69
406.883	83.69
407.107	92.69
407.331	81.69
407.555	96.69
407.778	94.69
408.002	88.69
408.226	97.69
408.449	86.69
408.673	91.69
408.896	96.69
409.12	96.69
409.344	87.69
409.567	79.69
409.791	94.69
410.014	76.69
410.238	91.69
410.461	68.69
410.685	89.69
410.908	80.69
411.132	91.69
411.355	85.69
411.578	102.69
411.802	94.69
412.025	93.69
412.249	91.69
412.472	81.69
412.695	96.69
412.919	94.69
413.142	94.69
413.365	85.69
413.589	104.69
413.812	91.69
414.035	96.69
414.258	90.69
414.482	97.69
414.705	99.69
414.928	89.69
415.151	91.69
415.374	90.69
415.597	84.69
415.821	83.69
416.044	87.69
416.267	92.69
416.49	93.69
416.713	105.69
416.936	89.69
417.159	78.69
417.382	88.69
417.605	87.69
417.828	87.69
418.051	95.69
418.274	99.69
418.497	97.69
418.72	103.69
418.943	86.69
419.166	96.69
419.389	87.69
419.611	88.69
419.834	78.69
420.057	95.69
420.28	83.69
420.503	98.69
420.726	95.69
420.948	96.69
421.171	96.69
421.394	81.69
421.617	97.69
421.839	86.69
422.062	97.69
422.285	88.69
422.507	92.69
422.73	86.69
422.953	98.69
423.175	94.69
423.398	86.69
423.621	83.69
423.843	96.69
424.066	101.69
424.288	85.69
424.511	103.69
424.733	88.69
424.956	84.69
425.178	98.69
425.401	79.69
425.623	90.69
425.846	92.69
426.068	75.69
426.291	91.69
426.513	80.69
426.735	92.69
426.958	89.69
427.18	77.69
427.402	102.69
427.625	98.69
427.847	86.69
428.069	84.69
428.292	95.69
428.514	89.69
428.736	91.69
428.958	81.69
429.181	83.69
429.403	87.69
429.625	97.69
429.847	95.69
430.069	104.69
430.292	90.69
430.514	98.69
430.736	100.69
430.958	92.69
431.18	97.69
431.402	90.69
431.624	86.69
431.846	95.69
432.068	88.69
432.29	88.69
432.512	100.69
432.734	86.69
432.956	89.69
433.178	107.69
433.4	112.69
433.622	102.69
433.844	88.69
434.066	94.69
434.287	98.69
434.509	89.69
434.731	95.69
434.953	92.69
435.175	79.69
435.397	102.69
435.618	72.69
435.84	89.69
436.062	96.69
436.284	97.69
436.505	99.69
436.727	88.69
436.949	98.69
437.17	89.69
437.392	91.69
437.614	91.69
437.835	79.69
438.057	82.69
438.278	84.69
438.5	88.69
438.721	102.69
438.943	108.69
439.165	95.69
439.386	89.69
439.608	91.69
439.829	83.69
440.05	91.69
440.272	92.69
440.493	100.69
440.715	102.69
440.936	108.69
441.158	101.69
441.379	85.69
441.6	98.69
441.822	94.69
442.043	106.69
442.264	107.69
442.486	100.69
442.707	99.69
442.928	92.69
443.149	88.69
443.371	92.69
443.592	97.69
443.813	91.69
444.034	99.69
444.255	102.69
444.476	108.69
444.698	84.69
444.919	90.69
445.14	223.69
445.361	156.69
445.582	99.69
445.803	94.69
446.024	92.69
446.245	99.69
446.466	93.69
446.687	97.69
446.908	98.69
447.129	112.69
447.35	108.69
447.571	88.69
447.792	90.69
448.013	90.69
448.234	92.69
448.455	80.69
448.675	100.69
448.896	95.69
449.117	104.69
449.338	93.69
449.559	95.69
449.779	84.69
450	112.69
450.221	96.69
450.442	82.69
450.662	98.69
450.883	94.69
451.104	89.69
451.324	80.69
451.545	89.69
451.766	89.69
451.986	92.69
452.207	83.69
452.428	73.69
452.648	78.69
452.869	89.69
453.089	98.69
453.31	90.69
453.53	96.69
453.751	89.69
453.971	86.69
454.192	73.69
454.412	91.69
454.633	89.69
454.853	91.69
455.073	87.69
455.294	95.69
455.514	91.69
455.734	76.69
455.955	76.69
456.175	87.69
456.395	93.69
456.616	94.69
456.836	91.69
457.056	88.69
457.276	94.69
457.497	92.69
457.717	75.69
457.937	83.69
458.157	90.69
458.377	92.69
458.598	87.69
458.818	92.69
459.038	70.69
459.258	87.69
459.478	96.69
459.698	93.69
459.918	87.69
460.138	102.69
460.358	73.69
460.578	106.69
460.798	66.69
461.018	95.69
461.238	95.69
461.458	103.69
461.678	85.69
461.898	83.69
462.118	96.69
462.338	95.69
462.558	88.69
462.777	93.69
462.997	102.69
463.217	83.69
463.437	74.69
463.657	102.69
463.876	88.69
464.096	87.69
464.316	96.69
464.536	78.69
464.755	80.69
464.975	68.69
465.195	67.69
465.414	77.69
465.634	85.69
465.854	106.69
466.073	90.69
466.293	94.69
466.512	110.69
466.732	91.69
466.951	85.69
467.171	87.69
467.391	103.69
467.61	94.69
467.829	90.69
468.049	101.69
468.268	94.69
468.488	92.69
468.707	94.69
468.927	94.69
469.146	97.69
469.365	97.69
469.585	106.69
469.804	89.69
470.023	90.69
470.243	98.69
470.462	94.69
470.681	94.69
470.901	84.69
471.12	98.69
471.339	85.69
471.558	96.69
471.777	104.69
471.997	88.69
472.216	82.69
472.435	102.69
472.654	110.69
472.873	73.69
473.092	87.69
473.311	72.69
473.53	100.69
473.749	76.69
473.968	93.69
474.187	105.69
474.406	94.69
474.625	83.69
474.844	84.69
475.063	89.69
475.282	103.69
475.501	84.69
475.72	108.69
475.939	85.69
476.158	86.69
476.377	91.69
476.596	87.69
476.814	89.69
477.033	83.69
477.252	78.69
477.471	103.69
477.69	103.69
477.908	95.69
478.127	90.69
478.346	97.69
478.564	74.69
478.783	91.69
479.002	100.69
479.22	94.69
479.439	106.69
479.658	82.69
479.876	101.69
480.095	89.69
480.313	96.69
480.532	106.69
480.751	94.69
480.969	91.69
481.188	98.69
481.406	86.69
481.624	98.69
481.843	81.69
482.061	90.69
482.28	79.69
482.498	102.69
482.717	85.69
482.935	82.69
483.153	97.69
483.372	103.69
483.59	105.69
483.808	82.69
484.027	99.69
484.245	91.69
484.463	94.69
484.681	94.69
484.9	113.69
485.118	94.69
485.336	86.69
485.554	99.69
485.772	91.69
485.99	93.69
486.209	92.69
486.427	87.69
486.645	84.69
486.863	101.69
487.081	104.69
487.299	84.69
487.517	109.69
487.735	103.69
487.953	123.69
488.171	104.69
488.389	97.69
488.607	108.69
488.825	98.69
489.043	96.69
489.261	113.69
489.479	103.69
489.696	85.69
489.914	90.69
490.132	99.69
490.35	96.69
490.568	100.69
490.786	106.69
491.003	96.69
491.221	99.69
491.439	113.69
491.657	116.69
491.874	119.69
492.092	116.69
492.31	103.69
492.527	126.69
492.745	112.69
492.963	125.69
493.18	115.69
493.398	115.69
493.615	120.69
493.833	114.69
494.05	106.69
494.268	110.69
494.485	112.69
494.703	86.69
494.92	103.69
495.138	104.69
495.355	114.69
495.573	108.69
495.79	111.69
496.008	105.69
496.225	112.69
496.442	114.69
496.66	113.69
496.877	103.69
497.094	107.69
497.312	113.69
497.529	106.69
497.746	90.69
497.963	95.69
498.181	99.69
498.398	118.69
498.615	97.69
498.832	92.69
499.049	88.69
499.267	67.69
499.484	86.69
499.701	107.69
499.918	94.69
500.135	103.69
500.352	101.69
500.569	95.69
500.786	103.69
501.003	101.69
501.22	93.69
501.437	94.69
501.654	103.69
501.871	92.69
502.088	96.69
502.305	90.69
502.522	86.69
502.739	99.69
502.956	85.69
503.172	96.69
503.389	84.69
503.606	100.69
503.823	98.69
504.04	105.69
504.256	93.69
504.473	92.69
504.69	80.69
504.907	100.69
505.123	87.69
505.34	93.69
505.557	102.69
505.773	99.69
505.99	87.69
506.207	83.69
506.423	79.69
506.64	97.69
506.856	96.69
507.073	100.69
507.289	87.69
507.506	83.69
507.722	89.69
507.939	91.69
508.155	99.69
508.372	92.69
508.588	81.69
508.805	87.69
509.021	85.69
509.238	100.69
509.454	82.69
509.67	91.69
509.887	81.69
510.103	96.69
510.319	99.69
510.536	90.69
510.752	84.69
510.968	69.69
511.184	80.69
511.401	101.69
511.617	97.69
511.833	93.69
512.049	86.69
512.265	83.69
512.481	77.69
512.698	82.69
512.914	91.69
513.13	87.69
513.346	96.69
513.562	82.69
513.778	83.69
513.994	92.69
514.21	85.69
514.426	99.69
514.642	90.69
514.858	83.69
515.074	85.69
515.29	82.69
515.506	87.69
515.721	94.69
515.937	96.69
516.153	83.69
516.369	73.69
516.585	85.69
516.801	86.69
517.016	91.69
517.232	82.69
517.448	91.69
517.664	75.69
517.879	90.69
518.095	84.69
518.311	82.69
518.527	83.69
518.742	80.69
518.958	82.69
519.173	86.69
519.389	105.69
519.605	91.69
519.82	88.69
520.036	85.69
520.251	94.69
520.467	96.69
520.682	100.69
520.898	73.69
521.113	87.69
521.329	71.69
521.544	77.69
521.76	90.69
521.975	84.69
522.19	88.69
522.406	89.69
522.621	86.69
522.836	82.69
523.052	84.69
523.267	91.69
523.482	80.69
523.698	94.69
523.913	90.69
524.128	99.69
524.343	98.69
524.559	94.69
524.774	94.69
524.989	109.69
525.204	93.69
525.419	91.69
525.634	81.69
525.849	89.69
526.064	89.69
526.28	77.69
526.495	86.69
526.71	101.69
526.925	79.69
527.14	80.69
527.355	83.69
527.57	75.69
527.785	80.69
527.999	85.69
528.214	86.69
528.429	86.69
528.644	112.69
528.859	105.69
529.074	119.69
529.289	100.69
529.503	92.69
529.718	94.69
529.933	100.69
530.148	99.69
530.363	82.69
530.577	95.69
530.792	82.69
531.007	76.69
531.221	86.69
531.436	72.69
531.651	79.69
531.865	81.69
532.08	79.69
532.295	90.69
532.509	74.69
532.724	89.69
532.938	90.69
533.153	80.69
533.367	94.69
533.582	96.69
533.796	94.69
534.011	98.69
534.225	89.69
534.44	78.69
534.654	70.69
534.868	84.69
535.083	94.69
535.297	90.69
535.511	78.69
535.726	89.69
535.94	84.69
536.154	88.69
536.369	74.69
536.583	94.69
536.797	87.69
537.011	82.69
537.225	86.69
537.44	95.69
537.654	81.69
537.868	88.69
538.082	65.69
538.296	71.69
538.51	81.69
538.724	84.69
538.938	90.69
539.153	91.69
539.367	88.69
539.581	80.69
539.795	75.69
540.009	95.69
540.222	97.69
540.436	100.69
540.65	92.69
540.864	96.69
541.078	88.69
541.292	90.69
541.506	87.69
541.72	107.69
541.934	114.69
542.147	107.69
542.361	117.69
542.575	112.69
542.789	97.69
543.002	98.69
543.216	99.69
543.43	90.69
543.644	114.69
543.857	99.69
544.071	108.69
544.285	86.69
544.498	99.69
544.712	93.69
544.925	103.69
545.139	103.69
545.352	103.69
545.566	93.69
545.779	111.69
545.993	111.69
546.206	110.69
546.42	107.69
546.633	106.69
546.847	107.69
547.06	108.69
547.274	101.69
547.487	109.69
547.7	118.69
547.914	114.69
548.127	120.69
548.34	108.69
548.554	98.69
548.767	114.69
548.98	105.69
549.193	98.69
549.407	114.69
549.62	112.69
549.833	96.69
550.046	113.69
550.259	100.69
550.473	95.69
550.686	84.69
550.899	108.69
551.112	110.69
551.325	114.69
551.538	101.69
551.751	96.69
551.964	81.69
552.177	96.69
552.39	97.69
552.603	100.69
552.816	90.69
553.029	87.69
553.242	106.69
553.455	101.69
553.667	94.69
553.88	108.69
554.093	94.69
554.306	106.69
554.519	97.69
554.732	99.69
554.944	99.69
555.157	105.69
555.37	94.69
555.583	100.69
555.795	105.69
556.008	89.69
556.221	92.69
556.433	94.69
556.646	97.69
556.859	96.69
557.071	98.69
557.284	95.69
557.496	99.69
557.709	91.69
557.921	103.69
558.134	109.69
558.346	98.69
558.559	108.69
558.771	98.69
558.984	96.69
559.196	85.69
559.409	89.69
559.621	88.69
559.833	114.69
560.046	91.69
560.258	90.69
560.47	92.69
560.683	101.69
560.895	98.69
561.107	111.69
561.32	82.69
561.532	118.69
561.744	95.69
561.956	110.69
562.168	106.69
562.381	98.69
562.593	103.69
562.805	91.69
563.017	91.69
563.229	93.69
563.441	100.69
563.653	104.69
563.865	79.69
564.077	95.69
564.289	87.69
564.501	97.69
564.713	95.69
564.925	103.69
565.137	89.69
565.349	100.69
565.561	74.69
565.773	102.69
565.985	105.69
566.197	99.69
566.408	96.69
566.62	91.69
566.832	90.69
567.044	94.69
567.255	100.69
567.467	93.69
567.679	95.69
567.891	98.69
568.102	90.69
568.314	103.69
568.526	86.69
568.737	76.69
568.949	77.69
569.161	96.69
569.372	80.69
569.584	97.69
569.795	74.69
570.007	88.69
570.218	93.69
570.43	91.69
570.641	85.69
570.853	86.69
571.064	83.69
571.276	80.69
571.487	97.69
571.698	92.69
571.91	96.69
572.121	90.69
572.333	89.69
572.544	87.69
572.755	102.69
572.966	89.69
573.178	79.69
573.389	79.69
573.6	87.69
573.811	91.69
574.023	92.69
574.234	77.69
574.445	85.69
574.656	86.69
574.867	91.69
575.078	75.69
575.289	88.69
575.501	90.69
575.712	80.69
575.923	81.69
576.134	82.69
576.345	83.69
576.556	89.69
576.767	95.69
576.978	83.69
577.188	94.69
577.399	96.69
577.61	85.69
577.821	88.69
578.032	85.69
578.243	92.69
578.454	86.69
578.665	86.69
578.875	79.69
579.086	73.69
579.297	82.69
579.508	80.69
579.718	88.69
579.929	92.69
580.14	89.69
580.35	70.69
580.561	81.69
580.772	94.69
580.982	96.69
581.193	87.69
581.403	86.69
581.614	88.69
581.825	87.69
582.035	75.69
582.246	91.69
582.456	78.69
582.667	82.69
582.877	98.69
583.087	83.69
583.298	92.69
583.508	94.69
583.719	93.69
583.929	100.69
584.139	75.69
584.35	79.69
584.56	77.69
584.77	86.69
584.981	99.69
585.191	90.69
585.401	91.69
585.611	79.69
585.821	103.69
586.032	77.69
586.242	96.69
586.452	86.69
586.662	86.69
586.872	79.69
587.082	71.69
587.292	80.69
587.502	94.69
587.713	83.69
587.923	85.69
588.133	82.69
588.343	88.69
588.553	76.69
588.762	91.69
588.972	83.69
589.182	94.69
589.392	90.69
589.602	85.69
589.812	99.69
590.022	86.69
590.232	79.69
590.441	72.69
590.651	71.69
590.861	95.69
591.071	86.69
591.281	90.69
591.49	94.69
591.7	75.69
591.91	82.69
592.119	72.69
592.329	78.69
592.539	89.69
592.748	84.69
592.958	100.69
593.167	86.69
593.377	85.69
593.587	94.69
593.796	89.69
594.006	95.69
594.215	86.69
594.424	92.69
594.634	90.69
594.843	82.69
595.053	85.69
595.262	92.69
595.472	92.69
595.681	91.69
595.89	94.69
596.1	90.69
596.309	87.69
596.518	79.69
596.727	95.69
596.937	95.69
597.146	81.69
597.355	85.69
597.564	91.69
597.774	79.69
597.983	89.69
598.192	95.69
598.401	97.69
598.61	75.69
598.819	79.69
599.028	90.69
599.237	78.69
599.446	89.69
599.655	84.69
599.864	79.69
600.073	68.69
600.282	82.69
600.491	81.69
600.7	81.69
600.909	94.69
601.118	89.69
601.327	76.69
601.536	105.69
601.745	91.69
601.953	79.69
602.162	90.69
602.371	79.69
602.58	87.69
602.789	96.69
602.997	96.69
603.206	100.69
603.415	94.69
603.623	73.69
603.832	80.69
604.041	88.69
604.249	83.69
604.458	97.69
604.666	90.69
604.875	71.69
605.084	87.69
605.292	95.69
605.501	87.69
605.709	97.69
605.918	92.69
606.126	93.69
606.334	101.69
606.543	71.69
606.751	85.69
606.96	90.69
607.168	88.69
607.376	83.69
607.585	81.69
607.793	89.69
608.001	82.69
608.21	98.69
608.418	89.69
608.626	92.69
608.834	86.69
609.043	90.69
609.251	86.69
609.459	92.69
609.667	97.69
609.875	106.69
610.083	88.69
610.291	84.69
610.499	88.69
610.707	83.69
610.916	94.69
611.124	100.69
611.332	104.69
611.54	101.69
611.748	83.69
611.955	89.69
612.163	96.69
612.371	89.69
612.579	82.69
612.787	75.69
612.995	83.69
613.203	99.69
613.411	107.69
613.618	87.69
613.826	94.69
614.034	84.69
614.242	86.69
614.449	90.69
614.657	101.69
614.865	99.69
615.072	96.69
615.28	94.69
615.488	87.69
615.695	93.69
615.903	79.69
616.111	81.69
616.318	103.69
616.526	98.69
616.733	90.69
616.941	86.69
617.148	83.69
617.356	106.69
617.563	78.69
617.771	96.69
617.978	82.69
618.185	94.69
618.393	90.69
618.6	79.69
618.807	87.69
619.015	84.69
619.222	82.69
619.429	89.69
619.637	84.69
619.844	93.69
620.051	90.69
620.258	94.69
620.466	90.69
620.673	94.69
620.88	88.69
621.087	80.69
621.294	98.69
621.501	81.69
621.708	102.69
621.915	95.69
622.122	97.69
622.329	93.69
622.536	95.69
622.743	82.69
622.95	90.69
623.157	91.69
623.364	93.69
623.571	91.69
623.778	97.69
623.985	85.69
624.192	88.69
624.399	90.69
624.606	103.69
624.812	85.69
625.019	89.69
625.226	81.69
625.433	85.69
625.639	71.69
625.846	65.69
626.053	94.69
626.259	80.69
626.466	78.69
626.673	83.69
626.879	97.69
627.086	76.69
627.293	90.69
627.499	75.69
627.706	84.69
627.912	84.69
628.119	84.69
628.325	98.69
628.532	106.69
628.738	79.69
628.945	77.69
629.151	87.69
629.357	79.69
629.564	90.69
629.77	83.69
629.976	98.69
630.183	86.69
630.389	93.69
630.595	101.69
630.802	90.69
631.008	88.69
631.214	100.69
631.42	79.69
631.627	84.69
631.833	83.69
632.039	93.69
632.245	83.69
632.451	84.69
632.657	97.69
632.863	92.69
633.069	103.69
633.275	97.69
633.481	85.69
633.688	81.69
633.893	91.69
634.099	86.69
634.305	91.69
634.511	81.69
634.717	88.69
634.923	85.69
635.129	79.69
635.335	85.69
635.541	72.69
635.747	85.69
635.952	82.69
636.158	91.69
636.364	96.69
636.57	95.69
636.775	87.69
636.981	92.69
637.187	84.69
637.392	71.69
637.598	89.69
637.804	87.69
638.009	88.69
638.215	86.69
638.421	107.69
638.626	81.69
638.832	100.69
639.037	88.69
639.243	98.69
639.448	97.69
639.654	80.69
639.859	85.69
640.065	82.69
640.27	100.69
640.475	77.69
640.681	100.69
640.886	87.69
641.091	88.69
641.297	73.69
641.502	90.69
641.707	82.69
641.913	80.69
642.118	76.69
642.323	82.69
642.528	97.69
642.733	91.69
642.939	81.69
643.144	90.69
643.349	98.69
643.554	90.69
643.759	80.69
643.964	78.69
644.169	74.69
644.374	90.69
644.579	81.69
644.784	89.69
644.989	85.69
645.194	91.69
645.399	86.69
645.604	86.69
645.809	87.69
646.014	85.69
646.219	80.69
646.423	90.69
646.628	97.69
646.833	87.69
647.038	82.69
647.243	87.69
647.447	82.69
647.652	80.69
647.857	75.69
648.062	82.69
648.266	94.69
648.471	89.69
648.676	94.69
648.88	89.69
649.085	97.69
649.289	77.69
649.494	87.69
649.698	86.69
649.903	84.69
650.107	106.69
650.312	93.69
650.516	87.69
650.721	87.69
650.925	85.69
651.13	99.69
651.334	81.69
651.539	81.69
651.743	87.69
651.947	110.69
652.152	100.69
652.356	73.69
652.56	88.69
652.764	92.69
652.969	86.69
653.173	90.69
653.377	83.69
653.581	94.69
653.785	89.69
653.99	86.69
654.194	91.69
654.398	83.69
654.602	79.69
654.806	79.69
655.01	88.69
655.214	89.69
655.418	80.69
655.622	80.69
655.826	82.69
656.03	84.69
656.234	75.69
656.438	84.69
656.642	72.69
656.846	81.69
657.049	81.69
657.253	91.69
657.457	82.69
657.661	90.69
657.865	84.69
658.068	84.69
658.272	79.69
658.476	83.69
658.68	77.69
658.883	84.69
659.087	90.69
659.291	82.69
659.494	88.69
659.698	81.69
659.901	87.69
660.105	82.69
660.309	84.69
660.512	85.69
660.716	89.69
660.919	90.69
661.123	96.69
661.326	89.69
661.53	88.69
661.733	83.69
661.936	84.69
662.14	87.69
662.343	74.69
662.546	92.69
662.75	93.69
662.953	95.69
663.156	74.69
663.36	87.69
663.563	95.69
663.766	91.69
663.969	79.69
664.173	73.69
664.376	102.69
664.579	83.69
664.782	84.69
664.985	83.69
665.188	94.69
665.391	101.69
665.594	89.69
665.797	77.69
666	77.69
666.203	82.69
666.406	69.69
666.609	81.69
666.812	82.69
667.015	87.69
667.218	80.69
667.421	75.69
667.624	73.69
667.827	98.69
668.03	82.69
668.232	75.69
668.435	94.69
668.638	62.69
668.841	92.69
669.043	73.69
669.246	97.69
669.449	76.69
669.651	86.69
669.854	66.69
670.057	85.69
670.259	80.69
670.462	90.69
670.665	84.69
670.867	94.69
671.07	82.69
671.272	94.69
671.475	80.69
671.677	90.69
671.88	85.69
672.082	90.69
672.284	94.69
672.487	83.69
672.689	93.69
672.892	96.69
