Data from Location5.07152019.Energy5.Lamp.07192019.3%Agarose_HRD10591_15-39-33-389.txt Node
Date: Fri Jul 19 15:39:33 EDT 2019
User: cochatt
Spectrometer: HR+D1059
Trigger mode: 1
Integration Time (sec): 1.000000E-1
Scans to average: 1
Electric dark correction enabled: true
Nonlinearity correction enabled: false
Boxcar width: 0
XAxis mode: Wavelengths
Number of Pixels in Spectrum: 2048
>>>>>Begin Spectral Data<<<<<
223.165	-2.31
223.4	-2.31
223.635	-2.31
223.869	-17.31
224.104	-13.31
224.338	-18.31
224.573	-13.31
224.808	-15.31
225.042	-5.31
225.277	-15.31
225.511	0.69
225.746	0.69
225.98	7.69
226.215	18.69
226.449	5.69
226.683	1.69
226.918	34.69
227.152	30.69
227.387	30.69
227.621	38.69
227.856	47.69
228.09	35.69
228.324	60.69
228.559	55.69
228.793	70.69
229.027	51.69
229.262	71.69
229.496	66.69
229.73	67.69
229.964	72.69
230.199	59.69
230.433	72.69
230.667	81.69
230.901	82.69
231.136	70.69
231.37	74.69
231.604	73.69
231.838	79.69
232.072	65.69
232.306	77.69
232.541	74.69
232.775	69.69
233.009	75.69
233.243	82.69
233.477	89.69
233.711	71.69
233.945	78.69
234.179	82.69
234.413	89.69
234.647	85.69
234.881	89.69
235.115	65.69
235.349	77.69
235.583	70.69
235.817	71.69
236.051	79.69
236.285	77.69
236.519	82.69
236.753	78.69
236.987	75.69
237.221	94.69
237.455	75.69
237.689	71.69
237.922	67.69
238.156	80.69
238.39	81.69
238.624	83.69
238.858	61.69
239.091	75.69
239.325	66.69
239.559	74.69
239.793	80.69
240.027	81.69
240.26	86.69
240.494	72.69
240.728	78.69
240.961	63.69
241.195	75.69
241.429	84.69
241.662	82.69
241.896	83.69
242.13	75.69
242.363	66.69
242.597	78.69
242.83	94.69
243.064	92.69
243.298	93.69
243.531	64.69
243.765	70.69
243.998	75.69
244.232	83.69
244.465	85.69
244.699	76.69
244.932	70.69
245.166	79.69
245.399	74.69
245.633	67.69
245.866	75.69
246.099	75.69
246.333	73.69
246.566	83.69
246.8	88.69
247.033	71.69
247.266	88.69
247.5	67.69
247.733	82.69
247.966	67.69
248.2	85.69
248.433	84.69
248.666	69.69
248.899	84.69
249.133	72.69
249.366	87.69
249.599	79.69
249.832	90.69
250.066	73.69
250.299	85.69
250.532	77.69
250.765	74.69
250.998	89.69
251.231	77.69
251.465	84.69
251.698	80.69
251.931	89.69
252.164	74.69
252.397	93.69
252.63	93.69
252.863	64.69
253.096	71.69
253.329	85.69
253.562	71.69
253.795	77.69
254.028	84.69
254.261	82.69
254.494	74.69
254.727	83.69
254.96	90.69
255.193	93.69
255.426	81.69
255.659	85.69
255.892	82.69
256.124	68.69
256.357	75.69
256.59	79.69
256.823	79.69
257.056	75.69
257.289	79.69
257.521	68.69
257.754	85.69
257.987	80.69
258.22	95.69
258.452	70.69
258.685	76.69
258.918	70.69
259.151	85.69
259.383	86.69
259.616	72.69
259.849	78.69
260.081	102.69
260.314	85.69
260.547	82.69
260.779	77.69
261.012	75.69
261.244	75.69
261.477	86.69
261.71	94.69
261.942	96.69
262.175	83.69
262.407	85.69
262.64	86.69
262.872	78.69
263.105	91.69
263.337	90.69
263.57	88.69
263.802	69.69
264.035	75.69
264.267	77.69
264.499	85.69
264.732	86.69
264.964	93.69
265.197	87.69
265.429	84.69
265.661	89.69
265.894	89.69
266.126	93.69
266.358	79.69
266.591	85.69
266.823	72.69
267.055	87.69
267.287	67.69
267.52	101.69
267.752	79.69
267.984	105.69
268.216	81.69
268.448	79.69
268.681	72.69
268.913	72.69
269.145	87.69
269.377	84.69
269.609	80.69
269.841	82.69
270.073	78.69
270.306	91.69
270.538	81.69
270.77	94.69
271.002	81.69
271.234	96.69
271.466	77.69
271.698	75.69
271.93	87.69
272.162	76.69
272.394	88.69
272.626	77.69
272.858	85.69
273.09	81.69
273.322	73.69
273.553	75.69
273.785	75.69
274.017	94.69
274.249	93.69
274.481	82.69
274.713	89.69
274.945	84.69
275.176	74.69
275.408	94.69
275.64	86.69
275.872	82.69
276.104	65.69
276.335	72.69
276.567	82.69
276.799	79.69
277.031	73.69
277.262	79.69
277.494	80.69
277.726	79.69
277.957	78.69
278.189	77.69
278.421	65.69
278.652	82.69
278.884	64.69
279.115	87.69
279.347	85.69
279.579	86.69
279.81	79.69
280.042	77.69
280.273	81.69
280.505	83.69
280.736	93.69
280.968	81.69
281.199	92.69
281.431	99.69
281.662	93.69
281.894	80.69
282.125	85.69
282.356	74.69
282.588	86.69
282.819	68.69
283.051	86.69
283.282	74.69
283.513	83.69
283.745	78.69
283.976	84.69
284.207	84.69
284.439	79.69
284.67	98.69
284.901	75.69
285.132	72.69
285.364	85.69
285.595	87.69
285.826	87.69
286.057	76.69
286.288	70.69
286.52	85.69
286.751	74.69
286.982	95.69
287.213	102.69
287.444	74.69
287.675	83.69
287.906	75.69
288.138	73.69
288.369	92.69
288.6	89.69
288.831	73.69
289.062	102.69
289.293	87.69
289.524	80.69
289.755	92.69
289.986	75.69
290.217	89.69
290.448	74.69
290.679	85.69
290.91	92.69
291.141	95.69
291.371	82.69
291.602	89.69
291.833	86.69
292.064	86.69
292.295	88.69
292.526	70.69
292.757	95.69
292.987	81.69
293.218	76.69
293.449	79.69
293.68	87.69
293.91	95.69
294.141	90.69
294.372	87.69
294.603	79.69
294.833	90.69
295.064	82.69
295.295	91.69
295.525	85.69
295.756	85.69
295.987	88.69
296.217	88.69
296.448	80.69
296.679	73.69
296.909	79.69
297.14	88.69
297.37	90.69
297.601	83.69
297.831	88.69
298.062	79.69
298.292	83.69
298.523	98.69
298.753	89.69
298.984	77.69
299.214	84.69
299.445	86.69
299.675	86.69
299.905	85.69
300.136	96.69
300.366	90.69
300.597	69.69
300.827	94.69
301.057	87.69
301.288	82.69
301.518	90.69
301.748	79.69
301.979	90.69
302.209	84.69
302.439	89.69
302.669	80.69
302.9	78.69
303.13	81.69
303.36	81.69
303.59	96.69
303.82	91.69
304.051	80.69
304.281	81.69
304.511	84.69
304.741	99.69
304.971	90.69
305.201	81.69
305.431	79.69
305.661	89.69
305.891	94.69
306.121	98.69
306.352	96.69
306.582	92.69
306.812	73.69
307.042	92.69
307.272	85.69
307.502	63.69
307.731	81.69
307.961	81.69
308.191	88.69
308.421	82.69
308.651	74.69
308.881	74.69
309.111	86.69
309.341	88.69
309.571	87.69
309.8	89.69
310.03	66.69
310.26	74.69
310.49	80.69
310.72	85.69
310.949	69.69
311.179	77.69
311.409	92.69
311.639	86.69
311.868	85.69
312.098	91.69
312.328	72.69
312.557	95.69
312.787	85.69
313.017	99.69
313.246	89.69
313.476	89.69
313.706	92.69
313.935	90.69
314.165	73.69
314.394	97.69
314.624	89.69
314.853	80.69
315.083	85.69
315.312	86.69
315.542	82.69
315.771	99.69
316.001	92.69
316.23	94.69
316.46	69.69
316.689	69.69
316.919	81.69
317.148	86.69
317.377	89.69
317.607	85.69
317.836	78.69
318.065	70.69
318.295	81.69
318.524	77.69
318.753	75.69
318.983	75.69
319.212	85.69
319.441	98.69
319.67	86.69
319.9	87.69
320.129	91.69
320.358	80.69
320.587	87.69
320.816	87.69
321.046	96.69
321.275	85.69
321.504	90.69
321.733	86.69
321.962	93.69
322.191	79.69
322.42	86.69
322.649	76.69
322.878	85.69
323.108	72.69
323.337	78.69
323.566	82.69
323.795	88.69
324.024	95.69
324.253	78.69
324.482	83.69
324.71	86.69
324.939	88.69
325.168	84.69
325.397	71.69
325.626	88.69
325.855	75.69
326.084	81.69
326.313	79.69
326.542	72.69
326.77	87.69
326.999	103.69
327.228	88.69
327.457	83.69
327.686	93.69
327.914	97.69
328.143	81.69
328.372	78.69
328.6	93.69
328.829	82.69
329.058	90.69
329.287	84.69
329.515	70.69
329.744	85.69
329.972	94.69
330.201	88.69
330.43	93.69
330.658	74.69
330.887	96.69
331.115	83.69
331.344	90.69
331.572	77.69
331.801	86.69
332.03	82.69
332.258	68.69
332.486	80.69
332.715	86.69
332.943	97.69
333.172	85.69
333.4	73.69
333.629	87.69
333.857	79.69
334.085	94.69
334.314	79.69
334.542	75.69
334.771	81.69
334.999	86.69
335.227	90.69
335.455	88.69
335.684	87.69
335.912	89.69
336.14	86.69
336.369	71.69
336.597	79.69
336.825	93.69
337.053	84.69
337.281	86.69
337.51	68.69
337.738	90.69
337.966	104.69
338.194	89.69
338.422	76.69
338.65	95.69
338.878	89.69
339.106	79.69
339.334	89.69
339.562	69.69
339.79	90.69
340.018	81.69
340.246	83.69
340.474	92.69
340.702	80.69
340.93	87.69
341.158	81.69
341.386	78.69
341.614	73.69
341.842	88.69
342.07	81.69
342.298	81.69
342.526	92.69
342.754	95.69
342.981	87.69
343.209	75.69
343.437	73.69
343.665	85.69
343.893	99.69
344.12	79.69
344.348	73.69
344.576	74.69
344.804	73.69
345.031	76.69
345.259	90.69
345.487	69.69
345.714	92.69
345.942	101.69
346.17	87.69
346.397	86.69
346.625	88.69
346.853	77.69
347.08	74.69
347.308	88.69
347.535	79.69
347.763	97.69
347.99	74.69
348.218	84.69
348.445	86.69
348.673	75.69
348.9	86.69
349.128	88.69
349.355	90.69
349.583	80.69
349.81	79.69
350.037	98.69
350.265	88.69
350.492	87.69
350.72	81.69
350.947	79.69
351.174	90.69
351.402	79.69
351.629	89.69
351.856	81.69
352.083	93.69
352.311	90.69
352.538	81.69
352.765	65.69
352.992	90.69
353.22	88.69
353.447	74.69
353.674	85.69
353.901	87.69
354.128	88.69
354.355	69.69
354.583	86.69
354.81	93.69
355.037	81.69
355.264	79.69
355.491	78.69
355.718	73.69
355.945	86.69
356.172	89.69
356.399	85.69
356.626	73.69
356.853	82.69
357.08	90.69
357.307	74.69
357.534	86.69
357.761	74.69
357.988	89.69
358.215	93.69
358.441	87.69
358.668	88.69
358.895	72.69
359.122	89.69
359.349	85.69
359.576	85.69
359.802	83.69
360.029	88.69
360.256	82.69
360.483	87.69
360.709	70.69
360.936	84.69
361.163	70.69
361.39	83.69
361.616	92.69
361.843	74.69
362.07	71.69
362.296	73.69
362.523	82.69
362.749	83.69
362.976	81.69
363.203	89.69
363.429	81.69
363.656	93.69
363.882	82.69
364.109	87.69
364.335	82.69
364.562	77.69
364.788	89.69
365.015	80.69
365.241	84.69
365.468	101.69
365.694	85.69
365.92	82.69
366.147	63.69
366.373	79.69
366.599	84.69
366.826	81.69
367.052	79.69
367.278	86.69
367.505	78.69
367.731	81.69
367.957	85.69
368.184	73.69
368.41	79.69
368.636	83.69
368.862	82.69
369.089	82.69
369.315	80.69
369.541	89.69
369.767	93.69
369.993	99.69
370.219	87.69
370.445	84.69
370.672	79.69
370.898	84.69
371.124	81.69
371.35	63.69
371.576	76.69
371.802	79.69
372.028	90.69
372.254	83.69
372.48	75.69
372.706	79.69
372.932	84.69
373.158	85.69
373.384	91.69
373.61	96.69
373.835	81.69
374.061	91.69
374.287	66.69
374.513	89.69
374.739	76.69
374.965	86.69
375.191	91.69
375.416	81.69
375.642	75.69
375.868	88.69
376.094	80.69
376.319	86.69
376.545	92.69
376.771	72.69
376.997	72.69
377.222	81.69
377.448	79.69
377.674	70.69
377.899	79.69
378.125	81.69
378.35	87.69
378.576	89.69
378.802	95.69
379.027	72.69
379.253	83.69
379.478	75.69
379.704	75.69
379.929	78.69
380.155	89.69
380.38	82.69
380.606	78.69
380.831	74.69
381.057	84.69
381.282	97.69
381.507	76.69
381.733	84.69
381.958	63.69
382.184	78.69
382.409	77.69
382.634	71.69
382.86	88.69
383.085	87.69
383.31	84.69
383.535	82.69
383.761	89.69
383.986	70.69
384.211	86.69
384.436	89.69
384.662	75.69
384.887	75.69
385.112	83.69
385.337	96.69
385.562	82.69
385.787	76.69
386.013	93.69
386.238	94.69
386.463	75.69
386.688	91.69
386.913	75.69
387.138	66.69
387.363	92.69
387.588	91.69
387.813	94.69
388.038	82.69
388.263	85.69
388.488	80.69
388.713	97.69
388.938	86.69
389.163	87.69
389.387	85.69
389.612	85.69
389.837	84.69
390.062	75.69
390.287	83.69
390.512	82.69
390.736	92.69
390.961	78.69
391.186	76.69
391.411	85.69
391.636	72.69
391.86	82.69
392.085	95.69
392.31	84.69
392.534	89.69
392.759	81.69
392.984	87.69
393.208	94.69
393.433	96.69
393.658	83.69
393.882	96.69
394.107	87.69
394.331	89.69
394.556	92.69
394.78	73.69
395.005	90.69
395.229	94.69
395.454	80.69
395.678	90.69
395.903	98.69
396.127	82.69
396.352	82.69
396.576	91.69
396.801	82.69
397.025	87.69
397.249	94.69
397.474	83.69
397.698	87.69
397.922	70.69
398.147	86.69
398.371	79.69
398.595	76.69
398.82	77.69
399.044	83.69
399.268	96.69
399.492	75.69
399.717	82.69
399.941	88.69
400.165	80.69
400.389	85.69
400.613	101.69
400.837	97.69
401.062	86.69
401.286	77.69
401.51	84.69
401.734	94.69
401.958	80.69
402.182	95.69
402.406	96.69
402.63	80.69
402.854	95.69
403.078	81.69
403.302	83.69
403.526	86.69
403.75	83.69
403.974	81.69
404.198	90.69
404.422	71.69
404.645	75.69
404.869	100.69
405.093	85.69
405.317	81.69
405.541	98.69
405.765	81.69
405.988	74.69
406.212	69.69
406.436	79.69
406.66	89.69
406.883	95.69
407.107	78.69
407.331	86.69
407.555	74.69
407.778	83.69
408.002	91.69
408.226	76.69
408.449	81.69
408.673	93.69
408.896	94.69
409.12	95.69
409.344	86.69
409.567	98.69
409.791	86.69
410.014	79.69
410.238	81.69
410.461	102.69
410.685	96.69
410.908	98.69
411.132	94.69
411.355	94.69
411.578	85.69
411.802	97.69
412.025	92.69
412.249	95.69
412.472	99.69
412.695	95.69
412.919	86.69
413.142	94.69
413.365	84.69
413.589	95.69
413.812	84.69
414.035	79.69
414.258	86.69
414.482	78.69
414.705	91.69
414.928	97.69
415.151	93.69
415.374	71.69
415.597	80.69
415.821	88.69
416.044	92.69
416.267	89.69
416.49	87.69
416.713	94.69
416.936	93.69
417.159	94.69
417.382	78.69
417.605	79.69
417.828	88.69
418.051	91.69
418.274	89.69
418.497	93.69
418.72	93.69
418.943	93.69
419.166	89.69
419.389	102.69
419.611	97.69
419.834	99.69
420.057	96.69
420.28	98.69
420.503	86.69
420.726	89.69
420.948	104.69
421.171	86.69
421.394	86.69
421.617	91.69
421.839	73.69
422.062	94.69
422.285	89.69
422.507	100.69
422.73	92.69
422.953	91.69
423.175	78.69
423.398	84.69
423.621	87.69
423.843	76.69
424.066	88.69
424.288	83.69
424.511	93.69
424.733	98.69
424.956	101.69
425.178	100.69
425.401	78.69
425.623	91.69
425.846	82.69
426.068	88.69
426.291	86.69
426.513	94.69
426.735	81.69
426.958	83.69
427.18	82.69
427.402	88.69
427.625	99.69
427.847	90.69
428.069	85.69
428.292	83.69
428.514	86.69
428.736	82.69
428.958	100.69
429.181	96.69
429.403	84.69
429.625	107.69
429.847	84.69
430.069	103.69
430.292	92.69
430.514	91.69
430.736	93.69
430.958	83.69
431.18	88.69
431.402	89.69
431.624	96.69
431.846	88.69
432.068	84.69
432.29	88.69
432.512	95.69
432.734	88.69
432.956	96.69
433.178	88.69
433.4	101.69
433.622	117.69
433.844	93.69
434.066	82.69
434.287	81.69
434.509	77.69
434.731	89.69
434.953	83.69
435.175	70.69
435.397	83.69
435.618	89.69
435.84	85.69
436.062	81.69
436.284	89.69
436.505	80.69
436.727	113.69
436.949	83.69
437.17	89.69
437.392	86.69
437.614	94.69
437.835	93.69
438.057	81.69
438.278	88.69
438.5	88.69
438.721	83.69
438.943	92.69
439.165	87.69
439.386	98.69
439.608	82.69
439.829	92.69
440.05	100.69
440.272	99.69
440.493	98.69
440.715	103.69
440.936	91.69
441.158	85.69
441.379	82.69
441.6	94.69
441.822	97.69
442.043	95.69
442.264	98.69
442.486	99.69
442.707	94.69
442.928	82.69
443.149	90.69
443.371	97.69
443.592	84.69
443.813	90.69
444.034	93.69
444.255	98.69
444.476	101.69
444.698	108.69
444.919	92.69
445.14	221.69
445.361	159.69
445.582	105.69
445.803	103.69
446.024	96.69
446.245	94.69
446.466	90.69
446.687	89.69
446.908	94.69
447.129	94.69
447.35	86.69
447.571	106.69
447.792	92.69
448.013	92.69
448.234	83.69
448.455	104.69
448.675	96.69
448.896	111.69
449.117	96.69
449.338	89.69
449.559	90.69
449.779	81.69
450	81.69
450.221	91.69
450.442	90.69
450.662	96.69
450.883	87.69
451.104	89.69
451.324	89.69
451.545	95.69
451.766	99.69
451.986	89.69
452.207	95.69
452.428	85.69
452.648	103.69
452.869	98.69
453.089	83.69
453.31	86.69
453.53	86.69
453.751	93.69
453.971	97.69
454.192	78.69
454.412	84.69
454.633	83.69
454.853	93.69
455.073	88.69
455.294	93.69
455.514	89.69
455.734	82.69
455.955	94.69
456.175	75.69
456.395	91.69
456.616	80.69
456.836	93.69
457.056	71.69
457.276	95.69
457.497	85.69
457.717	97.69
457.937	94.69
458.157	73.69
458.377	87.69
458.598	90.69
458.818	89.69
459.038	87.69
459.258	78.69
459.478	87.69
459.698	74.69
459.918	74.69
460.138	71.69
460.358	97.69
460.578	96.69
460.798	97.69
461.018	102.69
461.238	78.69
461.458	88.69
461.678	79.69
461.898	81.69
462.118	87.69
462.338	89.69
462.558	99.69
462.777	96.69
462.997	94.69
463.217	74.69
463.437	96.69
463.657	96.69
463.876	84.69
464.096	87.69
464.316	99.69
464.536	87.69
464.755	76.69
464.975	90.69
465.195	95.69
465.414	89.69
465.634	81.69
465.854	105.69
466.073	91.69
466.293	97.69
466.512	90.69
466.732	99.69
466.951	100.69
467.171	81.69
467.391	89.69
467.61	89.69
467.829	75.69
468.049	91.69
468.268	102.69
468.488	102.69
468.707	89.69
468.927	99.69
469.146	73.69
469.365	98.69
469.585	85.69
469.804	93.69
470.023	91.69
470.243	96.69
470.462	96.69
470.681	121.69
470.901	95.69
471.12	95.69
471.339	89.69
471.558	73.69
471.777	83.69
471.997	99.69
472.216	91.69
472.435	81.69
472.654	88.69
472.873	97.69
473.092	85.69
473.311	97.69
473.53	90.69
473.749	81.69
473.968	83.69
474.187	92.69
474.406	109.69
474.625	102.69
474.844	100.69
475.063	92.69
475.282	98.69
475.501	81.69
475.72	93.69
475.939	87.69
476.158	85.69
476.377	69.69
476.596	72.69
476.814	93.69
477.033	85.69
477.252	87.69
477.471	85.69
477.69	90.69
477.908	98.69
478.127	96.69
478.346	92.69
478.564	100.69
478.783	89.69
479.002	90.69
479.22	94.69
479.439	101.69
479.658	106.69
479.876	95.69
480.095	95.69
480.313	97.69
480.532	98.69
480.751	93.69
480.969	89.69
481.188	80.69
481.406	75.69
481.624	66.69
481.843	86.69
482.061	90.69
482.28	91.69
482.498	96.69
482.717	72.69
482.935	87.69
483.153	102.69
483.372	102.69
483.59	77.69
483.808	98.69
484.027	89.69
484.245	110.69
484.463	111.69
484.681	104.69
484.9	101.69
485.118	78.69
485.336	86.69
485.554	90.69
485.772	90.69
485.99	81.69
486.209	93.69
486.427	87.69
486.645	90.69
486.863	90.69
487.081	91.69
487.299	75.69
487.517	93.69
487.735	105.69
487.953	114.69
488.171	100.69
488.389	102.69
488.607	92.69
488.825	97.69
489.043	100.69
489.261	96.69
489.479	80.69
489.696	103.69
489.914	91.69
490.132	98.69
490.35	92.69
490.568	96.69
490.786	101.69
491.003	91.69
491.221	106.69
491.439	104.69
491.657	100.69
491.874	102.69
492.092	121.69
492.31	127.69
492.527	115.69
492.745	120.69
492.963	113.69
493.18	119.69
493.398	94.69
493.615	87.69
493.833	103.69
494.05	116.69
494.268	107.69
494.485	100.69
494.703	87.69
494.92	101.69
495.138	104.69
495.355	119.69
495.573	109.69
495.79	104.69
496.008	100.69
496.225	86.69
496.442	98.69
496.66	105.69
496.877	101.69
497.094	106.69
497.312	96.69
497.529	106.69
497.746	84.69
497.963	109.69
498.181	94.69
498.398	86.69
498.615	95.69
498.832	88.69
499.049	84.69
499.267	102.69
499.484	111.69
499.701	102.69
499.918	88.69
500.135	103.69
500.352	99.69
500.569	98.69
500.786	96.69
501.003	83.69
501.22	97.69
501.437	85.69
501.654	95.69
501.871	98.69
502.088	105.69
502.305	90.69
502.522	85.69
502.739	105.69
502.956	83.69
503.172	91.69
503.389	94.69
503.606	92.69
503.823	82.69
504.04	103.69
504.256	96.69
504.473	98.69
504.69	93.69
504.907	91.69
505.123	97.69
505.34	89.69
505.557	95.69
505.773	90.69
505.99	102.69
506.207	85.69
506.423	90.69
506.64	92.69
506.856	79.69
507.073	89.69
507.289	104.69
507.506	92.69
507.722	83.69
507.939	86.69
508.155	93.69
508.372	85.69
508.588	90.69
508.805	99.69
509.021	93.69
509.238	84.69
509.454	88.69
509.67	88.69
509.887	91.69
510.103	82.69
510.319	81.69
510.536	97.69
510.752	88.69
510.968	68.69
511.184	90.69
511.401	84.69
511.617	82.69
511.833	85.69
512.049	74.69
512.265	77.69
512.481	90.69
512.698	82.69
512.914	88.69
513.13	74.69
513.346	91.69
513.562	76.69
513.778	79.69
513.994	93.69
514.21	101.69
514.426	91.69
514.642	80.69
514.858	83.69
515.074	65.69
515.29	95.69
515.506	87.69
515.721	82.69
515.937	97.69
516.153	75.69
516.369	71.69
516.585	69.69
516.801	94.69
517.016	96.69
517.232	83.69
517.448	82.69
517.664	87.69
517.879	79.69
518.095	82.69
518.311	92.69
518.527	80.69
518.742	85.69
518.958	86.69
519.173	91.69
519.389	92.69
519.605	82.69
519.82	85.69
520.036	92.69
520.251	88.69
520.467	90.69
520.682	86.69
520.898	85.69
521.113	86.69
521.329	75.69
521.544	101.69
521.76	84.69
521.975	100.69
522.19	100.69
522.406	86.69
522.621	83.69
522.836	91.69
523.052	84.69
523.267	87.69
523.482	96.69
523.698	69.69
523.913	93.69
524.128	75.69
524.343	89.69
524.559	85.69
524.774	97.69
524.989	88.69
525.204	87.69
525.419	100.69
525.634	92.69
525.849	94.69
526.064	83.69
526.28	91.69
526.495	85.69
526.71	76.69
526.925	71.69
527.14	83.69
527.355	89.69
527.57	76.69
527.785	78.69
527.999	96.69
528.214	90.69
528.429	83.69
528.644	79.69
528.859	107.69
529.074	115.69
529.289	108.69
529.503	90.69
529.718	100.69
529.933	74.69
530.148	82.69
530.363	79.69
530.577	67.69
530.792	82.69
531.007	87.69
531.221	74.69
531.436	82.69
531.651	78.69
531.865	85.69
532.08	83.69
532.295	94.69
532.509	81.69
532.724	81.69
532.938	75.69
533.153	93.69
533.367	85.69
533.582	75.69
533.796	95.69
534.011	85.69
534.225	74.69
534.44	85.69
534.654	83.69
534.868	83.69
535.083	98.69
535.297	97.69
535.511	87.69
535.726	95.69
535.94	87.69
536.154	84.69
536.369	78.69
536.583	88.69
536.797	81.69
537.011	90.69
537.225	69.69
537.44	94.69
537.654	83.69
537.868	78.69
538.082	82.69
538.296	100.69
538.51	92.69
538.724	86.69
538.938	106.69
539.153	93.69
539.367	103.69
539.581	94.69
539.795	69.69
540.009	100.69
540.222	80.69
540.436	97.69
540.65	95.69
540.864	94.69
541.078	94.69
541.292	100.69
541.506	114.69
541.72	117.69
541.934	104.69
542.147	113.69
542.361	102.69
542.575	108.69
542.789	101.69
543.002	106.69
543.216	87.69
543.43	81.69
543.644	85.69
543.857	92.69
544.071	104.69
544.285	94.69
544.498	118.69
544.712	109.69
544.925	94.69
545.139	103.69
545.352	97.69
545.566	110.69
545.779	112.69
545.993	97.69
546.206	110.69
546.42	114.69
546.633	95.69
546.847	103.69
547.06	101.69
547.274	99.69
547.487	99.69
547.7	115.69
547.914	112.69
548.127	94.69
548.34	98.69
548.554	99.69
548.767	96.69
548.98	110.69
549.193	107.69
549.407	95.69
549.62	100.69
549.833	112.69
550.046	103.69
550.259	90.69
550.473	103.69
550.686	106.69
550.899	102.69
551.112	103.69
551.325	97.69
551.538	104.69
551.751	88.69
551.964	103.69
552.177	97.69
552.39	101.69
552.603	117.69
552.816	94.69
553.029	89.69
553.242	92.69
553.455	96.69
553.667	116.69
553.88	101.69
554.093	110.69
554.306	96.69
554.519	91.69
554.732	101.69
554.944	94.69
555.157	100.69
555.37	90.69
555.583	103.69
555.795	101.69
556.008	88.69
556.221	100.69
556.433	101.69
556.646	114.69
556.859	101.69
557.071	100.69
557.284	87.69
557.496	93.69
557.709	99.69
557.921	112.69
558.134	104.69
558.346	101.69
558.559	96.69
558.771	96.69
558.984	103.69
559.196	105.69
559.409	91.69
559.621	103.69
559.833	104.69
560.046	96.69
560.258	99.69
560.47	113.69
560.683	86.69
560.895	93.69
561.107	93.69
561.32	102.69
561.532	96.69
561.744	101.69
561.956	99.69
562.168	104.69
562.381	88.69
562.593	88.69
562.805	94.69
563.017	90.69
563.229	87.69
563.441	80.69
563.653	101.69
563.865	97.69
564.077	78.69
564.289	84.69
564.501	84.69
564.713	105.69
564.925	93.69
565.137	102.69
565.349	86.69
565.561	93.69
565.773	103.69
565.985	96.69
566.197	94.69
566.408	87.69
566.62	94.69
566.832	72.69
567.044	106.69
567.255	83.69
567.467	103.69
567.679	95.69
567.891	77.69
568.102	101.69
568.314	85.69
568.526	78.69
568.737	91.69
568.949	79.69
569.161	87.69
569.372	88.69
569.584	86.69
569.795	79.69
570.007	85.69
570.218	73.69
570.43	87.69
570.641	100.69
570.853	90.69
571.064	99.69
571.276	106.69
571.487	106.69
571.698	84.69
571.91	91.69
572.121	82.69
572.333	85.69
572.544	77.69
572.755	92.69
572.966	82.69
573.178	78.69
573.389	75.69
573.6	79.69
573.811	88.69
574.023	98.69
574.234	81.69
574.445	94.69
574.656	90.69
574.867	74.69
575.078	84.69
575.289	75.69
575.501	84.69
575.712	79.69
575.923	95.69
576.134	98.69
576.345	92.69
576.556	105.69
576.767	99.69
576.978	83.69
577.188	85.69
577.399	83.69
577.61	94.69
577.821	88.69
578.032	100.69
578.243	82.69
578.454	102.69
578.665	72.69
578.875	87.69
579.086	82.69
579.297	73.69
579.508	85.69
579.718	84.69
579.929	82.69
580.14	74.69
580.35	83.69
580.561	78.69
580.772	90.69
580.982	87.69
581.193	79.69
581.403	74.69
581.614	89.69
581.825	72.69
582.035	85.69
582.246	77.69
582.456	80.69
582.667	82.69
582.877	93.69
583.087	94.69
583.298	91.69
583.508	80.69
583.719	92.69
583.929	75.69
584.139	92.69
584.35	89.69
584.56	80.69
584.77	81.69
584.981	82.69
585.191	87.69
585.401	76.69
585.611	95.69
585.821	71.69
586.032	88.69
586.242	92.69
586.452	80.69
586.662	94.69
586.872	85.69
587.082	74.69
587.292	89.69
587.502	72.69
587.713	86.69
587.923	81.69
588.133	76.69
588.343	82.69
588.553	92.69
588.762	79.69
588.972	85.69
589.182	89.69
589.392	79.69
589.602	93.69
589.812	94.69
590.022	97.69
590.232	90.69
590.441	81.69
590.651	81.69
590.861	83.69
591.071	96.69
591.281	90.69
591.49	87.69
591.7	88.69
591.91	90.69
592.119	91.69
592.329	83.69
592.539	86.69
592.748	78.69
592.958	98.69
593.167	84.69
593.377	103.69
593.587	96.69
593.796	96.69
594.006	88.69
594.215	73.69
594.424	81.69
594.634	88.69
594.843	91.69
595.053	85.69
595.262	78.69
595.472	93.69
595.681	98.69
595.89	79.69
596.1	86.69
596.309	85.69
596.518	87.69
596.727	92.69
596.937	89.69
597.146	93.69
597.355	97.69
597.564	93.69
597.774	81.69
597.983	75.69
598.192	80.69
598.401	80.69
598.61	95.69
598.819	89.69
599.028	76.69
599.237	82.69
599.446	92.69
599.655	93.69
599.864	95.69
600.073	83.69
600.282	96.69
600.491	89.69
600.7	92.69
600.909	95.69
601.118	93.69
601.327	113.69
601.536	88.69
601.745	99.69
601.953	99.69
602.162	85.69
602.371	82.69
602.58	95.69
602.789	83.69
602.997	86.69
603.206	98.69
603.415	99.69
603.623	85.69
603.832	83.69
604.041	99.69
604.249	81.69
604.458	87.69
604.666	88.69
604.875	89.69
605.084	94.69
605.292	88.69
605.501	92.69
605.709	94.69
605.918	89.69
606.126	91.69
606.334	86.69
606.543	91.69
606.751	77.69
606.96	98.69
607.168	99.69
607.376	92.69
607.585	83.69
607.793	94.69
608.001	75.69
608.21	77.69
608.418	94.69
608.626	87.69
608.834	86.69
609.043	86.69
609.251	75.69
609.459	92.69
609.667	99.69
609.875	80.69
610.083	84.69
610.291	96.69
610.499	80.69
610.707	83.69
610.916	91.69
611.124	94.69
611.332	81.69
611.54	92.69
611.748	89.69
611.955	93.69
612.163	91.69
612.371	74.69
612.579	89.69
612.787	94.69
612.995	89.69
613.203	75.69
613.411	102.69
613.618	95.69
613.826	86.69
614.034	94.69
614.242	106.69
614.449	93.69
614.657	97.69
614.865	87.69
615.072	89.69
615.28	90.69
615.488	98.69
615.695	89.69
615.903	87.69
616.111	85.69
616.318	118.69
616.526	85.69
616.733	81.69
616.941	91.69
617.148	92.69
617.356	94.69
617.563	88.69
617.771	84.69
617.978	76.69
618.185	96.69
618.393	95.69
618.6	73.69
618.807	90.69
619.015	95.69
619.222	85.69
619.429	92.69
619.637	75.69
619.844	85.69
620.051	80.69
620.258	104.69
620.466	103.69
620.673	79.69
620.88	86.69
621.087	98.69
621.294	83.69
621.501	97.69
621.708	86.69
621.915	90.69
622.122	99.69
622.329	82.69
622.536	79.69
622.743	93.69
622.95	80.69
623.157	73.69
623.364	79.69
623.571	98.69
623.778	86.69
623.985	101.69
624.192	88.69
624.399	94.69
624.606	95.69
624.812	80.69
625.019	105.69
625.226	84.69
625.433	81.69
625.639	76.69
625.846	84.69
626.053	78.69
626.259	93.69
626.466	93.69
626.673	89.69
626.879	75.69
627.086	105.69
627.293	82.69
627.499	75.69
627.706	73.69
627.912	92.69
628.119	89.69
628.325	96.69
628.532	95.69
628.738	94.69
628.945	82.69
629.151	80.69
629.357	88.69
629.564	84.69
629.77	94.69
629.976	87.69
630.183	91.69
630.389	97.69
630.595	100.69
630.802	90.69
631.008	89.69
631.214	78.69
631.42	85.69
631.627	81.69
631.833	88.69
632.039	94.69
632.245	105.69
632.451	93.69
632.657	90.69
632.863	82.69
633.069	84.69
633.275	103.69
633.481	85.69
633.688	87.69
633.893	86.69
634.099	103.69
634.305	93.69
634.511	72.69
634.717	100.69
634.923	86.69
635.129	78.69
635.335	73.69
635.541	83.69
635.747	75.69
635.952	89.69
636.158	94.69
636.364	94.69
636.57	89.69
636.775	76.69
636.981	97.69
637.187	93.69
637.392	82.69
637.598	81.69
637.804	94.69
638.009	75.69
638.215	90.69
638.421	83.69
638.626	83.69
638.832	101.69
639.037	99.69
639.243	90.69
639.448	89.69
639.654	94.69
639.859	78.69
640.065	95.69
640.27	82.69
640.475	97.69
640.681	87.69
640.886	95.69
641.091	85.69
641.297	94.69
641.502	81.69
641.707	89.69
641.913	86.69
642.118	71.69
642.323	86.69
642.528	96.69
642.733	85.69
642.939	110.69
643.144	72.69
643.349	81.69
643.554	81.69
643.759	86.69
643.964	67.69
644.169	88.69
644.374	76.69
644.579	99.69
644.784	87.69
644.989	92.69
645.194	92.69
645.399	84.69
645.604	83.69
645.809	85.69
646.014	90.69
646.219	96.69
646.423	72.69
646.628	87.69
646.833	85.69
647.038	89.69
647.243	83.69
647.447	89.69
647.652	89.69
647.857	86.69
648.062	74.69
648.266	94.69
648.471	81.69
648.676	90.69
648.88	75.69
649.085	81.69
649.289	74.69
649.494	85.69
649.698	90.69
649.903	77.69
650.107	84.69
650.312	82.69
650.516	90.69
650.721	87.69
650.925	98.69
651.13	104.69
651.334	90.69
651.539	92.69
651.743	96.69
651.947	82.69
652.152	77.69
652.356	79.69
652.56	85.69
652.764	88.69
652.969	111.69
653.173	90.69
653.377	89.69
653.581	87.69
653.785	75.69
653.99	84.69
654.194	94.69
654.398	87.69
654.602	89.69
654.806	88.69
655.01	95.69
655.214	90.69
655.418	73.69
655.622	79.69
655.826	94.69
656.03	88.69
656.234	82.69
656.438	84.69
656.642	81.69
656.846	83.69
657.049	92.69
657.253	90.69
657.457	76.69
657.661	84.69
657.865	70.69
658.068	62.69
658.272	77.69
658.476	73.69
658.68	96.69
658.883	85.69
659.087	89.69
659.291	81.69
659.494	62.69
659.698	79.69
659.901	75.69
660.105	72.69
660.309	71.69
660.512	73.69
660.716	77.69
660.919	77.69
661.123	76.69
661.326	98.69
661.53	86.69
661.733	86.69
661.936	78.69
662.14	77.69
662.343	76.69
662.546	80.69
662.75	81.69
662.953	81.69
663.156	77.69
663.36	82.69
663.563	86.69
663.766	102.69
663.969	67.69
664.173	75.69
664.376	87.69
664.579	85.69
664.782	78.69
664.985	80.69
665.188	78.69
665.391	85.69
665.594	82.69
665.797	71.69
666	75.69
666.203	75.69
666.406	86.69
666.609	86.69
666.812	83.69
667.015	85.69
667.218	88.69
667.421	74.69
667.624	77.69
667.827	79.69
668.03	75.69
668.232	85.69
668.435	68.69
668.638	76.69
668.841	76.69
669.043	76.69
669.246	78.69
669.449	80.69
669.651	77.69
669.854	87.69
670.057	78.69
670.259	83.69
670.462	85.69
670.665	68.69
670.867	81.69
671.07	98.69
671.272	82.69
671.475	82.69
671.677	71.69
671.88	98.69
672.082	78.69
672.284	88.69
672.487	75.69
672.689	80.69
672.892	74.69
