Data from Location5.07152019.Energy5.Lamp.07192019.3%Agarose_HRD10591_16-03-58-628.txt Node
Date: Fri Jul 19 16:03:58 EDT 2019
User: cochatt
Spectrometer: HR+D1059
Trigger mode: 1
Integration Time (sec): 1.000000E-1
Scans to average: 1
Electric dark correction enabled: true
Nonlinearity correction enabled: false
Boxcar width: 0
XAxis mode: Wavelengths
Number of Pixels in Spectrum: 2048
>>>>>Begin Spectral Data<<<<<
223.165	-11.94
223.4	-11.94
223.635	-11.94
223.869	-22.94
224.104	-17.94
224.338	-15.94
224.573	-4.94
224.808	-17.94
225.042	-11.94
225.277	-1.94
225.511	-6.94
225.746	0.06
225.98	2.06
226.215	23.06
226.449	19.06
226.683	17.06
226.918	16.06
227.152	35.06
227.387	32.06
227.621	37.06
227.856	31.06
228.09	49.06
228.324	53.06
228.559	51.06
228.793	50.06
229.027	54.06
229.262	77.06
229.496	55.06
229.73	66.06
229.964	60.06
230.199	64.06
230.433	67.06
230.667	76.06
230.901	83.06
231.136	84.06
231.37	90.06
231.604	76.06
231.838	92.06
232.072	85.06
232.306	84.06
232.541	69.06
232.775	77.06
233.009	86.06
233.243	90.06
233.477	89.06
233.711	86.06
233.945	87.06
234.179	94.06
234.413	81.06
234.647	90.06
234.881	79.06
235.115	80.06
235.349	91.06
235.583	80.06
235.817	84.06
236.051	80.06
236.285	73.06
236.519	70.06
236.753	88.06
236.987	82.06
237.221	75.06
237.455	69.06
237.689	66.06
237.922	92.06
238.156	73.06
238.39	89.06
238.624	74.06
238.858	69.06
239.091	70.06
239.325	81.06
239.559	89.06
239.793	75.06
240.027	87.06
240.26	68.06
240.494	64.06
240.728	60.06
240.961	83.06
241.195	80.06
241.429	67.06
241.662	67.06
241.896	82.06
242.13	74.06
242.363	63.06
242.597	78.06
242.83	78.06
243.064	72.06
243.298	80.06
243.531	65.06
243.765	89.06
243.998	74.06
244.232	89.06
244.465	82.06
244.699	75.06
244.932	89.06
245.166	68.06
245.399	97.06
245.633	81.06
245.866	83.06
246.099	94.06
246.333	76.06
246.566	84.06
246.8	84.06
247.033	82.06
247.266	90.06
247.5	85.06
247.733	83.06
247.966	76.06
248.2	71.06
248.433	75.06
248.666	78.06
248.899	80.06
249.133	75.06
249.366	80.06
249.599	73.06
249.832	89.06
250.066	97.06
250.299	80.06
250.532	81.06
250.765	95.06
250.998	78.06
251.231	80.06
251.465	79.06
251.698	97.06
251.931	90.06
252.164	91.06
252.397	83.06
252.63	87.06
252.863	86.06
253.096	86.06
253.329	90.06
253.562	73.06
253.795	90.06
254.028	88.06
254.261	91.06
254.494	83.06
254.727	85.06
254.96	79.06
255.193	84.06
255.426	82.06
255.659	83.06
255.892	90.06
256.124	85.06
256.357	88.06
256.59	72.06
256.823	84.06
257.056	84.06
257.289	78.06
257.521	98.06
257.754	71.06
257.987	69.06
258.22	92.06
258.452	91.06
258.685	85.06
258.918	80.06
259.151	86.06
259.383	99.06
259.616	82.06
259.849	86.06
260.081	95.06
260.314	95.06
260.547	83.06
260.779	89.06
261.012	86.06
261.244	75.06
261.477	86.06
261.71	93.06
261.942	87.06
262.175	85.06
262.407	84.06
262.64	90.06
262.872	84.06
263.105	91.06
263.337	86.06
263.57	79.06
263.802	91.06
264.035	90.06
264.267	92.06
264.499	90.06
264.732	82.06
264.964	70.06
265.197	85.06
265.429	96.06
265.661	75.06
265.894	84.06
266.126	81.06
266.358	92.06
266.591	89.06
266.823	86.06
267.055	75.06
267.287	82.06
267.52	75.06
267.752	95.06
267.984	82.06
268.216	80.06
268.448	76.06
268.681	89.06
268.913	79.06
269.145	87.06
269.377	83.06
269.609	96.06
269.841	95.06
270.073	82.06
270.306	90.06
270.538	72.06
270.77	101.06
271.002	82.06
271.234	101.06
271.466	90.06
271.698	82.06
271.93	81.06
272.162	96.06
272.394	86.06
272.626	88.06
272.858	79.06
273.09	99.06
273.322	90.06
273.553	83.06
273.785	68.06
274.017	79.06
274.249	87.06
274.481	82.06
274.713	85.06
274.945	88.06
275.176	86.06
275.408	84.06
275.64	68.06
275.872	74.06
276.104	102.06
276.335	85.06
276.567	86.06
276.799	85.06
277.031	95.06
277.262	86.06
277.494	85.06
277.726	98.06
277.957	94.06
278.189	78.06
278.421	94.06
278.652	82.06
278.884	90.06
279.115	88.06
279.347	98.06
279.579	97.06
279.81	88.06
280.042	95.06
280.273	92.06
280.505	81.06
280.736	91.06
280.968	83.06
281.199	82.06
281.431	84.06
281.662	100.06
281.894	92.06
282.125	96.06
282.356	96.06
282.588	91.06
282.819	99.06
283.051	74.06
283.282	85.06
283.513	102.06
283.745	91.06
283.976	90.06
284.207	95.06
284.439	92.06
284.67	87.06
284.901	100.06
285.132	97.06
285.364	82.06
285.595	83.06
285.826	86.06
286.057	97.06
286.288	75.06
286.52	79.06
286.751	79.06
286.982	87.06
287.213	89.06
287.444	83.06
287.675	82.06
287.906	89.06
288.138	95.06
288.369	82.06
288.6	88.06
288.831	95.06
289.062	106.06
289.293	95.06
289.524	94.06
289.755	91.06
289.986	90.06
290.217	97.06
290.448	97.06
290.679	89.06
290.91	98.06
291.141	91.06
291.371	102.06
291.602	101.06
291.833	94.06
292.064	84.06
292.295	93.06
292.526	80.06
292.757	86.06
292.987	99.06
293.218	96.06
293.449	80.06
293.68	84.06
293.91	88.06
294.141	95.06
294.372	91.06
294.603	95.06
294.833	92.06
295.064	96.06
295.295	90.06
295.525	96.06
295.756	91.06
295.987	94.06
296.217	95.06
296.448	89.06
296.679	70.06
296.909	90.06
297.14	94.06
297.37	80.06
297.601	95.06
297.831	81.06
298.062	91.06
298.292	85.06
298.523	96.06
298.753	88.06
298.984	78.06
299.214	95.06
299.445	84.06
299.675	111.06
299.905	102.06
300.136	88.06
300.366	84.06
300.597	90.06
300.827	90.06
301.057	80.06
301.288	85.06
301.518	93.06
301.748	92.06
301.979	88.06
302.209	105.06
302.439	97.06
302.669	92.06
302.9	95.06
303.13	91.06
303.36	97.06
303.59	105.06
303.82	95.06
304.051	95.06
304.281	82.06
304.511	88.06
304.741	84.06
304.971	95.06
305.201	103.06
305.431	93.06
305.661	82.06
305.891	94.06
306.121	85.06
306.352	77.06
306.582	83.06
306.812	102.06
307.042	104.06
307.272	92.06
307.502	92.06
307.731	97.06
307.961	99.06
308.191	87.06
308.421	90.06
308.651	88.06
308.881	97.06
309.111	88.06
309.341	95.06
309.571	102.06
309.8	95.06
310.03	78.06
310.26	87.06
310.49	85.06
310.72	84.06
310.949	94.06
311.179	88.06
311.409	80.06
311.639	100.06
311.868	92.06
312.098	95.06
312.328	87.06
312.557	95.06
312.787	98.06
313.017	96.06
313.246	87.06
313.476	86.06
313.706	83.06
313.935	84.06
314.165	98.06
314.394	94.06
314.624	100.06
314.853	80.06
315.083	86.06
315.312	88.06
315.542	83.06
315.771	100.06
316.001	97.06
316.23	112.06
316.46	93.06
316.689	77.06
316.919	88.06
317.148	92.06
317.377	86.06
317.607	94.06
317.836	90.06
318.065	100.06
318.295	97.06
318.524	93.06
318.753	93.06
318.983	91.06
319.212	102.06
319.441	103.06
319.67	72.06
319.9	86.06
320.129	98.06
320.358	103.06
320.587	102.06
320.816	104.06
321.046	98.06
321.275	101.06
321.504	101.06
321.733	92.06
321.962	84.06
322.191	84.06
322.42	90.06
322.649	80.06
322.878	86.06
323.108	90.06
323.337	103.06
323.566	102.06
323.795	95.06
324.024	100.06
324.253	86.06
324.482	84.06
324.71	101.06
324.939	105.06
325.168	91.06
325.397	102.06
325.626	101.06
325.855	99.06
326.084	92.06
326.313	89.06
326.542	97.06
326.77	110.06
326.999	86.06
327.228	100.06
327.457	114.06
327.686	92.06
327.914	96.06
328.143	99.06
328.372	83.06
328.6	104.06
328.829	105.06
329.058	90.06
329.287	94.06
329.515	99.06
329.744	103.06
329.972	99.06
330.201	107.06
330.43	92.06
330.658	80.06
330.887	94.06
331.115	99.06
331.344	80.06
331.572	92.06
331.801	100.06
332.03	93.06
332.258	95.06
332.486	88.06
332.715	105.06
332.943	115.06
333.172	95.06
333.4	105.06
333.629	99.06
333.857	106.06
334.085	94.06
334.314	88.06
334.542	90.06
334.771	98.06
334.999	107.06
335.227	95.06
335.455	74.06
335.684	92.06
335.912	88.06
336.14	104.06
336.369	88.06
336.597	94.06
336.825	84.06
337.053	95.06
337.281	81.06
337.51	86.06
337.738	84.06
337.966	94.06
338.194	92.06
338.422	104.06
338.65	85.06
338.878	100.06
339.106	98.06
339.334	75.06
339.562	89.06
339.79	86.06
340.018	88.06
340.246	104.06
340.474	82.06
340.702	93.06
340.93	99.06
341.158	101.06
341.386	108.06
341.614	89.06
341.842	96.06
342.07	91.06
342.298	97.06
342.526	106.06
342.754	84.06
342.981	85.06
343.209	97.06
343.437	104.06
343.665	111.06
343.893	90.06
344.12	114.06
344.348	87.06
344.576	85.06
344.804	82.06
345.031	91.06
345.259	94.06
345.487	96.06
345.714	88.06
345.942	79.06
346.17	96.06
346.397	99.06
346.625	86.06
346.853	94.06
347.08	102.06
347.308	86.06
347.535	90.06
347.763	87.06
347.99	92.06
348.218	92.06
348.445	99.06
348.673	95.06
348.9	100.06
349.128	98.06
349.355	94.06
349.583	91.06
349.81	90.06
350.037	101.06
350.265	90.06
350.492	94.06
350.72	79.06
350.947	84.06
351.174	104.06
351.402	106.06
351.629	84.06
351.856	106.06
352.083	95.06
352.311	90.06
352.538	92.06
352.765	100.06
352.992	87.06
353.22	88.06
353.447	86.06
353.674	100.06
353.901	95.06
354.128	91.06
354.355	93.06
354.583	102.06
354.81	87.06
355.037	85.06
355.264	97.06
355.491	84.06
355.718	81.06
355.945	82.06
356.172	79.06
356.399	83.06
356.626	105.06
356.853	72.06
357.08	93.06
357.307	98.06
357.534	95.06
357.761	89.06
357.988	91.06
358.215	98.06
358.441	97.06
358.668	87.06
358.895	94.06
359.122	99.06
359.349	78.06
359.576	70.06
359.802	104.06
360.029	86.06
360.256	86.06
360.483	105.06
360.709	95.06
360.936	90.06
361.163	99.06
361.39	86.06
361.616	84.06
361.843	98.06
362.07	86.06
362.296	87.06
362.523	97.06
362.749	91.06
362.976	98.06
363.203	99.06
363.429	87.06
363.656	83.06
363.882	95.06
364.109	89.06
364.335	87.06
364.562	93.06
364.788	86.06
365.015	92.06
365.241	90.06
365.468	92.06
365.694	102.06
365.92	93.06
366.147	97.06
366.373	81.06
366.599	86.06
366.826	83.06
367.052	97.06
367.278	95.06
367.505	90.06
367.731	82.06
367.957	98.06
368.184	92.06
368.41	88.06
368.636	84.06
368.862	88.06
369.089	97.06
369.315	85.06
369.541	84.06
369.767	77.06
369.993	94.06
370.219	83.06
370.445	112.06
370.672	90.06
370.898	89.06
371.124	93.06
371.35	89.06
371.576	93.06
371.802	98.06
372.028	110.06
372.254	105.06
372.48	88.06
372.706	92.06
372.932	92.06
373.158	90.06
373.384	92.06
373.61	91.06
373.835	83.06
374.061	103.06
374.287	91.06
374.513	96.06
374.739	94.06
374.965	90.06
375.191	89.06
375.416	90.06
375.642	94.06
375.868	89.06
376.094	91.06
376.319	84.06
376.545	99.06
376.771	101.06
376.997	85.06
377.222	95.06
377.448	96.06
377.674	95.06
377.899	87.06
378.125	91.06
378.35	94.06
378.576	91.06
378.802	89.06
379.027	79.06
379.253	105.06
379.478	106.06
379.704	96.06
379.929	101.06
380.155	111.06
380.38	96.06
380.606	91.06
380.831	99.06
381.057	96.06
381.282	99.06
381.507	94.06
381.733	95.06
381.958	83.06
382.184	99.06
382.409	92.06
382.634	94.06
382.86	102.06
383.085	96.06
383.31	94.06
383.535	94.06
383.761	95.06
383.986	91.06
384.211	93.06
384.436	83.06
384.662	91.06
384.887	95.06
385.112	92.06
385.337	74.06
385.562	91.06
385.787	98.06
386.013	95.06
386.238	88.06
386.463	104.06
386.688	93.06
386.913	84.06
387.138	103.06
387.363	96.06
387.588	94.06
387.813	98.06
388.038	101.06
388.263	96.06
388.488	81.06
388.713	80.06
388.938	102.06
389.163	90.06
389.387	88.06
389.612	96.06
389.837	97.06
390.062	93.06
390.287	101.06
390.512	85.06
390.736	88.06
390.961	95.06
391.186	102.06
391.411	91.06
391.636	85.06
391.86	94.06
392.085	97.06
392.31	93.06
392.534	97.06
392.759	89.06
392.984	85.06
393.208	83.06
393.433	86.06
393.658	87.06
393.882	100.06
394.107	99.06
394.331	106.06
394.556	95.06
394.78	91.06
395.005	89.06
395.229	86.06
395.454	101.06
395.678	102.06
395.903	96.06
396.127	84.06
396.352	96.06
396.576	106.06
396.801	105.06
397.025	109.06
397.249	80.06
397.474	97.06
397.698	110.06
397.922	102.06
398.147	104.06
398.371	77.06
398.595	116.06
398.82	102.06
399.044	94.06
399.268	97.06
399.492	110.06
399.717	104.06
399.941	96.06
400.165	98.06
400.389	100.06
400.613	107.06
400.837	110.06
401.062	93.06
401.286	94.06
401.51	120.06
401.734	90.06
401.958	92.06
402.182	91.06
402.406	92.06
402.63	86.06
402.854	93.06
403.078	110.06
403.302	103.06
403.526	102.06
403.75	110.06
403.974	91.06
404.198	87.06
404.422	105.06
404.645	96.06
404.869	95.06
405.093	89.06
405.317	86.06
405.541	91.06
405.765	110.06
405.988	106.06
406.212	96.06
406.436	87.06
406.66	94.06
406.883	86.06
407.107	96.06
407.331	107.06
407.555	99.06
407.778	107.06
408.002	115.06
408.226	110.06
408.449	103.06
408.673	115.06
408.896	112.06
409.12	95.06
409.344	86.06
409.567	101.06
409.791	112.06
410.014	107.06
410.238	107.06
410.461	99.06
410.685	110.06
410.908	87.06
411.132	96.06
411.355	110.06
411.578	106.06
411.802	104.06
412.025	103.06
412.249	110.06
412.472	105.06
412.695	107.06
412.919	94.06
413.142	99.06
413.365	113.06
413.589	98.06
413.812	103.06
414.035	104.06
414.258	88.06
414.482	90.06
414.705	99.06
414.928	95.06
415.151	90.06
415.374	95.06
415.597	90.06
415.821	98.06
416.044	100.06
416.267	98.06
416.49	85.06
416.713	97.06
416.936	102.06
417.159	99.06
417.382	102.06
417.605	84.06
417.828	98.06
418.051	93.06
418.274	105.06
418.497	91.06
418.72	97.06
418.943	95.06
419.166	108.06
419.389	105.06
419.611	92.06
419.834	94.06
420.057	99.06
420.28	94.06
420.503	85.06
420.726	100.06
420.948	91.06
421.171	89.06
421.394	84.06
421.617	101.06
421.839	102.06
422.062	102.06
422.285	95.06
422.507	99.06
422.73	96.06
422.953	91.06
423.175	86.06
423.398	95.06
423.621	95.06
423.843	105.06
424.066	97.06
424.288	102.06
424.511	96.06
424.733	106.06
424.956	102.06
425.178	99.06
425.401	113.06
425.623	98.06
425.846	102.06
426.068	78.06
426.291	95.06
426.513	99.06
426.735	97.06
426.958	81.06
427.18	95.06
427.402	105.06
427.625	88.06
427.847	94.06
428.069	103.06
428.292	97.06
428.514	84.06
428.736	99.06
428.958	102.06
429.181	95.06
429.403	88.06
429.625	87.06
429.847	94.06
430.069	90.06
430.292	114.06
430.514	77.06
430.736	86.06
430.958	106.06
431.18	110.06
431.402	102.06
431.624	91.06
431.846	94.06
432.068	96.06
432.29	92.06
432.512	95.06
432.734	90.06
432.956	81.06
433.178	88.06
433.4	101.06
433.622	105.06
433.844	111.06
434.066	99.06
434.287	96.06
434.509	96.06
434.731	91.06
434.953	93.06
435.175	98.06
435.397	79.06
435.618	78.06
435.84	80.06
436.062	101.06
436.284	105.06
436.505	101.06
436.727	102.06
436.949	84.06
437.17	95.06
437.392	94.06
437.614	100.06
437.835	89.06
438.057	78.06
438.278	86.06
438.5	94.06
438.721	115.06
438.943	110.06
439.165	89.06
439.386	100.06
439.608	94.06
439.829	101.06
440.05	102.06
440.272	98.06
440.493	102.06
440.715	102.06
440.936	111.06
441.158	96.06
441.379	99.06
441.6	100.06
441.822	96.06
442.043	97.06
442.264	110.06
442.486	105.06
442.707	118.06
442.928	99.06
443.149	89.06
443.371	122.06
443.592	104.06
443.813	95.06
444.034	101.06
444.255	88.06
444.476	96.06
444.698	104.06
444.919	114.06
445.14	176.06
445.361	128.06
445.582	88.06
445.803	90.06
446.024	100.06
446.245	99.06
446.466	93.06
446.687	93.06
446.908	98.06
447.129	97.06
447.35	108.06
447.571	99.06
447.792	87.06
448.013	76.06
448.234	82.06
448.455	85.06
448.675	91.06
448.896	88.06
449.117	93.06
449.338	91.06
449.559	95.06
449.779	94.06
450	98.06
450.221	86.06
450.442	107.06
450.662	104.06
450.883	84.06
451.104	86.06
451.324	105.06
451.545	98.06
451.766	85.06
451.986	94.06
452.207	97.06
452.428	90.06
452.648	84.06
452.869	101.06
453.089	100.06
453.31	103.06
453.53	91.06
453.751	100.06
453.971	101.06
454.192	83.06
454.412	86.06
454.633	91.06
454.853	97.06
455.073	74.06
455.294	99.06
455.514	99.06
455.734	86.06
455.955	94.06
456.175	90.06
456.395	87.06
456.616	107.06
456.836	95.06
457.056	88.06
457.276	94.06
457.497	89.06
457.717	107.06
457.937	103.06
458.157	90.06
458.377	91.06
458.598	106.06
458.818	106.06
459.038	82.06
459.258	102.06
459.478	93.06
459.698	96.06
459.918	98.06
460.138	102.06
460.358	97.06
460.578	99.06
460.798	91.06
461.018	86.06
461.238	99.06
461.458	90.06
461.678	90.06
461.898	118.06
462.118	100.06
462.338	95.06
462.558	106.06
462.777	106.06
462.997	101.06
463.217	100.06
463.437	104.06
463.657	103.06
463.876	103.06
464.096	110.06
464.316	107.06
464.536	100.06
464.755	105.06
464.975	89.06
465.195	88.06
465.414	85.06
465.634	83.06
465.854	95.06
466.073	99.06
466.293	100.06
466.512	103.06
466.732	94.06
466.951	89.06
467.171	113.06
467.391	85.06
467.61	97.06
467.829	92.06
468.049	101.06
468.268	122.06
468.488	101.06
468.707	100.06
468.927	101.06
469.146	103.06
469.365	116.06
469.585	110.06
469.804	99.06
470.023	104.06
470.243	103.06
470.462	111.06
470.681	96.06
470.901	88.06
471.12	92.06
471.339	112.06
471.558	100.06
471.777	100.06
471.997	103.06
472.216	92.06
472.435	89.06
472.654	105.06
472.873	92.06
473.092	87.06
473.311	92.06
473.53	90.06
473.749	101.06
473.968	94.06
474.187	94.06
474.406	98.06
474.625	93.06
474.844	101.06
475.063	118.06
475.282	102.06
475.501	91.06
475.72	116.06
475.939	95.06
476.158	95.06
476.377	98.06
476.596	108.06
476.814	99.06
477.033	107.06
477.252	92.06
477.471	101.06
477.69	98.06
477.908	104.06
478.127	112.06
478.346	116.06
478.564	99.06
478.783	99.06
479.002	102.06
479.22	106.06
479.439	96.06
479.658	104.06
479.876	86.06
480.095	101.06
480.313	105.06
480.532	99.06
480.751	118.06
480.969	124.06
481.188	104.06
481.406	112.06
481.624	120.06
481.843	108.06
482.061	117.06
482.28	113.06
482.498	88.06
482.717	99.06
482.935	104.06
483.153	100.06
483.372	119.06
483.59	106.06
483.808	101.06
484.027	100.06
484.245	107.06
484.463	104.06
484.681	95.06
484.9	111.06
485.118	99.06
485.336	100.06
485.554	126.06
485.772	100.06
485.99	96.06
486.209	105.06
486.427	91.06
486.645	84.06
486.863	104.06
487.081	115.06
487.299	93.06
487.517	114.06
487.735	110.06
487.953	111.06
488.171	116.06
488.389	108.06
488.607	94.06
488.825	86.06
489.043	114.06
489.261	102.06
489.479	110.06
489.696	99.06
489.914	93.06
490.132	102.06
490.35	108.06
490.568	110.06
490.786	104.06
491.003	104.06
491.221	100.06
491.439	118.06
491.657	98.06
491.874	100.06
492.092	126.06
492.31	130.06
492.527	113.06
492.745	107.06
492.963	107.06
493.18	120.06
493.398	118.06
493.615	98.06
493.833	99.06
494.05	108.06
494.268	111.06
494.485	115.06
494.703	101.06
494.92	97.06
495.138	116.06
495.355	121.06
495.573	101.06
495.79	104.06
496.008	106.06
496.225	102.06
496.442	85.06
496.66	107.06
496.877	119.06
497.094	123.06
497.312	95.06
497.529	106.06
497.746	102.06
497.963	118.06
498.181	115.06
498.398	127.06
498.615	131.06
498.832	117.06
499.049	122.06
499.267	117.06
499.484	124.06
499.701	131.06
499.918	147.06
500.135	142.06
500.352	159.06
500.569	153.06
500.786	163.06
501.003	158.06
501.22	150.06
501.437	148.06
501.654	117.06
501.871	130.06
502.088	130.06
502.305	124.06
502.522	115.06
502.739	100.06
502.956	113.06
503.172	122.06
503.389	110.06
503.606	112.06
503.823	121.06
504.04	120.06
504.256	127.06
504.473	107.06
504.69	115.06
504.907	112.06
505.123	107.06
505.34	97.06
505.557	97.06
505.773	123.06
505.99	119.06
506.207	111.06
506.423	100.06
506.64	102.06
506.856	95.06
507.073	114.06
507.289	108.06
507.506	110.06
507.722	107.06
507.939	88.06
508.155	111.06
508.372	94.06
508.588	99.06
508.805	99.06
509.021	107.06
509.238	92.06
509.454	92.06
509.67	110.06
509.887	95.06
510.103	94.06
510.319	97.06
510.536	104.06
510.752	103.06
510.968	110.06
511.184	110.06
511.401	106.06
511.617	108.06
511.833	104.06
512.049	101.06
512.265	104.06
512.481	101.06
512.698	120.06
512.914	90.06
513.13	100.06
513.346	110.06
513.562	96.06
513.778	100.06
513.994	99.06
514.21	99.06
514.426	97.06
514.642	102.06
514.858	104.06
515.074	102.06
515.29	98.06
515.506	98.06
515.721	102.06
515.937	98.06
516.153	99.06
516.369	116.06
516.585	104.06
516.801	120.06
517.016	103.06
517.232	87.06
517.448	110.06
517.664	106.06
517.879	105.06
518.095	113.06
518.311	120.06
518.527	105.06
518.742	98.06
518.958	101.06
519.173	102.06
519.389	112.06
519.605	94.06
519.82	106.06
520.036	103.06
520.251	112.06
520.467	101.06
520.682	109.06
520.898	96.06
521.113	102.06
521.329	117.06
521.544	97.06
521.76	110.06
521.975	105.06
522.19	103.06
522.406	96.06
522.621	110.06
522.836	103.06
523.052	93.06
523.267	101.06
523.482	118.06
523.698	94.06
523.913	118.06
524.128	105.06
524.343	98.06
524.559	95.06
524.774	80.06
524.989	112.06
525.204	106.06
525.419	112.06
525.634	110.06
525.849	103.06
526.064	96.06
526.28	111.06
526.495	118.06
526.71	101.06
526.925	100.06
527.14	99.06
527.355	96.06
527.57	98.06
527.785	72.06
527.999	90.06
528.214	92.06
528.429	95.06
528.644	111.06
528.859	84.06
529.074	92.06
529.289	113.06
529.503	105.06
529.718	97.06
529.933	91.06
530.148	91.06
530.363	109.06
530.577	91.06
530.792	103.06
531.007	95.06
531.221	101.06
531.436	92.06
531.651	96.06
531.865	99.06
532.08	95.06
532.295	99.06
532.509	82.06
532.724	98.06
532.938	97.06
533.153	84.06
533.367	105.06
533.582	116.06
533.796	92.06
534.011	100.06
534.225	110.06
534.44	103.06
534.654	105.06
534.868	107.06
535.083	114.06
535.297	93.06
535.511	102.06
535.726	96.06
535.94	106.06
536.154	102.06
536.369	106.06
536.583	87.06
536.797	102.06
537.011	90.06
537.225	99.06
537.44	104.06
537.654	103.06
537.868	113.06
538.082	104.06
538.296	84.06
538.51	96.06
538.724	101.06
538.938	94.06
539.153	94.06
539.367	97.06
539.581	92.06
539.795	101.06
540.009	109.06
540.222	97.06
540.436	86.06
540.65	79.06
540.864	90.06
541.078	103.06
541.292	103.06
541.506	103.06
541.72	113.06
541.934	94.06
542.147	104.06
542.361	110.06
542.575	104.06
542.789	100.06
543.002	95.06
543.216	85.06
543.43	92.06
543.644	95.06
543.857	113.06
544.071	89.06
544.285	114.06
544.498	97.06
544.712	103.06
544.925	112.06
545.139	121.06
545.352	87.06
545.566	87.06
545.779	95.06
545.993	107.06
546.206	102.06
546.42	121.06
546.633	106.06
546.847	105.06
547.06	121.06
547.274	101.06
547.487	115.06
547.7	112.06
547.914	102.06
548.127	103.06
548.34	112.06
548.554	105.06
548.767	103.06
548.98	98.06
549.193	98.06
549.407	105.06
549.62	94.06
549.833	105.06
550.046	110.06
550.259	110.06
550.473	99.06
550.686	94.06
550.899	98.06
551.112	89.06
551.325	100.06
551.538	93.06
551.751	101.06
551.964	102.06
552.177	100.06
552.39	96.06
552.603	98.06
552.816	110.06
553.029	102.06
553.242	101.06
553.455	110.06
553.667	119.06
553.88	110.06
554.093	108.06
554.306	108.06
554.519	119.06
554.732	110.06
554.944	92.06
555.157	104.06
555.37	87.06
555.583	104.06
555.795	92.06
556.008	103.06
556.221	112.06
556.433	100.06
556.646	96.06
556.859	98.06
557.071	88.06
557.284	102.06
557.496	96.06
557.709	98.06
557.921	79.06
558.134	96.06
558.346	123.06
558.559	94.06
558.771	112.06
558.984	95.06
559.196	99.06
559.409	96.06
559.621	98.06
559.833	102.06
560.046	101.06
560.258	84.06
560.47	84.06
560.683	95.06
560.895	100.06
561.107	110.06
561.32	105.06
561.532	102.06
561.744	100.06
561.956	102.06
562.168	108.06
562.381	100.06
562.593	97.06
562.805	105.06
563.017	93.06
563.229	100.06
563.441	93.06
563.653	89.06
563.865	89.06
564.077	92.06
564.289	96.06
564.501	117.06
564.713	109.06
564.925	96.06
565.137	98.06
565.349	105.06
565.561	91.06
565.773	104.06
565.985	113.06
566.197	103.06
566.408	94.06
566.62	111.06
566.832	114.06
567.044	110.06
567.255	110.06
567.467	92.06
567.679	95.06
567.891	101.06
568.102	106.06
568.314	103.06
568.526	103.06
568.737	94.06
568.949	111.06
569.161	117.06
569.372	96.06
569.584	95.06
569.795	91.06
570.007	85.06
570.218	98.06
570.43	86.06
570.641	99.06
570.853	101.06
571.064	103.06
571.276	93.06
571.487	89.06
571.698	90.06
571.91	94.06
572.121	98.06
572.333	97.06
572.544	80.06
572.755	86.06
572.966	93.06
573.178	87.06
573.389	91.06
573.6	92.06
573.811	99.06
574.023	87.06
574.234	82.06
574.445	91.06
574.656	88.06
574.867	88.06
575.078	106.06
575.289	96.06
575.501	94.06
575.712	87.06
575.923	81.06
576.134	74.06
576.345	88.06
576.556	80.06
576.767	95.06
576.978	94.06
577.188	105.06
577.399	100.06
577.61	91.06
577.821	101.06
578.032	94.06
578.243	86.06
578.454	90.06
578.665	90.06
578.875	95.06
579.086	83.06
579.297	99.06
579.508	88.06
579.718	89.06
579.929	87.06
580.14	82.06
580.35	102.06
580.561	99.06
580.772	101.06
580.982	102.06
581.193	97.06
581.403	95.06
581.614	89.06
581.825	94.06
582.035	77.06
582.246	89.06
582.456	94.06
582.667	83.06
582.877	84.06
583.087	90.06
583.298	102.06
583.508	93.06
583.719	92.06
583.929	99.06
584.139	89.06
584.35	86.06
584.56	86.06
584.77	99.06
584.981	93.06
585.191	94.06
585.401	95.06
585.611	88.06
585.821	106.06
586.032	90.06
586.242	68.06
586.452	94.06
586.662	81.06
586.872	96.06
587.082	92.06
587.292	88.06
587.502	96.06
587.713	100.06
587.923	95.06
588.133	95.06
588.343	99.06
588.553	96.06
588.762	92.06
588.972	110.06
589.182	98.06
589.392	94.06
589.602	100.06
589.812	103.06
590.022	102.06
590.232	99.06
590.441	95.06
590.651	102.06
590.861	95.06
591.071	82.06
591.281	100.06
591.49	82.06
591.7	90.06
591.91	95.06
592.119	85.06
592.329	91.06
592.539	86.06
592.748	87.06
592.958	93.06
593.167	91.06
593.377	85.06
593.587	104.06
593.796	90.06
594.006	86.06
594.215	84.06
594.424	99.06
594.634	94.06
594.843	89.06
595.053	106.06
595.262	97.06
595.472	98.06
595.681	97.06
595.89	91.06
596.1	103.06
596.309	89.06
596.518	85.06
596.727	95.06
596.937	85.06
597.146	76.06
597.355	100.06
597.564	82.06
597.774	94.06
597.983	87.06
598.192	95.06
598.401	83.06
598.61	98.06
598.819	90.06
599.028	96.06
599.237	91.06
599.446	90.06
599.655	73.06
599.864	88.06
600.073	87.06
600.282	90.06
600.491	91.06
600.7	92.06
600.909	84.06
601.118	87.06
601.327	94.06
601.536	95.06
601.745	93.06
601.953	103.06
602.162	100.06
602.371	98.06
602.58	89.06
602.789	102.06
602.997	94.06
603.206	83.06
603.415	84.06
603.623	80.06
603.832	78.06
604.041	84.06
604.249	97.06
604.458	96.06
604.666	81.06
604.875	86.06
605.084	81.06
605.292	83.06
605.501	97.06
605.709	102.06
605.918	91.06
606.126	106.06
606.334	99.06
606.543	83.06
606.751	82.06
606.96	93.06
607.168	86.06
607.376	81.06
607.585	73.06
607.793	74.06
608.001	111.06
608.21	98.06
608.418	91.06
608.626	92.06
608.834	90.06
609.043	86.06
609.251	92.06
609.459	83.06
609.667	110.06
609.875	76.06
610.083	93.06
610.291	77.06
610.499	86.06
610.707	98.06
610.916	95.06
611.124	104.06
611.332	90.06
611.54	85.06
611.748	90.06
611.955	103.06
612.163	94.06
612.371	86.06
612.579	89.06
612.787	93.06
612.995	82.06
613.203	94.06
613.411	70.06
613.618	92.06
613.826	83.06
614.034	95.06
614.242	85.06
614.449	87.06
614.657	94.06
614.865	91.06
615.072	106.06
615.28	98.06
615.488	83.06
615.695	76.06
615.903	97.06
616.111	98.06
616.318	85.06
616.526	101.06
616.733	94.06
616.941	67.06
617.148	85.06
617.356	84.06
617.563	86.06
617.771	87.06
617.978	83.06
618.185	98.06
618.393	87.06
618.6	91.06
618.807	101.06
619.015	101.06
619.222	91.06
619.429	90.06
619.637	80.06
619.844	83.06
620.051	90.06
620.258	83.06
620.466	84.06
620.673	81.06
620.88	73.06
621.087	96.06
621.294	98.06
621.501	85.06
621.708	75.06
621.915	65.06
622.122	92.06
622.329	90.06
622.536	90.06
622.743	84.06
622.95	90.06
623.157	96.06
623.364	87.06
623.571	85.06
623.778	103.06
623.985	99.06
624.192	84.06
624.399	90.06
624.606	86.06
624.812	87.06
625.019	87.06
625.226	95.06
625.433	85.06
625.639	101.06
625.846	96.06
626.053	78.06
626.259	89.06
626.466	77.06
626.673	89.06
626.879	100.06
627.086	88.06
627.293	97.06
627.499	95.06
627.706	80.06
627.912	76.06
628.119	96.06
628.325	84.06
628.532	85.06
628.738	91.06
628.945	86.06
629.151	88.06
629.357	77.06
629.564	82.06
629.77	77.06
629.976	78.06
630.183	88.06
630.389	81.06
630.595	96.06
630.802	93.06
631.008	80.06
631.214	89.06
631.42	82.06
631.627	96.06
631.833	93.06
632.039	82.06
632.245	84.06
632.451	85.06
632.657	85.06
632.863	77.06
633.069	91.06
633.275	86.06
633.481	90.06
633.688	82.06
633.893	94.06
634.099	88.06
634.305	93.06
634.511	86.06
634.717	87.06
634.923	72.06
635.129	96.06
635.335	98.06
635.541	73.06
635.747	86.06
635.952	78.06
636.158	99.06
636.364	94.06
636.57	83.06
636.775	84.06
636.981	76.06
637.187	76.06
637.392	81.06
637.598	91.06
637.804	100.06
638.009	88.06
638.215	83.06
638.421	88.06
638.626	75.06
638.832	97.06
639.037	93.06
639.243	83.06
639.448	88.06
639.654	80.06
639.859	83.06
640.065	83.06
640.27	97.06
640.475	86.06
640.681	77.06
640.886	80.06
641.091	87.06
641.297	83.06
641.502	91.06
641.707	91.06
641.913	86.06
642.118	88.06
642.323	83.06
642.528	95.06
642.733	74.06
642.939	81.06
643.144	85.06
643.349	91.06
643.554	101.06
643.759	85.06
643.964	74.06
644.169	80.06
644.374	90.06
644.579	84.06
644.784	80.06
644.989	95.06
645.194	87.06
645.399	66.06
645.604	98.06
645.809	83.06
646.014	82.06
646.219	79.06
646.423	87.06
646.628	94.06
646.833	97.06
647.038	97.06
647.243	86.06
647.447	86.06
647.652	86.06
647.857	81.06
648.062	92.06
648.266	84.06
648.471	68.06
648.676	104.06
648.88	86.06
649.085	91.06
649.289	82.06
649.494	89.06
649.698	98.06
649.903	82.06
650.107	66.06
650.312	91.06
650.516	94.06
650.721	79.06
650.925	76.06
651.13	90.06
651.334	90.06
651.539	82.06
651.743	81.06
651.947	92.06
652.152	89.06
652.356	77.06
652.56	88.06
652.764	104.06
652.969	77.06
653.173	77.06
653.377	85.06
653.581	87.06
653.785	87.06
653.99	77.06
654.194	85.06
654.398	89.06
654.602	76.06
654.806	90.06
655.01	98.06
655.214	98.06
655.418	82.06
655.622	82.06
655.826	75.06
656.03	74.06
656.234	83.06
656.438	88.06
656.642	87.06
656.846	86.06
657.049	83.06
657.253	97.06
657.457	86.06
657.661	94.06
657.865	82.06
658.068	86.06
658.272	72.06
658.476	83.06
658.68	92.06
658.883	86.06
659.087	87.06
659.291	90.06
659.494	87.06
659.698	100.06
659.901	75.06
660.105	86.06
660.309	77.06
660.512	100.06
660.716	91.06
660.919	97.06
661.123	90.06
661.326	70.06
661.53	95.06
661.733	78.06
661.936	76.06
662.14	76.06
662.343	76.06
662.546	87.06
662.75	95.06
662.953	88.06
663.156	76.06
663.36	97.06
663.563	82.06
663.766	78.06
663.969	80.06
664.173	81.06
664.376	89.06
664.579	79.06
664.782	82.06
664.985	89.06
665.188	91.06
665.391	73.06
665.594	78.06
665.797	86.06
666	87.06
666.203	95.06
666.406	89.06
666.609	79.06
666.812	66.06
667.015	76.06
667.218	82.06
667.421	81.06
667.624	78.06
667.827	91.06
668.03	92.06
668.232	91.06
668.435	69.06
668.638	89.06
668.841	91.06
669.043	79.06
669.246	77.06
669.449	95.06
669.651	63.06
669.854	89.06
670.057	86.06
670.259	88.06
670.462	86.06
670.665	92.06
670.867	86.06
671.07	91.06
671.272	71.06
671.475	88.06
671.677	79.06
671.88	96.06
672.082	75.06
672.284	88.06
672.487	82.06
672.689	69.06
672.892	64.06
