Data from Location5.07152019.Energy5.Lamp.07192019.3%Agarose_HRD10591_15-38-54-388.txt Node
Date: Fri Jul 19 15:38:54 EDT 2019
User: cochatt
Spectrometer: HR+D1059
Trigger mode: 1
Integration Time (sec): 1.000000E-1
Scans to average: 1
Electric dark correction enabled: true
Nonlinearity correction enabled: false
Boxcar width: 0
XAxis mode: Wavelengths
Number of Pixels in Spectrum: 2048
>>>>>Begin Spectral Data<<<<<
223.165	-4.62
223.4	-4.62
223.635	-4.62
223.869	-15.62
224.104	-23.62
224.338	-13.62
224.573	-8.62
224.808	-20.62
225.042	-0.62
225.277	-25.62
225.511	-8.62
225.746	12.38
225.98	7.38
226.215	11.38
226.449	5.38
226.683	26.38
226.918	31.38
227.152	27.38
227.387	43.38
227.621	43.38
227.856	58.38
228.09	51.38
228.324	54.38
228.559	57.38
228.793	57.38
229.027	66.38
229.262	78.38
229.496	60.38
229.73	66.38
229.964	63.38
230.199	65.38
230.433	79.38
230.667	90.38
230.901	74.38
231.136	82.38
231.37	72.38
231.604	87.38
231.838	73.38
232.072	82.38
232.306	79.38
232.541	89.38
232.775	85.38
233.009	79.38
233.243	82.38
233.477	74.38
233.711	82.38
233.945	90.38
234.179	87.38
234.413	81.38
234.647	67.38
234.881	77.38
235.115	82.38
235.349	72.38
235.583	73.38
235.817	87.38
236.051	83.38
236.285	86.38
236.519	83.38
236.753	82.38
236.987	94.38
237.221	82.38
237.455	73.38
237.689	82.38
237.922	76.38
238.156	91.38
238.39	71.38
238.624	78.38
238.858	88.38
239.091	73.38
239.325	64.38
239.559	75.38
239.793	81.38
240.027	80.38
240.26	72.38
240.494	83.38
240.728	73.38
240.961	82.38
241.195	68.38
241.429	69.38
241.662	77.38
241.896	64.38
242.13	62.38
242.363	80.38
242.597	84.38
242.83	86.38
243.064	89.38
243.298	82.38
243.531	72.38
243.765	75.38
243.998	68.38
244.232	92.38
244.465	86.38
244.699	77.38
244.932	66.38
245.166	74.38
245.399	82.38
245.633	83.38
245.866	95.38
246.099	67.38
246.333	86.38
246.566	88.38
246.8	70.38
247.033	76.38
247.266	60.38
247.5	77.38
247.733	92.38
247.966	71.38
248.2	86.38
248.433	83.38
248.666	87.38
248.899	88.38
249.133	72.38
249.366	93.38
249.599	85.38
249.832	86.38
250.066	77.38
250.299	93.38
250.532	73.38
250.765	77.38
250.998	83.38
251.231	82.38
251.465	69.38
251.698	70.38
251.931	75.38
252.164	67.38
252.397	69.38
252.63	99.38
252.863	82.38
253.096	66.38
253.329	88.38
253.562	76.38
253.795	95.38
254.028	81.38
254.261	77.38
254.494	87.38
254.727	75.38
254.96	69.38
255.193	72.38
255.426	76.38
255.659	78.38
255.892	74.38
256.124	81.38
256.357	75.38
256.59	88.38
256.823	82.38
257.056	82.38
257.289	85.38
257.521	71.38
257.754	77.38
257.987	80.38
258.22	73.38
258.452	67.38
258.685	80.38
258.918	76.38
259.151	64.38
259.383	82.38
259.616	78.38
259.849	71.38
260.081	85.38
260.314	79.38
260.547	89.38
260.779	88.38
261.012	97.38
261.244	89.38
261.477	85.38
261.71	85.38
261.942	88.38
262.175	77.38
262.407	92.38
262.64	82.38
262.872	85.38
263.105	84.38
263.337	85.38
263.57	77.38
263.802	80.38
264.035	86.38
264.267	78.38
264.499	65.38
264.732	79.38
264.964	81.38
265.197	77.38
265.429	92.38
265.661	67.38
265.894	81.38
266.126	97.38
266.358	80.38
266.591	88.38
266.823	83.38
267.055	72.38
267.287	69.38
267.52	83.38
267.752	91.38
267.984	64.38
268.216	85.38
268.448	105.38
268.681	93.38
268.913	66.38
269.145	91.38
269.377	77.38
269.609	88.38
269.841	89.38
270.073	87.38
270.306	87.38
270.538	72.38
270.77	81.38
271.002	81.38
271.234	65.38
271.466	69.38
271.698	79.38
271.93	88.38
272.162	82.38
272.394	74.38
272.626	80.38
272.858	86.38
273.09	90.38
273.322	75.38
273.553	75.38
273.785	83.38
274.017	86.38
274.249	91.38
274.481	87.38
274.713	74.38
274.945	77.38
275.176	88.38
275.408	74.38
275.64	93.38
275.872	83.38
276.104	74.38
276.335	84.38
276.567	77.38
276.799	78.38
277.031	84.38
277.262	70.38
277.494	97.38
277.726	97.38
277.957	86.38
278.189	93.38
278.421	75.38
278.652	95.38
278.884	74.38
279.115	76.38
279.347	70.38
279.579	97.38
279.81	91.38
280.042	96.38
280.273	71.38
280.505	76.38
280.736	81.38
280.968	90.38
281.199	90.38
281.431	83.38
281.662	91.38
281.894	87.38
282.125	87.38
282.356	90.38
282.588	80.38
282.819	73.38
283.051	77.38
283.282	80.38
283.513	97.38
283.745	76.38
283.976	87.38
284.207	87.38
284.439	96.38
284.67	90.38
284.901	87.38
285.132	76.38
285.364	84.38
285.595	76.38
285.826	97.38
286.057	82.38
286.288	89.38
286.52	81.38
286.751	67.38
286.982	92.38
287.213	87.38
287.444	89.38
287.675	95.38
287.906	80.38
288.138	81.38
288.369	87.38
288.6	101.38
288.831	80.38
289.062	73.38
289.293	84.38
289.524	86.38
289.755	91.38
289.986	93.38
290.217	94.38
290.448	83.38
290.679	85.38
290.91	89.38
291.141	67.38
291.371	74.38
291.602	92.38
291.833	83.38
292.064	87.38
292.295	84.38
292.526	87.38
292.757	86.38
292.987	83.38
293.218	90.38
293.449	78.38
293.68	82.38
293.91	84.38
294.141	75.38
294.372	92.38
294.603	80.38
294.833	83.38
295.064	98.38
295.295	82.38
295.525	88.38
295.756	92.38
295.987	81.38
296.217	87.38
296.448	105.38
296.679	81.38
296.909	70.38
297.14	90.38
297.37	106.38
297.601	77.38
297.831	94.38
298.062	91.38
298.292	88.38
298.523	79.38
298.753	65.38
298.984	83.38
299.214	94.38
299.445	76.38
299.675	87.38
299.905	89.38
300.136	76.38
300.366	91.38
300.597	90.38
300.827	92.38
301.057	87.38
301.288	97.38
301.518	88.38
301.748	97.38
301.979	87.38
302.209	70.38
302.439	83.38
302.669	66.38
302.9	84.38
303.13	76.38
303.36	89.38
303.59	95.38
303.82	83.38
304.051	91.38
304.281	99.38
304.511	90.38
304.741	97.38
304.971	87.38
305.201	84.38
305.431	85.38
305.661	90.38
305.891	91.38
306.121	83.38
306.352	92.38
306.582	83.38
306.812	82.38
307.042	97.38
307.272	89.38
307.502	90.38
307.731	82.38
307.961	88.38
308.191	75.38
308.421	78.38
308.651	99.38
308.881	82.38
309.111	76.38
309.341	85.38
309.571	83.38
309.8	87.38
310.03	91.38
310.26	86.38
310.49	85.38
310.72	78.38
310.949	87.38
311.179	81.38
311.409	96.38
311.639	89.38
311.868	68.38
312.098	79.38
312.328	98.38
312.557	83.38
312.787	83.38
313.017	88.38
313.246	88.38
313.476	83.38
313.706	77.38
313.935	85.38
314.165	87.38
314.394	76.38
314.624	87.38
314.853	73.38
315.083	76.38
315.312	90.38
315.542	89.38
315.771	84.38
316.001	81.38
316.23	86.38
316.46	91.38
316.689	90.38
316.919	88.38
317.148	88.38
317.377	92.38
317.607	77.38
317.836	79.38
318.065	87.38
318.295	97.38
318.524	77.38
318.753	81.38
318.983	91.38
319.212	88.38
319.441	77.38
319.67	87.38
319.9	83.38
320.129	90.38
320.358	99.38
320.587	81.38
320.816	84.38
321.046	88.38
321.275	93.38
321.504	76.38
321.733	82.38
321.962	77.38
322.191	82.38
322.42	80.38
322.649	98.38
322.878	94.38
323.108	90.38
323.337	83.38
323.566	90.38
323.795	74.38
324.024	87.38
324.253	78.38
324.482	81.38
324.71	81.38
324.939	90.38
325.168	84.38
325.397	79.38
325.626	86.38
325.855	93.38
326.084	75.38
326.313	91.38
326.542	93.38
326.77	75.38
326.999	81.38
327.228	89.38
327.457	75.38
327.686	89.38
327.914	80.38
328.143	84.38
328.372	75.38
328.6	81.38
328.829	90.38
329.058	81.38
329.287	82.38
329.515	94.38
329.744	84.38
329.972	83.38
330.201	91.38
330.43	81.38
330.658	79.38
330.887	82.38
331.115	84.38
331.344	96.38
331.572	99.38
331.801	83.38
332.03	96.38
332.258	83.38
332.486	91.38
332.715	84.38
332.943	81.38
333.172	91.38
333.4	97.38
333.629	89.38
333.857	74.38
334.085	95.38
334.314	83.38
334.542	81.38
334.771	99.38
334.999	85.38
335.227	96.38
335.455	93.38
335.684	88.38
335.912	91.38
336.14	82.38
336.369	87.38
336.597	87.38
336.825	85.38
337.053	71.38
337.281	74.38
337.51	82.38
337.738	88.38
337.966	96.38
338.194	82.38
338.422	92.38
338.65	95.38
338.878	88.38
339.106	76.38
339.334	66.38
339.562	72.38
339.79	103.38
340.018	80.38
340.246	96.38
340.474	99.38
340.702	82.38
340.93	83.38
341.158	85.38
341.386	98.38
341.614	83.38
341.842	79.38
342.07	98.38
342.298	91.38
342.526	82.38
342.754	84.38
342.981	93.38
343.209	79.38
343.437	93.38
343.665	96.38
343.893	87.38
344.12	80.38
344.348	82.38
344.576	76.38
344.804	73.38
345.031	67.38
345.259	103.38
345.487	81.38
345.714	98.38
345.942	89.38
346.17	82.38
346.397	78.38
346.625	80.38
346.853	82.38
347.08	84.38
347.308	81.38
347.535	79.38
347.763	81.38
347.99	77.38
348.218	95.38
348.445	74.38
348.673	77.38
348.9	82.38
349.128	67.38
349.355	68.38
349.583	88.38
349.81	71.38
350.037	85.38
350.265	90.38
350.492	85.38
350.72	68.38
350.947	82.38
351.174	77.38
351.402	84.38
351.629	81.38
351.856	84.38
352.083	84.38
352.311	89.38
352.538	104.38
352.765	85.38
352.992	93.38
353.22	81.38
353.447	74.38
353.674	81.38
353.901	87.38
354.128	93.38
354.355	72.38
354.583	77.38
354.81	84.38
355.037	92.38
355.264	78.38
355.491	71.38
355.718	67.38
355.945	73.38
356.172	85.38
356.399	91.38
356.626	91.38
356.853	98.38
357.08	90.38
357.307	82.38
357.534	90.38
357.761	64.38
357.988	101.38
358.215	94.38
358.441	84.38
358.668	83.38
358.895	75.38
359.122	90.38
359.349	87.38
359.576	87.38
359.802	77.38
360.029	88.38
360.256	91.38
360.483	91.38
360.709	88.38
360.936	94.38
361.163	92.38
361.39	98.38
361.616	98.38
361.843	84.38
362.07	84.38
362.296	73.38
362.523	84.38
362.749	75.38
362.976	69.38
363.203	87.38
363.429	92.38
363.656	79.38
363.882	87.38
364.109	86.38
364.335	72.38
364.562	93.38
364.788	71.38
365.015	87.38
365.241	84.38
365.468	99.38
365.694	87.38
365.92	85.38
366.147	88.38
366.373	92.38
366.599	86.38
366.826	83.38
367.052	91.38
367.278	75.38
367.505	72.38
367.731	83.38
367.957	83.38
368.184	83.38
368.41	89.38
368.636	88.38
368.862	84.38
369.089	82.38
369.315	71.38
369.541	83.38
369.767	78.38
369.993	92.38
370.219	83.38
370.445	81.38
370.672	80.38
370.898	73.38
371.124	85.38
371.35	80.38
371.576	90.38
371.802	83.38
372.028	84.38
372.254	71.38
372.48	90.38
372.706	75.38
372.932	90.38
373.158	85.38
373.384	77.38
373.61	95.38
373.835	94.38
374.061	77.38
374.287	93.38
374.513	84.38
374.739	94.38
374.965	85.38
375.191	87.38
375.416	82.38
375.642	84.38
375.868	85.38
376.094	83.38
376.319	73.38
376.545	73.38
376.771	80.38
376.997	75.38
377.222	87.38
377.448	90.38
377.674	91.38
377.899	74.38
378.125	69.38
378.35	87.38
378.576	98.38
378.802	93.38
379.027	87.38
379.253	90.38
379.478	91.38
379.704	89.38
379.929	60.38
380.155	77.38
380.38	84.38
380.606	87.38
380.831	95.38
381.057	90.38
381.282	75.38
381.507	77.38
381.733	78.38
381.958	83.38
382.184	68.38
382.409	89.38
382.634	75.38
382.86	87.38
383.085	85.38
383.31	65.38
383.535	74.38
383.761	79.38
383.986	76.38
384.211	93.38
384.436	90.38
384.662	82.38
384.887	86.38
385.112	87.38
385.337	78.38
385.562	91.38
385.787	83.38
386.013	99.38
386.238	76.38
386.463	88.38
386.688	86.38
386.913	85.38
387.138	102.38
387.363	90.38
387.588	91.38
387.813	86.38
388.038	84.38
388.263	86.38
388.488	95.38
388.713	80.38
388.938	71.38
389.163	76.38
389.387	83.38
389.612	82.38
389.837	113.38
390.062	78.38
390.287	97.38
390.512	90.38
390.736	86.38
390.961	78.38
391.186	85.38
391.411	90.38
391.636	84.38
391.86	98.38
392.085	92.38
392.31	98.38
392.534	100.38
392.759	90.38
392.984	84.38
393.208	96.38
393.433	80.38
393.658	83.38
393.882	89.38
394.107	95.38
394.331	87.38
394.556	85.38
394.78	87.38
395.005	97.38
395.229	80.38
395.454	87.38
395.678	79.38
395.903	96.38
396.127	87.38
396.352	93.38
396.576	92.38
396.801	73.38
397.025	90.38
397.249	87.38
397.474	95.38
397.698	95.38
397.922	96.38
398.147	90.38
398.371	101.38
398.595	90.38
398.82	88.38
399.044	81.38
399.268	86.38
399.492	91.38
399.717	99.38
399.941	93.38
400.165	98.38
400.389	75.38
400.613	83.38
400.837	77.38
401.062	88.38
401.286	81.38
401.51	94.38
401.734	87.38
401.958	88.38
402.182	100.38
402.406	88.38
402.63	84.38
402.854	88.38
403.078	75.38
403.302	84.38
403.526	77.38
403.75	101.38
403.974	83.38
404.198	85.38
404.422	88.38
404.645	98.38
404.869	87.38
405.093	89.38
405.317	89.38
405.541	86.38
405.765	91.38
405.988	88.38
406.212	98.38
406.436	74.38
406.66	95.38
406.883	86.38
407.107	82.38
407.331	91.38
407.555	92.38
407.778	92.38
408.002	101.38
408.226	63.38
408.449	79.38
408.673	95.38
408.896	80.38
409.12	83.38
409.344	94.38
409.567	86.38
409.791	85.38
410.014	75.38
410.238	106.38
410.461	101.38
410.685	97.38
410.908	99.38
411.132	84.38
411.355	74.38
411.578	93.38
411.802	85.38
412.025	88.38
412.249	82.38
412.472	103.38
412.695	83.38
412.919	101.38
413.142	86.38
413.365	84.38
413.589	91.38
413.812	76.38
414.035	96.38
414.258	91.38
414.482	96.38
414.705	89.38
414.928	98.38
415.151	95.38
415.374	88.38
415.597	89.38
415.821	85.38
416.044	83.38
416.267	94.38
416.49	86.38
416.713	84.38
416.936	87.38
417.159	95.38
417.382	91.38
417.605	88.38
417.828	87.38
418.051	85.38
418.274	85.38
418.497	90.38
418.72	97.38
418.943	104.38
419.166	91.38
419.389	93.38
419.611	92.38
419.834	85.38
420.057	103.38
420.28	91.38
420.503	102.38
420.726	92.38
420.948	89.38
421.171	95.38
421.394	88.38
421.617	97.38
421.839	97.38
422.062	96.38
422.285	101.38
422.507	98.38
422.73	95.38
422.953	108.38
423.175	100.38
423.398	90.38
423.621	88.38
423.843	71.38
424.066	99.38
424.288	80.38
424.511	96.38
424.733	98.38
424.956	100.38
425.178	88.38
425.401	97.38
425.623	100.38
425.846	88.38
426.068	92.38
426.291	89.38
426.513	96.38
426.735	96.38
426.958	84.38
427.18	107.38
427.402	98.38
427.625	97.38
427.847	102.38
428.069	99.38
428.292	107.38
428.514	89.38
428.736	98.38
428.958	87.38
429.181	79.38
429.403	91.38
429.625	101.38
429.847	75.38
430.069	91.38
430.292	95.38
430.514	100.38
430.736	85.38
430.958	91.38
431.18	88.38
431.402	89.38
431.624	67.38
431.846	84.38
432.068	89.38
432.29	80.38
432.512	87.38
432.734	87.38
432.956	89.38
433.178	90.38
433.4	93.38
433.622	98.38
433.844	96.38
434.066	88.38
434.287	98.38
434.509	93.38
434.731	80.38
434.953	82.38
435.175	78.38
435.397	90.38
435.618	91.38
435.84	85.38
436.062	98.38
436.284	94.38
436.505	102.38
436.727	89.38
436.949	101.38
437.17	76.38
437.392	83.38
437.614	92.38
437.835	72.38
438.057	73.38
438.278	83.38
438.5	81.38
438.721	91.38
438.943	88.38
439.165	104.38
439.386	101.38
439.608	91.38
439.829	99.38
440.05	115.38
440.272	93.38
440.493	78.38
440.715	103.38
440.936	91.38
441.158	92.38
441.379	99.38
441.6	104.38
441.822	100.38
442.043	96.38
442.264	88.38
442.486	94.38
442.707	90.38
442.928	93.38
443.149	96.38
443.371	104.38
443.592	103.38
443.813	84.38
444.034	101.38
444.255	106.38
444.476	96.38
444.698	97.38
444.919	75.38
445.14	204.38
445.361	143.38
445.582	97.38
445.803	92.38
446.024	99.38
446.245	99.38
446.466	94.38
446.687	89.38
446.908	106.38
447.129	86.38
447.35	99.38
447.571	100.38
447.792	97.38
448.013	100.38
448.234	89.38
448.455	98.38
448.675	103.38
448.896	73.38
449.117	102.38
449.338	92.38
449.559	100.38
449.779	106.38
450	98.38
450.221	89.38
450.442	77.38
450.662	97.38
450.883	88.38
451.104	91.38
451.324	90.38
451.545	77.38
451.766	92.38
451.986	103.38
452.207	93.38
452.428	90.38
452.648	96.38
452.869	93.38
453.089	85.38
453.31	85.38
453.53	81.38
453.751	93.38
453.971	82.38
454.192	95.38
454.412	88.38
454.633	88.38
454.853	88.38
455.073	97.38
455.294	81.38
455.514	93.38
455.734	87.38
455.955	99.38
456.175	95.38
456.395	92.38
456.616	111.38
456.836	98.38
457.056	84.38
457.276	91.38
457.497	93.38
457.717	81.38
457.937	90.38
458.157	90.38
458.377	90.38
458.598	89.38
458.818	92.38
459.038	81.38
459.258	72.38
459.478	69.38
459.698	93.38
459.918	88.38
460.138	77.38
460.358	96.38
460.578	78.38
460.798	88.38
461.018	79.38
461.238	79.38
461.458	97.38
461.678	79.38
461.898	93.38
462.118	99.38
462.338	80.38
462.558	90.38
462.777	82.38
462.997	85.38
463.217	74.38
463.437	86.38
463.657	80.38
463.876	85.38
464.096	97.38
464.316	77.38
464.536	104.38
464.755	87.38
464.975	88.38
465.195	115.38
465.414	94.38
465.634	97.38
465.854	92.38
466.073	92.38
466.293	89.38
466.512	97.38
466.732	102.38
466.951	80.38
467.171	95.38
467.391	97.38
467.61	97.38
467.829	106.38
468.049	100.38
468.268	94.38
468.488	97.38
468.707	86.38
468.927	89.38
469.146	86.38
469.365	94.38
469.585	90.38
469.804	92.38
470.023	93.38
470.243	89.38
470.462	92.38
470.681	85.38
470.901	83.38
471.12	89.38
471.339	96.38
471.558	100.38
471.777	99.38
471.997	83.38
472.216	91.38
472.435	76.38
472.654	85.38
472.873	85.38
473.092	84.38
473.311	83.38
473.53	93.38
473.749	92.38
473.968	88.38
474.187	93.38
474.406	75.38
474.625	82.38
474.844	96.38
475.063	95.38
475.282	106.38
475.501	73.38
475.72	101.38
475.939	95.38
476.158	95.38
476.377	82.38
476.596	90.38
476.814	99.38
477.033	88.38
477.252	95.38
477.471	88.38
477.69	111.38
477.908	113.38
478.127	94.38
478.346	87.38
478.564	90.38
478.783	86.38
479.002	108.38
479.22	95.38
479.439	95.38
479.658	94.38
479.876	98.38
480.095	81.38
480.313	83.38
480.532	96.38
480.751	91.38
480.969	95.38
481.188	90.38
481.406	90.38
481.624	90.38
481.843	89.38
482.061	80.38
482.28	95.38
482.498	92.38
482.717	92.38
482.935	88.38
483.153	99.38
483.372	92.38
483.59	105.38
483.808	101.38
484.027	101.38
484.245	92.38
484.463	94.38
484.681	109.38
484.9	90.38
485.118	102.38
485.336	84.38
485.554	86.38
485.772	87.38
485.99	97.38
486.209	87.38
486.427	85.38
486.645	89.38
486.863	108.38
487.081	113.38
487.299	92.38
487.517	108.38
487.735	109.38
487.953	103.38
488.171	121.38
488.389	108.38
488.607	106.38
488.825	107.38
489.043	99.38
489.261	96.38
489.479	80.38
489.696	93.38
489.914	79.38
490.132	91.38
490.35	85.38
490.568	104.38
490.786	106.38
491.003	103.38
491.221	104.38
491.439	112.38
491.657	108.38
491.874	119.38
492.092	122.38
492.31	129.38
492.527	120.38
492.745	101.38
492.963	104.38
493.18	108.38
493.398	91.38
493.615	88.38
493.833	96.38
494.05	106.38
494.268	102.38
494.485	106.38
494.703	106.38
494.92	91.38
495.138	117.38
495.355	115.38
495.573	95.38
495.79	119.38
496.008	107.38
496.225	106.38
496.442	93.38
496.66	109.38
496.877	94.38
497.094	99.38
497.312	103.38
497.529	91.38
497.746	89.38
497.963	107.38
498.181	66.38
498.398	98.38
498.615	81.38
498.832	88.38
499.049	89.38
499.267	87.38
499.484	98.38
499.701	95.38
499.918	89.38
500.135	86.38
500.352	96.38
500.569	95.38
500.786	102.38
501.003	102.38
501.22	96.38
501.437	101.38
501.654	109.38
501.871	95.38
502.088	100.38
502.305	93.38
502.522	95.38
502.739	89.38
502.956	92.38
503.172	77.38
503.389	93.38
503.606	97.38
503.823	87.38
504.04	89.38
504.256	83.38
504.473	90.38
504.69	85.38
504.907	85.38
505.123	101.38
505.34	91.38
505.557	101.38
505.773	87.38
505.99	91.38
506.207	82.38
506.423	88.38
506.64	92.38
506.856	88.38
507.073	90.38
507.289	85.38
507.506	96.38
507.722	85.38
507.939	100.38
508.155	105.38
508.372	90.38
508.588	99.38
508.805	87.38
509.021	80.38
509.238	86.38
509.454	91.38
509.67	99.38
509.887	88.38
510.103	91.38
510.319	84.38
510.536	83.38
510.752	74.38
510.968	80.38
511.184	90.38
511.401	103.38
511.617	94.38
511.833	88.38
512.049	89.38
512.265	90.38
512.481	82.38
512.698	79.38
512.914	77.38
513.13	73.38
513.346	88.38
513.562	93.38
513.778	87.38
513.994	96.38
514.21	77.38
514.426	82.38
514.642	83.38
514.858	84.38
515.074	84.38
515.29	86.38
515.506	85.38
515.721	82.38
515.937	85.38
516.153	77.38
516.369	83.38
516.585	77.38
516.801	72.38
517.016	87.38
517.232	79.38
517.448	90.38
517.664	88.38
517.879	88.38
518.095	83.38
518.311	78.38
518.527	79.38
518.742	89.38
518.958	88.38
519.173	100.38
519.389	96.38
519.605	88.38
519.82	72.38
520.036	82.38
520.251	101.38
520.467	82.38
520.682	77.38
520.898	86.38
521.113	91.38
521.329	85.38
521.544	101.38
521.76	92.38
521.975	87.38
522.19	86.38
522.406	85.38
522.621	84.38
522.836	83.38
523.052	76.38
523.267	84.38
523.482	83.38
523.698	97.38
523.913	94.38
524.128	107.38
524.343	87.38
524.559	88.38
524.774	94.38
524.989	87.38
525.204	97.38
525.419	87.38
525.634	105.38
525.849	95.38
526.064	78.38
526.28	85.38
526.495	86.38
526.71	94.38
526.925	89.38
527.14	75.38
527.355	76.38
527.57	95.38
527.785	98.38
527.999	80.38
528.214	95.38
528.429	87.38
528.644	97.38
528.859	95.38
529.074	90.38
529.289	99.38
529.503	96.38
529.718	99.38
529.933	91.38
530.148	84.38
530.363	91.38
530.577	78.38
530.792	85.38
531.007	73.38
531.221	85.38
531.436	92.38
531.651	87.38
531.865	86.38
532.08	91.38
532.295	75.38
532.509	75.38
532.724	80.38
532.938	70.38
533.153	81.38
533.367	72.38
533.582	84.38
533.796	76.38
534.011	92.38
534.225	82.38
534.44	80.38
534.654	72.38
534.868	91.38
535.083	79.38
535.297	87.38
535.511	101.38
535.726	100.38
535.94	82.38
536.154	97.38
536.369	88.38
536.583	75.38
536.797	87.38
537.011	71.38
537.225	90.38
537.44	92.38
537.654	82.38
537.868	95.38
538.082	88.38
538.296	90.38
538.51	92.38
538.724	100.38
538.938	99.38
539.153	97.38
539.367	95.38
539.581	90.38
539.795	93.38
540.009	96.38
540.222	85.38
540.436	79.38
540.65	83.38
540.864	92.38
541.078	112.38
541.292	93.38
541.506	110.38
541.72	113.38
541.934	104.38
542.147	113.38
542.361	115.38
542.575	90.38
542.789	97.38
543.002	89.38
543.216	109.38
543.43	84.38
543.644	101.38
543.857	99.38
544.071	98.38
544.285	102.38
544.498	100.38
544.712	98.38
544.925	103.38
545.139	99.38
545.352	119.38
545.566	103.38
545.779	84.38
545.993	105.38
546.206	99.38
546.42	95.38
546.633	118.38
546.847	103.38
547.06	99.38
547.274	111.38
547.487	118.38
547.7	103.38
547.914	104.38
548.127	113.38
548.34	103.38
548.554	101.38
548.767	106.38
548.98	103.38
549.193	100.38
549.407	103.38
549.62	101.38
549.833	104.38
550.046	116.38
550.259	103.38
550.473	115.38
550.686	121.38
550.899	97.38
551.112	108.38
551.325	84.38
551.538	85.38
551.751	88.38
551.964	95.38
552.177	89.38
552.39	105.38
552.603	99.38
552.816	97.38
553.029	98.38
553.242	111.38
553.455	101.38
553.667	112.38
553.88	90.38
554.093	96.38
554.306	116.38
554.519	115.38
554.732	115.38
554.944	96.38
555.157	91.38
555.37	92.38
555.583	88.38
555.795	88.38
556.008	99.38
556.221	104.38
556.433	110.38
556.646	107.38
556.859	108.38
557.071	98.38
557.284	88.38
557.496	106.38
557.709	98.38
557.921	102.38
558.134	89.38
558.346	114.38
558.559	96.38
558.771	87.38
558.984	94.38
559.196	103.38
559.409	94.38
559.621	92.38
559.833	85.38
560.046	101.38
560.258	89.38
560.47	104.38
560.683	97.38
560.895	103.38
561.107	95.38
561.32	98.38
561.532	91.38
561.744	100.38
561.956	103.38
562.168	105.38
562.381	109.38
562.593	104.38
562.805	95.38
563.017	90.38
563.229	101.38
563.441	93.38
563.653	103.38
563.865	73.38
564.077	92.38
564.289	90.38
564.501	104.38
564.713	112.38
564.925	84.38
565.137	93.38
565.349	85.38
565.561	81.38
565.773	100.38
565.985	93.38
566.197	97.38
566.408	88.38
566.62	98.38
566.832	99.38
567.044	106.38
567.255	104.38
567.467	97.38
567.679	92.38
567.891	94.38
568.102	95.38
568.314	76.38
568.526	92.38
568.737	91.38
568.949	80.38
569.161	79.38
569.372	89.38
569.584	91.38
569.795	100.38
570.007	88.38
570.218	87.38
570.43	93.38
570.641	90.38
570.853	93.38
571.064	77.38
571.276	94.38
571.487	97.38
571.698	92.38
571.91	87.38
572.121	91.38
572.333	94.38
572.544	83.38
572.755	83.38
572.966	89.38
573.178	83.38
573.389	77.38
573.6	81.38
573.811	90.38
574.023	96.38
574.234	94.38
574.445	80.38
574.656	85.38
574.867	92.38
575.078	91.38
575.289	79.38
575.501	89.38
575.712	94.38
575.923	79.38
576.134	84.38
576.345	72.38
576.556	90.38
576.767	92.38
576.978	84.38
577.188	100.38
577.399	95.38
577.61	87.38
577.821	76.38
578.032	77.38
578.243	87.38
578.454	96.38
578.665	80.38
578.875	89.38
579.086	75.38
579.297	80.38
579.508	79.38
579.718	81.38
579.929	89.38
580.14	96.38
580.35	84.38
580.561	64.38
580.772	79.38
580.982	90.38
581.193	100.38
581.403	86.38
581.614	92.38
581.825	94.38
582.035	101.38
582.246	84.38
582.456	95.38
582.667	93.38
582.877	80.38
583.087	74.38
583.298	83.38
583.508	83.38
583.719	81.38
583.929	100.38
584.139	93.38
584.35	92.38
584.56	86.38
584.77	79.38
584.981	83.38
585.191	91.38
585.401	81.38
585.611	90.38
585.821	78.38
586.032	93.38
586.242	88.38
586.452	91.38
586.662	79.38
586.872	71.38
587.082	81.38
587.292	79.38
587.502	81.38
587.713	85.38
587.923	89.38
588.133	92.38
588.343	90.38
588.553	86.38
588.762	90.38
588.972	99.38
589.182	99.38
589.392	82.38
589.602	88.38
589.812	94.38
590.022	97.38
590.232	84.38
590.441	80.38
590.651	82.38
590.861	84.38
591.071	80.38
591.281	86.38
591.49	80.38
591.7	80.38
591.91	83.38
592.119	96.38
592.329	84.38
592.539	87.38
592.748	91.38
592.958	75.38
593.167	87.38
593.377	85.38
593.587	97.38
593.796	95.38
594.006	96.38
594.215	85.38
594.424	78.38
594.634	86.38
594.843	80.38
595.053	86.38
595.262	94.38
595.472	89.38
595.681	76.38
595.89	79.38
596.1	87.38
596.309	87.38
596.518	86.38
596.727	99.38
596.937	112.38
597.146	112.38
597.355	82.38
597.564	91.38
597.774	92.38
597.983	84.38
598.192	80.38
598.401	81.38
598.61	80.38
598.819	71.38
599.028	84.38
599.237	78.38
599.446	89.38
599.655	79.38
599.864	89.38
600.073	83.38
600.282	85.38
600.491	83.38
600.7	81.38
600.909	87.38
601.118	90.38
601.327	82.38
601.536	84.38
601.745	84.38
601.953	89.38
602.162	105.38
602.371	89.38
602.58	96.38
602.789	95.38
602.997	97.38
603.206	101.38
603.415	85.38
603.623	82.38
603.832	100.38
604.041	96.38
604.249	92.38
604.458	101.38
604.666	86.38
604.875	92.38
605.084	100.38
605.292	89.38
605.501	92.38
605.709	109.38
605.918	92.38
606.126	100.38
606.334	95.38
606.543	88.38
606.751	98.38
606.96	82.38
607.168	85.38
607.376	85.38
607.585	84.38
607.793	91.38
608.001	92.38
608.21	88.38
608.418	108.38
608.626	96.38
608.834	97.38
609.043	92.38
609.251	114.38
609.459	94.38
609.667	91.38
609.875	104.38
610.083	86.38
610.291	84.38
610.499	98.38
610.707	80.38
610.916	98.38
611.124	107.38
611.332	103.38
611.54	96.38
611.748	89.38
611.955	75.38
612.163	84.38
612.371	96.38
612.579	94.38
612.787	93.38
612.995	97.38
613.203	90.38
613.411	80.38
613.618	81.38
613.826	99.38
614.034	95.38
614.242	85.38
614.449	100.38
614.657	91.38
614.865	88.38
615.072	102.38
615.28	99.38
615.488	93.38
615.695	88.38
615.903	87.38
616.111	91.38
616.318	96.38
616.526	91.38
616.733	83.38
616.941	84.38
617.148	86.38
617.356	83.38
617.563	96.38
617.771	91.38
617.978	83.38
618.185	96.38
618.393	93.38
618.6	83.38
618.807	84.38
619.015	94.38
619.222	99.38
619.429	103.38
619.637	77.38
619.844	87.38
620.051	96.38
620.258	90.38
620.466	77.38
620.673	104.38
620.88	104.38
621.087	92.38
621.294	76.38
621.501	91.38
621.708	88.38
621.915	76.38
622.122	84.38
622.329	95.38
622.536	83.38
622.743	88.38
622.95	99.38
623.157	91.38
623.364	98.38
623.571	87.38
623.778	88.38
623.985	88.38
624.192	78.38
624.399	94.38
624.606	102.38
624.812	96.38
625.019	86.38
625.226	83.38
625.433	95.38
625.639	90.38
625.846	82.38
626.053	89.38
626.259	92.38
626.466	83.38
626.673	88.38
626.879	97.38
627.086	93.38
627.293	99.38
627.499	80.38
627.706	93.38
627.912	86.38
628.119	93.38
628.325	99.38
628.532	100.38
628.738	96.38
628.945	85.38
629.151	93.38
629.357	100.38
629.564	81.38
629.77	85.38
629.976	89.38
630.183	89.38
630.389	99.38
630.595	91.38
630.802	82.38
631.008	73.38
631.214	92.38
631.42	101.38
631.627	107.38
631.833	87.38
632.039	86.38
632.245	99.38
632.451	91.38
632.657	88.38
632.863	92.38
633.069	96.38
633.275	90.38
633.481	80.38
633.688	106.38
633.893	97.38
634.099	88.38
634.305	84.38
634.511	91.38
634.717	101.38
634.923	80.38
635.129	91.38
635.335	88.38
635.541	91.38
635.747	109.38
635.952	98.38
636.158	100.38
636.364	89.38
636.57	93.38
636.775	99.38
636.981	81.38
637.187	96.38
637.392	83.38
637.598	93.38
637.804	91.38
638.009	94.38
638.215	93.38
638.421	97.38
638.626	95.38
638.832	75.38
639.037	84.38
639.243	81.38
639.448	84.38
639.654	82.38
639.859	87.38
640.065	92.38
640.27	90.38
640.475	85.38
640.681	79.38
640.886	93.38
641.091	89.38
641.297	85.38
641.502	84.38
641.707	90.38
641.913	91.38
642.118	88.38
642.323	97.38
642.528	86.38
642.733	81.38
642.939	94.38
643.144	85.38
643.349	87.38
643.554	93.38
643.759	96.38
643.964	72.38
644.169	93.38
644.374	86.38
644.579	80.38
644.784	95.38
644.989	81.38
645.194	80.38
645.399	107.38
645.604	89.38
645.809	84.38
646.014	83.38
646.219	79.38
646.423	79.38
646.628	82.38
646.833	112.38
647.038	98.38
647.243	90.38
647.447	77.38
647.652	97.38
647.857	86.38
648.062	97.38
648.266	86.38
648.471	87.38
648.676	84.38
648.88	87.38
649.085	82.38
649.289	87.38
649.494	95.38
649.698	80.38
649.903	85.38
650.107	96.38
650.312	72.38
650.516	83.38
650.721	82.38
650.925	82.38
651.13	99.38
651.334	104.38
651.539	84.38
651.743	91.38
651.947	86.38
652.152	94.38
652.356	84.38
652.56	87.38
652.764	86.38
652.969	90.38
653.173	85.38
653.377	83.38
653.581	74.38
653.785	81.38
653.99	91.38
654.194	81.38
654.398	65.38
654.602	92.38
654.806	82.38
655.01	90.38
655.214	81.38
655.418	80.38
655.622	79.38
655.826	105.38
656.03	80.38
656.234	76.38
656.438	92.38
656.642	93.38
656.846	84.38
657.049	92.38
657.253	86.38
657.457	75.38
657.661	76.38
657.865	84.38
658.068	77.38
658.272	87.38
658.476	93.38
658.68	84.38
658.883	90.38
659.087	86.38
659.291	88.38
659.494	84.38
659.698	83.38
659.901	89.38
660.105	91.38
660.309	83.38
660.512	86.38
660.716	80.38
660.919	70.38
661.123	85.38
661.326	83.38
661.53	84.38
661.733	76.38
661.936	97.38
662.14	87.38
662.343	86.38
662.546	81.38
662.75	83.38
662.953	83.38
663.156	81.38
663.36	89.38
663.563	75.38
663.766	67.38
663.969	96.38
664.173	86.38
664.376	87.38
664.579	74.38
664.782	84.38
664.985	81.38
665.188	85.38
665.391	89.38
665.594	76.38
665.797	84.38
666	90.38
666.203	85.38
666.406	78.38
666.609	82.38
666.812	68.38
667.015	98.38
667.218	83.38
667.421	82.38
667.624	87.38
667.827	82.38
668.03	75.38
668.232	86.38
668.435	86.38
668.638	81.38
668.841	80.38
669.043	76.38
669.246	102.38
669.449	76.38
669.651	74.38
669.854	80.38
670.057	68.38
670.259	82.38
670.462	77.38
670.665	69.38
670.867	90.38
671.07	80.38
671.272	81.38
671.475	82.38
671.677	86.38
671.88	76.38
672.082	87.38
672.284	88.38
672.487	81.38
672.689	77.38
672.892	76.38
