Data from Location5.07152019.Energy5.Lamp.07192019.3%Agarose_HRD10591_15-36-51-386.txt Node
Date: Fri Jul 19 15:36:51 EDT 2019
User: cochatt
Spectrometer: HR+D1059
Trigger mode: 1
Integration Time (sec): 1.000000E-1
Scans to average: 1
Electric dark correction enabled: true
Nonlinearity correction enabled: false
Boxcar width: 0
XAxis mode: Wavelengths
Number of Pixels in Spectrum: 2048
>>>>>Begin Spectral Data<<<<<
223.165	-7.31
223.4	-7.31
223.635	-7.31
223.869	-11.31
224.104	-10.31
224.338	-13.31
224.573	-4.31
224.808	-20.31
225.042	-20.31
225.277	-11.31
225.511	-9.31
225.746	11.69
225.98	0.69
226.215	4.69
226.449	22.69
226.683	18.69
226.918	22.69
227.152	26.69
227.387	26.69
227.621	32.69
227.856	44.69
228.09	46.69
228.324	48.69
228.559	61.69
228.793	58.69
229.027	64.69
229.262	73.69
229.496	65.69
229.73	72.69
229.964	76.69
230.199	58.69
230.433	77.69
230.667	80.69
230.901	65.69
231.136	76.69
231.37	76.69
231.604	83.69
231.838	92.69
232.072	88.69
232.306	77.69
232.541	83.69
232.775	104.69
233.009	92.69
233.243	70.69
233.477	82.69
233.711	82.69
233.945	78.69
234.179	81.69
234.413	85.69
234.647	76.69
234.881	71.69
235.115	81.69
235.349	91.69
235.583	91.69
235.817	70.69
236.051	88.69
236.285	81.69
236.519	77.69
236.753	86.69
236.987	78.69
237.221	94.69
237.455	88.69
237.689	81.69
237.922	89.69
238.156	78.69
238.39	91.69
238.624	73.69
238.858	92.69
239.091	77.69
239.325	79.69
239.559	74.69
239.793	62.69
240.027	82.69
240.26	71.69
240.494	69.69
240.728	83.69
240.961	79.69
241.195	81.69
241.429	69.69
241.662	65.69
241.896	67.69
242.13	84.69
242.363	75.69
242.597	83.69
242.83	96.69
243.064	81.69
243.298	75.69
243.531	79.69
243.765	71.69
243.998	94.69
244.232	74.69
244.465	63.69
244.699	82.69
244.932	68.69
245.166	77.69
245.399	82.69
245.633	82.69
245.866	73.69
246.099	75.69
246.333	90.69
246.566	80.69
246.8	77.69
247.033	80.69
247.266	74.69
247.5	86.69
247.733	80.69
247.966	85.69
248.2	82.69
248.433	80.69
248.666	77.69
248.899	75.69
249.133	89.69
249.366	89.69
249.599	78.69
249.832	76.69
250.066	91.69
250.299	65.69
250.532	90.69
250.765	90.69
250.998	81.69
251.231	78.69
251.465	89.69
251.698	88.69
251.931	83.69
252.164	62.69
252.397	79.69
252.63	77.69
252.863	84.69
253.096	79.69
253.329	73.69
253.562	70.69
253.795	80.69
254.028	88.69
254.261	88.69
254.494	86.69
254.727	92.69
254.96	75.69
255.193	71.69
255.426	67.69
255.659	77.69
255.892	87.69
256.124	81.69
256.357	67.69
256.59	91.69
256.823	75.69
257.056	79.69
257.289	86.69
257.521	76.69
257.754	67.69
257.987	78.69
258.22	86.69
258.452	75.69
258.685	101.69
258.918	76.69
259.151	84.69
259.383	90.69
259.616	80.69
259.849	76.69
260.081	88.69
260.314	75.69
260.547	82.69
260.779	82.69
261.012	84.69
261.244	85.69
261.477	89.69
261.71	81.69
261.942	86.69
262.175	82.69
262.407	84.69
262.64	89.69
262.872	82.69
263.105	89.69
263.337	88.69
263.57	75.69
263.802	94.69
264.035	80.69
264.267	88.69
264.499	75.69
264.732	69.69
264.964	84.69
265.197	84.69
265.429	74.69
265.661	94.69
265.894	71.69
266.126	90.69
266.358	96.69
266.591	96.69
266.823	75.69
267.055	77.69
267.287	78.69
267.52	80.69
267.752	87.69
267.984	79.69
268.216	76.69
268.448	82.69
268.681	78.69
268.913	88.69
269.145	72.69
269.377	85.69
269.609	78.69
269.841	81.69
270.073	81.69
270.306	68.69
270.538	83.69
270.77	89.69
271.002	80.69
271.234	93.69
271.466	66.69
271.698	77.69
271.93	81.69
272.162	81.69
272.394	81.69
272.626	69.69
272.858	90.69
273.09	80.69
273.322	87.69
273.553	89.69
273.785	73.69
274.017	76.69
274.249	76.69
274.481	69.69
274.713	87.69
274.945	93.69
275.176	88.69
275.408	77.69
275.64	92.69
275.872	72.69
276.104	85.69
276.335	74.69
276.567	78.69
276.799	93.69
277.031	107.69
277.262	87.69
277.494	98.69
277.726	91.69
277.957	78.69
278.189	93.69
278.421	89.69
278.652	84.69
278.884	84.69
279.115	70.69
279.347	85.69
279.579	81.69
279.81	86.69
280.042	92.69
280.273	81.69
280.505	70.69
280.736	92.69
280.968	77.69
281.199	93.69
281.431	90.69
281.662	80.69
281.894	82.69
282.125	83.69
282.356	72.69
282.588	77.69
282.819	74.69
283.051	71.69
283.282	89.69
283.513	82.69
283.745	80.69
283.976	76.69
284.207	92.69
284.439	95.69
284.67	80.69
284.901	79.69
285.132	87.69
285.364	81.69
285.595	78.69
285.826	88.69
286.057	82.69
286.288	84.69
286.52	86.69
286.751	86.69
286.982	72.69
287.213	85.69
287.444	81.69
287.675	75.69
287.906	95.69
288.138	84.69
288.369	70.69
288.6	87.69
288.831	77.69
289.062	100.69
289.293	88.69
289.524	89.69
289.755	85.69
289.986	85.69
290.217	86.69
290.448	99.69
290.679	89.69
290.91	86.69
291.141	81.69
291.371	84.69
291.602	88.69
291.833	80.69
292.064	95.69
292.295	96.69
292.526	87.69
292.757	88.69
292.987	81.69
293.218	77.69
293.449	88.69
293.68	89.69
293.91	81.69
294.141	84.69
294.372	78.69
294.603	74.69
294.833	88.69
295.064	90.69
295.295	87.69
295.525	93.69
295.756	87.69
295.987	92.69
296.217	83.69
296.448	78.69
296.679	80.69
296.909	84.69
297.14	89.69
297.37	97.69
297.601	92.69
297.831	98.69
298.062	88.69
298.292	95.69
298.523	92.69
298.753	80.69
298.984	83.69
299.214	67.69
299.445	76.69
299.675	86.69
299.905	85.69
300.136	76.69
300.366	73.69
300.597	81.69
300.827	88.69
301.057	86.69
301.288	82.69
301.518	94.69
301.748	84.69
301.979	84.69
302.209	76.69
302.439	86.69
302.669	83.69
302.9	92.69
303.13	78.69
303.36	83.69
303.59	89.69
303.82	78.69
304.051	92.69
304.281	84.69
304.511	88.69
304.741	87.69
304.971	93.69
305.201	86.69
305.431	83.69
305.661	72.69
305.891	88.69
306.121	82.69
306.352	92.69
306.582	88.69
306.812	89.69
307.042	89.69
307.272	89.69
307.502	89.69
307.731	86.69
307.961	90.69
308.191	79.69
308.421	82.69
308.651	82.69
308.881	80.69
309.111	85.69
309.341	78.69
309.571	82.69
309.8	89.69
310.03	88.69
310.26	92.69
310.49	77.69
310.72	82.69
310.949	86.69
311.179	91.69
311.409	85.69
311.639	85.69
311.868	89.69
312.098	93.69
312.328	89.69
312.557	89.69
312.787	87.69
313.017	73.69
313.246	100.69
313.476	88.69
313.706	83.69
313.935	96.69
314.165	76.69
314.394	82.69
314.624	89.69
314.853	68.69
315.083	99.69
315.312	86.69
315.542	95.69
315.771	91.69
316.001	84.69
316.23	85.69
316.46	85.69
316.689	85.69
316.919	85.69
317.148	75.69
317.377	73.69
317.607	84.69
317.836	76.69
318.065	68.69
318.295	89.69
318.524	83.69
318.753	87.69
318.983	83.69
319.212	83.69
319.441	99.69
319.67	83.69
319.9	95.69
320.129	81.69
320.358	88.69
320.587	101.69
320.816	73.69
321.046	88.69
321.275	100.69
321.504	96.69
321.733	91.69
321.962	100.69
322.191	76.69
322.42	83.69
322.649	104.69
322.878	87.69
323.108	84.69
323.337	82.69
323.566	89.69
323.795	89.69
324.024	76.69
324.253	85.69
324.482	84.69
324.71	83.69
324.939	83.69
325.168	77.69
325.397	76.69
325.626	89.69
325.855	85.69
326.084	97.69
326.313	90.69
326.542	86.69
326.77	88.69
326.999	89.69
327.228	91.69
327.457	96.69
327.686	95.69
327.914	89.69
328.143	91.69
328.372	82.69
328.6	90.69
328.829	88.69
329.058	96.69
329.287	73.69
329.515	93.69
329.744	80.69
329.972	81.69
330.201	84.69
330.43	88.69
330.658	85.69
330.887	85.69
331.115	81.69
331.344	84.69
331.572	78.69
331.801	84.69
332.03	100.69
332.258	80.69
332.486	74.69
332.715	80.69
332.943	85.69
333.172	78.69
333.4	88.69
333.629	92.69
333.857	90.69
334.085	95.69
334.314	77.69
334.542	85.69
334.771	81.69
334.999	76.69
335.227	82.69
335.455	90.69
335.684	75.69
335.912	89.69
336.14	82.69
336.369	89.69
336.597	96.69
336.825	78.69
337.053	100.69
337.281	74.69
337.51	85.69
337.738	80.69
337.966	88.69
338.194	86.69
338.422	85.69
338.65	79.69
338.878	78.69
339.106	97.69
339.334	84.69
339.562	81.69
339.79	78.69
340.018	87.69
340.246	80.69
340.474	78.69
340.702	85.69
340.93	73.69
341.158	72.69
341.386	95.69
341.614	87.69
341.842	84.69
342.07	81.69
342.298	88.69
342.526	97.69
342.754	87.69
342.981	86.69
343.209	83.69
343.437	94.69
343.665	89.69
343.893	86.69
344.12	89.69
344.348	84.69
344.576	86.69
344.804	88.69
345.031	96.69
345.259	78.69
345.487	88.69
345.714	88.69
345.942	88.69
346.17	94.69
346.397	84.69
346.625	93.69
346.853	84.69
347.08	93.69
347.308	88.69
347.535	77.69
347.763	87.69
347.99	92.69
348.218	102.69
348.445	78.69
348.673	89.69
348.9	80.69
349.128	68.69
349.355	87.69
349.583	74.69
349.81	92.69
350.037	81.69
350.265	102.69
350.492	90.69
350.72	78.69
350.947	82.69
351.174	86.69
351.402	84.69
351.629	84.69
351.856	87.69
352.083	92.69
352.311	92.69
352.538	84.69
352.765	74.69
352.992	92.69
353.22	68.69
353.447	79.69
353.674	79.69
353.901	89.69
354.128	86.69
354.355	80.69
354.583	80.69
354.81	88.69
355.037	76.69
355.264	87.69
355.491	86.69
355.718	81.69
355.945	94.69
356.172	90.69
356.399	89.69
356.626	85.69
356.853	67.69
357.08	91.69
357.307	90.69
357.534	86.69
357.761	79.69
357.988	80.69
358.215	87.69
358.441	87.69
358.668	83.69
358.895	81.69
359.122	86.69
359.349	93.69
359.576	90.69
359.802	84.69
360.029	66.69
360.256	87.69
360.483	90.69
360.709	87.69
360.936	74.69
361.163	82.69
361.39	82.69
361.616	78.69
361.843	70.69
362.07	83.69
362.296	92.69
362.523	79.69
362.749	88.69
362.976	92.69
363.203	87.69
363.429	78.69
363.656	82.69
363.882	80.69
364.109	86.69
364.335	73.69
364.562	84.69
364.788	97.69
365.015	89.69
365.241	84.69
365.468	84.69
365.694	96.69
365.92	81.69
366.147	86.69
366.373	87.69
366.599	88.69
366.826	86.69
367.052	88.69
367.278	97.69
367.505	94.69
367.731	85.69
367.957	81.69
368.184	83.69
368.41	90.69
368.636	93.69
368.862	90.69
369.089	78.69
369.315	84.69
369.541	97.69
369.767	94.69
369.993	78.69
370.219	85.69
370.445	86.69
370.672	81.69
370.898	84.69
371.124	66.69
371.35	72.69
371.576	74.69
371.802	96.69
372.028	84.69
372.254	82.69
372.48	73.69
372.706	99.69
372.932	77.69
373.158	92.69
373.384	91.69
373.61	84.69
373.835	91.69
374.061	81.69
374.287	97.69
374.513	82.69
374.739	96.69
374.965	78.69
375.191	84.69
375.416	86.69
375.642	87.69
375.868	81.69
376.094	85.69
376.319	85.69
376.545	86.69
376.771	94.69
376.997	92.69
377.222	81.69
377.448	91.69
377.674	85.69
377.899	69.69
378.125	85.69
378.35	85.69
378.576	80.69
378.802	92.69
379.027	84.69
379.253	99.69
379.478	96.69
379.704	86.69
379.929	91.69
380.155	78.69
380.38	85.69
380.606	92.69
380.831	91.69
381.057	98.69
381.282	93.69
381.507	73.69
381.733	87.69
381.958	96.69
382.184	92.69
382.409	86.69
382.634	74.69
382.86	84.69
383.085	95.69
383.31	90.69
383.535	91.69
383.761	90.69
383.986	88.69
384.211	89.69
384.436	76.69
384.662	92.69
384.887	82.69
385.112	82.69
385.337	81.69
385.562	84.69
385.787	83.69
386.013	102.69
386.238	93.69
386.463	73.69
386.688	87.69
386.913	91.69
387.138	99.69
387.363	91.69
387.588	91.69
387.813	79.69
388.038	106.69
388.263	85.69
388.488	86.69
388.713	89.69
388.938	84.69
389.163	69.69
389.387	102.69
389.612	83.69
389.837	94.69
390.062	99.69
390.287	90.69
390.512	86.69
390.736	90.69
390.961	84.69
391.186	86.69
391.411	94.69
391.636	90.69
391.86	78.69
392.085	84.69
392.31	91.69
392.534	92.69
392.759	99.69
392.984	88.69
393.208	82.69
393.433	90.69
393.658	84.69
393.882	93.69
394.107	102.69
394.331	94.69
394.556	80.69
394.78	93.69
395.005	93.69
395.229	87.69
395.454	80.69
395.678	90.69
395.903	89.69
396.127	91.69
396.352	94.69
396.576	89.69
396.801	91.69
397.025	77.69
397.249	100.69
397.474	83.69
397.698	97.69
397.922	84.69
398.147	96.69
398.371	87.69
398.595	89.69
398.82	95.69
399.044	81.69
399.268	101.69
399.492	98.69
399.717	104.69
399.941	95.69
400.165	75.69
400.389	97.69
400.613	88.69
400.837	80.69
401.062	90.69
401.286	86.69
401.51	92.69
401.734	95.69
401.958	100.69
402.182	83.69
402.406	83.69
402.63	77.69
402.854	84.69
403.078	93.69
403.302	90.69
403.526	88.69
403.75	93.69
403.974	97.69
404.198	90.69
404.422	89.69
404.645	82.69
404.869	98.69
405.093	93.69
405.317	90.69
405.541	89.69
405.765	95.69
405.988	94.69
406.212	88.69
406.436	85.69
406.66	85.69
406.883	77.69
407.107	96.69
407.331	93.69
407.555	98.69
407.778	85.69
408.002	94.69
408.226	93.69
408.449	81.69
408.673	88.69
408.896	64.69
409.12	83.69
409.344	76.69
409.567	86.69
409.791	105.69
410.014	84.69
410.238	88.69
410.461	93.69
410.685	100.69
410.908	99.69
411.132	76.69
411.355	97.69
411.578	98.69
411.802	84.69
412.025	87.69
412.249	93.69
412.472	87.69
412.695	81.69
412.919	84.69
413.142	82.69
413.365	91.69
413.589	101.69
413.812	95.69
414.035	98.69
414.258	93.69
414.482	104.69
414.705	92.69
414.928	81.69
415.151	92.69
415.374	97.69
415.597	98.69
415.821	91.69
416.044	100.69
416.267	99.69
416.49	92.69
416.713	95.69
416.936	89.69
417.159	94.69
417.382	82.69
417.605	82.69
417.828	84.69
418.051	92.69
418.274	89.69
418.497	94.69
418.72	98.69
418.943	90.69
419.166	101.69
419.389	93.69
419.611	95.69
419.834	109.69
420.057	99.69
420.28	91.69
420.503	88.69
420.726	93.69
420.948	82.69
421.171	98.69
421.394	98.69
421.617	100.69
421.839	98.69
422.062	92.69
422.285	87.69
422.507	87.69
422.73	87.69
422.953	81.69
423.175	102.69
423.398	101.69
423.621	87.69
423.843	81.69
424.066	90.69
424.288	103.69
424.511	97.69
424.733	104.69
424.956	89.69
425.178	92.69
425.401	87.69
425.623	101.69
425.846	87.69
426.068	86.69
426.291	104.69
426.513	83.69
426.735	90.69
426.958	105.69
427.18	86.69
427.402	92.69
427.625	97.69
427.847	86.69
428.069	104.69
428.292	109.69
428.514	99.69
428.736	100.69
428.958	103.69
429.181	101.69
429.403	88.69
429.625	88.69
429.847	88.69
430.069	99.69
430.292	107.69
430.514	94.69
430.736	97.69
430.958	88.69
431.18	98.69
431.402	100.69
431.624	84.69
431.846	89.69
432.068	113.69
432.29	85.69
432.512	94.69
432.734	100.69
432.956	95.69
433.178	99.69
433.4	96.69
433.622	96.69
433.844	101.69
434.066	85.69
434.287	93.69
434.509	69.69
434.731	90.69
434.953	89.69
435.175	96.69
435.397	94.69
435.618	93.69
435.84	93.69
436.062	93.69
436.284	85.69
436.505	93.69
436.727	99.69
436.949	96.69
437.17	83.69
437.392	92.69
437.614	98.69
437.835	89.69
438.057	90.69
438.278	101.69
438.5	105.69
438.721	90.69
438.943	97.69
439.165	74.69
439.386	87.69
439.608	99.69
439.829	91.69
440.05	87.69
440.272	99.69
440.493	87.69
440.715	95.69
440.936	101.69
441.158	101.69
441.379	100.69
441.6	97.69
441.822	91.69
442.043	99.69
442.264	84.69
442.486	105.69
442.707	106.69
442.928	108.69
443.149	102.69
443.371	106.69
443.592	98.69
443.813	93.69
444.034	107.69
444.255	94.69
444.476	97.69
444.698	80.69
444.919	102.69
445.14	177.69
445.361	140.69
445.582	100.69
445.803	86.69
446.024	88.69
446.245	86.69
446.466	93.69
446.687	94.69
446.908	107.69
447.129	104.69
447.35	105.69
447.571	104.69
447.792	104.69
448.013	98.69
448.234	94.69
448.455	71.69
448.675	99.69
448.896	102.69
449.117	107.69
449.338	102.69
449.559	99.69
449.779	98.69
450	100.69
450.221	77.69
450.442	102.69
450.662	87.69
450.883	103.69
451.104	97.69
451.324	97.69
451.545	113.69
451.766	102.69
451.986	96.69
452.207	85.69
452.428	93.69
452.648	92.69
452.869	89.69
453.089	90.69
453.31	84.69
453.53	87.69
453.751	100.69
453.971	91.69
454.192	87.69
454.412	74.69
454.633	87.69
454.853	102.69
455.073	107.69
455.294	99.69
455.514	102.69
455.734	96.69
455.955	83.69
456.175	81.69
456.395	103.69
456.616	91.69
456.836	93.69
457.056	86.69
457.276	82.69
457.497	91.69
457.717	81.69
457.937	88.69
458.157	76.69
458.377	69.69
458.598	90.69
458.818	97.69
459.038	87.69
459.258	83.69
459.478	92.69
459.698	88.69
459.918	94.69
460.138	89.69
460.358	85.69
460.578	95.69
460.798	85.69
461.018	98.69
461.238	102.69
461.458	90.69
461.678	94.69
461.898	89.69
462.118	97.69
462.338	93.69
462.558	86.69
462.777	92.69
462.997	85.69
463.217	74.69
463.437	99.69
463.657	103.69
463.876	98.69
464.096	88.69
464.316	96.69
464.536	85.69
464.755	89.69
464.975	77.69
465.195	85.69
465.414	77.69
465.634	94.69
465.854	77.69
466.073	92.69
466.293	105.69
466.512	105.69
466.732	108.69
466.951	95.69
467.171	103.69
467.391	105.69
467.61	92.69
467.829	94.69
468.049	91.69
468.268	102.69
468.488	112.69
468.707	101.69
468.927	92.69
469.146	89.69
469.365	106.69
469.585	97.69
469.804	112.69
470.023	95.69
470.243	114.69
470.462	97.69
470.681	104.69
470.901	101.69
471.12	112.69
471.339	113.69
471.558	107.69
471.777	112.69
471.997	91.69
472.216	89.69
472.435	98.69
472.654	88.69
472.873	85.69
473.092	90.69
473.311	96.69
473.53	86.69
473.749	92.69
473.968	93.69
474.187	93.69
474.406	86.69
474.625	103.69
474.844	92.69
475.063	90.69
475.282	92.69
475.501	99.69
475.72	81.69
475.939	83.69
476.158	98.69
476.377	104.69
476.596	96.69
476.814	85.69
477.033	82.69
477.252	81.69
477.471	95.69
477.69	109.69
477.908	108.69
478.127	117.69
478.346	109.69
478.564	99.69
478.783	97.69
479.002	92.69
479.22	86.69
479.439	109.69
479.658	92.69
479.876	97.69
480.095	85.69
480.313	98.69
480.532	89.69
480.751	86.69
480.969	71.69
481.188	88.69
481.406	98.69
481.624	97.69
481.843	98.69
482.061	90.69
482.28	92.69
482.498	101.69
482.717	80.69
482.935	97.69
483.153	102.69
483.372	98.69
483.59	99.69
483.808	106.69
484.027	100.69
484.245	84.69
484.463	91.69
484.681	99.69
484.9	108.69
485.118	104.69
485.336	104.69
485.554	85.69
485.772	85.69
485.99	103.69
486.209	102.69
486.427	84.69
486.645	100.69
486.863	102.69
487.081	103.69
487.299	91.69
487.517	106.69
487.735	114.69
487.953	119.69
488.171	116.69
488.389	100.69
488.607	106.69
488.825	106.69
489.043	102.69
489.261	108.69
489.479	110.69
489.696	90.69
489.914	90.69
490.132	94.69
490.35	98.69
490.568	106.69
490.786	105.69
491.003	115.69
491.221	100.69
491.439	95.69
491.657	109.69
491.874	120.69
492.092	102.69
492.31	109.69
492.527	131.69
492.745	113.69
492.963	121.69
493.18	118.69
493.398	108.69
493.615	124.69
493.833	106.69
494.05	108.69
494.268	106.69
494.485	113.69
494.703	100.69
494.92	96.69
495.138	121.69
495.355	114.69
495.573	114.69
495.79	102.69
496.008	107.69
496.225	102.69
496.442	97.69
496.66	111.69
496.877	98.69
497.094	104.69
497.312	108.69
497.529	118.69
497.746	106.69
497.963	91.69
498.181	89.69
498.398	102.69
498.615	90.69
498.832	82.69
499.049	101.69
499.267	98.69
499.484	89.69
499.701	103.69
499.918	105.69
500.135	78.69
500.352	93.69
500.569	92.69
500.786	106.69
501.003	90.69
501.22	115.69
501.437	102.69
501.654	108.69
501.871	104.69
502.088	81.69
502.305	99.69
502.522	101.69
502.739	89.69
502.956	104.69
503.172	100.69
503.389	96.69
503.606	102.69
503.823	96.69
504.04	98.69
504.256	89.69
504.473	101.69
504.69	89.69
504.907	101.69
505.123	101.69
505.34	98.69
505.557	108.69
505.773	92.69
505.99	85.69
506.207	112.69
506.423	92.69
506.64	88.69
506.856	105.69
507.073	98.69
507.289	91.69
507.506	88.69
507.722	103.69
507.939	95.69
508.155	93.69
508.372	88.69
508.588	109.69
508.805	113.69
509.021	88.69
509.238	101.69
509.454	91.69
509.67	89.69
509.887	84.69
510.103	87.69
510.319	81.69
510.536	87.69
510.752	93.69
510.968	80.69
511.184	77.69
511.401	86.69
511.617	85.69
511.833	83.69
512.049	98.69
512.265	94.69
512.481	102.69
512.698	93.69
512.914	91.69
513.13	99.69
513.346	88.69
513.562	97.69
513.778	89.69
513.994	82.69
514.21	103.69
514.426	98.69
514.642	83.69
514.858	90.69
515.074	102.69
515.29	97.69
515.506	90.69
515.721	88.69
515.937	97.69
516.153	80.69
516.369	89.69
516.585	102.69
516.801	87.69
517.016	81.69
517.232	78.69
517.448	95.69
517.664	94.69
517.879	75.69
518.095	101.69
518.311	82.69
518.527	89.69
518.742	81.69
518.958	91.69
519.173	92.69
519.389	105.69
519.605	66.69
519.82	74.69
520.036	86.69
520.251	97.69
520.467	106.69
520.682	94.69
520.898	81.69
521.113	94.69
521.329	108.69
521.544	83.69
521.76	99.69
521.975	96.69
522.19	86.69
522.406	80.69
522.621	95.69
522.836	99.69
523.052	93.69
523.267	97.69
523.482	102.69
523.698	83.69
523.913	73.69
524.128	98.69
524.343	101.69
524.559	77.69
524.774	91.69
524.989	96.69
525.204	89.69
525.419	87.69
525.634	89.69
525.849	93.69
526.064	82.69
526.28	88.69
526.495	75.69
526.71	80.69
526.925	97.69
527.14	81.69
527.355	84.69
527.57	81.69
527.785	85.69
527.999	90.69
528.214	86.69
528.429	107.69
528.644	93.69
528.859	105.69
529.074	107.69
529.289	115.69
529.503	109.69
529.718	111.69
529.933	94.69
530.148	86.69
530.363	94.69
530.577	85.69
530.792	89.69
531.007	91.69
531.221	85.69
531.436	86.69
531.651	82.69
531.865	80.69
532.08	85.69
532.295	84.69
532.509	70.69
532.724	94.69
532.938	91.69
533.153	79.69
533.367	95.69
533.582	124.69
533.796	101.69
534.011	88.69
534.225	87.69
534.44	79.69
534.654	92.69
534.868	95.69
535.083	95.69
535.297	91.69
535.511	88.69
535.726	81.69
535.94	91.69
536.154	75.69
536.369	93.69
536.583	84.69
536.797	91.69
537.011	92.69
537.225	84.69
537.44	99.69
537.654	82.69
537.868	85.69
538.082	84.69
538.296	84.69
538.51	96.69
538.724	82.69
538.938	83.69
539.153	102.69
539.367	99.69
539.581	105.69
539.795	93.69
540.009	87.69
540.222	98.69
540.436	77.69
540.65	90.69
540.864	91.69
541.078	100.69
541.292	103.69
541.506	113.69
541.72	105.69
541.934	112.69
542.147	118.69
542.361	107.69
542.575	103.69
542.789	96.69
543.002	93.69
543.216	97.69
543.43	88.69
543.644	106.69
543.857	103.69
544.071	108.69
544.285	116.69
544.498	109.69
544.712	105.69
544.925	104.69
545.139	104.69
545.352	112.69
545.566	120.69
545.779	89.69
545.993	114.69
546.206	106.69
546.42	111.69
546.633	106.69
546.847	108.69
547.06	116.69
547.274	110.69
547.487	101.69
547.7	108.69
547.914	115.69
548.127	96.69
548.34	95.69
548.554	105.69
548.767	103.69
548.98	120.69
549.193	90.69
549.407	93.69
549.62	107.69
549.833	110.69
550.046	113.69
550.259	112.69
550.473	108.69
550.686	114.69
550.899	104.69
551.112	104.69
551.325	106.69
551.538	90.69
551.751	113.69
551.964	97.69
552.177	100.69
552.39	99.69
552.603	117.69
552.816	94.69
553.029	105.69
553.242	109.69
553.455	104.69
553.667	103.69
553.88	114.69
554.093	108.69
554.306	112.69
554.519	101.69
554.732	104.69
554.944	99.69
555.157	106.69
555.37	100.69
555.583	108.69
555.795	102.69
556.008	96.69
556.221	107.69
556.433	96.69
556.646	116.69
556.859	98.69
557.071	105.69
557.284	102.69
557.496	114.69
557.709	108.69
557.921	106.69
558.134	103.69
558.346	87.69
558.559	95.69
558.771	101.69
558.984	89.69
559.196	114.69
559.409	112.69
559.621	110.69
559.833	109.69
560.046	88.69
560.258	112.69
560.47	94.69
560.683	119.69
560.895	88.69
561.107	104.69
561.32	107.69
561.532	97.69
561.744	99.69
561.956	101.69
562.168	96.69
562.381	84.69
562.593	94.69
562.805	91.69
563.017	100.69
563.229	105.69
563.441	108.69
563.653	77.69
563.865	93.69
564.077	105.69
564.289	99.69
564.501	101.69
564.713	92.69
564.925	84.69
565.137	92.69
565.349	97.69
565.561	88.69
565.773	86.69
565.985	91.69
566.197	93.69
566.408	93.69
566.62	93.69
566.832	105.69
567.044	107.69
567.255	86.69
567.467	78.69
567.679	104.69
567.891	80.69
568.102	82.69
568.314	90.69
568.526	86.69
568.737	88.69
568.949	92.69
569.161	91.69
569.372	79.69
569.584	79.69
569.795	95.69
570.007	82.69
570.218	88.69
570.43	84.69
570.641	87.69
570.853	87.69
571.064	94.69
571.276	88.69
571.487	105.69
571.698	97.69
571.91	77.69
572.121	89.69
572.333	95.69
572.544	85.69
572.755	88.69
572.966	82.69
573.178	99.69
573.389	80.69
573.6	93.69
573.811	88.69
574.023	87.69
574.234	81.69
574.445	88.69
574.656	97.69
574.867	80.69
575.078	102.69
575.289	91.69
575.501	92.69
575.712	93.69
575.923	93.69
576.134	77.69
576.345	96.69
576.556	94.69
576.767	98.69
576.978	99.69
577.188	96.69
577.399	83.69
577.61	85.69
577.821	90.69
578.032	92.69
578.243	98.69
578.454	81.69
578.665	81.69
578.875	78.69
579.086	96.69
579.297	91.69
579.508	80.69
579.718	72.69
579.929	92.69
580.14	84.69
580.35	79.69
580.561	96.69
580.772	87.69
580.982	90.69
581.193	83.69
581.403	100.69
581.614	88.69
581.825	86.69
582.035	93.69
582.246	79.69
582.456	89.69
582.667	92.69
582.877	92.69
583.087	77.69
583.298	81.69
583.508	86.69
583.719	95.69
583.929	94.69
584.139	84.69
584.35	90.69
584.56	79.69
584.77	82.69
584.981	77.69
585.191	86.69
585.401	76.69
585.611	84.69
585.821	96.69
586.032	108.69
586.242	81.69
586.452	86.69
586.662	86.69
586.872	83.69
587.082	89.69
587.292	91.69
587.502	86.69
587.713	84.69
587.923	77.69
588.133	82.69
588.343	82.69
588.553	76.69
588.762	95.69
588.972	85.69
589.182	82.69
589.392	83.69
589.602	81.69
589.812	74.69
590.022	89.69
590.232	92.69
590.441	93.69
590.651	87.69
590.861	86.69
591.071	83.69
591.281	96.69
591.49	91.69
591.7	88.69
591.91	83.69
592.119	82.69
592.329	87.69
592.539	77.69
592.748	87.69
592.958	60.69
593.167	81.69
593.377	87.69
593.587	93.69
593.796	84.69
594.006	99.69
594.215	88.69
594.424	89.69
594.634	84.69
594.843	81.69
595.053	96.69
595.262	87.69
595.472	82.69
595.681	101.69
595.89	93.69
596.1	77.69
596.309	91.69
596.518	82.69
596.727	93.69
596.937	79.69
597.146	79.69
597.355	90.69
597.564	88.69
597.774	81.69
597.983	96.69
598.192	78.69
598.401	88.69
598.61	90.69
598.819	82.69
599.028	86.69
599.237	93.69
599.446	85.69
599.655	81.69
599.864	93.69
600.073	74.69
600.282	87.69
600.491	78.69
600.7	84.69
600.909	84.69
601.118	83.69
601.327	97.69
601.536	84.69
601.745	76.69
601.953	100.69
602.162	78.69
602.371	89.69
602.58	90.69
602.789	83.69
602.997	90.69
603.206	89.69
603.415	115.69
603.623	97.69
603.832	96.69
604.041	78.69
604.249	82.69
604.458	82.69
604.666	87.69
604.875	97.69
605.084	97.69
605.292	75.69
605.501	77.69
605.709	91.69
605.918	85.69
606.126	85.69
606.334	97.69
606.543	90.69
606.751	96.69
606.96	88.69
607.168	101.69
607.376	97.69
607.585	101.69
607.793	93.69
608.001	97.69
608.21	92.69
608.418	89.69
608.626	86.69
608.834	102.69
609.043	86.69
609.251	95.69
609.459	92.69
609.667	87.69
609.875	98.69
610.083	102.69
610.291	103.69
610.499	92.69
610.707	109.69
610.916	99.69
611.124	99.69
611.332	101.69
611.54	96.69
611.748	97.69
611.955	91.69
612.163	81.69
612.371	80.69
612.579	85.69
612.787	94.69
612.995	93.69
613.203	88.69
613.411	93.69
613.618	96.69
613.826	82.69
614.034	92.69
614.242	97.69
614.449	81.69
614.657	98.69
614.865	96.69
615.072	86.69
615.28	97.69
615.488	85.69
615.695	89.69
615.903	85.69
616.111	99.69
616.318	91.69
616.526	90.69
616.733	95.69
616.941	85.69
617.148	103.69
617.356	106.69
617.563	102.69
617.771	94.69
617.978	78.69
618.185	89.69
618.393	96.69
618.6	88.69
618.807	93.69
619.015	91.69
619.222	95.69
619.429	88.69
619.637	92.69
619.844	77.69
620.051	87.69
620.258	102.69
620.466	105.69
620.673	101.69
620.88	100.69
621.087	96.69
621.294	71.69
621.501	84.69
621.708	98.69
621.915	88.69
622.122	99.69
622.329	92.69
622.536	97.69
622.743	90.69
622.95	89.69
623.157	99.69
623.364	98.69
623.571	94.69
623.778	84.69
623.985	78.69
624.192	85.69
624.399	103.69
624.606	88.69
624.812	85.69
625.019	82.69
625.226	69.69
625.433	102.69
625.639	101.69
625.846	90.69
626.053	91.69
626.259	82.69
626.466	83.69
626.673	80.69
626.879	82.69
627.086	91.69
627.293	96.69
627.499	84.69
627.706	93.69
627.912	91.69
628.119	93.69
628.325	99.69
628.532	93.69
628.738	86.69
628.945	85.69
629.151	87.69
629.357	91.69
629.564	102.69
629.77	79.69
629.976	84.69
630.183	90.69
630.389	101.69
630.595	75.69
630.802	97.69
631.008	89.69
631.214	96.69
631.42	85.69
631.627	88.69
631.833	89.69
632.039	77.69
632.245	87.69
632.451	87.69
632.657	86.69
632.863	92.69
633.069	76.69
633.275	91.69
633.481	92.69
633.688	86.69
633.893	91.69
634.099	102.69
634.305	88.69
634.511	81.69
634.717	80.69
634.923	86.69
635.129	89.69
635.335	70.69
635.541	87.69
635.747	92.69
635.952	83.69
636.158	77.69
636.364	99.69
636.57	87.69
636.775	101.69
636.981	94.69
637.187	83.69
637.392	88.69
637.598	86.69
637.804	97.69
638.009	96.69
638.215	91.69
638.421	96.69
638.626	92.69
638.832	93.69
639.037	82.69
639.243	83.69
639.448	99.69
639.654	94.69
639.859	85.69
640.065	84.69
640.27	92.69
640.475	80.69
640.681	90.69
640.886	86.69
641.091	79.69
641.297	93.69
641.502	83.69
641.707	79.69
641.913	91.69
642.118	91.69
642.323	100.69
642.528	76.69
642.733	93.69
642.939	79.69
643.144	98.69
643.349	76.69
643.554	92.69
643.759	91.69
643.964	85.69
644.169	92.69
644.374	80.69
644.579	76.69
644.784	98.69
644.989	92.69
645.194	94.69
645.399	84.69
645.604	81.69
645.809	80.69
646.014	101.69
646.219	85.69
646.423	75.69
646.628	85.69
646.833	90.69
647.038	73.69
647.243	88.69
647.447	86.69
647.652	80.69
647.857	82.69
648.062	90.69
648.266	74.69
648.471	82.69
648.676	88.69
648.88	84.69
649.085	75.69
649.289	86.69
649.494	80.69
649.698	102.69
649.903	106.69
650.107	85.69
650.312	92.69
650.516	85.69
650.721	94.69
650.925	98.69
651.13	88.69
651.334	93.69
651.539	88.69
651.743	98.69
651.947	103.69
652.152	89.69
652.356	89.69
652.56	90.69
652.764	92.69
652.969	80.69
653.173	95.69
653.377	91.69
653.581	89.69
653.785	72.69
653.99	86.69
654.194	85.69
654.398	88.69
654.602	89.69
654.806	87.69
655.01	88.69
655.214	92.69
655.418	94.69
655.622	81.69
655.826	84.69
656.03	76.69
656.234	90.69
656.438	80.69
656.642	83.69
656.846	76.69
657.049	74.69
657.253	77.69
657.457	81.69
657.661	78.69
657.865	86.69
658.068	83.69
658.272	86.69
658.476	85.69
658.68	97.69
658.883	95.69
659.087	85.69
659.291	77.69
659.494	83.69
659.698	81.69
659.901	104.69
660.105	94.69
660.309	83.69
660.512	92.69
660.716	103.69
660.919	86.69
661.123	77.69
661.326	76.69
661.53	98.69
661.733	85.69
661.936	81.69
662.14	94.69
662.343	90.69
662.546	86.69
662.75	80.69
662.953	89.69
663.156	77.69
663.36	91.69
663.563	90.69
663.766	83.69
663.969	92.69
664.173	88.69
664.376	83.69
664.579	87.69
664.782	90.69
664.985	102.69
665.188	80.69
665.391	82.69
665.594	84.69
665.797	92.69
666	86.69
666.203	77.69
666.406	65.69
666.609	92.69
666.812	84.69
667.015	90.69
667.218	82.69
667.421	78.69
667.624	80.69
667.827	93.69
668.03	87.69
668.232	77.69
668.435	81.69
668.638	88.69
668.841	92.69
669.043	77.69
669.246	84.69
669.449	90.69
669.651	86.69
669.854	82.69
670.057	75.69
670.259	75.69
670.462	79.69
670.665	95.69
670.867	97.69
671.07	81.69
671.272	78.69
671.475	75.69
671.677	97.69
671.88	84.69
672.082	89.69
672.284	91.69
672.487	75.69
672.689	74.69
672.892	103.69
