Data from Location5.07152019.Energy5.Lamp.07192019.3%Agarose_HRD10591_15-39-05-388.txt Node
Date: Fri Jul 19 15:39:05 EDT 2019
User: cochatt
Spectrometer: HR+D1059
Trigger mode: 1
Integration Time (sec): 1.000000E-1
Scans to average: 1
Electric dark correction enabled: true
Nonlinearity correction enabled: false
Boxcar width: 0
XAxis mode: Wavelengths
Number of Pixels in Spectrum: 2048
>>>>>Begin Spectral Data<<<<<
223.165	-22.94
223.4	-22.94
223.635	-22.94
223.869	-13.94
224.104	-18.94
224.338	-14.94
224.573	-14.94
224.808	-20.94
225.042	-6.94
225.277	-16.94
225.511	-15.94
225.746	3.06
225.98	20.06
226.215	11.06
226.449	32.06
226.683	14.06
226.918	33.06
227.152	33.06
227.387	40.06
227.621	33.06
227.856	44.06
228.09	36.06
228.324	52.06
228.559	57.06
228.793	57.06
229.027	57.06
229.262	70.06
229.496	51.06
229.73	64.06
229.964	66.06
230.199	75.06
230.433	77.06
230.667	73.06
230.901	61.06
231.136	70.06
231.37	85.06
231.604	78.06
231.838	80.06
232.072	82.06
232.306	74.06
232.541	82.06
232.775	80.06
233.009	81.06
233.243	77.06
233.477	71.06
233.711	75.06
233.945	88.06
234.179	78.06
234.413	81.06
234.647	79.06
234.881	79.06
235.115	72.06
235.349	88.06
235.583	77.06
235.817	84.06
236.051	80.06
236.285	77.06
236.519	76.06
236.753	75.06
236.987	92.06
237.221	84.06
237.455	69.06
237.689	78.06
237.922	77.06
238.156	75.06
238.39	63.06
238.624	61.06
238.858	77.06
239.091	78.06
239.325	85.06
239.559	76.06
239.793	77.06
240.027	76.06
240.26	70.06
240.494	78.06
240.728	72.06
240.961	80.06
241.195	73.06
241.429	70.06
241.662	62.06
241.896	70.06
242.13	74.06
242.363	83.06
242.597	78.06
242.83	68.06
243.064	75.06
243.298	80.06
243.531	73.06
243.765	84.06
243.998	84.06
244.232	63.06
244.465	67.06
244.699	80.06
244.932	78.06
245.166	76.06
245.399	68.06
245.633	72.06
245.866	79.06
246.099	64.06
246.333	95.06
246.566	70.06
246.8	90.06
247.033	69.06
247.266	64.06
247.5	88.06
247.733	81.06
247.966	64.06
248.2	78.06
248.433	68.06
248.666	87.06
248.899	96.06
249.133	84.06
249.366	70.06
249.599	62.06
249.832	82.06
250.066	84.06
250.299	77.06
250.532	77.06
250.765	60.06
250.998	72.06
251.231	67.06
251.465	77.06
251.698	84.06
251.931	85.06
252.164	72.06
252.397	64.06
252.63	70.06
252.863	67.06
253.096	71.06
253.329	62.06
253.562	74.06
253.795	93.06
254.028	73.06
254.261	72.06
254.494	78.06
254.727	82.06
254.96	77.06
255.193	73.06
255.426	74.06
255.659	81.06
255.892	76.06
256.124	77.06
256.357	76.06
256.59	83.06
256.823	84.06
257.056	76.06
257.289	79.06
257.521	77.06
257.754	66.06
257.987	89.06
258.22	86.06
258.452	84.06
258.685	81.06
258.918	56.06
259.151	81.06
259.383	84.06
259.616	82.06
259.849	72.06
260.081	82.06
260.314	77.06
260.547	77.06
260.779	72.06
261.012	85.06
261.244	73.06
261.477	78.06
261.71	81.06
261.942	88.06
262.175	84.06
262.407	81.06
262.64	86.06
262.872	84.06
263.105	78.06
263.337	82.06
263.57	61.06
263.802	83.06
264.035	78.06
264.267	65.06
264.499	71.06
264.732	82.06
264.964	83.06
265.197	88.06
265.429	76.06
265.661	69.06
265.894	71.06
266.126	84.06
266.358	94.06
266.591	77.06
266.823	83.06
267.055	93.06
267.287	80.06
267.52	71.06
267.752	64.06
267.984	85.06
268.216	86.06
268.448	73.06
268.681	76.06
268.913	85.06
269.145	85.06
269.377	81.06
269.609	72.06
269.841	86.06
270.073	73.06
270.306	73.06
270.538	71.06
270.77	85.06
271.002	88.06
271.234	88.06
271.466	77.06
271.698	85.06
271.93	80.06
272.162	78.06
272.394	73.06
272.626	76.06
272.858	72.06
273.09	76.06
273.322	86.06
273.553	78.06
273.785	73.06
274.017	72.06
274.249	81.06
274.481	85.06
274.713	98.06
274.945	58.06
275.176	71.06
275.408	72.06
275.64	90.06
275.872	78.06
276.104	88.06
276.335	64.06
276.567	76.06
276.799	82.06
277.031	80.06
277.262	76.06
277.494	81.06
277.726	82.06
277.957	73.06
278.189	91.06
278.421	65.06
278.652	87.06
278.884	76.06
279.115	88.06
279.347	84.06
279.579	83.06
279.81	76.06
280.042	67.06
280.273	64.06
280.505	63.06
280.736	71.06
280.968	72.06
281.199	89.06
281.431	76.06
281.662	72.06
281.894	81.06
282.125	80.06
282.356	85.06
282.588	97.06
282.819	89.06
283.051	69.06
283.282	93.06
283.513	77.06
283.745	94.06
283.976	85.06
284.207	67.06
284.439	86.06
284.67	91.06
284.901	85.06
285.132	99.06
285.364	87.06
285.595	73.06
285.826	73.06
286.057	69.06
286.288	71.06
286.52	72.06
286.751	79.06
286.982	81.06
287.213	90.06
287.444	89.06
287.675	83.06
287.906	92.06
288.138	87.06
288.369	76.06
288.6	88.06
288.831	85.06
289.062	74.06
289.293	100.06
289.524	71.06
289.755	90.06
289.986	96.06
290.217	82.06
290.448	89.06
290.679	84.06
290.91	84.06
291.141	89.06
291.371	94.06
291.602	81.06
291.833	76.06
292.064	81.06
292.295	75.06
292.526	87.06
292.757	84.06
292.987	86.06
293.218	81.06
293.449	84.06
293.68	72.06
293.91	81.06
294.141	83.06
294.372	73.06
294.603	75.06
294.833	78.06
295.064	75.06
295.295	81.06
295.525	75.06
295.756	76.06
295.987	82.06
296.217	100.06
296.448	72.06
296.679	82.06
296.909	87.06
297.14	100.06
297.37	84.06
297.601	68.06
297.831	80.06
298.062	86.06
298.292	75.06
298.523	86.06
298.753	79.06
298.984	77.06
299.214	82.06
299.445	86.06
299.675	74.06
299.905	81.06
300.136	85.06
300.366	94.06
300.597	73.06
300.827	71.06
301.057	74.06
301.288	64.06
301.518	86.06
301.748	63.06
301.979	80.06
302.209	85.06
302.439	75.06
302.669	82.06
302.9	70.06
303.13	82.06
303.36	82.06
303.59	73.06
303.82	93.06
304.051	96.06
304.281	78.06
304.511	92.06
304.741	75.06
304.971	80.06
305.201	74.06
305.431	86.06
305.661	78.06
305.891	97.06
306.121	75.06
306.352	75.06
306.582	88.06
306.812	72.06
307.042	88.06
307.272	77.06
307.502	90.06
307.731	84.06
307.961	81.06
308.191	68.06
308.421	83.06
308.651	86.06
308.881	77.06
309.111	75.06
309.341	76.06
309.571	80.06
309.8	79.06
310.03	79.06
310.26	82.06
310.49	89.06
310.72	71.06
310.949	87.06
311.179	77.06
311.409	81.06
311.639	86.06
311.868	81.06
312.098	77.06
312.328	78.06
312.557	92.06
312.787	97.06
313.017	91.06
313.246	82.06
313.476	75.06
313.706	69.06
313.935	84.06
314.165	72.06
314.394	79.06
314.624	83.06
314.853	71.06
315.083	75.06
315.312	90.06
315.542	71.06
315.771	86.06
316.001	82.06
316.23	74.06
316.46	84.06
316.689	90.06
316.919	90.06
317.148	79.06
317.377	76.06
317.607	86.06
317.836	84.06
318.065	76.06
318.295	84.06
318.524	84.06
318.753	74.06
318.983	79.06
319.212	77.06
319.441	75.06
319.67	77.06
319.9	83.06
320.129	77.06
320.358	66.06
320.587	82.06
320.816	71.06
321.046	84.06
321.275	76.06
321.504	86.06
321.733	79.06
321.962	89.06
322.191	80.06
322.42	87.06
322.649	72.06
322.878	83.06
323.108	82.06
323.337	87.06
323.566	71.06
323.795	81.06
324.024	79.06
324.253	88.06
324.482	88.06
324.71	68.06
324.939	76.06
325.168	73.06
325.397	83.06
325.626	81.06
325.855	87.06
326.084	92.06
326.313	82.06
326.542	85.06
326.77	88.06
326.999	98.06
327.228	83.06
327.457	84.06
327.686	85.06
327.914	68.06
328.143	77.06
328.372	79.06
328.6	82.06
328.829	82.06
329.058	81.06
329.287	80.06
329.515	79.06
329.744	82.06
329.972	83.06
330.201	77.06
330.43	82.06
330.658	81.06
330.887	75.06
331.115	89.06
331.344	83.06
331.572	82.06
331.801	64.06
332.03	69.06
332.258	79.06
332.486	91.06
332.715	89.06
332.943	80.06
333.172	75.06
333.4	94.06
333.629	80.06
333.857	76.06
334.085	84.06
334.314	82.06
334.542	79.06
334.771	87.06
334.999	88.06
335.227	89.06
335.455	79.06
335.684	87.06
335.912	77.06
336.14	92.06
336.369	89.06
336.597	91.06
336.825	92.06
337.053	69.06
337.281	72.06
337.51	101.06
337.738	93.06
337.966	93.06
338.194	78.06
338.422	69.06
338.65	79.06
338.878	74.06
339.106	65.06
339.334	98.06
339.562	74.06
339.79	88.06
340.018	73.06
340.246	75.06
340.474	81.06
340.702	78.06
340.93	89.06
341.158	89.06
341.386	77.06
341.614	92.06
341.842	91.06
342.07	75.06
342.298	91.06
342.526	89.06
342.754	79.06
342.981	82.06
343.209	67.06
343.437	76.06
343.665	87.06
343.893	84.06
344.12	96.06
344.348	68.06
344.576	83.06
344.804	72.06
345.031	84.06
345.259	84.06
345.487	74.06
345.714	81.06
345.942	80.06
346.17	75.06
346.397	86.06
346.625	83.06
346.853	79.06
347.08	77.06
347.308	84.06
347.535	69.06
347.763	71.06
347.99	74.06
348.218	81.06
348.445	82.06
348.673	87.06
348.9	72.06
349.128	79.06
349.355	80.06
349.583	87.06
349.81	74.06
350.037	75.06
350.265	80.06
350.492	72.06
350.72	74.06
350.947	87.06
351.174	100.06
351.402	74.06
351.629	83.06
351.856	73.06
352.083	64.06
352.311	85.06
352.538	81.06
352.765	95.06
352.992	81.06
353.22	88.06
353.447	82.06
353.674	76.06
353.901	80.06
354.128	69.06
354.355	76.06
354.583	84.06
354.81	89.06
355.037	81.06
355.264	95.06
355.491	86.06
355.718	76.06
355.945	89.06
356.172	81.06
356.399	77.06
356.626	92.06
356.853	78.06
357.08	82.06
357.307	75.06
357.534	82.06
357.761	72.06
357.988	90.06
358.215	74.06
358.441	85.06
358.668	89.06
358.895	79.06
359.122	81.06
359.349	83.06
359.576	94.06
359.802	95.06
360.029	70.06
360.256	86.06
360.483	93.06
360.709	77.06
360.936	89.06
361.163	68.06
361.39	60.06
361.616	78.06
361.843	79.06
362.07	81.06
362.296	77.06
362.523	81.06
362.749	85.06
362.976	82.06
363.203	81.06
363.429	78.06
363.656	72.06
363.882	80.06
364.109	95.06
364.335	83.06
364.562	69.06
364.788	78.06
365.015	88.06
365.241	87.06
365.468	93.06
365.694	80.06
365.92	91.06
366.147	86.06
366.373	91.06
366.599	87.06
366.826	85.06
367.052	82.06
367.278	80.06
367.505	72.06
367.731	96.06
367.957	91.06
368.184	80.06
368.41	80.06
368.636	87.06
368.862	95.06
369.089	72.06
369.315	79.06
369.541	77.06
369.767	63.06
369.993	93.06
370.219	84.06
370.445	73.06
370.672	75.06
370.898	71.06
371.124	77.06
371.35	83.06
371.576	94.06
371.802	71.06
372.028	85.06
372.254	79.06
372.48	74.06
372.706	84.06
372.932	89.06
373.158	82.06
373.384	83.06
373.61	90.06
373.835	77.06
374.061	77.06
374.287	77.06
374.513	80.06
374.739	91.06
374.965	79.06
375.191	75.06
375.416	78.06
375.642	89.06
375.868	86.06
376.094	81.06
376.319	73.06
376.545	78.06
376.771	80.06
376.997	90.06
377.222	83.06
377.448	86.06
377.674	69.06
377.899	87.06
378.125	93.06
378.35	88.06
378.576	64.06
378.802	82.06
379.027	78.06
379.253	79.06
379.478	87.06
379.704	85.06
379.929	83.06
380.155	82.06
380.38	96.06
380.606	84.06
380.831	83.06
381.057	87.06
381.282	80.06
381.507	76.06
381.733	84.06
381.958	71.06
382.184	72.06
382.409	71.06
382.634	87.06
382.86	90.06
383.085	76.06
383.31	66.06
383.535	90.06
383.761	88.06
383.986	80.06
384.211	81.06
384.436	73.06
384.662	84.06
384.887	76.06
385.112	81.06
385.337	77.06
385.562	77.06
385.787	82.06
386.013	83.06
386.238	82.06
386.463	78.06
386.688	78.06
386.913	98.06
387.138	80.06
387.363	76.06
387.588	83.06
387.813	87.06
388.038	93.06
388.263	96.06
388.488	73.06
388.713	80.06
388.938	90.06
389.163	73.06
389.387	86.06
389.612	90.06
389.837	81.06
390.062	83.06
390.287	83.06
390.512	89.06
390.736	83.06
390.961	86.06
391.186	74.06
391.411	85.06
391.636	81.06
391.86	78.06
392.085	83.06
392.31	78.06
392.534	86.06
392.759	76.06
392.984	96.06
393.208	84.06
393.433	73.06
393.658	79.06
393.882	87.06
394.107	91.06
394.331	94.06
394.556	98.06
394.78	85.06
395.005	77.06
395.229	83.06
395.454	88.06
395.678	83.06
395.903	79.06
396.127	85.06
396.352	70.06
396.576	80.06
396.801	83.06
397.025	79.06
397.249	86.06
397.474	100.06
397.698	94.06
397.922	85.06
398.147	89.06
398.371	78.06
398.595	87.06
398.82	86.06
399.044	77.06
399.268	71.06
399.492	80.06
399.717	85.06
399.941	87.06
400.165	89.06
400.389	84.06
400.613	80.06
400.837	72.06
401.062	75.06
401.286	80.06
401.51	89.06
401.734	95.06
401.958	80.06
402.182	68.06
402.406	71.06
402.63	84.06
402.854	86.06
403.078	84.06
403.302	86.06
403.526	85.06
403.75	84.06
403.974	69.06
404.198	98.06
404.422	95.06
404.645	79.06
404.869	82.06
405.093	86.06
405.317	95.06
405.541	96.06
405.765	79.06
405.988	85.06
406.212	98.06
406.436	80.06
406.66	102.06
406.883	84.06
407.107	77.06
407.331	73.06
407.555	90.06
407.778	77.06
408.002	98.06
408.226	92.06
408.449	84.06
408.673	99.06
408.896	86.06
409.12	92.06
409.344	83.06
409.567	89.06
409.791	86.06
410.014	85.06
410.238	90.06
410.461	86.06
410.685	74.06
410.908	84.06
411.132	95.06
411.355	79.06
411.578	91.06
411.802	86.06
412.025	84.06
412.249	87.06
412.472	76.06
412.695	86.06
412.919	88.06
413.142	79.06
413.365	87.06
413.589	88.06
413.812	80.06
414.035	87.06
414.258	75.06
414.482	100.06
414.705	86.06
414.928	80.06
415.151	94.06
415.374	81.06
415.597	84.06
415.821	102.06
416.044	85.06
416.267	96.06
416.49	88.06
416.713	82.06
416.936	86.06
417.159	78.06
417.382	86.06
417.605	92.06
417.828	99.06
418.051	92.06
418.274	77.06
418.497	85.06
418.72	79.06
418.943	89.06
419.166	88.06
419.389	86.06
419.611	100.06
419.834	90.06
420.057	86.06
420.28	88.06
420.503	99.06
420.726	90.06
420.948	85.06
421.171	106.06
421.394	89.06
421.617	100.06
421.839	84.06
422.062	93.06
422.285	97.06
422.507	76.06
422.73	102.06
422.953	81.06
423.175	89.06
423.398	82.06
423.621	74.06
423.843	82.06
424.066	87.06
424.288	87.06
424.511	81.06
424.733	92.06
424.956	88.06
425.178	74.06
425.401	93.06
425.623	89.06
425.846	91.06
426.068	85.06
426.291	88.06
426.513	87.06
426.735	103.06
426.958	105.06
427.18	81.06
427.402	79.06
427.625	70.06
427.847	92.06
428.069	93.06
428.292	102.06
428.514	106.06
428.736	94.06
428.958	73.06
429.181	85.06
429.403	70.06
429.625	90.06
429.847	92.06
430.069	89.06
430.292	90.06
430.514	86.06
430.736	90.06
430.958	95.06
431.18	89.06
431.402	95.06
431.624	87.06
431.846	83.06
432.068	80.06
432.29	85.06
432.512	89.06
432.734	96.06
432.956	87.06
433.178	97.06
433.4	94.06
433.622	86.06
433.844	88.06
434.066	89.06
434.287	75.06
434.509	86.06
434.731	80.06
434.953	66.06
435.175	93.06
435.397	91.06
435.618	84.06
435.84	92.06
436.062	64.06
436.284	96.06
436.505	86.06
436.727	93.06
436.949	91.06
437.17	105.06
437.392	85.06
437.614	93.06
437.835	68.06
438.057	85.06
438.278	95.06
438.5	100.06
438.721	92.06
438.943	89.06
439.165	83.06
439.386	105.06
439.608	96.06
439.829	86.06
440.05	96.06
440.272	88.06
440.493	88.06
440.715	79.06
440.936	105.06
441.158	94.06
441.379	108.06
441.6	80.06
441.822	75.06
442.043	89.06
442.264	85.06
442.486	98.06
442.707	80.06
442.928	78.06
443.149	89.06
443.371	82.06
443.592	89.06
443.813	98.06
444.034	89.06
444.255	98.06
444.476	79.06
444.698	90.06
444.919	84.06
445.14	201.06
445.361	114.06
445.582	94.06
445.803	96.06
446.024	108.06
446.245	108.06
446.466	91.06
446.687	104.06
446.908	110.06
447.129	80.06
447.35	93.06
447.571	109.06
447.792	83.06
448.013	94.06
448.234	98.06
448.455	103.06
448.675	88.06
448.896	92.06
449.117	101.06
449.338	87.06
449.559	98.06
449.779	97.06
450	80.06
450.221	89.06
450.442	82.06
450.662	90.06
450.883	84.06
451.104	82.06
451.324	91.06
451.545	96.06
451.766	81.06
451.986	92.06
452.207	101.06
452.428	97.06
452.648	97.06
452.869	92.06
453.089	72.06
453.31	80.06
453.53	83.06
453.751	101.06
453.971	94.06
454.192	82.06
454.412	90.06
454.633	96.06
454.853	95.06
455.073	91.06
455.294	93.06
455.514	83.06
455.734	93.06
455.955	93.06
456.175	85.06
456.395	87.06
456.616	87.06
456.836	85.06
457.056	82.06
457.276	83.06
457.497	96.06
457.717	89.06
457.937	70.06
458.157	81.06
458.377	76.06
458.598	89.06
458.818	70.06
459.038	82.06
459.258	78.06
459.478	79.06
459.698	81.06
459.918	85.06
460.138	79.06
460.358	83.06
460.578	87.06
460.798	71.06
461.018	83.06
461.238	84.06
461.458	85.06
461.678	69.06
461.898	91.06
462.118	89.06
462.338	81.06
462.558	79.06
462.777	83.06
462.997	85.06
463.217	89.06
463.437	83.06
463.657	89.06
463.876	94.06
464.096	99.06
464.316	71.06
464.536	95.06
464.755	84.06
464.975	70.06
465.195	81.06
465.414	90.06
465.634	82.06
465.854	83.06
466.073	79.06
466.293	82.06
466.512	86.06
466.732	94.06
466.951	93.06
467.171	97.06
467.391	107.06
467.61	88.06
467.829	88.06
468.049	86.06
468.268	91.06
468.488	84.06
468.707	87.06
468.927	93.06
469.146	94.06
469.365	98.06
469.585	84.06
469.804	102.06
470.023	82.06
470.243	95.06
470.462	88.06
470.681	91.06
470.901	93.06
471.12	105.06
471.339	105.06
471.558	96.06
471.777	100.06
471.997	82.06
472.216	95.06
472.435	79.06
472.654	90.06
472.873	91.06
473.092	84.06
473.311	81.06
473.53	85.06
473.749	89.06
473.968	96.06
474.187	101.06
474.406	92.06
474.625	90.06
474.844	95.06
475.063	97.06
475.282	91.06
475.501	84.06
475.72	94.06
475.939	83.06
476.158	77.06
476.377	88.06
476.596	79.06
476.814	108.06
477.033	88.06
477.252	95.06
477.471	86.06
477.69	109.06
477.908	105.06
478.127	106.06
478.346	92.06
478.564	93.06
478.783	86.06
479.002	111.06
479.22	110.06
479.439	94.06
479.658	88.06
479.876	92.06
480.095	78.06
480.313	84.06
480.532	94.06
480.751	73.06
480.969	64.06
481.188	78.06
481.406	80.06
481.624	75.06
481.843	96.06
482.061	84.06
482.28	84.06
482.498	83.06
482.717	80.06
482.935	86.06
483.153	83.06
483.372	103.06
483.59	93.06
483.808	81.06
484.027	87.06
484.245	91.06
484.463	98.06
484.681	94.06
484.9	86.06
485.118	93.06
485.336	96.06
485.554	73.06
485.772	69.06
485.99	84.06
486.209	78.06
486.427	91.06
486.645	92.06
486.863	88.06
487.081	87.06
487.299	108.06
487.517	89.06
487.735	106.06
487.953	105.06
488.171	109.06
488.389	103.06
488.607	85.06
488.825	89.06
489.043	105.06
489.261	95.06
489.479	84.06
489.696	81.06
489.914	89.06
490.132	99.06
490.35	114.06
490.568	100.06
490.786	102.06
491.003	109.06
491.221	109.06
491.439	110.06
491.657	105.06
491.874	108.06
492.092	108.06
492.31	127.06
492.527	124.06
492.745	118.06
492.963	114.06
493.18	111.06
493.398	104.06
493.615	106.06
493.833	101.06
494.05	101.06
494.268	109.06
494.485	105.06
494.703	87.06
494.92	104.06
495.138	120.06
495.355	120.06
495.573	97.06
495.79	105.06
496.008	120.06
496.225	104.06
496.442	103.06
496.66	113.06
496.877	108.06
497.094	103.06
497.312	101.06
497.529	94.06
497.746	97.06
497.963	98.06
498.181	84.06
498.398	72.06
498.615	89.06
498.832	90.06
499.049	97.06
499.267	88.06
499.484	80.06
499.701	85.06
499.918	90.06
500.135	99.06
500.352	102.06
500.569	102.06
500.786	94.06
501.003	99.06
501.22	86.06
501.437	105.06
501.654	89.06
501.871	100.06
502.088	86.06
502.305	95.06
502.522	97.06
502.739	93.06
502.956	97.06
503.172	77.06
503.389	89.06
503.606	83.06
503.823	92.06
504.04	93.06
504.256	92.06
504.473	93.06
504.69	85.06
504.907	87.06
505.123	93.06
505.34	80.06
505.557	81.06
505.773	80.06
505.99	81.06
506.207	85.06
506.423	91.06
506.64	86.06
506.856	88.06
507.073	90.06
507.289	98.06
507.506	96.06
507.722	98.06
507.939	95.06
508.155	89.06
508.372	81.06
508.588	88.06
508.805	97.06
509.021	94.06
509.238	84.06
509.454	80.06
509.67	94.06
509.887	85.06
510.103	85.06
510.319	68.06
510.536	95.06
510.752	92.06
510.968	87.06
511.184	71.06
511.401	81.06
511.617	94.06
511.833	82.06
512.049	94.06
512.265	85.06
512.481	83.06
512.698	95.06
512.914	83.06
513.13	88.06
513.346	78.06
513.562	76.06
513.778	82.06
513.994	83.06
514.21	84.06
514.426	102.06
514.642	72.06
514.858	91.06
515.074	91.06
515.29	95.06
515.506	95.06
515.721	83.06
515.937	73.06
516.153	80.06
516.369	58.06
516.585	88.06
516.801	73.06
517.016	80.06
517.232	73.06
517.448	79.06
517.664	88.06
517.879	89.06
518.095	85.06
518.311	69.06
518.527	89.06
518.742	80.06
518.958	88.06
519.173	91.06
519.389	90.06
519.605	86.06
519.82	98.06
520.036	80.06
520.251	75.06
520.467	105.06
520.682	81.06
520.898	90.06
521.113	81.06
521.329	76.06
521.544	88.06
521.76	88.06
521.975	110.06
522.19	78.06
522.406	94.06
522.621	65.06
522.836	81.06
523.052	96.06
523.267	87.06
523.482	78.06
523.698	77.06
523.913	97.06
524.128	90.06
524.343	101.06
524.559	94.06
524.774	96.06
524.989	88.06
525.204	97.06
525.419	102.06
525.634	92.06
525.849	92.06
526.064	96.06
526.28	90.06
526.495	88.06
526.71	93.06
526.925	62.06
527.14	84.06
527.355	74.06
527.57	93.06
527.785	88.06
527.999	80.06
528.214	83.06
528.429	83.06
528.644	98.06
528.859	100.06
529.074	99.06
529.289	89.06
529.503	81.06
529.718	88.06
529.933	86.06
530.148	89.06
530.363	73.06
530.577	67.06
530.792	60.06
531.007	78.06
531.221	102.06
531.436	83.06
531.651	88.06
531.865	89.06
532.08	86.06
532.295	82.06
532.509	81.06
532.724	78.06
532.938	81.06
533.153	78.06
533.367	88.06
533.582	88.06
533.796	113.06
534.011	89.06
534.225	90.06
534.44	83.06
534.654	85.06
534.868	88.06
535.083	80.06
535.297	89.06
535.511	78.06
535.726	92.06
535.94	81.06
536.154	84.06
536.369	80.06
536.583	79.06
536.797	78.06
537.011	89.06
537.225	83.06
537.44	90.06
537.654	78.06
537.868	72.06
538.082	83.06
538.296	88.06
538.51	88.06
538.724	100.06
538.938	95.06
539.153	91.06
539.367	94.06
539.581	104.06
539.795	86.06
540.009	87.06
540.222	86.06
540.436	84.06
540.65	90.06
540.864	88.06
541.078	87.06
541.292	96.06
541.506	110.06
541.72	95.06
541.934	106.06
542.147	99.06
542.361	97.06
542.575	108.06
542.789	117.06
543.002	86.06
543.216	96.06
543.43	101.06
543.644	105.06
543.857	103.06
544.071	109.06
544.285	104.06
544.498	99.06
544.712	112.06
544.925	101.06
545.139	113.06
545.352	118.06
545.566	89.06
545.779	101.06
545.993	100.06
546.206	105.06
546.42	101.06
546.633	97.06
546.847	100.06
547.06	114.06
547.274	110.06
547.487	110.06
547.7	102.06
547.914	99.06
548.127	101.06
548.34	115.06
548.554	102.06
548.767	100.06
548.98	101.06
549.193	81.06
549.407	116.06
549.62	97.06
549.833	104.06
550.046	111.06
550.259	90.06
550.473	102.06
550.686	112.06
550.899	102.06
551.112	108.06
551.325	103.06
551.538	90.06
551.751	88.06
551.964	93.06
552.177	101.06
552.39	95.06
552.603	95.06
552.816	103.06
553.029	96.06
553.242	113.06
553.455	99.06
553.667	117.06
553.88	112.06
554.093	100.06
554.306	93.06
554.519	110.06
554.732	105.06
554.944	93.06
555.157	97.06
555.37	101.06
555.583	95.06
555.795	103.06
556.008	109.06
556.221	87.06
556.433	70.06
556.646	99.06
556.859	92.06
557.071	103.06
557.284	90.06
557.496	91.06
557.709	86.06
557.921	98.06
558.134	101.06
558.346	98.06
558.559	96.06
558.771	92.06
558.984	96.06
559.196	103.06
559.409	100.06
559.621	91.06
559.833	94.06
560.046	80.06
560.258	104.06
560.47	95.06
560.683	96.06
560.895	91.06
561.107	90.06
561.32	97.06
561.532	106.06
561.744	101.06
561.956	96.06
562.168	102.06
562.381	98.06
562.593	86.06
562.805	80.06
563.017	101.06
563.229	94.06
563.441	89.06
563.653	101.06
563.865	92.06
564.077	91.06
564.289	87.06
564.501	101.06
564.713	94.06
564.925	93.06
565.137	97.06
565.349	96.06
565.561	93.06
565.773	102.06
565.985	102.06
566.197	90.06
566.408	101.06
566.62	85.06
566.832	95.06
567.044	95.06
567.255	85.06
567.467	85.06
567.679	86.06
567.891	96.06
568.102	71.06
568.314	94.06
568.526	81.06
568.737	88.06
568.949	89.06
569.161	80.06
569.372	81.06
569.584	77.06
569.795	82.06
570.007	88.06
570.218	87.06
570.43	85.06
570.641	98.06
570.853	90.06
571.064	85.06
571.276	88.06
571.487	92.06
571.698	85.06
571.91	83.06
572.121	79.06
572.333	97.06
572.544	77.06
572.755	82.06
572.966	83.06
573.178	91.06
573.389	77.06
573.6	81.06
573.811	92.06
574.023	80.06
574.234	96.06
574.445	87.06
574.656	88.06
574.867	87.06
575.078	86.06
575.289	71.06
575.501	83.06
575.712	80.06
575.923	81.06
576.134	100.06
576.345	84.06
576.556	74.06
576.767	90.06
576.978	86.06
577.188	83.06
577.399	99.06
577.61	87.06
577.821	92.06
578.032	86.06
578.243	84.06
578.454	86.06
578.665	81.06
578.875	80.06
579.086	83.06
579.297	69.06
579.508	73.06
579.718	79.06
579.929	91.06
580.14	93.06
580.35	78.06
580.561	90.06
580.772	87.06
580.982	80.06
581.193	85.06
581.403	76.06
581.614	77.06
581.825	78.06
582.035	75.06
582.246	76.06
582.456	85.06
582.667	89.06
582.877	88.06
583.087	79.06
583.298	92.06
583.508	84.06
583.719	90.06
583.929	88.06
584.139	84.06
584.35	84.06
584.56	90.06
584.77	82.06
584.981	75.06
585.191	81.06
585.401	82.06
585.611	85.06
585.821	90.06
586.032	85.06
586.242	81.06
586.452	77.06
586.662	82.06
586.872	81.06
587.082	64.06
587.292	80.06
587.502	87.06
587.713	72.06
587.923	66.06
588.133	70.06
588.343	93.06
588.553	84.06
588.762	89.06
588.972	90.06
589.182	87.06
589.392	85.06
589.602	78.06
589.812	96.06
590.022	89.06
590.232	79.06
590.441	82.06
590.651	84.06
590.861	86.06
591.071	84.06
591.281	73.06
591.49	69.06
591.7	84.06
591.91	102.06
592.119	82.06
592.329	71.06
592.539	101.06
592.748	81.06
592.958	77.06
593.167	88.06
593.377	78.06
593.587	88.06
593.796	91.06
594.006	82.06
594.215	80.06
594.424	79.06
594.634	69.06
594.843	83.06
595.053	76.06
595.262	91.06
595.472	83.06
595.681	93.06
595.89	89.06
596.1	89.06
596.309	87.06
596.518	83.06
596.727	95.06
596.937	78.06
597.146	95.06
597.355	99.06
597.564	94.06
597.774	98.06
597.983	87.06
598.192	82.06
598.401	92.06
598.61	93.06
598.819	87.06
599.028	92.06
599.237	81.06
599.446	83.06
599.655	85.06
599.864	87.06
600.073	78.06
600.282	82.06
600.491	64.06
600.7	79.06
600.909	82.06
601.118	80.06
601.327	87.06
601.536	95.06
601.745	95.06
601.953	92.06
602.162	76.06
602.371	84.06
602.58	82.06
602.789	92.06
602.997	100.06
603.206	90.06
603.415	89.06
603.623	69.06
603.832	84.06
604.041	101.06
604.249	92.06
604.458	88.06
604.666	72.06
604.875	76.06
605.084	94.06
605.292	87.06
605.501	99.06
605.709	90.06
605.918	82.06
606.126	94.06
606.334	86.06
606.543	85.06
606.751	94.06
606.96	86.06
607.168	86.06
607.376	85.06
607.585	87.06
607.793	79.06
608.001	97.06
608.21	97.06
608.418	87.06
608.626	84.06
608.834	95.06
609.043	82.06
609.251	88.06
609.459	94.06
609.667	93.06
609.875	94.06
610.083	90.06
610.291	94.06
610.499	85.06
610.707	96.06
610.916	91.06
611.124	86.06
611.332	86.06
611.54	88.06
611.748	70.06
611.955	92.06
612.163	76.06
612.371	68.06
612.579	97.06
612.787	97.06
612.995	97.06
613.203	97.06
613.411	97.06
613.618	92.06
613.826	85.06
614.034	86.06
614.242	74.06
614.449	88.06
614.657	90.06
614.865	77.06
615.072	90.06
615.28	79.06
615.488	101.06
615.695	84.06
615.903	97.06
616.111	93.06
616.318	86.06
616.526	88.06
616.733	96.06
616.941	70.06
617.148	85.06
617.356	86.06
617.563	80.06
617.771	104.06
617.978	94.06
618.185	95.06
618.393	105.06
618.6	88.06
618.807	77.06
619.015	92.06
619.222	97.06
619.429	86.06
619.637	91.06
619.844	82.06
620.051	85.06
620.258	103.06
620.466	97.06
620.673	90.06
620.88	80.06
621.087	87.06
621.294	108.06
621.501	81.06
621.708	85.06
621.915	98.06
622.122	97.06
622.329	79.06
622.536	92.06
622.743	89.06
622.95	95.06
623.157	93.06
623.364	85.06
623.571	105.06
623.778	84.06
623.985	87.06
624.192	94.06
624.399	90.06
624.606	89.06
624.812	101.06
625.019	87.06
625.226	88.06
625.433	95.06
625.639	90.06
625.846	90.06
626.053	81.06
626.259	83.06
626.466	84.06
626.673	71.06
626.879	80.06
627.086	78.06
627.293	88.06
627.499	81.06
627.706	87.06
627.912	81.06
628.119	89.06
628.325	96.06
628.532	70.06
628.738	100.06
628.945	65.06
629.151	80.06
629.357	85.06
629.564	79.06
629.77	93.06
629.976	73.06
630.183	94.06
630.389	86.06
630.595	90.06
630.802	87.06
631.008	78.06
631.214	93.06
631.42	96.06
631.627	83.06
631.833	74.06
632.039	98.06
632.245	82.06
632.451	95.06
632.657	86.06
632.863	84.06
633.069	81.06
633.275	85.06
633.481	81.06
633.688	74.06
633.893	89.06
634.099	94.06
634.305	82.06
634.511	97.06
634.717	80.06
634.923	79.06
635.129	100.06
635.335	84.06
635.541	80.06
635.747	79.06
635.952	88.06
636.158	81.06
636.364	96.06
636.57	88.06
636.775	77.06
636.981	82.06
637.187	93.06
637.392	74.06
637.598	84.06
637.804	89.06
638.009	99.06
638.215	91.06
638.421	100.06
638.626	85.06
638.832	92.06
639.037	96.06
639.243	88.06
639.448	92.06
639.654	97.06
639.859	84.06
640.065	96.06
640.27	88.06
640.475	86.06
640.681	89.06
640.886	83.06
641.091	81.06
641.297	78.06
641.502	86.06
641.707	85.06
641.913	86.06
642.118	102.06
642.323	80.06
642.528	86.06
642.733	79.06
642.939	82.06
643.144	97.06
643.349	78.06
643.554	80.06
643.759	95.06
643.964	84.06
644.169	88.06
644.374	90.06
644.579	97.06
644.784	92.06
644.989	83.06
645.194	68.06
645.399	83.06
645.604	83.06
645.809	77.06
646.014	80.06
646.219	76.06
646.423	86.06
646.628	88.06
646.833	79.06
647.038	96.06
647.243	100.06
647.447	84.06
647.652	78.06
647.857	76.06
648.062	91.06
648.266	71.06
648.471	92.06
648.676	90.06
648.88	81.06
649.085	84.06
649.289	73.06
649.494	79.06
649.698	77.06
649.903	84.06
650.107	79.06
650.312	93.06
650.516	98.06
650.721	78.06
650.925	80.06
651.13	86.06
651.334	95.06
651.539	86.06
651.743	82.06
651.947	81.06
652.152	93.06
652.356	90.06
652.56	84.06
652.764	88.06
652.969	86.06
653.173	87.06
653.377	93.06
653.581	78.06
653.785	85.06
653.99	90.06
654.194	85.06
654.398	80.06
654.602	83.06
654.806	85.06
655.01	83.06
655.214	87.06
655.418	97.06
655.622	81.06
655.826	73.06
656.03	87.06
656.234	82.06
656.438	89.06
656.642	94.06
656.846	78.06
657.049	76.06
657.253	82.06
657.457	69.06
657.661	79.06
657.865	80.06
658.068	86.06
658.272	78.06
658.476	86.06
658.68	79.06
658.883	65.06
659.087	77.06
659.291	86.06
659.494	86.06
659.698	85.06
659.901	76.06
660.105	79.06
660.309	73.06
660.512	81.06
660.716	79.06
660.919	80.06
661.123	86.06
661.326	89.06
661.53	76.06
661.733	70.06
661.936	89.06
662.14	79.06
662.343	81.06
662.546	83.06
662.75	81.06
662.953	85.06
663.156	73.06
663.36	77.06
663.563	76.06
663.766	88.06
663.969	69.06
664.173	74.06
664.376	88.06
664.579	90.06
664.782	92.06
664.985	63.06
665.188	70.06
665.391	68.06
665.594	81.06
665.797	67.06
666	76.06
666.203	67.06
666.406	80.06
666.609	91.06
666.812	83.06
667.015	84.06
667.218	75.06
667.421	83.06
667.624	84.06
667.827	70.06
668.03	76.06
668.232	82.06
668.435	73.06
668.638	80.06
668.841	90.06
669.043	78.06
669.246	81.06
669.449	66.06
669.651	80.06
669.854	77.06
670.057	90.06
670.259	80.06
670.462	92.06
670.665	72.06
670.867	82.06
671.07	66.06
671.272	93.06
671.475	80.06
671.677	82.06
671.88	84.06
672.082	73.06
672.284	68.06
672.487	81.06
672.689	71.06
672.892	79.06
