Data from Location5.07152019.Energy5.Lamp.07192019.3%Agarose_HRD10591_15-38-41-388.txt Node
Date: Fri Jul 19 15:38:41 EDT 2019
User: cochatt
Spectrometer: HR+D1059
Trigger mode: 1
Integration Time (sec): 1.000000E-1
Scans to average: 1
Electric dark correction enabled: true
Nonlinearity correction enabled: false
Boxcar width: 0
XAxis mode: Wavelengths
Number of Pixels in Spectrum: 2048
>>>>>Begin Spectral Data<<<<<
223.165	-6.94
223.4	-6.94
223.635	-6.94
223.869	-25.94
224.104	-24.94
224.338	-4.94
224.573	-21.94
224.808	-22.94
225.042	-15.94
225.277	2.06
225.511	0.06
225.746	9.06
225.98	9.06
226.215	17.06
226.449	7.06
226.683	19.06
226.918	29.06
227.152	31.06
227.387	40.06
227.621	27.06
227.856	33.06
228.09	42.06
228.324	50.06
228.559	53.06
228.793	54.06
229.027	79.06
229.262	62.06
229.496	73.06
229.73	72.06
229.964	67.06
230.199	73.06
230.433	71.06
230.667	80.06
230.901	81.06
231.136	76.06
231.37	82.06
231.604	62.06
231.838	76.06
232.072	89.06
232.306	88.06
232.541	71.06
232.775	93.06
233.009	82.06
233.243	94.06
233.477	90.06
233.711	93.06
233.945	75.06
234.179	76.06
234.413	71.06
234.647	73.06
234.881	82.06
235.115	86.06
235.349	79.06
235.583	71.06
235.817	59.06
236.051	70.06
236.285	88.06
236.519	93.06
236.753	81.06
236.987	78.06
237.221	84.06
237.455	84.06
237.689	75.06
237.922	71.06
238.156	79.06
238.39	78.06
238.624	57.06
238.858	70.06
239.091	72.06
239.325	83.06
239.559	80.06
239.793	82.06
240.027	87.06
240.26	73.06
240.494	75.06
240.728	73.06
240.961	69.06
241.195	80.06
241.429	83.06
241.662	61.06
241.896	58.06
242.13	93.06
242.363	73.06
242.597	65.06
242.83	65.06
243.064	80.06
243.298	88.06
243.531	70.06
243.765	89.06
243.998	81.06
244.232	75.06
244.465	81.06
244.699	74.06
244.932	65.06
245.166	75.06
245.399	81.06
245.633	82.06
245.866	87.06
246.099	79.06
246.333	80.06
246.566	81.06
246.8	74.06
247.033	63.06
247.266	86.06
247.5	89.06
247.733	70.06
247.966	60.06
248.2	75.06
248.433	82.06
248.666	70.06
248.899	77.06
249.133	71.06
249.366	75.06
249.599	92.06
249.832	67.06
250.066	73.06
250.299	84.06
250.532	75.06
250.765	69.06
250.998	83.06
251.231	72.06
251.465	82.06
251.698	87.06
251.931	79.06
252.164	84.06
252.397	71.06
252.63	65.06
252.863	83.06
253.096	83.06
253.329	73.06
253.562	79.06
253.795	78.06
254.028	85.06
254.261	85.06
254.494	83.06
254.727	82.06
254.96	85.06
255.193	77.06
255.426	75.06
255.659	77.06
255.892	85.06
256.124	75.06
256.357	90.06
256.59	89.06
256.823	82.06
257.056	69.06
257.289	84.06
257.521	90.06
257.754	81.06
257.987	80.06
258.22	73.06
258.452	56.06
258.685	72.06
258.918	83.06
259.151	79.06
259.383	71.06
259.616	71.06
259.849	74.06
260.081	82.06
260.314	81.06
260.547	82.06
260.779	89.06
261.012	86.06
261.244	91.06
261.477	92.06
261.71	77.06
261.942	74.06
262.175	84.06
262.407	81.06
262.64	71.06
262.872	78.06
263.105	70.06
263.337	74.06
263.57	71.06
263.802	83.06
264.035	94.06
264.267	74.06
264.499	81.06
264.732	79.06
264.964	72.06
265.197	78.06
265.429	86.06
265.661	88.06
265.894	84.06
266.126	82.06
266.358	75.06
266.591	81.06
266.823	81.06
267.055	80.06
267.287	87.06
267.52	75.06
267.752	77.06
267.984	81.06
268.216	85.06
268.448	83.06
268.681	76.06
268.913	77.06
269.145	93.06
269.377	79.06
269.609	79.06
269.841	84.06
270.073	76.06
270.306	88.06
270.538	85.06
270.77	83.06
271.002	95.06
271.234	81.06
271.466	85.06
271.698	75.06
271.93	92.06
272.162	72.06
272.394	97.06
272.626	86.06
272.858	85.06
273.09	75.06
273.322	81.06
273.553	73.06
273.785	70.06
274.017	77.06
274.249	85.06
274.481	82.06
274.713	78.06
274.945	94.06
275.176	91.06
275.408	73.06
275.64	92.06
275.872	88.06
276.104	76.06
276.335	89.06
276.567	89.06
276.799	78.06
277.031	86.06
277.262	78.06
277.494	83.06
277.726	75.06
277.957	77.06
278.189	81.06
278.421	88.06
278.652	96.06
278.884	81.06
279.115	70.06
279.347	75.06
279.579	77.06
279.81	82.06
280.042	76.06
280.273	91.06
280.505	86.06
280.736	90.06
280.968	100.06
281.199	89.06
281.431	82.06
281.662	97.06
281.894	72.06
282.125	66.06
282.356	77.06
282.588	78.06
282.819	83.06
283.051	82.06
283.282	84.06
283.513	84.06
283.745	103.06
283.976	82.06
284.207	95.06
284.439	75.06
284.67	81.06
284.901	98.06
285.132	83.06
285.364	87.06
285.595	91.06
285.826	72.06
286.057	81.06
286.288	78.06
286.52	85.06
286.751	89.06
286.982	87.06
287.213	74.06
287.444	72.06
287.675	92.06
287.906	91.06
288.138	88.06
288.369	77.06
288.6	69.06
288.831	91.06
289.062	105.06
289.293	92.06
289.524	77.06
289.755	68.06
289.986	72.06
290.217	90.06
290.448	92.06
290.679	88.06
290.91	81.06
291.141	86.06
291.371	89.06
291.602	98.06
291.833	92.06
292.064	81.06
292.295	86.06
292.526	86.06
292.757	97.06
292.987	81.06
293.218	79.06
293.449	95.06
293.68	76.06
293.91	81.06
294.141	80.06
294.372	85.06
294.603	82.06
294.833	83.06
295.064	77.06
295.295	69.06
295.525	87.06
295.756	80.06
295.987	78.06
296.217	81.06
296.448	74.06
296.679	78.06
296.909	85.06
297.14	88.06
297.37	79.06
297.601	89.06
297.831	77.06
298.062	83.06
298.292	99.06
298.523	82.06
298.753	74.06
298.984	97.06
299.214	74.06
299.445	98.06
299.675	87.06
299.905	75.06
300.136	87.06
300.366	87.06
300.597	83.06
300.827	84.06
301.057	74.06
301.288	83.06
301.518	74.06
301.748	80.06
301.979	94.06
302.209	89.06
302.439	68.06
302.669	79.06
302.9	87.06
303.13	88.06
303.36	85.06
303.59	86.06
303.82	92.06
304.051	79.06
304.281	88.06
304.511	83.06
304.741	84.06
304.971	79.06
305.201	72.06
305.431	97.06
305.661	76.06
305.891	84.06
306.121	81.06
306.352	90.06
306.582	78.06
306.812	82.06
307.042	98.06
307.272	86.06
307.502	91.06
307.731	89.06
307.961	82.06
308.191	94.06
308.421	92.06
308.651	74.06
308.881	77.06
309.111	84.06
309.341	82.06
309.571	82.06
309.8	78.06
310.03	83.06
310.26	95.06
310.49	80.06
310.72	72.06
310.949	90.06
311.179	57.06
311.409	80.06
311.639	76.06
311.868	88.06
312.098	85.06
312.328	84.06
312.557	74.06
312.787	79.06
313.017	98.06
313.246	85.06
313.476	72.06
313.706	86.06
313.935	98.06
314.165	87.06
314.394	85.06
314.624	85.06
314.853	83.06
315.083	79.06
315.312	73.06
315.542	86.06
315.771	83.06
316.001	77.06
316.23	98.06
316.46	81.06
316.689	80.06
316.919	93.06
317.148	94.06
317.377	85.06
317.607	85.06
317.836	77.06
318.065	98.06
318.295	74.06
318.524	84.06
318.753	82.06
318.983	83.06
319.212	83.06
319.441	85.06
319.67	85.06
319.9	85.06
320.129	88.06
320.358	83.06
320.587	71.06
320.816	80.06
321.046	82.06
321.275	84.06
321.504	88.06
321.733	78.06
321.962	85.06
322.191	73.06
322.42	78.06
322.649	82.06
322.878	104.06
323.108	73.06
323.337	77.06
323.566	66.06
323.795	98.06
324.024	89.06
324.253	83.06
324.482	93.06
324.71	90.06
324.939	67.06
325.168	84.06
325.397	94.06
325.626	89.06
325.855	85.06
326.084	85.06
326.313	76.06
326.542	83.06
326.77	84.06
326.999	75.06
327.228	105.06
327.457	74.06
327.686	92.06
327.914	88.06
328.143	86.06
328.372	88.06
328.6	85.06
328.829	98.06
329.058	81.06
329.287	76.06
329.515	78.06
329.744	86.06
329.972	77.06
330.201	95.06
330.43	82.06
330.658	77.06
330.887	72.06
331.115	78.06
331.344	81.06
331.572	87.06
331.801	86.06
332.03	89.06
332.258	69.06
332.486	87.06
332.715	73.06
332.943	84.06
333.172	85.06
333.4	75.06
333.629	100.06
333.857	87.06
334.085	80.06
334.314	82.06
334.542	73.06
334.771	84.06
334.999	75.06
335.227	80.06
335.455	78.06
335.684	82.06
335.912	81.06
336.14	63.06
336.369	85.06
336.597	80.06
336.825	83.06
337.053	94.06
337.281	83.06
337.51	86.06
337.738	74.06
337.966	90.06
338.194	84.06
338.422	85.06
338.65	86.06
338.878	79.06
339.106	82.06
339.334	89.06
339.562	95.06
339.79	87.06
340.018	83.06
340.246	79.06
340.474	82.06
340.702	85.06
340.93	72.06
341.158	84.06
341.386	77.06
341.614	69.06
341.842	93.06
342.07	76.06
342.298	84.06
342.526	77.06
342.754	83.06
342.981	90.06
343.209	85.06
343.437	86.06
343.665	76.06
343.893	79.06
344.12	73.06
344.348	82.06
344.576	73.06
344.804	85.06
345.031	71.06
345.259	81.06
345.487	72.06
345.714	89.06
345.942	88.06
346.17	82.06
346.397	77.06
346.625	73.06
346.853	75.06
347.08	75.06
347.308	94.06
347.535	79.06
347.763	85.06
347.99	93.06
348.218	94.06
348.445	81.06
348.673	78.06
348.9	87.06
349.128	83.06
349.355	83.06
349.583	79.06
349.81	89.06
350.037	86.06
350.265	77.06
350.492	94.06
350.72	81.06
350.947	82.06
351.174	82.06
351.402	73.06
351.629	74.06
351.856	73.06
352.083	85.06
352.311	96.06
352.538	78.06
352.765	102.06
352.992	86.06
353.22	71.06
353.447	100.06
353.674	89.06
353.901	81.06
354.128	90.06
354.355	75.06
354.583	74.06
354.81	74.06
355.037	83.06
355.264	88.06
355.491	83.06
355.718	93.06
355.945	98.06
356.172	89.06
356.399	87.06
356.626	80.06
356.853	76.06
357.08	66.06
357.307	80.06
357.534	81.06
357.761	104.06
357.988	93.06
358.215	93.06
358.441	79.06
358.668	76.06
358.895	74.06
359.122	79.06
359.349	84.06
359.576	73.06
359.802	89.06
360.029	84.06
360.256	88.06
360.483	77.06
360.709	73.06
360.936	97.06
361.163	83.06
361.39	80.06
361.616	92.06
361.843	88.06
362.07	94.06
362.296	83.06
362.523	83.06
362.749	76.06
362.976	69.06
363.203	88.06
363.429	73.06
363.656	80.06
363.882	75.06
364.109	94.06
364.335	90.06
364.562	76.06
364.788	80.06
365.015	78.06
365.241	85.06
365.468	89.06
365.694	87.06
365.92	86.06
366.147	85.06
366.373	80.06
366.599	91.06
366.826	86.06
367.052	90.06
367.278	93.06
367.505	86.06
367.731	66.06
367.957	63.06
368.184	67.06
368.41	86.06
368.636	78.06
368.862	83.06
369.089	90.06
369.315	96.06
369.541	76.06
369.767	79.06
369.993	75.06
370.219	86.06
370.445	84.06
370.672	87.06
370.898	71.06
371.124	107.06
371.35	87.06
371.576	73.06
371.802	69.06
372.028	73.06
372.254	84.06
372.48	79.06
372.706	88.06
372.932	92.06
373.158	93.06
373.384	97.06
373.61	93.06
373.835	87.06
374.061	92.06
374.287	78.06
374.513	74.06
374.739	65.06
374.965	75.06
375.191	92.06
375.416	91.06
375.642	89.06
375.868	92.06
376.094	79.06
376.319	93.06
376.545	73.06
376.771	70.06
376.997	81.06
377.222	88.06
377.448	91.06
377.674	100.06
377.899	68.06
378.125	83.06
378.35	78.06
378.576	91.06
378.802	95.06
379.027	78.06
379.253	83.06
379.478	78.06
379.704	77.06
379.929	94.06
380.155	96.06
380.38	86.06
380.606	82.06
380.831	70.06
381.057	89.06
381.282	91.06
381.507	87.06
381.733	71.06
381.958	82.06
382.184	80.06
382.409	80.06
382.634	84.06
382.86	76.06
383.085	80.06
383.31	83.06
383.535	87.06
383.761	91.06
383.986	87.06
384.211	93.06
384.436	77.06
384.662	77.06
384.887	72.06
385.112	91.06
385.337	83.06
385.562	80.06
385.787	70.06
386.013	80.06
386.238	85.06
386.463	84.06
386.688	86.06
386.913	78.06
387.138	96.06
387.363	93.06
387.588	82.06
387.813	77.06
388.038	87.06
388.263	79.06
388.488	90.06
388.713	91.06
388.938	86.06
389.163	95.06
389.387	76.06
389.612	86.06
389.837	77.06
390.062	97.06
390.287	85.06
390.512	81.06
390.736	100.06
390.961	71.06
391.186	81.06
391.411	89.06
391.636	87.06
391.86	82.06
392.085	78.06
392.31	75.06
392.534	86.06
392.759	93.06
392.984	90.06
393.208	82.06
393.433	86.06
393.658	89.06
393.882	90.06
394.107	78.06
394.331	96.06
394.556	80.06
394.78	95.06
395.005	104.06
395.229	83.06
395.454	93.06
395.678	82.06
395.903	67.06
396.127	94.06
396.352	74.06
396.576	79.06
396.801	73.06
397.025	85.06
397.249	89.06
397.474	92.06
397.698	79.06
397.922	86.06
398.147	85.06
398.371	87.06
398.595	79.06
398.82	79.06
399.044	92.06
399.268	84.06
399.492	79.06
399.717	91.06
399.941	98.06
400.165	83.06
400.389	85.06
400.613	80.06
400.837	83.06
401.062	74.06
401.286	86.06
401.51	81.06
401.734	84.06
401.958	91.06
402.182	79.06
402.406	92.06
402.63	81.06
402.854	102.06
403.078	83.06
403.302	91.06
403.526	88.06
403.75	97.06
403.974	85.06
404.198	90.06
404.422	92.06
404.645	91.06
404.869	75.06
405.093	100.06
405.317	83.06
405.541	89.06
405.765	76.06
405.988	80.06
406.212	89.06
406.436	79.06
406.66	95.06
406.883	100.06
407.107	79.06
407.331	78.06
407.555	82.06
407.778	93.06
408.002	86.06
408.226	100.06
408.449	91.06
408.673	83.06
408.896	92.06
409.12	87.06
409.344	87.06
409.567	82.06
409.791	90.06
410.014	97.06
410.238	86.06
410.461	85.06
410.685	80.06
410.908	82.06
411.132	90.06
411.355	77.06
411.578	80.06
411.802	93.06
412.025	77.06
412.249	77.06
412.472	87.06
412.695	83.06
412.919	103.06
413.142	95.06
413.365	81.06
413.589	90.06
413.812	78.06
414.035	101.06
414.258	93.06
414.482	90.06
414.705	96.06
414.928	75.06
415.151	87.06
415.374	92.06
415.597	98.06
415.821	94.06
416.044	93.06
416.267	88.06
416.49	75.06
416.713	91.06
416.936	74.06
417.159	94.06
417.382	103.06
417.605	101.06
417.828	90.06
418.051	98.06
418.274	92.06
418.497	75.06
418.72	95.06
418.943	91.06
419.166	87.06
419.389	94.06
419.611	94.06
419.834	104.06
420.057	91.06
420.28	90.06
420.503	82.06
420.726	107.06
420.948	89.06
421.171	102.06
421.394	91.06
421.617	80.06
421.839	90.06
422.062	96.06
422.285	101.06
422.507	101.06
422.73	95.06
422.953	74.06
423.175	85.06
423.398	97.06
423.621	107.06
423.843	90.06
424.066	70.06
424.288	92.06
424.511	88.06
424.733	101.06
424.956	88.06
425.178	90.06
425.401	94.06
425.623	90.06
425.846	101.06
426.068	85.06
426.291	86.06
426.513	97.06
426.735	103.06
426.958	72.06
427.18	94.06
427.402	98.06
427.625	98.06
427.847	78.06
428.069	87.06
428.292	83.06
428.514	85.06
428.736	101.06
428.958	97.06
429.181	81.06
429.403	86.06
429.625	95.06
429.847	83.06
430.069	91.06
430.292	99.06
430.514	95.06
430.736	81.06
430.958	97.06
431.18	72.06
431.402	94.06
431.624	93.06
431.846	81.06
432.068	71.06
432.29	81.06
432.512	79.06
432.734	88.06
432.956	106.06
433.178	95.06
433.4	101.06
433.622	82.06
433.844	87.06
434.066	93.06
434.287	85.06
434.509	83.06
434.731	90.06
434.953	76.06
435.175	84.06
435.397	96.06
435.618	80.06
435.84	83.06
436.062	87.06
436.284	93.06
436.505	96.06
436.727	97.06
436.949	101.06
437.17	94.06
437.392	97.06
437.614	85.06
437.835	101.06
438.057	81.06
438.278	67.06
438.5	88.06
438.721	78.06
438.943	86.06
439.165	93.06
439.386	83.06
439.608	90.06
439.829	97.06
440.05	109.06
440.272	105.06
440.493	113.06
440.715	90.06
440.936	99.06
441.158	99.06
441.379	102.06
441.6	91.06
441.822	90.06
442.043	86.06
442.264	96.06
442.486	85.06
442.707	98.06
442.928	94.06
443.149	84.06
443.371	93.06
443.592	106.06
443.813	102.06
444.034	74.06
444.255	92.06
444.476	102.06
444.698	89.06
444.919	90.06
445.14	206.06
445.361	153.06
445.582	104.06
445.803	82.06
446.024	91.06
446.245	94.06
446.466	96.06
446.687	91.06
446.908	99.06
447.129	103.06
447.35	95.06
447.571	107.06
447.792	98.06
448.013	98.06
448.234	118.06
448.455	101.06
448.675	98.06
448.896	88.06
449.117	79.06
449.338	86.06
449.559	95.06
449.779	86.06
450	102.06
450.221	88.06
450.442	104.06
450.662	103.06
450.883	89.06
451.104	77.06
451.324	97.06
451.545	86.06
451.766	87.06
451.986	105.06
452.207	82.06
452.428	94.06
452.648	91.06
452.869	92.06
453.089	83.06
453.31	87.06
453.53	66.06
453.751	87.06
453.971	89.06
454.192	82.06
454.412	94.06
454.633	91.06
454.853	88.06
455.073	78.06
455.294	96.06
455.514	94.06
455.734	73.06
455.955	87.06
456.175	85.06
456.395	81.06
456.616	82.06
456.836	101.06
457.056	107.06
457.276	87.06
457.497	87.06
457.717	86.06
457.937	74.06
458.157	83.06
458.377	81.06
458.598	72.06
458.818	78.06
459.038	89.06
459.258	84.06
459.478	86.06
459.698	78.06
459.918	83.06
460.138	88.06
460.358	84.06
460.578	95.06
460.798	96.06
461.018	90.06
461.238	86.06
461.458	88.06
461.678	78.06
461.898	85.06
462.118	96.06
462.338	77.06
462.558	90.06
462.777	88.06
462.997	86.06
463.217	87.06
463.437	80.06
463.657	96.06
463.876	87.06
464.096	92.06
464.316	70.06
464.536	75.06
464.755	82.06
464.975	95.06
465.195	103.06
465.414	106.06
465.634	86.06
465.854	96.06
466.073	94.06
466.293	97.06
466.512	83.06
466.732	99.06
466.951	85.06
467.171	78.06
467.391	93.06
467.61	86.06
467.829	92.06
468.049	93.06
468.268	93.06
468.488	95.06
468.707	85.06
468.927	92.06
469.146	81.06
469.365	86.06
469.585	95.06
469.804	90.06
470.023	90.06
470.243	79.06
470.462	81.06
470.681	98.06
470.901	101.06
471.12	91.06
471.339	105.06
471.558	101.06
471.777	90.06
471.997	96.06
472.216	93.06
472.435	90.06
472.654	80.06
472.873	70.06
473.092	93.06
473.311	84.06
473.53	82.06
473.749	100.06
473.968	91.06
474.187	79.06
474.406	86.06
474.625	76.06
474.844	79.06
475.063	99.06
475.282	104.06
475.501	90.06
475.72	94.06
475.939	81.06
476.158	85.06
476.377	92.06
476.596	91.06
476.814	101.06
477.033	89.06
477.252	104.06
477.471	96.06
477.69	94.06
477.908	84.06
478.127	96.06
478.346	90.06
478.564	97.06
478.783	92.06
479.002	86.06
479.22	94.06
479.439	78.06
479.658	104.06
479.876	96.06
480.095	89.06
480.313	91.06
480.532	94.06
480.751	96.06
480.969	104.06
481.188	79.06
481.406	80.06
481.624	74.06
481.843	86.06
482.061	96.06
482.28	95.06
482.498	86.06
482.717	98.06
482.935	84.06
483.153	91.06
483.372	97.06
483.59	93.06
483.808	83.06
484.027	95.06
484.245	81.06
484.463	96.06
484.681	108.06
484.9	90.06
485.118	87.06
485.336	90.06
485.554	70.06
485.772	73.06
485.99	82.06
486.209	90.06
486.427	85.06
486.645	83.06
486.863	93.06
487.081	90.06
487.299	105.06
487.517	99.06
487.735	108.06
487.953	111.06
488.171	109.06
488.389	112.06
488.607	94.06
488.825	85.06
489.043	89.06
489.261	92.06
489.479	98.06
489.696	96.06
489.914	110.06
490.132	79.06
490.35	90.06
490.568	110.06
490.786	113.06
491.003	125.06
491.221	103.06
491.439	109.06
491.657	104.06
491.874	113.06
492.092	106.06
492.31	121.06
492.527	106.06
492.745	122.06
492.963	104.06
493.18	99.06
493.398	101.06
493.615	109.06
493.833	109.06
494.05	120.06
494.268	113.06
494.485	121.06
494.703	110.06
494.92	92.06
495.138	101.06
495.355	96.06
495.573	98.06
495.79	107.06
496.008	101.06
496.225	86.06
496.442	104.06
496.66	97.06
496.877	94.06
497.094	104.06
497.312	98.06
497.529	105.06
497.746	96.06
497.963	105.06
498.181	90.06
498.398	106.06
498.615	109.06
498.832	86.06
499.049	99.06
499.267	78.06
499.484	93.06
499.701	96.06
499.918	93.06
500.135	83.06
500.352	99.06
500.569	99.06
500.786	93.06
501.003	98.06
501.22	97.06
501.437	97.06
501.654	88.06
501.871	94.06
502.088	92.06
502.305	97.06
502.522	90.06
502.739	94.06
502.956	99.06
503.172	100.06
503.389	89.06
503.606	86.06
503.823	77.06
504.04	82.06
504.256	92.06
504.473	77.06
504.69	88.06
504.907	96.06
505.123	81.06
505.34	88.06
505.557	95.06
505.773	88.06
505.99	93.06
506.207	89.06
506.423	106.06
506.64	111.06
506.856	94.06
507.073	95.06
507.289	99.06
507.506	81.06
507.722	95.06
507.939	93.06
508.155	86.06
508.372	89.06
508.588	94.06
508.805	65.06
509.021	81.06
509.238	82.06
509.454	83.06
509.67	99.06
509.887	80.06
510.103	74.06
510.319	85.06
510.536	100.06
510.752	81.06
510.968	95.06
511.184	79.06
511.401	79.06
511.617	78.06
511.833	70.06
512.049	89.06
512.265	84.06
512.481	85.06
512.698	83.06
512.914	96.06
513.13	88.06
513.346	96.06
513.562	91.06
513.778	85.06
513.994	72.06
514.21	70.06
514.426	86.06
514.642	93.06
514.858	79.06
515.074	75.06
515.29	83.06
515.506	82.06
515.721	76.06
515.937	94.06
516.153	72.06
516.369	85.06
516.585	78.06
516.801	89.06
517.016	85.06
517.232	83.06
517.448	93.06
517.664	83.06
517.879	79.06
518.095	82.06
518.311	86.06
518.527	106.06
518.742	84.06
518.958	81.06
519.173	89.06
519.389	83.06
519.605	88.06
519.82	81.06
520.036	75.06
520.251	81.06
520.467	90.06
520.682	81.06
520.898	89.06
521.113	77.06
521.329	83.06
521.544	82.06
521.76	79.06
521.975	97.06
522.19	95.06
522.406	88.06
522.621	77.06
522.836	87.06
523.052	78.06
523.267	106.06
523.482	85.06
523.698	93.06
523.913	108.06
524.128	81.06
524.343	88.06
524.559	89.06
524.774	86.06
524.989	99.06
525.204	89.06
525.419	70.06
525.634	96.06
525.849	87.06
526.064	99.06
526.28	100.06
526.495	94.06
526.71	80.06
526.925	94.06
527.14	78.06
527.355	79.06
527.57	81.06
527.785	89.06
527.999	86.06
528.214	83.06
528.429	90.06
528.644	90.06
528.859	94.06
529.074	97.06
529.289	98.06
529.503	98.06
529.718	105.06
529.933	86.06
530.148	87.06
530.363	87.06
530.577	88.06
530.792	87.06
531.007	78.06
531.221	83.06
531.436	82.06
531.651	82.06
531.865	83.06
532.08	82.06
532.295	79.06
532.509	86.06
532.724	79.06
532.938	77.06
533.153	83.06
533.367	101.06
533.582	102.06
533.796	94.06
534.011	90.06
534.225	84.06
534.44	75.06
534.654	91.06
534.868	80.06
535.083	86.06
535.297	94.06
535.511	86.06
535.726	89.06
535.94	86.06
536.154	81.06
536.369	84.06
536.583	81.06
536.797	96.06
537.011	78.06
537.225	78.06
537.44	99.06
537.654	80.06
537.868	78.06
538.082	85.06
538.296	85.06
538.51	89.06
538.724	84.06
538.938	81.06
539.153	89.06
539.367	90.06
539.581	77.06
539.795	85.06
540.009	78.06
540.222	94.06
540.436	85.06
540.65	92.06
540.864	86.06
541.078	99.06
541.292	103.06
541.506	121.06
541.72	98.06
541.934	125.06
542.147	109.06
542.361	111.06
542.575	115.06
542.789	102.06
543.002	95.06
543.216	90.06
543.43	91.06
543.644	94.06
543.857	119.06
544.071	98.06
544.285	101.06
544.498	114.06
544.712	101.06
544.925	100.06
545.139	112.06
545.352	94.06
545.566	123.06
545.779	95.06
545.993	109.06
546.206	111.06
546.42	103.06
546.633	109.06
546.847	101.06
547.06	111.06
547.274	117.06
547.487	98.06
547.7	93.06
547.914	115.06
548.127	95.06
548.34	105.06
548.554	99.06
548.767	107.06
548.98	118.06
549.193	104.06
549.407	98.06
549.62	89.06
549.833	92.06
550.046	105.06
550.259	112.06
550.473	114.06
550.686	105.06
550.899	111.06
551.112	95.06
551.325	96.06
551.538	109.06
551.751	108.06
551.964	100.06
552.177	100.06
552.39	103.06
552.603	96.06
552.816	99.06
553.029	113.06
553.242	126.06
553.455	100.06
553.667	98.06
553.88	115.06
554.093	106.06
554.306	113.06
554.519	100.06
554.732	104.06
554.944	96.06
555.157	107.06
555.37	101.06
555.583	92.06
555.795	95.06
556.008	91.06
556.221	89.06
556.433	107.06
556.646	93.06
556.859	87.06
557.071	103.06
557.284	90.06
557.496	106.06
557.709	103.06
557.921	102.06
558.134	99.06
558.346	94.06
558.559	98.06
558.771	96.06
558.984	99.06
559.196	84.06
559.409	96.06
559.621	96.06
559.833	87.06
560.046	98.06
560.258	103.06
560.47	84.06
560.683	89.06
560.895	81.06
561.107	94.06
561.32	95.06
561.532	94.06
561.744	90.06
561.956	97.06
562.168	92.06
562.381	88.06
562.593	97.06
562.805	89.06
563.017	95.06
563.229	87.06
563.441	90.06
563.653	98.06
563.865	92.06
564.077	89.06
564.289	96.06
564.501	93.06
564.713	93.06
564.925	88.06
565.137	99.06
565.349	100.06
565.561	103.06
565.773	102.06
565.985	90.06
566.197	81.06
566.408	74.06
566.62	90.06
566.832	82.06
567.044	84.06
567.255	93.06
567.467	95.06
567.679	94.06
567.891	73.06
568.102	79.06
568.314	84.06
568.526	91.06
568.737	67.06
568.949	88.06
569.161	78.06
569.372	73.06
569.584	75.06
569.795	95.06
570.007	81.06
570.218	82.06
570.43	82.06
570.641	91.06
570.853	91.06
571.064	79.06
571.276	91.06
571.487	78.06
571.698	85.06
571.91	97.06
572.121	97.06
572.333	85.06
572.544	91.06
572.755	89.06
572.966	76.06
573.178	78.06
573.389	93.06
573.6	78.06
573.811	93.06
574.023	81.06
574.234	74.06
574.445	87.06
574.656	72.06
574.867	87.06
575.078	77.06
575.289	74.06
575.501	82.06
575.712	71.06
575.923	93.06
576.134	99.06
576.345	74.06
576.556	79.06
576.767	75.06
576.978	94.06
577.188	85.06
577.399	75.06
577.61	90.06
577.821	93.06
578.032	79.06
578.243	88.06
578.454	83.06
578.665	78.06
578.875	89.06
579.086	89.06
579.297	83.06
579.508	87.06
579.718	81.06
579.929	74.06
580.14	88.06
580.35	83.06
580.561	83.06
580.772	96.06
580.982	90.06
581.193	92.06
581.403	84.06
581.614	90.06
581.825	95.06
582.035	93.06
582.246	79.06
582.456	83.06
582.667	86.06
582.877	86.06
583.087	69.06
583.298	88.06
583.508	84.06
583.719	89.06
583.929	91.06
584.139	78.06
584.35	82.06
584.56	85.06
584.77	75.06
584.981	75.06
585.191	81.06
585.401	75.06
585.611	83.06
585.821	82.06
586.032	74.06
586.242	75.06
586.452	91.06
586.662	86.06
586.872	85.06
587.082	79.06
587.292	81.06
587.502	72.06
587.713	74.06
587.923	82.06
588.133	82.06
588.343	81.06
588.553	72.06
588.762	93.06
588.972	87.06
589.182	94.06
589.392	78.06
589.602	82.06
589.812	89.06
590.022	84.06
590.232	84.06
590.441	93.06
590.651	82.06
590.861	80.06
591.071	87.06
591.281	84.06
591.49	78.06
591.7	80.06
591.91	84.06
592.119	82.06
592.329	83.06
592.539	80.06
592.748	85.06
592.958	79.06
593.167	85.06
593.377	82.06
593.587	89.06
593.796	79.06
594.006	95.06
594.215	86.06
594.424	81.06
594.634	83.06
594.843	87.06
595.053	96.06
595.262	92.06
595.472	81.06
595.681	77.06
595.89	72.06
596.1	81.06
596.309	65.06
596.518	83.06
596.727	82.06
596.937	104.06
597.146	90.06
597.355	99.06
597.564	85.06
597.774	94.06
597.983	88.06
598.192	78.06
598.401	89.06
598.61	78.06
598.819	80.06
599.028	83.06
599.237	84.06
599.446	83.06
599.655	90.06
599.864	86.06
600.073	81.06
600.282	96.06
600.491	88.06
600.7	88.06
600.909	78.06
601.118	95.06
601.327	85.06
601.536	97.06
601.745	90.06
601.953	78.06
602.162	81.06
602.371	73.06
602.58	79.06
602.789	89.06
602.997	97.06
603.206	81.06
603.415	85.06
603.623	81.06
603.832	93.06
604.041	98.06
604.249	79.06
604.458	74.06
604.666	82.06
604.875	91.06
605.084	92.06
605.292	85.06
605.501	96.06
605.709	84.06
605.918	101.06
606.126	90.06
606.334	98.06
606.543	80.06
606.751	88.06
606.96	102.06
607.168	102.06
607.376	103.06
607.585	87.06
607.793	90.06
608.001	89.06
608.21	81.06
608.418	97.06
608.626	90.06
608.834	89.06
609.043	95.06
609.251	94.06
609.459	84.06
609.667	97.06
609.875	106.06
610.083	84.06
610.291	94.06
610.499	94.06
610.707	78.06
610.916	86.06
611.124	86.06
611.332	98.06
611.54	95.06
611.748	93.06
611.955	80.06
612.163	85.06
612.371	89.06
612.579	80.06
612.787	75.06
612.995	92.06
613.203	90.06
613.411	95.06
613.618	93.06
613.826	95.06
614.034	115.06
614.242	100.06
614.449	86.06
614.657	94.06
614.865	89.06
615.072	101.06
615.28	103.06
615.488	87.06
615.695	102.06
615.903	85.06
616.111	94.06
616.318	93.06
616.526	93.06
616.733	84.06
616.941	79.06
617.148	86.06
617.356	96.06
617.563	99.06
617.771	80.06
617.978	91.06
618.185	83.06
618.393	88.06
618.6	92.06
618.807	89.06
619.015	99.06
619.222	95.06
619.429	93.06
619.637	93.06
619.844	79.06
620.051	78.06
620.258	93.06
620.466	89.06
620.673	90.06
620.88	79.06
621.087	91.06
621.294	83.06
621.501	90.06
621.708	89.06
621.915	89.06
622.122	82.06
622.329	89.06
622.536	87.06
622.743	111.06
622.95	98.06
623.157	84.06
623.364	99.06
623.571	90.06
623.778	106.06
623.985	103.06
624.192	88.06
624.399	85.06
624.606	103.06
624.812	89.06
625.019	97.06
625.226	82.06
625.433	94.06
625.639	100.06
625.846	91.06
626.053	85.06
626.259	79.06
626.466	93.06
626.673	79.06
626.879	90.06
627.086	91.06
627.293	85.06
627.499	94.06
627.706	92.06
627.912	88.06
628.119	102.06
628.325	88.06
628.532	102.06
628.738	79.06
628.945	75.06
629.151	98.06
629.357	78.06
629.564	82.06
629.77	96.06
629.976	84.06
630.183	87.06
630.389	88.06
630.595	89.06
630.802	89.06
631.008	98.06
631.214	85.06
631.42	84.06
631.627	101.06
631.833	79.06
632.039	88.06
632.245	89.06
632.451	83.06
632.657	76.06
632.863	90.06
633.069	98.06
633.275	86.06
633.481	79.06
633.688	91.06
633.893	90.06
634.099	95.06
634.305	88.06
634.511	87.06
634.717	94.06
634.923	74.06
635.129	83.06
635.335	85.06
635.541	93.06
635.747	98.06
635.952	81.06
636.158	81.06
636.364	82.06
636.57	70.06
636.775	78.06
636.981	89.06
637.187	82.06
637.392	82.06
637.598	93.06
637.804	87.06
638.009	85.06
638.215	78.06
638.421	76.06
638.626	77.06
638.832	79.06
639.037	84.06
639.243	96.06
639.448	95.06
639.654	77.06
639.859	80.06
640.065	86.06
640.27	81.06
640.475	90.06
640.681	82.06
640.886	74.06
641.091	100.06
641.297	97.06
641.502	88.06
641.707	84.06
641.913	88.06
642.118	81.06
642.323	77.06
642.528	82.06
642.733	97.06
642.939	83.06
643.144	88.06
643.349	81.06
643.554	90.06
643.759	87.06
643.964	90.06
644.169	89.06
644.374	98.06
644.579	90.06
644.784	85.06
644.989	97.06
645.194	83.06
645.399	92.06
645.604	90.06
645.809	76.06
646.014	88.06
646.219	75.06
646.423	80.06
646.628	83.06
646.833	100.06
647.038	93.06
647.243	99.06
647.447	90.06
647.652	86.06
647.857	100.06
648.062	85.06
648.266	105.06
648.471	88.06
648.676	81.06
648.88	94.06
649.085	91.06
649.289	98.06
649.494	81.06
649.698	84.06
649.903	88.06
650.107	93.06
650.312	75.06
650.516	84.06
650.721	83.06
650.925	80.06
651.13	85.06
651.334	84.06
651.539	69.06
651.743	87.06
651.947	90.06
652.152	83.06
652.356	100.06
652.56	84.06
652.764	88.06
652.969	79.06
653.173	78.06
653.377	76.06
653.581	91.06
653.785	72.06
653.99	81.06
654.194	80.06
654.398	79.06
654.602	76.06
654.806	84.06
655.01	62.06
655.214	89.06
655.418	85.06
655.622	70.06
655.826	90.06
656.03	87.06
656.234	98.06
656.438	86.06
656.642	84.06
656.846	86.06
657.049	78.06
657.253	85.06
657.457	72.06
657.661	73.06
657.865	83.06
658.068	75.06
658.272	72.06
658.476	89.06
658.68	87.06
658.883	97.06
659.087	76.06
659.291	92.06
659.494	71.06
659.698	89.06
659.901	86.06
660.105	94.06
660.309	82.06
660.512	78.06
660.716	93.06
660.919	90.06
661.123	71.06
661.326	79.06
661.53	79.06
661.733	71.06
661.936	89.06
662.14	71.06
662.343	66.06
662.546	88.06
662.75	65.06
662.953	79.06
663.156	89.06
663.36	99.06
663.563	90.06
663.766	78.06
663.969	83.06
664.173	87.06
664.376	70.06
664.579	64.06
664.782	91.06
664.985	82.06
665.188	77.06
665.391	79.06
665.594	72.06
665.797	83.06
666	85.06
666.203	85.06
666.406	96.06
666.609	80.06
666.812	83.06
667.015	76.06
667.218	86.06
667.421	79.06
667.624	87.06
667.827	99.06
668.03	93.06
668.232	94.06
668.435	90.06
668.638	81.06
668.841	65.06
669.043	79.06
669.246	80.06
669.449	81.06
669.651	91.06
669.854	88.06
670.057	76.06
670.259	94.06
670.462	69.06
670.665	83.06
670.867	67.06
671.07	88.06
671.272	83.06
671.475	91.06
671.677	94.06
671.88	67.06
672.082	89.06
672.284	78.06
672.487	80.06
672.689	81.06
672.892	91.06
