Data from Location5.07152019.Energy5.Lamp.07192019.3%Agarose_HRD10591_15-36-33-387.txt Node
Date: Fri Jul 19 15:36:33 EDT 2019
User: cochatt
Spectrometer: HR+D1059
Trigger mode: 1
Integration Time (sec): 1.000000E-1
Scans to average: 1
Electric dark correction enabled: true
Nonlinearity correction enabled: false
Boxcar width: 0
XAxis mode: Wavelengths
Number of Pixels in Spectrum: 2048
>>>>>Begin Spectral Data<<<<<
223.165	-8.94
223.4	-8.94
223.635	-8.94
223.869	-8.94
224.104	-14.94
224.338	-17.94
224.573	-25.94
224.808	-19.94
225.042	3.06
225.277	-2.94
225.511	2.06
225.746	-5.94
225.98	11.06
226.215	6.06
226.449	12.06
226.683	20.06
226.918	32.06
227.152	19.06
227.387	38.06
227.621	37.06
227.856	47.06
228.09	51.06
228.324	40.06
228.559	43.06
228.793	64.06
229.027	71.06
229.262	56.06
229.496	69.06
229.73	70.06
229.964	74.06
230.199	70.06
230.433	64.06
230.667	79.06
230.901	79.06
231.136	82.06
231.37	93.06
231.604	96.06
231.838	86.06
232.072	76.06
232.306	85.06
232.541	89.06
232.775	65.06
233.009	85.06
233.243	92.06
233.477	84.06
233.711	81.06
233.945	86.06
234.179	83.06
234.413	77.06
234.647	85.06
234.881	84.06
235.115	102.06
235.349	85.06
235.583	90.06
235.817	83.06
236.051	79.06
236.285	77.06
236.519	81.06
236.753	77.06
236.987	72.06
237.221	76.06
237.455	76.06
237.689	69.06
237.922	87.06
238.156	92.06
238.39	74.06
238.624	79.06
238.858	88.06
239.091	83.06
239.325	66.06
239.559	74.06
239.793	84.06
240.027	67.06
240.26	87.06
240.494	77.06
240.728	74.06
240.961	77.06
241.195	65.06
241.429	75.06
241.662	76.06
241.896	75.06
242.13	76.06
242.363	62.06
242.597	74.06
242.83	63.06
243.064	86.06
243.298	69.06
243.531	80.06
243.765	75.06
243.998	68.06
244.232	82.06
244.465	81.06
244.699	70.06
244.932	88.06
245.166	87.06
245.399	78.06
245.633	76.06
245.866	78.06
246.099	66.06
246.333	73.06
246.566	79.06
246.8	87.06
247.033	76.06
247.266	63.06
247.5	91.06
247.733	89.06
247.966	90.06
248.2	81.06
248.433	83.06
248.666	73.06
248.899	80.06
249.133	83.06
249.366	85.06
249.599	92.06
249.832	82.06
250.066	87.06
250.299	88.06
250.532	75.06
250.765	78.06
250.998	83.06
251.231	81.06
251.465	73.06
251.698	85.06
251.931	88.06
252.164	76.06
252.397	92.06
252.63	77.06
252.863	89.06
253.096	71.06
253.329	83.06
253.562	86.06
253.795	79.06
254.028	81.06
254.261	79.06
254.494	81.06
254.727	77.06
254.96	91.06
255.193	89.06
255.426	101.06
255.659	82.06
255.892	78.06
256.124	89.06
256.357	81.06
256.59	83.06
256.823	89.06
257.056	89.06
257.289	69.06
257.521	74.06
257.754	77.06
257.987	94.06
258.22	98.06
258.452	85.06
258.685	91.06
258.918	90.06
259.151	80.06
259.383	87.06
259.616	77.06
259.849	87.06
260.081	75.06
260.314	89.06
260.547	77.06
260.779	68.06
261.012	99.06
261.244	70.06
261.477	87.06
261.71	78.06
261.942	89.06
262.175	67.06
262.407	82.06
262.64	71.06
262.872	77.06
263.105	84.06
263.337	78.06
263.57	100.06
263.802	78.06
264.035	77.06
264.267	80.06
264.499	88.06
264.732	94.06
264.964	94.06
265.197	97.06
265.429	83.06
265.661	85.06
265.894	84.06
266.126	103.06
266.358	91.06
266.591	73.06
266.823	86.06
267.055	80.06
267.287	76.06
267.52	81.06
267.752	86.06
267.984	89.06
268.216	87.06
268.448	97.06
268.681	96.06
268.913	85.06
269.145	87.06
269.377	81.06
269.609	72.06
269.841	93.06
270.073	85.06
270.306	102.06
270.538	94.06
270.77	72.06
271.002	89.06
271.234	88.06
271.466	85.06
271.698	87.06
271.93	93.06
272.162	84.06
272.394	92.06
272.626	90.06
272.858	78.06
273.09	77.06
273.322	83.06
273.553	79.06
273.785	85.06
274.017	85.06
274.249	89.06
274.481	108.06
274.713	85.06
274.945	85.06
275.176	82.06
275.408	79.06
275.64	87.06
275.872	86.06
276.104	88.06
276.335	81.06
276.567	78.06
276.799	73.06
277.031	86.06
277.262	84.06
277.494	73.06
277.726	98.06
277.957	91.06
278.189	85.06
278.421	90.06
278.652	70.06
278.884	92.06
279.115	87.06
279.347	85.06
279.579	94.06
279.81	88.06
280.042	80.06
280.273	71.06
280.505	85.06
280.736	82.06
280.968	79.06
281.199	83.06
281.431	86.06
281.662	95.06
281.894	83.06
282.125	77.06
282.356	96.06
282.588	93.06
282.819	93.06
283.051	89.06
283.282	71.06
283.513	97.06
283.745	77.06
283.976	95.06
284.207	86.06
284.439	91.06
284.67	88.06
284.901	94.06
285.132	102.06
285.364	90.06
285.595	84.06
285.826	98.06
286.057	100.06
286.288	90.06
286.52	86.06
286.751	88.06
286.982	73.06
287.213	88.06
287.444	85.06
287.675	90.06
287.906	80.06
288.138	101.06
288.369	86.06
288.6	82.06
288.831	100.06
289.062	95.06
289.293	90.06
289.524	75.06
289.755	74.06
289.986	90.06
290.217	81.06
290.448	76.06
290.679	89.06
290.91	92.06
291.141	81.06
291.371	101.06
291.602	95.06
291.833	91.06
292.064	90.06
292.295	72.06
292.526	87.06
292.757	89.06
292.987	84.06
293.218	81.06
293.449	83.06
293.68	75.06
293.91	89.06
294.141	86.06
294.372	97.06
294.603	82.06
294.833	77.06
295.064	88.06
295.295	87.06
295.525	88.06
295.756	87.06
295.987	79.06
296.217	85.06
296.448	76.06
296.679	91.06
296.909	101.06
297.14	80.06
297.37	102.06
297.601	87.06
297.831	93.06
298.062	90.06
298.292	94.06
298.523	86.06
298.753	87.06
298.984	86.06
299.214	97.06
299.445	87.06
299.675	102.06
299.905	84.06
300.136	85.06
300.366	94.06
300.597	72.06
300.827	80.06
301.057	90.06
301.288	88.06
301.518	88.06
301.748	93.06
301.979	91.06
302.209	72.06
302.439	89.06
302.669	87.06
302.9	81.06
303.13	75.06
303.36	83.06
303.59	93.06
303.82	89.06
304.051	91.06
304.281	94.06
304.511	97.06
304.741	81.06
304.971	76.06
305.201	97.06
305.431	91.06
305.661	89.06
305.891	93.06
306.121	101.06
306.352	96.06
306.582	95.06
306.812	79.06
307.042	84.06
307.272	99.06
307.502	90.06
307.731	83.06
307.961	88.06
308.191	86.06
308.421	84.06
308.651	85.06
308.881	89.06
309.111	84.06
309.341	90.06
309.571	93.06
309.8	93.06
310.03	89.06
310.26	87.06
310.49	64.06
310.72	100.06
310.949	87.06
311.179	91.06
311.409	97.06
311.639	84.06
311.868	77.06
312.098	94.06
312.328	81.06
312.557	97.06
312.787	75.06
313.017	92.06
313.246	93.06
313.476	97.06
313.706	92.06
313.935	92.06
314.165	90.06
314.394	87.06
314.624	91.06
314.853	101.06
315.083	85.06
315.312	77.06
315.542	92.06
315.771	81.06
316.001	95.06
316.23	98.06
316.46	82.06
316.689	99.06
316.919	91.06
317.148	91.06
317.377	95.06
317.607	89.06
317.836	94.06
318.065	78.06
318.295	81.06
318.524	74.06
318.753	77.06
318.983	98.06
319.212	91.06
319.441	90.06
319.67	89.06
319.9	90.06
320.129	74.06
320.358	89.06
320.587	87.06
320.816	89.06
321.046	91.06
321.275	95.06
321.504	90.06
321.733	74.06
321.962	95.06
322.191	83.06
322.42	73.06
322.649	78.06
322.878	93.06
323.108	76.06
323.337	94.06
323.566	95.06
323.795	103.06
324.024	89.06
324.253	89.06
324.482	93.06
324.71	95.06
324.939	91.06
325.168	86.06
325.397	88.06
325.626	87.06
325.855	86.06
326.084	91.06
326.313	91.06
326.542	85.06
326.77	81.06
326.999	82.06
327.228	90.06
327.457	81.06
327.686	71.06
327.914	98.06
328.143	103.06
328.372	77.06
328.6	100.06
328.829	86.06
329.058	89.06
329.287	88.06
329.515	92.06
329.744	86.06
329.972	93.06
330.201	86.06
330.43	82.06
330.658	84.06
330.887	101.06
331.115	93.06
331.344	89.06
331.572	83.06
331.801	81.06
332.03	84.06
332.258	87.06
332.486	86.06
332.715	90.06
332.943	69.06
333.172	76.06
333.4	76.06
333.629	82.06
333.857	92.06
334.085	81.06
334.314	90.06
334.542	92.06
334.771	80.06
334.999	83.06
335.227	91.06
335.455	79.06
335.684	81.06
335.912	68.06
336.14	100.06
336.369	93.06
336.597	94.06
336.825	89.06
337.053	99.06
337.281	78.06
337.51	88.06
337.738	97.06
337.966	79.06
338.194	95.06
338.422	86.06
338.65	93.06
338.878	84.06
339.106	81.06
339.334	78.06
339.562	87.06
339.79	86.06
340.018	104.06
340.246	91.06
340.474	94.06
340.702	76.06
340.93	85.06
341.158	99.06
341.386	90.06
341.614	97.06
341.842	89.06
342.07	85.06
342.298	87.06
342.526	85.06
342.754	88.06
342.981	100.06
343.209	83.06
343.437	78.06
343.665	101.06
343.893	92.06
344.12	88.06
344.348	74.06
344.576	65.06
344.804	89.06
345.031	80.06
345.259	92.06
345.487	95.06
345.714	91.06
345.942	98.06
346.17	77.06
346.397	96.06
346.625	102.06
346.853	96.06
347.08	83.06
347.308	81.06
347.535	85.06
347.763	92.06
347.99	79.06
348.218	76.06
348.445	90.06
348.673	91.06
348.9	79.06
349.128	100.06
349.355	91.06
349.583	94.06
349.81	87.06
350.037	72.06
350.265	99.06
350.492	87.06
350.72	88.06
350.947	88.06
351.174	74.06
351.402	90.06
351.629	75.06
351.856	82.06
352.083	94.06
352.311	99.06
352.538	78.06
352.765	102.06
352.992	89.06
353.22	91.06
353.447	81.06
353.674	73.06
353.901	87.06
354.128	92.06
354.355	92.06
354.583	90.06
354.81	88.06
355.037	87.06
355.264	82.06
355.491	104.06
355.718	84.06
355.945	81.06
356.172	94.06
356.399	70.06
356.626	77.06
356.853	93.06
357.08	98.06
357.307	94.06
357.534	98.06
357.761	90.06
357.988	90.06
358.215	85.06
358.441	81.06
358.668	80.06
358.895	94.06
359.122	78.06
359.349	87.06
359.576	93.06
359.802	80.06
360.029	73.06
360.256	77.06
360.483	79.06
360.709	92.06
360.936	97.06
361.163	85.06
361.39	97.06
361.616	94.06
361.843	81.06
362.07	83.06
362.296	93.06
362.523	74.06
362.749	81.06
362.976	79.06
363.203	78.06
363.429	90.06
363.656	97.06
363.882	93.06
364.109	91.06
364.335	89.06
364.562	85.06
364.788	83.06
365.015	90.06
365.241	86.06
365.468	83.06
365.694	84.06
365.92	84.06
366.147	86.06
366.373	86.06
366.599	96.06
366.826	89.06
367.052	73.06
367.278	97.06
367.505	79.06
367.731	85.06
367.957	82.06
368.184	79.06
368.41	77.06
368.636	85.06
368.862	86.06
369.089	85.06
369.315	78.06
369.541	100.06
369.767	78.06
369.993	86.06
370.219	95.06
370.445	74.06
370.672	86.06
370.898	98.06
371.124	87.06
371.35	93.06
371.576	79.06
371.802	76.06
372.028	96.06
372.254	82.06
372.48	99.06
372.706	88.06
372.932	79.06
373.158	81.06
373.384	90.06
373.61	98.06
373.835	90.06
374.061	87.06
374.287	85.06
374.513	88.06
374.739	89.06
374.965	78.06
375.191	89.06
375.416	92.06
375.642	83.06
375.868	87.06
376.094	79.06
376.319	85.06
376.545	87.06
376.771	86.06
376.997	88.06
377.222	95.06
377.448	89.06
377.674	99.06
377.899	90.06
378.125	101.06
378.35	88.06
378.576	80.06
378.802	83.06
379.027	83.06
379.253	93.06
379.478	86.06
379.704	80.06
379.929	78.06
380.155	91.06
380.38	87.06
380.606	77.06
380.831	70.06
381.057	99.06
381.282	73.06
381.507	101.06
381.733	87.06
381.958	93.06
382.184	106.06
382.409	89.06
382.634	86.06
382.86	80.06
383.085	81.06
383.31	87.06
383.535	85.06
383.761	77.06
383.986	78.06
384.211	81.06
384.436	84.06
384.662	78.06
384.887	79.06
385.112	75.06
385.337	95.06
385.562	78.06
385.787	83.06
386.013	103.06
386.238	86.06
386.463	82.06
386.688	91.06
386.913	88.06
387.138	90.06
387.363	93.06
387.588	85.06
387.813	81.06
388.038	83.06
388.263	97.06
388.488	89.06
388.713	85.06
388.938	86.06
389.163	100.06
389.387	94.06
389.612	89.06
389.837	97.06
390.062	86.06
390.287	89.06
390.512	85.06
390.736	98.06
390.961	102.06
391.186	102.06
391.411	74.06
391.636	93.06
391.86	84.06
392.085	97.06
392.31	77.06
392.534	75.06
392.759	82.06
392.984	88.06
393.208	82.06
393.433	92.06
393.658	83.06
393.882	101.06
394.107	86.06
394.331	85.06
394.556	101.06
394.78	91.06
395.005	88.06
395.229	87.06
395.454	95.06
395.678	85.06
395.903	86.06
396.127	87.06
396.352	91.06
396.576	91.06
396.801	92.06
397.025	95.06
397.249	91.06
397.474	91.06
397.698	91.06
397.922	92.06
398.147	91.06
398.371	89.06
398.595	87.06
398.82	95.06
399.044	102.06
399.268	96.06
399.492	81.06
399.717	97.06
399.941	94.06
400.165	92.06
400.389	77.06
400.613	84.06
400.837	79.06
401.062	91.06
401.286	88.06
401.51	82.06
401.734	71.06
401.958	87.06
402.182	86.06
402.406	93.06
402.63	94.06
402.854	94.06
403.078	78.06
403.302	102.06
403.526	100.06
403.75	98.06
403.974	95.06
404.198	100.06
404.422	103.06
404.645	89.06
404.869	92.06
405.093	94.06
405.317	95.06
405.541	87.06
405.765	74.06
405.988	103.06
406.212	79.06
406.436	83.06
406.66	96.06
406.883	83.06
407.107	103.06
407.331	96.06
407.555	90.06
407.778	91.06
408.002	86.06
408.226	85.06
408.449	102.06
408.673	85.06
408.896	100.06
409.12	88.06
409.344	89.06
409.567	85.06
409.791	101.06
410.014	84.06
410.238	102.06
410.461	108.06
410.685	86.06
410.908	78.06
411.132	97.06
411.355	97.06
411.578	110.06
411.802	107.06
412.025	94.06
412.249	97.06
412.472	106.06
412.695	112.06
412.919	89.06
413.142	97.06
413.365	90.06
413.589	97.06
413.812	97.06
414.035	92.06
414.258	84.06
414.482	81.06
414.705	81.06
414.928	101.06
415.151	101.06
415.374	89.06
415.597	85.06
415.821	93.06
416.044	94.06
416.267	101.06
416.49	100.06
416.713	89.06
416.936	85.06
417.159	101.06
417.382	100.06
417.605	84.06
417.828	85.06
418.051	97.06
418.274	93.06
418.497	92.06
418.72	106.06
418.943	89.06
419.166	106.06
419.389	110.06
419.611	97.06
419.834	93.06
420.057	92.06
420.28	84.06
420.503	89.06
420.726	94.06
420.948	91.06
421.171	100.06
421.394	86.06
421.617	90.06
421.839	98.06
422.062	104.06
422.285	99.06
422.507	100.06
422.73	101.06
422.953	96.06
423.175	88.06
423.398	85.06
423.621	94.06
423.843	96.06
424.066	96.06
424.288	107.06
424.511	101.06
424.733	85.06
424.956	103.06
425.178	93.06
425.401	105.06
425.623	89.06
425.846	97.06
426.068	104.06
426.291	98.06
426.513	102.06
426.735	93.06
426.958	100.06
427.18	98.06
427.402	104.06
427.625	105.06
427.847	105.06
428.069	100.06
428.292	93.06
428.514	108.06
428.736	84.06
428.958	90.06
429.181	109.06
429.403	110.06
429.625	95.06
429.847	95.06
430.069	98.06
430.292	108.06
430.514	89.06
430.736	77.06
430.958	98.06
431.18	83.06
431.402	109.06
431.624	95.06
431.846	90.06
432.068	89.06
432.29	86.06
432.512	89.06
432.734	91.06
432.956	86.06
433.178	110.06
433.4	113.06
433.622	95.06
433.844	99.06
434.066	89.06
434.287	79.06
434.509	98.06
434.731	96.06
434.953	90.06
435.175	85.06
435.397	84.06
435.618	90.06
435.84	89.06
436.062	79.06
436.284	78.06
436.505	82.06
436.727	92.06
436.949	99.06
437.17	101.06
437.392	97.06
437.614	82.06
437.835	92.06
438.057	94.06
438.278	82.06
438.5	92.06
438.721	90.06
438.943	89.06
439.165	89.06
439.386	99.06
439.608	92.06
439.829	100.06
440.05	94.06
440.272	82.06
440.493	98.06
440.715	100.06
440.936	87.06
441.158	92.06
441.379	90.06
441.6	78.06
441.822	86.06
442.043	93.06
442.264	102.06
442.486	99.06
442.707	97.06
442.928	108.06
443.149	92.06
443.371	91.06
443.592	94.06
443.813	104.06
444.034	104.06
444.255	110.06
444.476	95.06
444.698	82.06
444.919	102.06
445.14	219.06
445.361	153.06
445.582	103.06
445.803	111.06
446.024	111.06
446.245	93.06
446.466	83.06
446.687	99.06
446.908	101.06
447.129	97.06
447.35	107.06
447.571	99.06
447.792	90.06
448.013	108.06
448.234	105.06
448.455	106.06
448.675	90.06
448.896	100.06
449.117	99.06
449.338	82.06
449.559	98.06
449.779	103.06
450	90.06
450.221	91.06
450.442	90.06
450.662	97.06
450.883	84.06
451.104	90.06
451.324	95.06
451.545	102.06
451.766	98.06
451.986	110.06
452.207	99.06
452.428	93.06
452.648	75.06
452.869	97.06
453.089	95.06
453.31	87.06
453.53	83.06
453.751	85.06
453.971	98.06
454.192	75.06
454.412	93.06
454.633	91.06
454.853	90.06
455.073	81.06
455.294	96.06
455.514	89.06
455.734	98.06
455.955	108.06
456.175	93.06
456.395	88.06
456.616	91.06
456.836	93.06
457.056	80.06
457.276	83.06
457.497	95.06
457.717	92.06
457.937	89.06
458.157	81.06
458.377	75.06
458.598	98.06
458.818	93.06
459.038	83.06
459.258	92.06
459.478	94.06
459.698	80.06
459.918	94.06
460.138	101.06
460.358	85.06
460.578	83.06
460.798	104.06
461.018	100.06
461.238	94.06
461.458	88.06
461.678	89.06
461.898	107.06
462.118	101.06
462.338	97.06
462.558	93.06
462.777	79.06
462.997	100.06
463.217	97.06
463.437	93.06
463.657	93.06
463.876	94.06
464.096	98.06
464.316	92.06
464.536	90.06
464.755	77.06
464.975	88.06
465.195	89.06
465.414	84.06
465.634	100.06
465.854	85.06
466.073	98.06
466.293	97.06
466.512	96.06
466.732	84.06
466.951	98.06
467.171	90.06
467.391	99.06
467.61	92.06
467.829	91.06
468.049	95.06
468.268	94.06
468.488	92.06
468.707	97.06
468.927	95.06
469.146	97.06
469.365	113.06
469.585	103.06
469.804	95.06
470.023	95.06
470.243	94.06
470.462	90.06
470.681	100.06
470.901	107.06
471.12	104.06
471.339	98.06
471.558	108.06
471.777	96.06
471.997	93.06
472.216	93.06
472.435	82.06
472.654	81.06
472.873	87.06
473.092	97.06
473.311	96.06
473.53	92.06
473.749	93.06
473.968	79.06
474.187	81.06
474.406	78.06
474.625	94.06
474.844	94.06
475.063	94.06
475.282	93.06
475.501	87.06
475.72	89.06
475.939	105.06
476.158	105.06
476.377	98.06
476.596	92.06
476.814	94.06
477.033	94.06
477.252	94.06
477.471	108.06
477.69	102.06
477.908	93.06
478.127	103.06
478.346	89.06
478.564	104.06
478.783	93.06
479.002	96.06
479.22	89.06
479.439	84.06
479.658	95.06
479.876	88.06
480.095	90.06
480.313	106.06
480.532	98.06
480.751	100.06
480.969	96.06
481.188	85.06
481.406	88.06
481.624	66.06
481.843	77.06
482.061	91.06
482.28	89.06
482.498	96.06
482.717	95.06
482.935	89.06
483.153	98.06
483.372	121.06
483.59	99.06
483.808	104.06
484.027	98.06
484.245	105.06
484.463	86.06
484.681	108.06
484.9	98.06
485.118	96.06
485.336	120.06
485.554	98.06
485.772	94.06
485.99	86.06
486.209	90.06
486.427	98.06
486.645	91.06
486.863	97.06
487.081	95.06
487.299	97.06
487.517	102.06
487.735	94.06
487.953	123.06
488.171	123.06
488.389	113.06
488.607	100.06
488.825	106.06
489.043	97.06
489.261	98.06
489.479	107.06
489.696	83.06
489.914	104.06
490.132	101.06
490.35	105.06
490.568	110.06
490.786	111.06
491.003	113.06
491.221	107.06
491.439	110.06
491.657	119.06
491.874	107.06
492.092	117.06
492.31	123.06
492.527	118.06
492.745	107.06
492.963	115.06
493.18	95.06
493.398	120.06
493.615	110.06
493.833	97.06
494.05	96.06
494.268	94.06
494.485	93.06
494.703	109.06
494.92	101.06
495.138	89.06
495.355	112.06
495.573	110.06
495.79	95.06
496.008	117.06
496.225	102.06
496.442	107.06
496.66	106.06
496.877	109.06
497.094	110.06
497.312	116.06
497.529	100.06
497.746	111.06
497.963	96.06
498.181	92.06
498.398	88.06
498.615	87.06
498.832	80.06
499.049	87.06
499.267	110.06
499.484	103.06
499.701	116.06
499.918	113.06
500.135	107.06
500.352	92.06
500.569	88.06
500.786	99.06
501.003	98.06
501.22	100.06
501.437	98.06
501.654	105.06
501.871	104.06
502.088	89.06
502.305	101.06
502.522	94.06
502.739	94.06
502.956	97.06
503.172	108.06
503.389	85.06
503.606	95.06
503.823	87.06
504.04	101.06
504.256	83.06
504.473	89.06
504.69	94.06
504.907	93.06
505.123	95.06
505.34	105.06
505.557	91.06
505.773	98.06
505.99	97.06
506.207	106.06
506.423	105.06
506.64	96.06
506.856	84.06
507.073	105.06
507.289	87.06
507.506	90.06
507.722	91.06
507.939	102.06
508.155	97.06
508.372	93.06
508.588	102.06
508.805	98.06
509.021	90.06
509.238	81.06
509.454	74.06
509.67	86.06
509.887	88.06
510.103	97.06
510.319	97.06
510.536	92.06
510.752	90.06
510.968	74.06
511.184	91.06
511.401	89.06
511.617	81.06
511.833	87.06
512.049	91.06
512.265	87.06
512.481	103.06
512.698	87.06
512.914	99.06
513.13	78.06
513.346	80.06
513.562	85.06
513.778	98.06
513.994	87.06
514.21	88.06
514.426	91.06
514.642	87.06
514.858	79.06
515.074	83.06
515.29	90.06
515.506	83.06
515.721	86.06
515.937	84.06
516.153	70.06
516.369	86.06
516.585	68.06
516.801	83.06
517.016	99.06
517.232	92.06
517.448	94.06
517.664	86.06
517.879	90.06
518.095	91.06
518.311	81.06
518.527	86.06
518.742	99.06
518.958	72.06
519.173	83.06
519.389	87.06
519.605	77.06
519.82	77.06
520.036	94.06
520.251	98.06
520.467	95.06
520.682	100.06
520.898	85.06
521.113	89.06
521.329	96.06
521.544	80.06
521.76	103.06
521.975	90.06
522.19	79.06
522.406	79.06
522.621	95.06
522.836	105.06
523.052	84.06
523.267	89.06
523.482	94.06
523.698	82.06
523.913	95.06
524.128	90.06
524.343	88.06
524.559	78.06
524.774	100.06
524.989	90.06
525.204	92.06
525.419	103.06
525.634	106.06
525.849	94.06
526.064	87.06
526.28	109.06
526.495	102.06
526.71	88.06
526.925	84.06
527.14	77.06
527.355	83.06
527.57	82.06
527.785	95.06
527.999	89.06
528.214	83.06
528.429	87.06
528.644	101.06
528.859	119.06
529.074	101.06
529.289	111.06
529.503	113.06
529.718	106.06
529.933	99.06
530.148	103.06
530.363	83.06
530.577	93.06
530.792	90.06
531.007	100.06
531.221	93.06
531.436	91.06
531.651	80.06
531.865	77.06
532.08	97.06
532.295	86.06
532.509	89.06
532.724	84.06
532.938	86.06
533.153	79.06
533.367	97.06
533.582	91.06
533.796	101.06
534.011	99.06
534.225	95.06
534.44	103.06
534.654	90.06
534.868	98.06
535.083	101.06
535.297	74.06
535.511	89.06
535.726	101.06
535.94	81.06
536.154	93.06
536.369	85.06
536.583	93.06
536.797	77.06
537.011	100.06
537.225	86.06
537.44	95.06
537.654	84.06
537.868	89.06
538.082	91.06
538.296	99.06
538.51	102.06
538.724	99.06
538.938	85.06
539.153	99.06
539.367	111.06
539.581	99.06
539.795	110.06
540.009	83.06
540.222	86.06
540.436	98.06
540.65	92.06
540.864	100.06
541.078	109.06
541.292	94.06
541.506	109.06
541.72	108.06
541.934	106.06
542.147	124.06
542.361	118.06
542.575	100.06
542.789	110.06
543.002	94.06
543.216	88.06
543.43	103.06
543.644	99.06
543.857	108.06
544.071	110.06
544.285	104.06
544.498	116.06
544.712	99.06
544.925	95.06
545.139	108.06
545.352	106.06
545.566	128.06
545.779	111.06
545.993	119.06
546.206	128.06
546.42	108.06
546.633	118.06
546.847	111.06
547.06	88.06
547.274	99.06
547.487	97.06
547.7	119.06
547.914	103.06
548.127	101.06
548.34	114.06
548.554	111.06
548.767	113.06
548.98	121.06
549.193	113.06
549.407	109.06
549.62	106.06
549.833	99.06
550.046	109.06
550.259	96.06
550.473	124.06
550.686	108.06
550.899	115.06
551.112	110.06
551.325	99.06
551.538	96.06
551.751	92.06
551.964	99.06
552.177	108.06
552.39	95.06
552.603	108.06
552.816	92.06
553.029	100.06
553.242	109.06
553.455	93.06
553.667	102.06
553.88	103.06
554.093	102.06
554.306	95.06
554.519	96.06
554.732	87.06
554.944	99.06
555.157	110.06
555.37	109.06
555.583	115.06
555.795	105.06
556.008	94.06
556.221	98.06
556.433	103.06
556.646	103.06
556.859	109.06
557.071	100.06
557.284	94.06
557.496	98.06
557.709	101.06
557.921	96.06
558.134	103.06
558.346	117.06
558.559	109.06
558.771	110.06
558.984	104.06
559.196	92.06
559.409	113.06
559.621	102.06
559.833	82.06
560.046	113.06
560.258	101.06
560.47	98.06
560.683	105.06
560.895	114.06
561.107	97.06
561.32	89.06
561.532	105.06
561.744	101.06
561.956	104.06
562.168	82.06
562.381	101.06
562.593	97.06
562.805	105.06
563.017	99.06
563.229	87.06
563.441	87.06
563.653	101.06
563.865	93.06
564.077	107.06
564.289	98.06
564.501	87.06
564.713	97.06
564.925	94.06
565.137	87.06
565.349	96.06
565.561	90.06
565.773	94.06
565.985	94.06
566.197	94.06
566.408	96.06
566.62	87.06
566.832	101.06
567.044	100.06
567.255	107.06
567.467	103.06
567.679	90.06
567.891	106.06
568.102	98.06
568.314	93.06
568.526	99.06
568.737	87.06
568.949	85.06
569.161	93.06
569.372	70.06
569.584	67.06
569.795	82.06
570.007	91.06
570.218	79.06
570.43	94.06
570.641	74.06
570.853	89.06
571.064	95.06
571.276	77.06
571.487	92.06
571.698	86.06
571.91	117.06
572.121	102.06
572.333	90.06
572.544	93.06
572.755	90.06
572.966	75.06
573.178	87.06
573.389	89.06
573.6	92.06
573.811	101.06
574.023	80.06
574.234	97.06
574.445	69.06
574.656	75.06
574.867	81.06
575.078	86.06
575.289	92.06
575.501	109.06
575.712	92.06
575.923	86.06
576.134	84.06
576.345	91.06
576.556	92.06
576.767	89.06
576.978	98.06
577.188	93.06
577.399	89.06
577.61	88.06
577.821	101.06
578.032	80.06
578.243	98.06
578.454	96.06
578.665	85.06
578.875	78.06
579.086	87.06
579.297	95.06
579.508	83.06
579.718	98.06
579.929	84.06
580.14	97.06
580.35	95.06
580.561	98.06
580.772	100.06
580.982	85.06
581.193	83.06
581.403	86.06
581.614	87.06
581.825	85.06
582.035	87.06
582.246	93.06
582.456	101.06
582.667	89.06
582.877	93.06
583.087	102.06
583.298	88.06
583.508	76.06
583.719	78.06
583.929	92.06
584.139	74.06
584.35	83.06
584.56	97.06
584.77	78.06
584.981	85.06
585.191	92.06
585.401	77.06
585.611	98.06
585.821	103.06
586.032	87.06
586.242	85.06
586.452	93.06
586.662	85.06
586.872	85.06
587.082	92.06
587.292	86.06
587.502	86.06
587.713	86.06
587.923	83.06
588.133	87.06
588.343	80.06
588.553	77.06
588.762	90.06
588.972	91.06
589.182	77.06
589.392	82.06
589.602	77.06
589.812	97.06
590.022	86.06
590.232	83.06
590.441	100.06
590.651	93.06
590.861	84.06
591.071	99.06
591.281	81.06
591.49	86.06
591.7	76.06
591.91	91.06
592.119	102.06
592.329	105.06
592.539	80.06
592.748	91.06
592.958	73.06
593.167	89.06
593.377	89.06
593.587	94.06
593.796	85.06
594.006	75.06
594.215	99.06
594.424	85.06
594.634	90.06
594.843	100.06
595.053	84.06
595.262	84.06
595.472	83.06
595.681	106.06
595.89	79.06
596.1	91.06
596.309	96.06
596.518	83.06
596.727	93.06
596.937	91.06
597.146	91.06
597.355	97.06
597.564	97.06
597.774	89.06
597.983	82.06
598.192	93.06
598.401	76.06
598.61	87.06
598.819	98.06
599.028	104.06
599.237	98.06
599.446	88.06
599.655	83.06
599.864	89.06
600.073	95.06
600.282	83.06
600.491	90.06
600.7	97.06
600.909	97.06
601.118	100.06
601.327	103.06
601.536	97.06
601.745	90.06
601.953	94.06
602.162	90.06
602.371	88.06
602.58	97.06
602.789	78.06
602.997	89.06
603.206	100.06
603.415	98.06
603.623	85.06
603.832	100.06
604.041	114.06
604.249	95.06
604.458	86.06
604.666	89.06
604.875	97.06
605.084	95.06
605.292	101.06
605.501	82.06
605.709	103.06
605.918	93.06
606.126	95.06
606.334	86.06
606.543	101.06
606.751	92.06
606.96	101.06
607.168	115.06
607.376	105.06
607.585	98.06
607.793	91.06
608.001	94.06
608.21	85.06
608.418	95.06
608.626	92.06
608.834	93.06
609.043	101.06
609.251	96.06
609.459	106.06
609.667	91.06
609.875	74.06
610.083	81.06
610.291	85.06
610.499	95.06
610.707	109.06
610.916	109.06
611.124	86.06
611.332	87.06
611.54	99.06
611.748	88.06
611.955	92.06
612.163	97.06
612.371	98.06
612.579	83.06
612.787	91.06
612.995	86.06
613.203	87.06
613.411	90.06
613.618	101.06
613.826	95.06
614.034	87.06
614.242	91.06
614.449	101.06
614.657	91.06
614.865	103.06
615.072	110.06
615.28	96.06
615.488	89.06
615.695	97.06
615.903	84.06
616.111	110.06
616.318	92.06
616.526	79.06
616.733	110.06
616.941	97.06
617.148	107.06
617.356	92.06
617.563	85.06
617.771	87.06
617.978	96.06
618.185	106.06
618.393	79.06
618.6	92.06
618.807	94.06
619.015	115.06
619.222	87.06
619.429	101.06
619.637	94.06
619.844	93.06
620.051	97.06
620.258	94.06
620.466	96.06
620.673	94.06
620.88	90.06
621.087	81.06
621.294	84.06
621.501	89.06
621.708	94.06
621.915	84.06
622.122	109.06
622.329	88.06
622.536	93.06
622.743	95.06
622.95	95.06
623.157	91.06
623.364	91.06
623.571	93.06
623.778	92.06
623.985	99.06
624.192	94.06
624.399	97.06
624.606	83.06
624.812	89.06
625.019	99.06
625.226	93.06
625.433	103.06
625.639	98.06
625.846	106.06
626.053	88.06
626.259	74.06
626.466	79.06
626.673	89.06
626.879	87.06
627.086	93.06
627.293	95.06
627.499	98.06
627.706	92.06
627.912	97.06
628.119	99.06
628.325	108.06
628.532	90.06
628.738	98.06
628.945	93.06
629.151	82.06
629.357	106.06
629.564	87.06
629.77	97.06
629.976	86.06
630.183	94.06
630.389	88.06
630.595	79.06
630.802	90.06
631.008	88.06
631.214	85.06
631.42	92.06
631.627	97.06
631.833	83.06
632.039	99.06
632.245	114.06
632.451	99.06
632.657	93.06
632.863	100.06
633.069	103.06
633.275	95.06
633.481	86.06
633.688	84.06
633.893	97.06
634.099	94.06
634.305	90.06
634.511	91.06
634.717	97.06
634.923	95.06
635.129	88.06
635.335	88.06
635.541	89.06
635.747	94.06
635.952	85.06
636.158	89.06
636.364	92.06
636.57	84.06
636.775	97.06
636.981	86.06
637.187	103.06
637.392	96.06
637.598	105.06
637.804	92.06
638.009	99.06
638.215	97.06
638.421	89.06
638.626	94.06
638.832	93.06
639.037	87.06
639.243	98.06
639.448	76.06
639.654	103.06
639.859	88.06
640.065	86.06
640.27	100.06
640.475	92.06
640.681	91.06
640.886	97.06
641.091	98.06
641.297	89.06
641.502	84.06
641.707	90.06
641.913	83.06
642.118	99.06
642.323	77.06
642.528	97.06
642.733	84.06
642.939	103.06
643.144	99.06
643.349	95.06
643.554	92.06
643.759	83.06
643.964	93.06
644.169	79.06
644.374	93.06
644.579	89.06
644.784	93.06
644.989	90.06
645.194	97.06
645.399	83.06
645.604	82.06
645.809	94.06
646.014	78.06
646.219	98.06
646.423	89.06
646.628	92.06
646.833	86.06
647.038	85.06
647.243	92.06
647.447	92.06
647.652	97.06
647.857	79.06
648.062	96.06
648.266	96.06
648.471	91.06
648.676	96.06
648.88	91.06
649.085	94.06
649.289	100.06
649.494	100.06
649.698	102.06
649.903	94.06
650.107	87.06
650.312	102.06
650.516	106.06
650.721	86.06
650.925	92.06
651.13	100.06
651.334	84.06
651.539	94.06
651.743	89.06
651.947	93.06
652.152	92.06
652.356	88.06
652.56	72.06
652.764	87.06
652.969	91.06
653.173	82.06
653.377	97.06
653.581	90.06
653.785	101.06
653.99	77.06
654.194	84.06
654.398	88.06
654.602	93.06
654.806	102.06
655.01	93.06
655.214	85.06
655.418	82.06
655.622	75.06
655.826	83.06
656.03	96.06
656.234	80.06
656.438	77.06
656.642	72.06
656.846	82.06
657.049	94.06
657.253	90.06
657.457	89.06
657.661	84.06
657.865	92.06
658.068	101.06
658.272	85.06
658.476	88.06
658.68	86.06
658.883	77.06
659.087	98.06
659.291	93.06
659.494	91.06
659.698	90.06
659.901	90.06
660.105	73.06
660.309	97.06
660.512	82.06
660.716	89.06
660.919	103.06
661.123	98.06
661.326	85.06
661.53	103.06
661.733	81.06
661.936	75.06
662.14	88.06
662.343	87.06
662.546	72.06
662.75	96.06
662.953	86.06
663.156	91.06
663.36	98.06
663.563	96.06
663.766	85.06
663.969	91.06
664.173	90.06
664.376	76.06
664.579	79.06
664.782	86.06
664.985	86.06
665.188	70.06
665.391	78.06
665.594	87.06
665.797	83.06
666	79.06
666.203	80.06
666.406	79.06
666.609	83.06
666.812	90.06
667.015	75.06
667.218	79.06
667.421	82.06
667.624	89.06
667.827	90.06
668.03	83.06
668.232	89.06
668.435	81.06
668.638	75.06
668.841	97.06
669.043	83.06
669.246	87.06
669.449	78.06
669.651	90.06
669.854	96.06
670.057	82.06
670.259	93.06
670.462	96.06
670.665	91.06
670.867	78.06
671.07	94.06
671.272	86.06
671.475	88.06
671.677	94.06
671.88	93.06
672.082	97.06
672.284	83.06
672.487	83.06
672.689	79.06
672.892	82.06
