Data from Location5.07152019.Energy5.Lamp.07192019.3%Agarose_HRD10591_16-03-45-628.txt Node
Date: Fri Jul 19 16:03:45 EDT 2019
User: cochatt
Spectrometer: HR+D1059
Trigger mode: 1
Integration Time (sec): 1.000000E-1
Scans to average: 1
Electric dark correction enabled: true
Nonlinearity correction enabled: false
Boxcar width: 0
XAxis mode: Wavelengths
Number of Pixels in Spectrum: 2048
>>>>>Begin Spectral Data<<<<<
223.165	-14.94
223.4	-14.94
223.635	-14.94
223.869	-6.94
224.104	-11.94
224.338	-22.94
224.573	-20.94
224.808	-2.94
225.042	-14.94
225.277	-1.94
225.511	-14.94
225.746	0.06
225.98	9.06
226.215	21.06
226.449	22.06
226.683	5.06
226.918	28.06
227.152	27.06
227.387	37.06
227.621	32.06
227.856	50.06
228.09	39.06
228.324	60.06
228.559	42.06
228.793	61.06
229.027	70.06
229.262	56.06
229.496	54.06
229.73	65.06
229.964	69.06
230.199	84.06
230.433	80.06
230.667	77.06
230.901	88.06
231.136	75.06
231.37	69.06
231.604	77.06
231.838	93.06
232.072	76.06
232.306	85.06
232.541	78.06
232.775	86.06
233.009	76.06
233.243	84.06
233.477	81.06
233.711	75.06
233.945	85.06
234.179	85.06
234.413	87.06
234.647	90.06
234.881	81.06
235.115	87.06
235.349	93.06
235.583	78.06
235.817	65.06
236.051	86.06
236.285	92.06
236.519	78.06
236.753	79.06
236.987	74.06
237.221	68.06
237.455	88.06
237.689	74.06
237.922	85.06
238.156	88.06
238.39	83.06
238.624	87.06
238.858	78.06
239.091	83.06
239.325	86.06
239.559	82.06
239.793	86.06
240.027	86.06
240.26	90.06
240.494	75.06
240.728	85.06
240.961	84.06
241.195	64.06
241.429	60.06
241.662	86.06
241.896	94.06
242.13	70.06
242.363	82.06
242.597	78.06
242.83	72.06
243.064	69.06
243.298	84.06
243.531	95.06
243.765	93.06
243.998	73.06
244.232	77.06
244.465	77.06
244.699	96.06
244.932	86.06
245.166	87.06
245.399	87.06
245.633	93.06
245.866	78.06
246.099	67.06
246.333	70.06
246.566	82.06
246.8	77.06
247.033	62.06
247.266	89.06
247.5	88.06
247.733	74.06
247.966	78.06
248.2	92.06
248.433	78.06
248.666	76.06
248.899	81.06
249.133	86.06
249.366	97.06
249.599	88.06
249.832	79.06
250.066	79.06
250.299	90.06
250.532	76.06
250.765	80.06
250.998	86.06
251.231	85.06
251.465	81.06
251.698	86.06
251.931	86.06
252.164	83.06
252.397	91.06
252.63	64.06
252.863	74.06
253.096	113.06
253.329	89.06
253.562	96.06
253.795	79.06
254.028	69.06
254.261	89.06
254.494	85.06
254.727	82.06
254.96	77.06
255.193	78.06
255.426	74.06
255.659	96.06
255.892	83.06
256.124	90.06
256.357	96.06
256.59	81.06
256.823	86.06
257.056	81.06
257.289	81.06
257.521	92.06
257.754	93.06
257.987	84.06
258.22	79.06
258.452	89.06
258.685	87.06
258.918	97.06
259.151	87.06
259.383	68.06
259.616	93.06
259.849	88.06
260.081	77.06
260.314	85.06
260.547	97.06
260.779	81.06
261.012	65.06
261.244	74.06
261.477	91.06
261.71	81.06
261.942	91.06
262.175	83.06
262.407	98.06
262.64	80.06
262.872	101.06
263.105	91.06
263.337	85.06
263.57	91.06
263.802	86.06
264.035	84.06
264.267	83.06
264.499	101.06
264.732	92.06
264.964	71.06
265.197	98.06
265.429	89.06
265.661	83.06
265.894	76.06
266.126	92.06
266.358	83.06
266.591	93.06
266.823	86.06
267.055	89.06
267.287	89.06
267.52	81.06
267.752	94.06
267.984	76.06
268.216	94.06
268.448	94.06
268.681	89.06
268.913	77.06
269.145	101.06
269.377	82.06
269.609	95.06
269.841	94.06
270.073	85.06
270.306	92.06
270.538	94.06
270.77	88.06
271.002	88.06
271.234	93.06
271.466	96.06
271.698	95.06
271.93	77.06
272.162	84.06
272.394	105.06
272.626	92.06
272.858	98.06
273.09	104.06
273.322	84.06
273.553	93.06
273.785	87.06
274.017	91.06
274.249	88.06
274.481	76.06
274.713	87.06
274.945	97.06
275.176	82.06
275.408	89.06
275.64	97.06
275.872	87.06
276.104	97.06
276.335	102.06
276.567	91.06
276.799	83.06
277.031	83.06
277.262	98.06
277.494	91.06
277.726	89.06
277.957	91.06
278.189	89.06
278.421	91.06
278.652	80.06
278.884	81.06
279.115	78.06
279.347	111.06
279.579	97.06
279.81	86.06
280.042	100.06
280.273	86.06
280.505	90.06
280.736	94.06
280.968	87.06
281.199	89.06
281.431	93.06
281.662	101.06
281.894	92.06
282.125	83.06
282.356	82.06
282.588	89.06
282.819	96.06
283.051	97.06
283.282	85.06
283.513	93.06
283.745	107.06
283.976	89.06
284.207	90.06
284.439	82.06
284.67	73.06
284.901	94.06
285.132	93.06
285.364	80.06
285.595	96.06
285.826	76.06
286.057	104.06
286.288	90.06
286.52	79.06
286.751	79.06
286.982	92.06
287.213	96.06
287.444	101.06
287.675	84.06
287.906	88.06
288.138	96.06
288.369	101.06
288.6	90.06
288.831	86.06
289.062	102.06
289.293	96.06
289.524	93.06
289.755	98.06
289.986	88.06
290.217	86.06
290.448	99.06
290.679	94.06
290.91	97.06
291.141	85.06
291.371	90.06
291.602	92.06
291.833	84.06
292.064	86.06
292.295	96.06
292.526	87.06
292.757	96.06
292.987	98.06
293.218	76.06
293.449	102.06
293.68	102.06
293.91	83.06
294.141	80.06
294.372	94.06
294.603	85.06
294.833	92.06
295.064	91.06
295.295	87.06
295.525	97.06
295.756	84.06
295.987	94.06
296.217	92.06
296.448	97.06
296.679	90.06
296.909	80.06
297.14	93.06
297.37	98.06
297.601	86.06
297.831	81.06
298.062	88.06
298.292	89.06
298.523	96.06
298.753	98.06
298.984	99.06
299.214	89.06
299.445	93.06
299.675	99.06
299.905	90.06
300.136	90.06
300.366	86.06
300.597	88.06
300.827	85.06
301.057	83.06
301.288	97.06
301.518	98.06
301.748	96.06
301.979	83.06
302.209	82.06
302.439	102.06
302.669	89.06
302.9	87.06
303.13	108.06
303.36	90.06
303.59	96.06
303.82	107.06
304.051	102.06
304.281	88.06
304.511	97.06
304.741	105.06
304.971	102.06
305.201	89.06
305.431	100.06
305.661	97.06
305.891	84.06
306.121	93.06
306.352	91.06
306.582	105.06
306.812	101.06
307.042	103.06
307.272	96.06
307.502	82.06
307.731	109.06
307.961	98.06
308.191	82.06
308.421	98.06
308.651	94.06
308.881	94.06
309.111	90.06
309.341	90.06
309.571	86.06
309.8	103.06
310.03	98.06
310.26	98.06
310.49	92.06
310.72	89.06
310.949	95.06
311.179	96.06
311.409	77.06
311.639	83.06
311.868	88.06
312.098	87.06
312.328	85.06
312.557	82.06
312.787	83.06
313.017	90.06
313.246	86.06
313.476	105.06
313.706	88.06
313.935	98.06
314.165	90.06
314.394	91.06
314.624	85.06
314.853	96.06
315.083	91.06
315.312	92.06
315.542	96.06
315.771	77.06
316.001	81.06
316.23	105.06
316.46	82.06
316.689	112.06
316.919	92.06
317.148	83.06
317.377	94.06
317.607	97.06
317.836	81.06
318.065	89.06
318.295	92.06
318.524	89.06
318.753	94.06
318.983	90.06
319.212	93.06
319.441	72.06
319.67	96.06
319.9	93.06
320.129	98.06
320.358	75.06
320.587	84.06
320.816	93.06
321.046	105.06
321.275	104.06
321.504	102.06
321.733	84.06
321.962	81.06
322.191	98.06
322.42	96.06
322.649	99.06
322.878	87.06
323.108	84.06
323.337	88.06
323.566	86.06
323.795	105.06
324.024	89.06
324.253	92.06
324.482	92.06
324.71	93.06
324.939	83.06
325.168	100.06
325.397	86.06
325.626	82.06
325.855	91.06
326.084	97.06
326.313	90.06
326.542	88.06
326.77	96.06
326.999	98.06
327.228	95.06
327.457	96.06
327.686	107.06
327.914	89.06
328.143	104.06
328.372	112.06
328.6	90.06
328.829	106.06
329.058	78.06
329.287	79.06
329.515	86.06
329.744	97.06
329.972	86.06
330.201	101.06
330.43	80.06
330.658	88.06
330.887	92.06
331.115	98.06
331.344	106.06
331.572	97.06
331.801	96.06
332.03	96.06
332.258	83.06
332.486	109.06
332.715	103.06
332.943	111.06
333.172	96.06
333.4	101.06
333.629	99.06
333.857	97.06
334.085	88.06
334.314	92.06
334.542	94.06
334.771	86.06
334.999	102.06
335.227	98.06
335.455	104.06
335.684	96.06
335.912	105.06
336.14	92.06
336.369	96.06
336.597	86.06
336.825	73.06
337.053	93.06
337.281	86.06
337.51	94.06
337.738	97.06
337.966	90.06
338.194	96.06
338.422	104.06
338.65	96.06
338.878	115.06
339.106	96.06
339.334	95.06
339.562	99.06
339.79	91.06
340.018	98.06
340.246	101.06
340.474	94.06
340.702	89.06
340.93	97.06
341.158	89.06
341.386	85.06
341.614	91.06
341.842	82.06
342.07	80.06
342.298	95.06
342.526	95.06
342.754	97.06
342.981	103.06
343.209	92.06
343.437	90.06
343.665	101.06
343.893	90.06
344.12	90.06
344.348	96.06
344.576	95.06
344.804	78.06
345.031	96.06
345.259	99.06
345.487	92.06
345.714	83.06
345.942	91.06
346.17	100.06
346.397	92.06
346.625	91.06
346.853	85.06
347.08	100.06
347.308	85.06
347.535	79.06
347.763	93.06
347.99	118.06
348.218	91.06
348.445	92.06
348.673	84.06
348.9	91.06
349.128	108.06
349.355	91.06
349.583	86.06
349.81	104.06
350.037	104.06
350.265	91.06
350.492	74.06
350.72	91.06
350.947	97.06
351.174	94.06
351.402	102.06
351.629	102.06
351.856	89.06
352.083	87.06
352.311	73.06
352.538	111.06
352.765	86.06
352.992	88.06
353.22	106.06
353.447	88.06
353.674	101.06
353.901	90.06
354.128	101.06
354.355	93.06
354.583	101.06
354.81	90.06
355.037	78.06
355.264	94.06
355.491	82.06
355.718	84.06
355.945	92.06
356.172	89.06
356.399	94.06
356.626	101.06
356.853	89.06
357.08	100.06
357.307	93.06
357.534	64.06
357.761	86.06
357.988	101.06
358.215	85.06
358.441	96.06
358.668	90.06
358.895	87.06
359.122	90.06
359.349	81.06
359.576	93.06
359.802	88.06
360.029	84.06
360.256	91.06
360.483	85.06
360.709	94.06
360.936	98.06
361.163	94.06
361.39	85.06
361.616	86.06
361.843	83.06
362.07	94.06
362.296	96.06
362.523	98.06
362.749	99.06
362.976	100.06
363.203	105.06
363.429	93.06
363.656	89.06
363.882	104.06
364.109	96.06
364.335	93.06
364.562	97.06
364.788	88.06
365.015	116.06
365.241	109.06
365.468	100.06
365.694	88.06
365.92	98.06
366.147	83.06
366.373	94.06
366.599	85.06
366.826	97.06
367.052	89.06
367.278	95.06
367.505	92.06
367.731	91.06
367.957	89.06
368.184	98.06
368.41	106.06
368.636	99.06
368.862	77.06
369.089	100.06
369.315	84.06
369.541	93.06
369.767	93.06
369.993	89.06
370.219	90.06
370.445	94.06
370.672	85.06
370.898	97.06
371.124	100.06
371.35	83.06
371.576	84.06
371.802	92.06
372.028	99.06
372.254	109.06
372.48	102.06
372.706	97.06
372.932	97.06
373.158	91.06
373.384	97.06
373.61	94.06
373.835	94.06
374.061	90.06
374.287	84.06
374.513	99.06
374.739	101.06
374.965	98.06
375.191	94.06
375.416	83.06
375.642	95.06
375.868	116.06
376.094	100.06
376.319	98.06
376.545	98.06
376.771	96.06
376.997	89.06
377.222	84.06
377.448	96.06
377.674	92.06
377.899	85.06
378.125	105.06
378.35	96.06
378.576	99.06
378.802	92.06
379.027	93.06
379.253	109.06
379.478	101.06
379.704	95.06
379.929	94.06
380.155	92.06
380.38	98.06
380.606	75.06
380.831	88.06
381.057	98.06
381.282	79.06
381.507	90.06
381.733	87.06
381.958	81.06
382.184	94.06
382.409	84.06
382.634	90.06
382.86	102.06
383.085	93.06
383.31	99.06
383.535	96.06
383.761	104.06
383.986	97.06
384.211	96.06
384.436	105.06
384.662	95.06
384.887	97.06
385.112	90.06
385.337	93.06
385.562	87.06
385.787	106.06
386.013	94.06
386.238	105.06
386.463	91.06
386.688	91.06
386.913	90.06
387.138	109.06
387.363	106.06
387.588	88.06
387.813	102.06
388.038	108.06
388.263	86.06
388.488	92.06
388.713	103.06
388.938	96.06
389.163	87.06
389.387	93.06
389.612	91.06
389.837	93.06
390.062	97.06
390.287	91.06
390.512	96.06
390.736	86.06
390.961	100.06
391.186	101.06
391.411	112.06
391.636	109.06
391.86	105.06
392.085	108.06
392.31	103.06
392.534	100.06
392.759	93.06
392.984	94.06
393.208	101.06
393.433	87.06
393.658	93.06
393.882	89.06
394.107	90.06
394.331	96.06
394.556	100.06
394.78	87.06
395.005	101.06
395.229	90.06
395.454	90.06
395.678	109.06
395.903	102.06
396.127	85.06
396.352	108.06
396.576	93.06
396.801	97.06
397.025	84.06
397.249	99.06
397.474	115.06
397.698	90.06
397.922	109.06
398.147	100.06
398.371	100.06
398.595	99.06
398.82	104.06
399.044	95.06
399.268	105.06
399.492	118.06
399.717	124.06
399.941	110.06
400.165	97.06
400.389	89.06
400.613	98.06
400.837	86.06
401.062	100.06
401.286	105.06
401.51	71.06
401.734	96.06
401.958	104.06
402.182	100.06
402.406	90.06
402.63	115.06
402.854	112.06
403.078	100.06
403.302	85.06
403.526	93.06
403.75	100.06
403.974	102.06
404.198	100.06
404.422	99.06
404.645	97.06
404.869	101.06
405.093	106.06
405.317	91.06
405.541	106.06
405.765	105.06
405.988	101.06
406.212	73.06
406.436	100.06
406.66	117.06
406.883	110.06
407.107	97.06
407.331	95.06
407.555	103.06
407.778	115.06
408.002	116.06
408.226	104.06
408.449	114.06
408.673	102.06
408.896	98.06
409.12	94.06
409.344	106.06
409.567	109.06
409.791	104.06
410.014	101.06
410.238	100.06
410.461	96.06
410.685	89.06
410.908	95.06
411.132	93.06
411.355	101.06
411.578	95.06
411.802	98.06
412.025	99.06
412.249	84.06
412.472	116.06
412.695	100.06
412.919	90.06
413.142	96.06
413.365	101.06
413.589	103.06
413.812	107.06
414.035	106.06
414.258	116.06
414.482	98.06
414.705	103.06
414.928	94.06
415.151	104.06
415.374	99.06
415.597	97.06
415.821	93.06
416.044	98.06
416.267	102.06
416.49	97.06
416.713	83.06
416.936	94.06
417.159	102.06
417.382	88.06
417.605	101.06
417.828	110.06
418.051	93.06
418.274	87.06
418.497	99.06
418.72	108.06
418.943	114.06
419.166	101.06
419.389	94.06
419.611	103.06
419.834	86.06
420.057	101.06
420.28	82.06
420.503	102.06
420.726	101.06
420.948	115.06
421.171	110.06
421.394	99.06
421.617	91.06
421.839	97.06
422.062	96.06
422.285	86.06
422.507	112.06
422.73	109.06
422.953	91.06
423.175	107.06
423.398	85.06
423.621	104.06
423.843	103.06
424.066	90.06
424.288	91.06
424.511	101.06
424.733	105.06
424.956	120.06
425.178	100.06
425.401	117.06
425.623	107.06
425.846	93.06
426.068	94.06
426.291	106.06
426.513	80.06
426.735	98.06
426.958	95.06
427.18	108.06
427.402	94.06
427.625	97.06
427.847	89.06
428.069	86.06
428.292	98.06
428.514	83.06
428.736	86.06
428.958	100.06
429.181	100.06
429.403	97.06
429.625	94.06
429.847	91.06
430.069	103.06
430.292	91.06
430.514	98.06
430.736	91.06
430.958	104.06
431.18	96.06
431.402	96.06
431.624	83.06
431.846	90.06
432.068	92.06
432.29	99.06
432.512	88.06
432.734	102.06
432.956	101.06
433.178	95.06
433.4	96.06
433.622	106.06
433.844	89.06
434.066	83.06
434.287	103.06
434.509	99.06
434.731	104.06
434.953	79.06
435.175	91.06
435.397	106.06
435.618	93.06
435.84	99.06
436.062	104.06
436.284	102.06
436.505	105.06
436.727	99.06
436.949	80.06
437.17	92.06
437.392	95.06
437.614	89.06
437.835	97.06
438.057	103.06
438.278	91.06
438.5	99.06
438.721	81.06
438.943	97.06
439.165	107.06
439.386	101.06
439.608	101.06
439.829	98.06
440.05	104.06
440.272	81.06
440.493	109.06
440.715	93.06
440.936	106.06
441.158	105.06
441.379	82.06
441.6	107.06
441.822	108.06
442.043	92.06
442.264	88.06
442.486	106.06
442.707	108.06
442.928	97.06
443.149	91.06
443.371	104.06
443.592	94.06
443.813	109.06
444.034	101.06
444.255	108.06
444.476	106.06
444.698	102.06
444.919	96.06
445.14	207.06
445.361	152.06
445.582	115.06
445.803	87.06
446.024	110.06
446.245	100.06
446.466	104.06
446.687	115.06
446.908	92.06
447.129	98.06
447.35	97.06
447.571	101.06
447.792	95.06
448.013	79.06
448.234	100.06
448.455	102.06
448.675	96.06
448.896	108.06
449.117	106.06
449.338	101.06
449.559	104.06
449.779	88.06
450	93.06
450.221	92.06
450.442	101.06
450.662	90.06
450.883	86.06
451.104	101.06
451.324	101.06
451.545	103.06
451.766	103.06
451.986	99.06
452.207	108.06
452.428	93.06
452.648	104.06
452.869	97.06
453.089	100.06
453.31	104.06
453.53	100.06
453.751	90.06
453.971	90.06
454.192	98.06
454.412	95.06
454.633	85.06
454.853	98.06
455.073	91.06
455.294	101.06
455.514	90.06
455.734	100.06
455.955	97.06
456.175	100.06
456.395	72.06
456.616	82.06
456.836	93.06
457.056	99.06
457.276	101.06
457.497	96.06
457.717	74.06
457.937	93.06
458.157	82.06
458.377	89.06
458.598	102.06
458.818	101.06
459.038	95.06
459.258	83.06
459.478	97.06
459.698	106.06
459.918	106.06
460.138	97.06
460.358	93.06
460.578	116.06
460.798	109.06
461.018	88.06
461.238	97.06
461.458	103.06
461.678	114.06
461.898	113.06
462.118	98.06
462.338	97.06
462.558	102.06
462.777	98.06
462.997	83.06
463.217	98.06
463.437	102.06
463.657	104.06
463.876	92.06
464.096	114.06
464.316	109.06
464.536	108.06
464.755	110.06
464.975	111.06
465.195	94.06
465.414	116.06
465.634	104.06
465.854	89.06
466.073	95.06
466.293	105.06
466.512	99.06
466.732	100.06
466.951	105.06
467.171	112.06
467.391	97.06
467.61	105.06
467.829	93.06
468.049	103.06
468.268	94.06
468.488	95.06
468.707	107.06
468.927	112.06
469.146	90.06
469.365	89.06
469.585	91.06
469.804	95.06
470.023	98.06
470.243	87.06
470.462	99.06
470.681	108.06
470.901	102.06
471.12	111.06
471.339	98.06
471.558	102.06
471.777	104.06
471.997	107.06
472.216	94.06
472.435	101.06
472.654	101.06
472.873	106.06
473.092	93.06
473.311	102.06
473.53	97.06
473.749	85.06
473.968	93.06
474.187	84.06
474.406	101.06
474.625	100.06
474.844	102.06
475.063	95.06
475.282	98.06
475.501	112.06
475.72	107.06
475.939	102.06
476.158	84.06
476.377	98.06
476.596	110.06
476.814	109.06
477.033	98.06
477.252	100.06
477.471	102.06
477.69	106.06
477.908	97.06
478.127	116.06
478.346	115.06
478.564	100.06
478.783	94.06
479.002	92.06
479.22	106.06
479.439	119.06
479.658	105.06
479.876	108.06
480.095	101.06
480.313	103.06
480.532	91.06
480.751	105.06
480.969	108.06
481.188	104.06
481.406	115.06
481.624	112.06
481.843	102.06
482.061	110.06
482.28	101.06
482.498	101.06
482.717	100.06
482.935	95.06
483.153	112.06
483.372	85.06
483.59	103.06
483.808	109.06
484.027	109.06
484.245	113.06
484.463	106.06
484.681	116.06
484.9	107.06
485.118	117.06
485.336	94.06
485.554	103.06
485.772	103.06
485.99	94.06
486.209	105.06
486.427	100.06
486.645	107.06
486.863	119.06
487.081	101.06
487.299	105.06
487.517	105.06
487.735	138.06
487.953	124.06
488.171	110.06
488.389	114.06
488.607	100.06
488.825	94.06
489.043	120.06
489.261	112.06
489.479	100.06
489.696	103.06
489.914	100.06
490.132	101.06
490.35	97.06
490.568	109.06
490.786	109.06
491.003	101.06
491.221	106.06
491.439	108.06
491.657	115.06
491.874	120.06
492.092	123.06
492.31	117.06
492.527	129.06
492.745	117.06
492.963	125.06
493.18	119.06
493.398	113.06
493.615	121.06
493.833	113.06
494.05	109.06
494.268	107.06
494.485	117.06
494.703	126.06
494.92	120.06
495.138	112.06
495.355	125.06
495.573	116.06
495.79	112.06
496.008	132.06
496.225	122.06
496.442	110.06
496.66	120.06
496.877	118.06
497.094	136.06
497.312	114.06
497.529	119.06
497.746	116.06
497.963	103.06
498.181	103.06
498.398	128.06
498.615	106.06
498.832	115.06
499.049	125.06
499.267	116.06
499.484	125.06
499.701	135.06
499.918	144.06
500.135	144.06
500.352	170.06
500.569	155.06
500.786	169.06
501.003	149.06
501.22	138.06
501.437	131.06
501.654	138.06
501.871	136.06
502.088	116.06
502.305	125.06
502.522	112.06
502.739	120.06
502.956	114.06
503.172	114.06
503.389	120.06
503.606	109.06
503.823	124.06
504.04	116.06
504.256	112.06
504.473	110.06
504.69	107.06
504.907	128.06
505.123	117.06
505.34	114.06
505.557	126.06
505.773	121.06
505.99	107.06
506.207	103.06
506.423	119.06
506.64	94.06
506.856	95.06
507.073	115.06
507.289	96.06
507.506	95.06
507.722	95.06
507.939	114.06
508.155	120.06
508.372	119.06
508.588	101.06
508.805	90.06
509.021	102.06
509.238	91.06
509.454	99.06
509.67	92.06
509.887	104.06
510.103	118.06
510.319	98.06
510.536	101.06
510.752	107.06
510.968	94.06
511.184	101.06
511.401	108.06
511.617	125.06
511.833	102.06
512.049	105.06
512.265	110.06
512.481	110.06
512.698	102.06
512.914	100.06
513.13	114.06
513.346	95.06
513.562	102.06
513.778	109.06
513.994	110.06
514.21	118.06
514.426	104.06
514.642	114.06
514.858	84.06
515.074	106.06
515.29	118.06
515.506	112.06
515.721	103.06
515.937	122.06
516.153	100.06
516.369	97.06
516.585	108.06
516.801	105.06
517.016	98.06
517.232	106.06
517.448	110.06
517.664	112.06
517.879	120.06
518.095	121.06
518.311	113.06
518.527	117.06
518.742	109.06
518.958	119.06
519.173	116.06
519.389	99.06
519.605	114.06
519.82	99.06
520.036	102.06
520.251	102.06
520.467	103.06
520.682	96.06
520.898	93.06
521.113	93.06
521.329	101.06
521.544	105.06
521.76	93.06
521.975	96.06
522.19	108.06
522.406	98.06
522.621	100.06
522.836	96.06
523.052	101.06
523.267	101.06
523.482	95.06
523.698	106.06
523.913	98.06
524.128	110.06
524.343	103.06
524.559	102.06
524.774	118.06
524.989	97.06
525.204	105.06
525.419	97.06
525.634	106.06
525.849	103.06
526.064	97.06
526.28	113.06
526.495	102.06
526.71	88.06
526.925	108.06
527.14	94.06
527.355	109.06
527.57	102.06
527.785	96.06
527.999	117.06
528.214	100.06
528.429	116.06
528.644	114.06
528.859	120.06
529.074	110.06
529.289	117.06
529.503	107.06
529.718	121.06
529.933	98.06
530.148	106.06
530.363	105.06
530.577	108.06
530.792	90.06
531.007	96.06
531.221	103.06
531.436	92.06
531.651	94.06
531.865	100.06
532.08	102.06
532.295	85.06
532.509	90.06
532.724	104.06
532.938	102.06
533.153	114.06
533.367	105.06
533.582	91.06
533.796	100.06
534.011	91.06
534.225	105.06
534.44	104.06
534.654	91.06
534.868	101.06
535.083	101.06
535.297	102.06
535.511	115.06
535.726	103.06
535.94	95.06
536.154	109.06
536.369	97.06
536.583	99.06
536.797	107.06
537.011	103.06
537.225	92.06
537.44	107.06
537.654	107.06
537.868	89.06
538.082	94.06
538.296	83.06
538.51	94.06
538.724	97.06
538.938	102.06
539.153	102.06
539.367	96.06
539.581	98.06
539.795	112.06
540.009	99.06
540.222	101.06
540.436	97.06
540.65	96.06
540.864	92.06
541.078	109.06
541.292	115.06
541.506	92.06
541.72	101.06
541.934	107.06
542.147	114.06
542.361	109.06
542.575	108.06
542.789	115.06
543.002	112.06
543.216	95.06
543.43	101.06
543.644	88.06
543.857	105.06
544.071	116.06
544.285	115.06
544.498	104.06
544.712	112.06
544.925	96.06
545.139	118.06
545.352	124.06
545.566	106.06
545.779	109.06
545.993	90.06
546.206	98.06
546.42	107.06
546.633	119.06
546.847	100.06
547.06	95.06
547.274	113.06
547.487	95.06
547.7	101.06
547.914	117.06
548.127	102.06
548.34	105.06
548.554	99.06
548.767	104.06
548.98	92.06
549.193	98.06
549.407	109.06
549.62	119.06
549.833	98.06
550.046	93.06
550.259	116.06
550.473	107.06
550.686	90.06
550.899	112.06
551.112	107.06
551.325	104.06
551.538	96.06
551.751	89.06
551.964	96.06
552.177	108.06
552.39	93.06
552.603	108.06
552.816	114.06
553.029	109.06
553.242	108.06
553.455	109.06
553.667	101.06
553.88	106.06
554.093	112.06
554.306	101.06
554.519	106.06
554.732	99.06
554.944	106.06
555.157	100.06
555.37	108.06
555.583	102.06
555.795	108.06
556.008	93.06
556.221	108.06
556.433	111.06
556.646	94.06
556.859	96.06
557.071	103.06
557.284	87.06
557.496	92.06
557.709	98.06
557.921	96.06
558.134	89.06
558.346	94.06
558.559	89.06
558.771	96.06
558.984	86.06
559.196	83.06
559.409	101.06
559.621	109.06
559.833	105.06
560.046	105.06
560.258	104.06
560.47	93.06
560.683	96.06
560.895	103.06
561.107	91.06
561.32	100.06
561.532	99.06
561.744	89.06
561.956	101.06
562.168	99.06
562.381	107.06
562.593	85.06
562.805	93.06
563.017	98.06
563.229	110.06
563.441	93.06
563.653	101.06
563.865	98.06
564.077	103.06
564.289	105.06
564.501	90.06
564.713	114.06
564.925	100.06
565.137	110.06
565.349	101.06
565.561	87.06
565.773	98.06
565.985	101.06
566.197	104.06
566.408	105.06
566.62	106.06
566.832	101.06
567.044	106.06
567.255	113.06
567.467	105.06
567.679	112.06
567.891	110.06
568.102	100.06
568.314	125.06
568.526	113.06
568.737	107.06
568.949	107.06
569.161	115.06
569.372	109.06
569.584	98.06
569.795	105.06
570.007	98.06
570.218	113.06
570.43	88.06
570.641	95.06
570.853	96.06
571.064	115.06
571.276	106.06
571.487	94.06
571.698	100.06
571.91	114.06
572.121	92.06
572.333	87.06
572.544	85.06
572.755	113.06
572.966	86.06
573.178	90.06
573.389	106.06
573.6	81.06
573.811	88.06
574.023	93.06
574.234	82.06
574.445	101.06
574.656	92.06
574.867	82.06
575.078	89.06
575.289	106.06
575.501	97.06
575.712	94.06
575.923	90.06
576.134	93.06
576.345	100.06
576.556	83.06
576.767	90.06
576.978	105.06
577.188	96.06
577.399	97.06
577.61	94.06
577.821	101.06
578.032	89.06
578.243	99.06
578.454	94.06
578.665	100.06
578.875	85.06
579.086	92.06
579.297	99.06
579.508	97.06
579.718	89.06
579.929	86.06
580.14	109.06
580.35	98.06
580.561	88.06
580.772	106.06
580.982	113.06
581.193	93.06
581.403	98.06
581.614	103.06
581.825	90.06
582.035	86.06
582.246	101.06
582.456	101.06
582.667	88.06
582.877	94.06
583.087	84.06
583.298	88.06
583.508	88.06
583.719	86.06
583.929	81.06
584.139	83.06
584.35	83.06
584.56	93.06
584.77	96.06
584.981	95.06
585.191	92.06
585.401	95.06
585.611	97.06
585.821	84.06
586.032	97.06
586.242	93.06
586.452	100.06
586.662	83.06
586.872	83.06
587.082	85.06
587.292	85.06
587.502	101.06
587.713	100.06
587.923	103.06
588.133	96.06
588.343	87.06
588.553	90.06
588.762	90.06
588.972	107.06
589.182	117.06
589.392	109.06
589.602	101.06
589.812	110.06
590.022	104.06
590.232	88.06
590.441	87.06
590.651	82.06
590.861	88.06
591.071	96.06
591.281	99.06
591.49	97.06
591.7	84.06
591.91	96.06
592.119	99.06
592.329	91.06
592.539	98.06
592.748	101.06
592.958	102.06
593.167	100.06
593.377	97.06
593.587	113.06
593.796	105.06
594.006	82.06
594.215	91.06
594.424	89.06
594.634	86.06
594.843	81.06
595.053	86.06
595.262	93.06
595.472	102.06
595.681	89.06
595.89	86.06
596.1	88.06
596.309	81.06
596.518	84.06
596.727	82.06
596.937	89.06
597.146	91.06
597.355	97.06
597.564	105.06
597.774	98.06
597.983	82.06
598.192	78.06
598.401	84.06
598.61	86.06
598.819	94.06
599.028	98.06
599.237	92.06
599.446	91.06
599.655	83.06
599.864	75.06
600.073	97.06
600.282	76.06
600.491	100.06
600.7	91.06
600.909	108.06
601.118	97.06
601.327	78.06
601.536	92.06
601.745	103.06
601.953	102.06
602.162	101.06
602.371	89.06
602.58	82.06
602.789	94.06
602.997	82.06
603.206	80.06
603.415	78.06
603.623	101.06
603.832	102.06
604.041	95.06
604.249	83.06
604.458	95.06
604.666	88.06
604.875	88.06
605.084	89.06
605.292	84.06
605.501	97.06
605.709	99.06
605.918	94.06
606.126	103.06
606.334	89.06
606.543	103.06
606.751	88.06
606.96	83.06
607.168	95.06
607.376	85.06
607.585	84.06
607.793	105.06
608.001	85.06
608.21	89.06
608.418	89.06
608.626	95.06
608.834	77.06
609.043	105.06
609.251	98.06
609.459	91.06
609.667	96.06
609.875	91.06
610.083	84.06
610.291	85.06
610.499	102.06
610.707	87.06
610.916	80.06
611.124	87.06
611.332	85.06
611.54	76.06
611.748	89.06
611.955	79.06
612.163	94.06
612.371	72.06
612.579	80.06
612.787	90.06
612.995	78.06
613.203	77.06
613.411	86.06
613.618	85.06
613.826	84.06
614.034	102.06
614.242	98.06
614.449	90.06
614.657	94.06
614.865	103.06
615.072	91.06
615.28	71.06
615.488	93.06
615.695	86.06
615.903	91.06
616.111	105.06
616.318	95.06
616.526	98.06
616.733	100.06
616.941	90.06
617.148	101.06
617.356	98.06
617.563	82.06
617.771	81.06
617.978	91.06
618.185	78.06
618.393	78.06
618.6	95.06
618.807	101.06
619.015	85.06
619.222	86.06
619.429	68.06
619.637	80.06
619.844	82.06
620.051	87.06
620.258	98.06
620.466	90.06
620.673	105.06
620.88	98.06
621.087	94.06
621.294	97.06
621.501	100.06
621.708	83.06
621.915	82.06
622.122	94.06
622.329	85.06
622.536	87.06
622.743	86.06
622.95	91.06
623.157	88.06
623.364	89.06
623.571	83.06
623.778	99.06
623.985	72.06
624.192	80.06
624.399	83.06
624.606	94.06
624.812	84.06
625.019	92.06
625.226	81.06
625.433	82.06
625.639	103.06
625.846	102.06
626.053	102.06
626.259	88.06
626.466	89.06
626.673	91.06
626.879	87.06
627.086	97.06
627.293	79.06
627.499	91.06
627.706	79.06
627.912	82.06
628.119	99.06
628.325	93.06
628.532	88.06
628.738	84.06
628.945	82.06
629.151	80.06
629.357	87.06
629.564	82.06
629.77	89.06
629.976	94.06
630.183	89.06
630.389	106.06
630.595	77.06
630.802	91.06
631.008	84.06
631.214	85.06
631.42	95.06
631.627	91.06
631.833	75.06
632.039	83.06
632.245	89.06
632.451	78.06
632.657	85.06
632.863	68.06
633.069	78.06
633.275	86.06
633.481	89.06
633.688	80.06
633.893	90.06
634.099	94.06
634.305	91.06
634.511	86.06
634.717	89.06
634.923	87.06
635.129	86.06
635.335	85.06
635.541	75.06
635.747	76.06
635.952	85.06
636.158	98.06
636.364	91.06
636.57	84.06
636.775	86.06
636.981	99.06
637.187	102.06
637.392	90.06
637.598	84.06
637.804	89.06
638.009	87.06
638.215	94.06
638.421	100.06
638.626	89.06
638.832	90.06
639.037	103.06
639.243	102.06
639.448	66.06
639.654	97.06
639.859	81.06
640.065	98.06
640.27	90.06
640.475	88.06
640.681	75.06
640.886	91.06
641.091	88.06
641.297	108.06
641.502	84.06
641.707	87.06
641.913	89.06
642.118	86.06
642.323	92.06
642.528	86.06
642.733	92.06
642.939	85.06
643.144	91.06
643.349	81.06
643.554	83.06
643.759	88.06
643.964	93.06
644.169	92.06
644.374	85.06
644.579	85.06
644.784	81.06
644.989	84.06
645.194	92.06
645.399	100.06
645.604	78.06
645.809	94.06
646.014	80.06
646.219	84.06
646.423	73.06
646.628	89.06
646.833	82.06
647.038	84.06
647.243	101.06
647.447	69.06
647.652	91.06
647.857	89.06
648.062	92.06
648.266	86.06
648.471	83.06
648.676	71.06
648.88	84.06
649.085	90.06
649.289	101.06
649.494	103.06
649.698	81.06
649.903	83.06
650.107	82.06
650.312	79.06
650.516	82.06
650.721	97.06
650.925	90.06
651.13	91.06
651.334	86.06
651.539	94.06
651.743	84.06
651.947	77.06
652.152	99.06
652.356	88.06
652.56	90.06
652.764	78.06
652.969	88.06
653.173	95.06
653.377	75.06
653.581	89.06
653.785	73.06
653.99	95.06
654.194	96.06
654.398	84.06
654.602	104.06
654.806	90.06
655.01	80.06
655.214	87.06
655.418	78.06
655.622	94.06
655.826	79.06
656.03	74.06
656.234	94.06
656.438	93.06
656.642	81.06
656.846	87.06
657.049	94.06
657.253	86.06
657.457	86.06
657.661	92.06
657.865	83.06
658.068	88.06
658.272	86.06
658.476	88.06
658.68	79.06
658.883	93.06
659.087	80.06
659.291	80.06
659.494	77.06
659.698	80.06
659.901	86.06
660.105	80.06
660.309	77.06
660.512	73.06
660.716	89.06
660.919	84.06
661.123	80.06
661.326	77.06
661.53	94.06
661.733	88.06
661.936	76.06
662.14	78.06
662.343	71.06
662.546	91.06
662.75	90.06
662.953	82.06
663.156	76.06
663.36	89.06
663.563	77.06
663.766	91.06
663.969	89.06
664.173	93.06
664.376	77.06
664.579	88.06
664.782	79.06
664.985	88.06
665.188	90.06
665.391	75.06
665.594	83.06
665.797	82.06
666	67.06
666.203	84.06
666.406	87.06
666.609	83.06
666.812	97.06
667.015	90.06
667.218	70.06
667.421	85.06
667.624	69.06
667.827	77.06
668.03	96.06
668.232	72.06
668.435	76.06
668.638	81.06
668.841	81.06
669.043	70.06
669.246	97.06
669.449	88.06
669.651	79.06
669.854	91.06
670.057	77.06
670.259	94.06
670.462	80.06
670.665	85.06
670.867	89.06
671.07	88.06
671.272	94.06
671.475	76.06
671.677	86.06
671.88	84.06
672.082	97.06
672.284	93.06
672.487	96.06
672.689	90.06
672.892	70.06
