Data from Location5.07152019.Energy5.Lamp.07192019.3%Agarose_HRD10591_16-02-28-627.txt Node
Date: Fri Jul 19 16:02:28 EDT 2019
User: cochatt
Spectrometer: HR+D1059
Trigger mode: 1
Integration Time (sec): 1.000000E-1
Scans to average: 1
Electric dark correction enabled: true
Nonlinearity correction enabled: false
Boxcar width: 0
XAxis mode: Wavelengths
Number of Pixels in Spectrum: 2048
>>>>>Begin Spectral Data<<<<<
223.165	-10.31
223.4	-10.31
223.635	-10.31
223.869	-18.31
224.104	-26.31
224.338	-19.31
224.573	-21.31
224.808	-19.31
225.042	-6.31
225.277	-16.31
225.511	5.69
225.746	2.69
225.98	6.69
226.215	15.69
226.449	20.69
226.683	22.69
226.918	25.69
227.152	37.69
227.387	42.69
227.621	28.69
227.856	50.69
228.09	41.69
228.324	46.69
228.559	46.69
228.793	51.69
229.027	51.69
229.262	66.69
229.496	71.69
229.73	75.69
229.964	67.69
230.199	74.69
230.433	71.69
230.667	75.69
230.901	83.69
231.136	76.69
231.37	82.69
231.604	84.69
231.838	93.69
232.072	71.69
232.306	79.69
232.541	84.69
232.775	82.69
233.009	74.69
233.243	83.69
233.477	74.69
233.711	79.69
233.945	77.69
234.179	78.69
234.413	80.69
234.647	81.69
234.881	71.69
235.115	94.69
235.349	76.69
235.583	88.69
235.817	68.69
236.051	85.69
236.285	81.69
236.519	77.69
236.753	84.69
236.987	94.69
237.221	71.69
237.455	90.69
237.689	76.69
237.922	61.69
238.156	83.69
238.39	82.69
238.624	96.69
238.858	68.69
239.091	63.69
239.325	66.69
239.559	79.69
239.793	70.69
240.027	86.69
240.26	80.69
240.494	82.69
240.728	82.69
240.961	83.69
241.195	70.69
241.429	62.69
241.662	90.69
241.896	61.69
242.13	64.69
242.363	69.69
242.597	79.69
242.83	86.69
243.064	81.69
243.298	82.69
243.531	80.69
243.765	88.69
243.998	81.69
244.232	55.69
244.465	86.69
244.699	73.69
244.932	84.69
245.166	72.69
245.399	81.69
245.633	67.69
245.866	74.69
246.099	85.69
246.333	79.69
246.566	75.69
246.8	69.69
247.033	81.69
247.266	80.69
247.5	89.69
247.733	98.69
247.966	76.69
248.2	64.69
248.433	62.69
248.666	72.69
248.899	82.69
249.133	80.69
249.366	90.69
249.599	69.69
249.832	81.69
250.066	81.69
250.299	94.69
250.532	97.69
250.765	92.69
250.998	82.69
251.231	79.69
251.465	85.69
251.698	80.69
251.931	83.69
252.164	78.69
252.397	85.69
252.63	85.69
252.863	79.69
253.096	80.69
253.329	81.69
253.562	78.69
253.795	81.69
254.028	81.69
254.261	75.69
254.494	85.69
254.727	88.69
254.96	76.69
255.193	81.69
255.426	80.69
255.659	80.69
255.892	89.69
256.124	90.69
256.357	76.69
256.59	87.69
256.823	73.69
257.056	76.69
257.289	88.69
257.521	88.69
257.754	83.69
257.987	81.69
258.22	80.69
258.452	71.69
258.685	93.69
258.918	90.69
259.151	90.69
259.383	90.69
259.616	89.69
259.849	82.69
260.081	75.69
260.314	87.69
260.547	69.69
260.779	92.69
261.012	82.69
261.244	82.69
261.477	100.69
261.71	75.69
261.942	95.69
262.175	89.69
262.407	71.69
262.64	77.69
262.872	89.69
263.105	85.69
263.337	79.69
263.57	82.69
263.802	79.69
264.035	100.69
264.267	87.69
264.499	86.69
264.732	88.69
264.964	84.69
265.197	82.69
265.429	97.69
265.661	74.69
265.894	78.69
266.126	81.69
266.358	86.69
266.591	81.69
266.823	85.69
267.055	67.69
267.287	95.69
267.52	87.69
267.752	90.69
267.984	74.69
268.216	73.69
268.448	91.69
268.681	87.69
268.913	82.69
269.145	81.69
269.377	81.69
269.609	89.69
269.841	80.69
270.073	67.69
270.306	76.69
270.538	99.69
270.77	88.69
271.002	95.69
271.234	74.69
271.466	77.69
271.698	87.69
271.93	82.69
272.162	82.69
272.394	88.69
272.626	82.69
272.858	87.69
273.09	90.69
273.322	83.69
273.553	85.69
273.785	84.69
274.017	95.69
274.249	91.69
274.481	81.69
274.713	95.69
274.945	84.69
275.176	72.69
275.408	81.69
275.64	70.69
275.872	80.69
276.104	77.69
276.335	71.69
276.567	85.69
276.799	83.69
277.031	88.69
277.262	91.69
277.494	80.69
277.726	88.69
277.957	80.69
278.189	86.69
278.421	94.69
278.652	81.69
278.884	75.69
279.115	92.69
279.347	85.69
279.579	84.69
279.81	83.69
280.042	95.69
280.273	91.69
280.505	81.69
280.736	77.69
280.968	85.69
281.199	94.69
281.431	81.69
281.662	88.69
281.894	75.69
282.125	93.69
282.356	89.69
282.588	92.69
282.819	80.69
283.051	97.69
283.282	82.69
283.513	88.69
283.745	88.69
283.976	90.69
284.207	91.69
284.439	92.69
284.67	100.69
284.901	95.69
285.132	90.69
285.364	87.69
285.595	95.69
285.826	83.69
286.057	73.69
286.288	87.69
286.52	75.69
286.751	89.69
286.982	93.69
287.213	97.69
287.444	93.69
287.675	105.69
287.906	67.69
288.138	99.69
288.369	84.69
288.6	95.69
288.831	73.69
289.062	90.69
289.293	93.69
289.524	99.69
289.755	85.69
289.986	86.69
290.217	90.69
290.448	86.69
290.679	75.69
290.91	88.69
291.141	94.69
291.371	93.69
291.602	91.69
291.833	79.69
292.064	85.69
292.295	66.69
292.526	85.69
292.757	88.69
292.987	102.69
293.218	93.69
293.449	92.69
293.68	101.69
293.91	97.69
294.141	84.69
294.372	88.69
294.603	94.69
294.833	86.69
295.064	103.69
295.295	95.69
295.525	102.69
295.756	96.69
295.987	85.69
296.217	93.69
296.448	98.69
296.679	75.69
296.909	78.69
297.14	80.69
297.37	75.69
297.601	97.69
297.831	96.69
298.062	81.69
298.292	81.69
298.523	84.69
298.753	89.69
298.984	95.69
299.214	102.69
299.445	116.69
299.675	87.69
299.905	93.69
300.136	81.69
300.366	98.69
300.597	97.69
300.827	98.69
301.057	89.69
301.288	90.69
301.518	75.69
301.748	87.69
301.979	93.69
302.209	106.69
302.439	91.69
302.669	84.69
302.9	84.69
303.13	88.69
303.36	87.69
303.59	82.69
303.82	100.69
304.051	90.69
304.281	92.69
304.511	94.69
304.741	94.69
304.971	88.69
305.201	96.69
305.431	97.69
305.661	77.69
305.891	86.69
306.121	91.69
306.352	93.69
306.582	110.69
306.812	91.69
307.042	93.69
307.272	86.69
307.502	92.69
307.731	90.69
307.961	85.69
308.191	76.69
308.421	80.69
308.651	77.69
308.881	103.69
309.111	91.69
309.341	86.69
309.571	103.69
309.8	95.69
310.03	98.69
310.26	104.69
310.49	79.69
310.72	85.69
310.949	88.69
311.179	102.69
311.409	103.69
311.639	94.69
311.868	94.69
312.098	107.69
312.328	86.69
312.557	85.69
312.787	79.69
313.017	90.69
313.246	94.69
313.476	98.69
313.706	102.69
313.935	96.69
314.165	75.69
314.394	83.69
314.624	94.69
314.853	93.69
315.083	82.69
315.312	80.69
315.542	99.69
315.771	85.69
316.001	93.69
316.23	107.69
316.46	89.69
316.689	90.69
316.919	78.69
317.148	74.69
317.377	75.69
317.607	90.69
317.836	79.69
318.065	81.69
318.295	98.69
318.524	85.69
318.753	90.69
318.983	92.69
319.212	87.69
319.441	85.69
319.67	95.69
319.9	102.69
320.129	103.69
320.358	83.69
320.587	86.69
320.816	96.69
321.046	91.69
321.275	93.69
321.504	91.69
321.733	97.69
321.962	88.69
322.191	99.69
322.42	106.69
322.649	78.69
322.878	95.69
323.108	102.69
323.337	98.69
323.566	92.69
323.795	92.69
324.024	85.69
324.253	77.69
324.482	97.69
324.71	103.69
324.939	106.69
325.168	85.69
325.397	105.69
325.626	101.69
325.855	99.69
326.084	88.69
326.313	95.69
326.542	82.69
326.77	95.69
326.999	88.69
327.228	82.69
327.457	86.69
327.686	84.69
327.914	91.69
328.143	82.69
328.372	78.69
328.6	105.69
328.829	100.69
329.058	87.69
329.287	98.69
329.515	89.69
329.744	96.69
329.972	99.69
330.201	97.69
330.43	95.69
330.658	90.69
330.887	98.69
331.115	93.69
331.344	82.69
331.572	113.69
331.801	86.69
332.03	96.69
332.258	103.69
332.486	94.69
332.715	87.69
332.943	89.69
333.172	87.69
333.4	86.69
333.629	95.69
333.857	87.69
334.085	110.69
334.314	109.69
334.542	82.69
334.771	107.69
334.999	86.69
335.227	100.69
335.455	111.69
335.684	86.69
335.912	97.69
336.14	106.69
336.369	90.69
336.597	100.69
336.825	97.69
337.053	84.69
337.281	91.69
337.51	89.69
337.738	81.69
337.966	103.69
338.194	91.69
338.422	82.69
338.65	92.69
338.878	110.69
339.106	90.69
339.334	87.69
339.562	95.69
339.79	90.69
340.018	89.69
340.246	93.69
340.474	91.69
340.702	90.69
340.93	93.69
341.158	82.69
341.386	95.69
341.614	87.69
341.842	95.69
342.07	91.69
342.298	81.69
342.526	91.69
342.754	92.69
342.981	93.69
343.209	89.69
343.437	86.69
343.665	79.69
343.893	100.69
344.12	104.69
344.348	89.69
344.576	93.69
344.804	100.69
345.031	88.69
345.259	99.69
345.487	84.69
345.714	97.69
345.942	88.69
346.17	94.69
346.397	87.69
346.625	88.69
346.853	92.69
347.08	87.69
347.308	91.69
347.535	97.69
347.763	95.69
347.99	88.69
348.218	101.69
348.445	90.69
348.673	92.69
348.9	85.69
349.128	102.69
349.355	95.69
349.583	86.69
349.81	90.69
350.037	106.69
350.265	76.69
350.492	96.69
350.72	82.69
350.947	102.69
351.174	88.69
351.402	91.69
351.629	90.69
351.856	102.69
352.083	95.69
352.311	103.69
352.538	92.69
352.765	87.69
352.992	81.69
353.22	96.69
353.447	79.69
353.674	90.69
353.901	88.69
354.128	90.69
354.355	88.69
354.583	79.69
354.81	85.69
355.037	82.69
355.264	85.69
355.491	89.69
355.718	76.69
355.945	91.69
356.172	86.69
356.399	95.69
356.626	91.69
356.853	100.69
357.08	87.69
357.307	99.69
357.534	95.69
357.761	91.69
357.988	79.69
358.215	95.69
358.441	97.69
358.668	95.69
358.895	93.69
359.122	79.69
359.349	96.69
359.576	82.69
359.802	93.69
360.029	94.69
360.256	109.69
360.483	90.69
360.709	103.69
360.936	102.69
361.163	73.69
361.39	90.69
361.616	97.69
361.843	79.69
362.07	80.69
362.296	101.69
362.523	96.69
362.749	87.69
362.976	79.69
363.203	120.69
363.429	87.69
363.656	104.69
363.882	99.69
364.109	103.69
364.335	90.69
364.562	79.69
364.788	96.69
365.015	86.69
365.241	87.69
365.468	86.69
365.694	86.69
365.92	94.69
366.147	97.69
366.373	82.69
366.599	104.69
366.826	91.69
367.052	99.69
367.278	84.69
367.505	108.69
367.731	86.69
367.957	87.69
368.184	89.69
368.41	84.69
368.636	91.69
368.862	86.69
369.089	89.69
369.315	99.69
369.541	94.69
369.767	78.69
369.993	99.69
370.219	105.69
370.445	95.69
370.672	105.69
370.898	74.69
371.124	85.69
371.35	89.69
371.576	98.69
371.802	84.69
372.028	81.69
372.254	85.69
372.48	88.69
372.706	87.69
372.932	81.69
373.158	100.69
373.384	95.69
373.61	87.69
373.835	83.69
374.061	78.69
374.287	93.69
374.513	96.69
374.739	83.69
374.965	81.69
375.191	96.69
375.416	97.69
375.642	98.69
375.868	105.69
376.094	91.69
376.319	86.69
376.545	111.69
376.771	94.69
376.997	100.69
377.222	91.69
377.448	82.69
377.674	82.69
377.899	90.69
378.125	82.69
378.35	91.69
378.576	104.69
378.802	77.69
379.027	94.69
379.253	102.69
379.478	97.69
379.704	98.69
379.929	96.69
380.155	79.69
380.38	88.69
380.606	101.69
380.831	85.69
381.057	98.69
381.282	109.69
381.507	89.69
381.733	91.69
381.958	85.69
382.184	96.69
382.409	87.69
382.634	99.69
382.86	102.69
383.085	87.69
383.31	90.69
383.535	96.69
383.761	90.69
383.986	74.69
384.211	86.69
384.436	81.69
384.662	77.69
384.887	93.69
385.112	95.69
385.337	97.69
385.562	94.69
385.787	98.69
386.013	109.69
386.238	95.69
386.463	93.69
386.688	110.69
386.913	72.69
387.138	90.69
387.363	98.69
387.588	101.69
387.813	92.69
388.038	86.69
388.263	101.69
388.488	87.69
388.713	92.69
388.938	93.69
389.163	98.69
389.387	94.69
389.612	82.69
389.837	99.69
390.062	93.69
390.287	83.69
390.512	104.69
390.736	80.69
390.961	104.69
391.186	102.69
391.411	88.69
391.636	88.69
391.86	95.69
392.085	118.69
392.31	97.69
392.534	89.69
392.759	98.69
392.984	109.69
393.208	83.69
393.433	107.69
393.658	95.69
393.882	106.69
394.107	106.69
394.331	95.69
394.556	89.69
394.78	98.69
395.005	88.69
395.229	93.69
395.454	91.69
395.678	106.69
395.903	90.69
396.127	95.69
396.352	111.69
396.576	102.69
396.801	109.69
397.025	96.69
397.249	95.69
397.474	90.69
397.698	95.69
397.922	102.69
398.147	93.69
398.371	95.69
398.595	88.69
398.82	99.69
399.044	102.69
399.268	113.69
399.492	101.69
399.717	113.69
399.941	101.69
400.165	106.69
400.389	108.69
400.613	89.69
400.837	97.69
401.062	100.69
401.286	100.69
401.51	99.69
401.734	101.69
401.958	91.69
402.182	86.69
402.406	96.69
402.63	91.69
402.854	99.69
403.078	85.69
403.302	104.69
403.526	101.69
403.75	97.69
403.974	110.69
404.198	105.69
404.422	103.69
404.645	95.69
404.869	94.69
405.093	95.69
405.317	110.69
405.541	101.69
405.765	78.69
405.988	105.69
406.212	99.69
406.436	88.69
406.66	105.69
406.883	96.69
407.107	94.69
407.331	103.69
407.555	112.69
407.778	105.69
408.002	113.69
408.226	109.69
408.449	106.69
408.673	108.69
408.896	102.69
409.12	110.69
409.344	93.69
409.567	111.69
409.791	109.69
410.014	109.69
410.238	97.69
410.461	94.69
410.685	104.69
410.908	97.69
411.132	105.69
411.355	110.69
411.578	101.69
411.802	122.69
412.025	104.69
412.249	85.69
412.472	97.69
412.695	94.69
412.919	94.69
413.142	96.69
413.365	100.69
413.589	94.69
413.812	105.69
414.035	111.69
414.258	84.69
414.482	91.69
414.705	109.69
414.928	107.69
415.151	81.69
415.374	106.69
415.597	86.69
415.821	98.69
416.044	94.69
416.267	96.69
416.49	97.69
416.713	97.69
416.936	93.69
417.159	92.69
417.382	93.69
417.605	93.69
417.828	97.69
418.051	110.69
418.274	106.69
418.497	105.69
418.72	114.69
418.943	88.69
419.166	103.69
419.389	97.69
419.611	100.69
419.834	101.69
420.057	102.69
420.28	80.69
420.503	99.69
420.726	90.69
420.948	109.69
421.171	101.69
421.394	94.69
421.617	83.69
421.839	94.69
422.062	85.69
422.285	97.69
422.507	86.69
422.73	101.69
422.953	95.69
423.175	110.69
423.398	92.69
423.621	102.69
423.843	93.69
424.066	102.69
424.288	90.69
424.511	90.69
424.733	81.69
424.956	102.69
425.178	104.69
425.401	100.69
425.623	92.69
425.846	96.69
426.068	106.69
426.291	87.69
426.513	97.69
426.735	102.69
426.958	87.69
427.18	97.69
427.402	85.69
427.625	80.69
427.847	95.69
428.069	92.69
428.292	101.69
428.514	107.69
428.736	93.69
428.958	109.69
429.181	95.69
429.403	97.69
429.625	76.69
429.847	94.69
430.069	98.69
430.292	101.69
430.514	93.69
430.736	82.69
430.958	101.69
431.18	94.69
431.402	89.69
431.624	86.69
431.846	106.69
432.068	97.69
432.29	97.69
432.512	101.69
432.734	89.69
432.956	95.69
433.178	88.69
433.4	90.69
433.622	96.69
433.844	97.69
434.066	88.69
434.287	99.69
434.509	93.69
434.731	99.69
434.953	86.69
435.175	94.69
435.397	108.69
435.618	103.69
435.84	98.69
436.062	93.69
436.284	83.69
436.505	111.69
436.727	94.69
436.949	95.69
437.17	91.69
437.392	103.69
437.614	97.69
437.835	94.69
438.057	94.69
438.278	86.69
438.5	78.69
438.721	93.69
438.943	88.69
439.165	97.69
439.386	109.69
439.608	96.69
439.829	101.69
440.05	115.69
440.272	91.69
440.493	98.69
440.715	104.69
440.936	102.69
441.158	89.69
441.379	96.69
441.6	95.69
441.822	82.69
442.043	88.69
442.264	82.69
442.486	96.69
442.707	101.69
442.928	98.69
443.149	103.69
443.371	86.69
443.592	75.69
443.813	109.69
444.034	88.69
444.255	95.69
444.476	93.69
444.698	104.69
444.919	109.69
445.14	230.69
445.361	156.69
445.582	100.69
445.803	81.69
446.024	101.69
446.245	97.69
446.466	95.69
446.687	90.69
446.908	86.69
447.129	98.69
447.35	81.69
447.571	95.69
447.792	82.69
448.013	97.69
448.234	90.69
448.455	96.69
448.675	99.69
448.896	113.69
449.117	99.69
449.338	96.69
449.559	97.69
449.779	104.69
450	92.69
450.221	88.69
450.442	102.69
450.662	85.69
450.883	82.69
451.104	80.69
451.324	97.69
451.545	102.69
451.766	93.69
451.986	86.69
452.207	83.69
452.428	99.69
452.648	92.69
452.869	86.69
453.089	86.69
453.31	88.69
453.53	91.69
453.751	95.69
453.971	99.69
454.192	113.69
454.412	80.69
454.633	91.69
454.853	96.69
455.073	74.69
455.294	81.69
455.514	88.69
455.734	89.69
455.955	99.69
456.175	105.69
456.395	86.69
456.616	86.69
456.836	102.69
457.056	95.69
457.276	84.69
457.497	95.69
457.717	82.69
457.937	87.69
458.157	103.69
458.377	101.69
458.598	87.69
458.818	102.69
459.038	103.69
459.258	85.69
459.478	89.69
459.698	97.69
459.918	98.69
460.138	100.69
460.358	92.69
460.578	103.69
460.798	87.69
461.018	91.69
461.238	96.69
461.458	96.69
461.678	96.69
461.898	91.69
462.118	103.69
462.338	100.69
462.558	89.69
462.777	111.69
462.997	97.69
463.217	92.69
463.437	99.69
463.657	97.69
463.876	109.69
464.096	112.69
464.316	87.69
464.536	102.69
464.755	112.69
464.975	93.69
465.195	106.69
465.414	103.69
465.634	92.69
465.854	95.69
466.073	102.69
466.293	78.69
466.512	91.69
466.732	99.69
466.951	88.69
467.171	89.69
467.391	93.69
467.61	93.69
467.829	113.69
468.049	100.69
468.268	104.69
468.488	96.69
468.707	102.69
468.927	96.69
469.146	90.69
469.365	94.69
469.585	102.69
469.804	90.69
470.023	92.69
470.243	88.69
470.462	90.69
470.681	96.69
470.901	99.69
471.12	87.69
471.339	88.69
471.558	90.69
471.777	120.69
471.997	98.69
472.216	95.69
472.435	90.69
472.654	89.69
472.873	102.69
473.092	94.69
473.311	85.69
473.53	89.69
473.749	90.69
473.968	109.69
474.187	97.69
474.406	82.69
474.625	97.69
474.844	111.69
475.063	102.69
475.282	86.69
475.501	98.69
475.72	86.69
475.939	94.69
476.158	97.69
476.377	97.69
476.596	102.69
476.814	101.69
477.033	90.69
477.252	95.69
477.471	105.69
477.69	107.69
477.908	89.69
478.127	104.69
478.346	107.69
478.564	95.69
478.783	98.69
479.002	106.69
479.22	109.69
479.439	104.69
479.658	93.69
479.876	112.69
480.095	99.69
480.313	117.69
480.532	115.69
480.751	86.69
480.969	103.69
481.188	101.69
481.406	101.69
481.624	97.69
481.843	119.69
482.061	99.69
482.28	91.69
482.498	97.69
482.717	101.69
482.935	106.69
483.153	96.69
483.372	113.69
483.59	119.69
483.808	112.69
484.027	107.69
484.245	98.69
484.463	102.69
484.681	108.69
484.9	117.69
485.118	101.69
485.336	111.69
485.554	115.69
485.772	99.69
485.99	112.69
486.209	97.69
486.427	109.69
486.645	127.69
486.863	105.69
487.081	99.69
487.299	107.69
487.517	99.69
487.735	117.69
487.953	110.69
488.171	105.69
488.389	119.69
488.607	114.69
488.825	111.69
489.043	101.69
489.261	104.69
489.479	95.69
489.696	121.69
489.914	101.69
490.132	103.69
490.35	98.69
490.568	111.69
490.786	113.69
491.003	110.69
491.221	98.69
491.439	96.69
491.657	105.69
491.874	117.69
492.092	104.69
492.31	97.69
492.527	131.69
492.745	114.69
492.963	116.69
493.18	108.69
493.398	117.69
493.615	121.69
493.833	114.69
494.05	109.69
494.268	118.69
494.485	114.69
494.703	118.69
494.92	106.69
495.138	117.69
495.355	105.69
495.573	101.69
495.79	101.69
496.008	111.69
496.225	117.69
496.442	106.69
496.66	104.69
496.877	111.69
497.094	110.69
497.312	122.69
497.529	128.69
497.746	96.69
497.963	111.69
498.181	97.69
498.398	92.69
498.615	107.69
498.832	105.69
499.049	115.69
499.267	127.69
499.484	125.69
499.701	124.69
499.918	133.69
500.135	161.69
500.352	168.69
500.569	184.69
500.786	147.69
501.003	143.69
501.22	128.69
501.437	153.69
501.654	115.69
501.871	125.69
502.088	125.69
502.305	126.69
502.522	124.69
502.739	120.69
502.956	117.69
503.172	111.69
503.389	116.69
503.606	115.69
503.823	115.69
504.04	115.69
504.256	118.69
504.473	104.69
504.69	102.69
504.907	105.69
505.123	118.69
505.34	111.69
505.557	109.69
505.773	99.69
505.99	97.69
506.207	110.69
506.423	115.69
506.64	111.69
506.856	111.69
507.073	106.69
507.289	123.69
507.506	101.69
507.722	101.69
507.939	104.69
508.155	96.69
508.372	95.69
508.588	89.69
508.805	109.69
509.021	89.69
509.238	118.69
509.454	107.69
509.67	92.69
509.887	102.69
510.103	113.69
510.319	99.69
510.536	99.69
510.752	94.69
510.968	89.69
511.184	106.69
511.401	101.69
511.617	104.69
511.833	86.69
512.049	95.69
512.265	101.69
512.481	94.69
512.698	107.69
512.914	106.69
513.13	106.69
513.346	89.69
513.562	101.69
513.778	83.69
513.994	88.69
514.21	103.69
514.426	110.69
514.642	88.69
514.858	90.69
515.074	105.69
515.29	95.69
515.506	97.69
515.721	97.69
515.937	100.69
516.153	104.69
516.369	99.69
516.585	112.69
516.801	116.69
517.016	106.69
517.232	115.69
517.448	99.69
517.664	118.69
517.879	106.69
518.095	96.69
518.311	101.69
518.527	113.69
518.742	94.69
518.958	110.69
519.173	115.69
519.389	104.69
519.605	107.69
519.82	97.69
520.036	95.69
520.251	104.69
520.467	94.69
520.682	102.69
520.898	105.69
521.113	91.69
521.329	89.69
521.544	104.69
521.76	109.69
521.975	92.69
522.19	97.69
522.406	93.69
522.621	102.69
522.836	106.69
523.052	98.69
523.267	104.69
523.482	97.69
523.698	99.69
523.913	103.69
524.128	100.69
524.343	99.69
524.559	91.69
524.774	111.69
524.989	95.69
525.204	97.69
525.419	96.69
525.634	92.69
525.849	100.69
526.064	107.69
526.28	105.69
526.495	106.69
526.71	119.69
526.925	102.69
527.14	96.69
527.355	107.69
527.57	98.69
527.785	100.69
527.999	104.69
528.214	106.69
528.429	100.69
528.644	116.69
528.859	94.69
529.074	94.69
529.289	111.69
529.503	90.69
529.718	106.69
529.933	85.69
530.148	91.69
530.363	90.69
530.577	96.69
530.792	115.69
531.007	84.69
531.221	101.69
531.436	99.69
531.651	95.69
531.865	88.69
532.08	104.69
532.295	112.69
532.509	92.69
532.724	103.69
532.938	105.69
533.153	99.69
533.367	98.69
533.582	102.69
533.796	101.69
534.011	102.69
534.225	103.69
534.44	97.69
534.654	85.69
534.868	95.69
535.083	90.69
535.297	94.69
535.511	91.69
535.726	106.69
535.94	104.69
536.154	107.69
536.369	107.69
536.583	90.69
536.797	89.69
537.011	85.69
537.225	95.69
537.44	116.69
537.654	90.69
537.868	90.69
538.082	101.69
538.296	99.69
538.51	111.69
538.724	102.69
538.938	113.69
539.153	104.69
539.367	109.69
539.581	111.69
539.795	100.69
540.009	104.69
540.222	90.69
540.436	109.69
540.65	94.69
540.864	104.69
541.078	98.69
541.292	108.69
541.506	114.69
541.72	98.69
541.934	96.69
542.147	116.69
542.361	113.69
542.575	100.69
542.789	104.69
543.002	90.69
543.216	93.69
543.43	94.69
543.644	113.69
543.857	98.69
544.071	108.69
544.285	95.69
544.498	88.69
544.712	99.69
544.925	101.69
545.139	110.69
545.352	105.69
545.566	101.69
545.779	102.69
545.993	98.69
546.206	94.69
546.42	112.69
546.633	104.69
546.847	110.69
547.06	111.69
547.274	110.69
547.487	112.69
547.7	98.69
547.914	111.69
548.127	109.69
548.34	101.69
548.554	101.69
548.767	99.69
548.98	110.69
549.193	112.69
549.407	112.69
549.62	90.69
549.833	111.69
550.046	97.69
550.259	97.69
550.473	96.69
550.686	104.69
550.899	116.69
551.112	112.69
551.325	117.69
551.538	98.69
551.751	105.69
551.964	94.69
552.177	95.69
552.39	101.69
552.603	99.69
552.816	109.69
553.029	103.69
553.242	97.69
553.455	107.69
553.667	110.69
553.88	89.69
554.093	95.69
554.306	95.69
554.519	123.69
554.732	95.69
554.944	88.69
555.157	97.69
555.37	102.69
555.583	90.69
555.795	103.69
556.008	90.69
556.221	82.69
556.433	82.69
556.646	106.69
556.859	109.69
557.071	101.69
557.284	101.69
557.496	89.69
557.709	94.69
557.921	94.69
558.134	93.69
558.346	98.69
558.559	98.69
558.771	98.69
558.984	101.69
559.196	99.69
559.409	99.69
559.621	109.69
559.833	91.69
560.046	93.69
560.258	90.69
560.47	98.69
560.683	91.69
560.895	101.69
561.107	102.69
561.32	101.69
561.532	103.69
561.744	101.69
561.956	106.69
562.168	80.69
562.381	94.69
562.593	90.69
562.805	89.69
563.017	89.69
563.229	96.69
563.441	100.69
563.653	87.69
563.865	92.69
564.077	99.69
564.289	94.69
564.501	98.69
564.713	96.69
564.925	90.69
565.137	107.69
565.349	116.69
565.561	104.69
565.773	119.69
565.985	105.69
566.197	112.69
566.408	91.69
566.62	113.69
566.832	101.69
567.044	106.69
567.255	112.69
567.467	93.69
567.679	101.69
567.891	102.69
568.102	104.69
568.314	109.69
568.526	93.69
568.737	98.69
568.949	103.69
569.161	101.69
569.372	95.69
569.584	100.69
569.795	96.69
570.007	94.69
570.218	94.69
570.43	97.69
570.641	103.69
570.853	96.69
571.064	99.69
571.276	101.69
571.487	94.69
571.698	98.69
571.91	115.69
572.121	73.69
572.333	85.69
572.544	86.69
572.755	101.69
572.966	101.69
573.178	102.69
573.389	82.69
573.6	95.69
573.811	89.69
574.023	104.69
574.234	94.69
574.445	82.69
574.656	104.69
574.867	95.69
575.078	95.69
575.289	86.69
575.501	100.69
575.712	96.69
575.923	82.69
576.134	86.69
576.345	104.69
576.556	90.69
576.767	102.69
576.978	84.69
577.188	101.69
577.399	96.69
577.61	95.69
577.821	96.69
578.032	107.69
578.243	88.69
578.454	82.69
578.665	92.69
578.875	88.69
579.086	87.69
579.297	85.69
579.508	89.69
579.718	78.69
579.929	89.69
580.14	86.69
580.35	79.69
580.561	95.69
580.772	91.69
580.982	84.69
581.193	82.69
581.403	91.69
581.614	101.69
581.825	85.69
582.035	89.69
582.246	100.69
582.456	103.69
582.667	85.69
582.877	84.69
583.087	67.69
583.298	91.69
583.508	89.69
583.719	82.69
583.929	102.69
584.139	97.69
584.35	89.69
584.56	92.69
584.77	98.69
584.981	94.69
585.191	98.69
585.401	86.69
585.611	78.69
585.821	93.69
586.032	87.69
586.242	102.69
586.452	108.69
586.662	83.69
586.872	86.69
587.082	74.69
587.292	87.69
587.502	86.69
587.713	87.69
587.923	98.69
588.133	94.69
588.343	94.69
588.553	87.69
588.762	111.69
588.972	105.69
589.182	93.69
589.392	86.69
589.602	87.69
589.812	103.69
590.022	110.69
590.232	97.69
590.441	87.69
590.651	74.69
590.861	90.69
591.071	106.69
591.281	91.69
591.49	84.69
591.7	86.69
591.91	104.69
592.119	95.69
592.329	101.69
592.539	90.69
592.748	93.69
592.958	94.69
593.167	90.69
593.377	87.69
593.587	101.69
593.796	94.69
594.006	91.69
594.215	93.69
594.424	90.69
594.634	83.69
594.843	88.69
595.053	83.69
595.262	97.69
595.472	89.69
595.681	86.69
595.89	89.69
596.1	84.69
596.309	96.69
596.518	95.69
596.727	93.69
596.937	91.69
597.146	89.69
597.355	87.69
597.564	89.69
597.774	88.69
597.983	80.69
598.192	81.69
598.401	88.69
598.61	93.69
598.819	73.69
599.028	95.69
599.237	89.69
599.446	89.69
599.655	94.69
599.864	79.69
600.073	99.69
600.282	98.69
600.491	80.69
600.7	83.69
600.909	93.69
601.118	104.69
601.327	92.69
601.536	90.69
601.745	75.69
601.953	83.69
602.162	84.69
602.371	97.69
602.58	112.69
602.789	98.69
602.997	76.69
603.206	83.69
603.415	94.69
603.623	86.69
603.832	72.69
604.041	87.69
604.249	93.69
604.458	83.69
604.666	86.69
604.875	89.69
605.084	94.69
605.292	80.69
605.501	93.69
605.709	90.69
605.918	88.69
606.126	94.69
606.334	86.69
606.543	100.69
606.751	89.69
606.96	90.69
607.168	81.69
607.376	79.69
607.585	102.69
607.793	102.69
608.001	99.69
608.21	69.69
608.418	98.69
608.626	89.69
608.834	84.69
609.043	96.69
609.251	91.69
609.459	90.69
609.667	93.69
609.875	102.69
610.083	84.69
610.291	95.69
610.499	91.69
610.707	90.69
610.916	93.69
611.124	87.69
611.332	97.69
611.54	98.69
611.748	94.69
611.955	79.69
612.163	71.69
612.371	100.69
612.579	100.69
612.787	92.69
612.995	82.69
613.203	93.69
613.411	104.69
613.618	98.69
613.826	89.69
614.034	84.69
614.242	87.69
614.449	86.69
614.657	97.69
614.865	87.69
615.072	82.69
615.28	85.69
615.488	87.69
615.695	91.69
615.903	80.69
616.111	97.69
616.318	85.69
616.526	98.69
616.733	78.69
616.941	103.69
617.148	84.69
617.356	86.69
617.563	96.69
617.771	99.69
617.978	71.69
618.185	92.69
618.393	79.69
618.6	88.69
618.807	97.69
619.015	93.69
619.222	90.69
619.429	103.69
619.637	85.69
619.844	95.69
620.051	93.69
620.258	63.69
620.466	85.69
620.673	85.69
620.88	85.69
621.087	93.69
621.294	93.69
621.501	81.69
621.708	81.69
621.915	93.69
622.122	77.69
622.329	83.69
622.536	102.69
622.743	78.69
622.95	90.69
623.157	87.69
623.364	100.69
623.571	75.69
623.778	84.69
623.985	93.69
624.192	86.69
624.399	79.69
624.606	80.69
624.812	86.69
625.019	90.69
625.226	88.69
625.433	99.69
625.639	89.69
625.846	90.69
626.053	88.69
626.259	84.69
626.466	85.69
626.673	85.69
626.879	95.69
627.086	99.69
627.293	90.69
627.499	87.69
627.706	78.69
627.912	82.69
628.119	102.69
628.325	87.69
628.532	64.69
628.738	94.69
628.945	79.69
629.151	86.69
629.357	87.69
629.564	86.69
629.77	93.69
629.976	85.69
630.183	78.69
630.389	95.69
630.595	84.69
630.802	91.69
631.008	87.69
631.214	87.69
631.42	79.69
631.627	84.69
631.833	98.69
632.039	83.69
632.245	93.69
632.451	95.69
632.657	80.69
632.863	92.69
633.069	95.69
633.275	81.69
633.481	83.69
633.688	87.69
633.893	92.69
634.099	98.69
634.305	95.69
634.511	83.69
634.717	90.69
634.923	79.69
635.129	79.69
635.335	85.69
635.541	82.69
635.747	110.69
635.952	90.69
636.158	69.69
636.364	70.69
636.57	94.69
636.775	77.69
636.981	83.69
637.187	86.69
637.392	79.69
637.598	73.69
637.804	79.69
638.009	81.69
638.215	84.69
638.421	78.69
638.626	78.69
638.832	95.69
639.037	87.69
639.243	82.69
639.448	97.69
639.654	96.69
639.859	93.69
640.065	85.69
640.27	91.69
640.475	86.69
640.681	86.69
640.886	99.69
641.091	90.69
641.297	89.69
641.502	87.69
641.707	77.69
641.913	102.69
642.118	90.69
642.323	84.69
642.528	94.69
642.733	74.69
642.939	83.69
643.144	86.69
643.349	65.69
643.554	98.69
643.759	84.69
643.964	82.69
644.169	79.69
644.374	93.69
644.579	101.69
644.784	94.69
644.989	83.69
645.194	71.69
645.399	78.69
645.604	86.69
645.809	100.69
646.014	86.69
646.219	82.69
646.423	79.69
646.628	85.69
646.833	92.69
647.038	93.69
647.243	77.69
647.447	97.69
647.652	86.69
647.857	88.69
648.062	68.69
648.266	82.69
648.471	88.69
648.676	86.69
648.88	90.69
649.085	83.69
649.289	86.69
649.494	79.69
649.698	82.69
649.903	80.69
650.107	84.69
650.312	81.69
650.516	82.69
650.721	78.69
650.925	94.69
651.13	99.69
651.334	82.69
651.539	77.69
651.743	82.69
651.947	84.69
652.152	89.69
652.356	101.69
652.56	78.69
652.764	73.69
652.969	94.69
653.173	80.69
653.377	83.69
653.581	75.69
653.785	90.69
653.99	79.69
654.194	87.69
654.398	77.69
654.602	75.69
654.806	82.69
655.01	90.69
655.214	91.69
655.418	87.69
655.622	82.69
655.826	90.69
656.03	91.69
656.234	99.69
656.438	98.69
656.642	82.69
656.846	83.69
657.049	82.69
657.253	82.69
657.457	83.69
657.661	78.69
657.865	69.69
658.068	81.69
658.272	85.69
658.476	81.69
658.68	71.69
658.883	80.69
659.087	80.69
659.291	87.69
659.494	78.69
659.698	76.69
659.901	86.69
660.105	84.69
660.309	72.69
660.512	89.69
660.716	75.69
660.919	78.69
661.123	83.69
661.326	90.69
661.53	80.69
661.733	90.69
661.936	86.69
662.14	82.69
662.343	78.69
662.546	65.69
662.75	81.69
662.953	77.69
663.156	79.69
663.36	72.69
663.563	93.69
663.766	73.69
663.969	73.69
664.173	89.69
664.376	86.69
664.579	82.69
664.782	99.69
664.985	58.69
665.188	82.69
665.391	82.69
665.594	72.69
665.797	80.69
666	80.69
666.203	79.69
666.406	77.69
666.609	88.69
666.812	77.69
667.015	88.69
667.218	71.69
667.421	74.69
667.624	70.69
667.827	77.69
668.03	73.69
668.232	73.69
668.435	59.69
668.638	72.69
668.841	80.69
669.043	69.69
669.246	72.69
669.449	84.69
669.651	84.69
669.854	86.69
670.057	76.69
670.259	81.69
670.462	76.69
670.665	81.69
670.867	81.69
671.07	87.69
671.272	85.69
671.475	82.69
671.677	66.69
671.88	79.69
672.082	80.69
672.284	65.69
672.487	70.69
672.689	73.69
672.892	73.69
