Data from Location5.07152019.Energy5.Lamp.07192019.3%Agarose_HRD10591_15-36-27-388.txt Node
Date: Fri Jul 19 15:36:27 EDT 2019
User: cochatt
Spectrometer: HR+D1059
Trigger mode: 1
Integration Time (sec): 1.000000E-1
Scans to average: 1
Electric dark correction enabled: true
Nonlinearity correction enabled: false
Boxcar width: 0
XAxis mode: Wavelengths
Number of Pixels in Spectrum: 2048
>>>>>Begin Spectral Data<<<<<
223.165	-20.62
223.4	-20.62
223.635	-20.62
223.869	-4.62
224.104	-11.62
224.338	-5.62
224.573	-35.62
224.808	-19.62
225.042	-13.62
225.277	4.38
225.511	0.38
225.746	7.38
225.98	11.38
226.215	19.38
226.449	16.38
226.683	10.38
226.918	23.38
227.152	18.38
227.387	38.38
227.621	41.38
227.856	35.38
228.09	45.38
228.324	47.38
228.559	63.38
228.793	65.38
229.027	58.38
229.262	68.38
229.496	59.38
229.73	79.38
229.964	81.38
230.199	82.38
230.433	88.38
230.667	80.38
230.901	90.38
231.136	91.38
231.37	77.38
231.604	75.38
231.838	97.38
232.072	93.38
232.306	75.38
232.541	85.38
232.775	93.38
233.009	86.38
233.243	94.38
233.477	89.38
233.711	95.38
233.945	88.38
234.179	90.38
234.413	90.38
234.647	92.38
234.881	88.38
235.115	79.38
235.349	75.38
235.583	85.38
235.817	77.38
236.051	86.38
236.285	87.38
236.519	81.38
236.753	88.38
236.987	97.38
237.221	74.38
237.455	75.38
237.689	91.38
237.922	81.38
238.156	78.38
238.39	92.38
238.624	73.38
238.858	84.38
239.091	92.38
239.325	84.38
239.559	79.38
239.793	79.38
240.027	64.38
240.26	79.38
240.494	71.38
240.728	59.38
240.961	77.38
241.195	85.38
241.429	80.38
241.662	92.38
241.896	90.38
242.13	86.38
242.363	85.38
242.597	70.38
242.83	75.38
243.064	82.38
243.298	75.38
243.531	78.38
243.765	87.38
243.998	81.38
244.232	90.38
244.465	88.38
244.699	77.38
244.932	84.38
245.166	87.38
245.399	94.38
245.633	94.38
245.866	79.38
246.099	86.38
246.333	90.38
246.566	84.38
246.8	92.38
247.033	80.38
247.266	88.38
247.5	74.38
247.733	85.38
247.966	73.38
248.2	88.38
248.433	74.38
248.666	91.38
248.899	86.38
249.133	79.38
249.366	88.38
249.599	74.38
249.832	98.38
250.066	84.38
250.299	66.38
250.532	86.38
250.765	75.38
250.998	86.38
251.231	66.38
251.465	72.38
251.698	74.38
251.931	74.38
252.164	83.38
252.397	92.38
252.63	73.38
252.863	77.38
253.096	98.38
253.329	94.38
253.562	93.38
253.795	94.38
254.028	70.38
254.261	99.38
254.494	82.38
254.727	85.38
254.96	83.38
255.193	72.38
255.426	87.38
255.659	87.38
255.892	95.38
256.124	98.38
256.357	90.38
256.59	100.38
256.823	81.38
257.056	77.38
257.289	78.38
257.521	78.38
257.754	91.38
257.987	86.38
258.22	86.38
258.452	87.38
258.685	85.38
258.918	79.38
259.151	78.38
259.383	81.38
259.616	88.38
259.849	87.38
260.081	75.38
260.314	78.38
260.547	95.38
260.779	77.38
261.012	92.38
261.244	85.38
261.477	88.38
261.71	87.38
261.942	90.38
262.175	87.38
262.407	98.38
262.64	82.38
262.872	95.38
263.105	92.38
263.337	85.38
263.57	80.38
263.802	86.38
264.035	80.38
264.267	91.38
264.499	92.38
264.732	80.38
264.964	82.38
265.197	84.38
265.429	81.38
265.661	91.38
265.894	90.38
266.126	93.38
266.358	74.38
266.591	77.38
266.823	94.38
267.055	78.38
267.287	78.38
267.52	83.38
267.752	91.38
267.984	86.38
268.216	93.38
268.448	85.38
268.681	71.38
268.913	85.38
269.145	72.38
269.377	89.38
269.609	94.38
269.841	86.38
270.073	74.38
270.306	83.38
270.538	83.38
270.77	98.38
271.002	91.38
271.234	81.38
271.466	101.38
271.698	77.38
271.93	92.38
272.162	85.38
272.394	99.38
272.626	82.38
272.858	71.38
273.09	75.38
273.322	83.38
273.553	84.38
273.785	80.38
274.017	87.38
274.249	88.38
274.481	84.38
274.713	81.38
274.945	97.38
275.176	92.38
275.408	98.38
275.64	76.38
275.872	102.38
276.104	91.38
276.335	81.38
276.567	95.38
276.799	88.38
277.031	74.38
277.262	91.38
277.494	89.38
277.726	93.38
277.957	88.38
278.189	103.38
278.421	102.38
278.652	99.38
278.884	92.38
279.115	95.38
279.347	80.38
279.579	92.38
279.81	87.38
280.042	79.38
280.273	104.38
280.505	86.38
280.736	91.38
280.968	91.38
281.199	77.38
281.431	107.38
281.662	81.38
281.894	88.38
282.125	96.38
282.356	98.38
282.588	92.38
282.819	78.38
283.051	93.38
283.282	88.38
283.513	72.38
283.745	94.38
283.976	74.38
284.207	80.38
284.439	82.38
284.67	86.38
284.901	94.38
285.132	100.38
285.364	96.38
285.595	92.38
285.826	94.38
286.057	85.38
286.288	95.38
286.52	98.38
286.751	84.38
286.982	92.38
287.213	98.38
287.444	87.38
287.675	80.38
287.906	83.38
288.138	92.38
288.369	88.38
288.6	94.38
288.831	83.38
289.062	92.38
289.293	89.38
289.524	83.38
289.755	89.38
289.986	94.38
290.217	69.38
290.448	78.38
290.679	84.38
290.91	82.38
291.141	73.38
291.371	90.38
291.602	83.38
291.833	98.38
292.064	80.38
292.295	84.38
292.526	87.38
292.757	87.38
292.987	88.38
293.218	79.38
293.449	72.38
293.68	87.38
293.91	86.38
294.141	89.38
294.372	83.38
294.603	94.38
294.833	90.38
295.064	95.38
295.295	79.38
295.525	86.38
295.756	94.38
295.987	93.38
296.217	93.38
296.448	74.38
296.679	88.38
296.909	95.38
297.14	92.38
297.37	91.38
297.601	87.38
297.831	92.38
298.062	87.38
298.292	83.38
298.523	83.38
298.753	84.38
298.984	83.38
299.214	102.38
299.445	94.38
299.675	77.38
299.905	98.38
300.136	97.38
300.366	84.38
300.597	78.38
300.827	94.38
301.057	89.38
301.288	81.38
301.518	95.38
301.748	88.38
301.979	87.38
302.209	88.38
302.439	99.38
302.669	72.38
302.9	95.38
303.13	104.38
303.36	79.38
303.59	79.38
303.82	82.38
304.051	84.38
304.281	97.38
304.511	91.38
304.741	76.38
304.971	87.38
305.201	103.38
305.431	80.38
305.661	105.38
305.891	88.38
306.121	96.38
306.352	84.38
306.582	92.38
306.812	85.38
307.042	86.38
307.272	85.38
307.502	85.38
307.731	94.38
307.961	92.38
308.191	98.38
308.421	92.38
308.651	88.38
308.881	92.38
309.111	104.38
309.341	84.38
309.571	90.38
309.8	82.38
310.03	86.38
310.26	102.38
310.49	98.38
310.72	88.38
310.949	92.38
311.179	96.38
311.409	96.38
311.639	92.38
311.868	82.38
312.098	87.38
312.328	93.38
312.557	95.38
312.787	81.38
313.017	89.38
313.246	89.38
313.476	86.38
313.706	87.38
313.935	82.38
314.165	79.38
314.394	97.38
314.624	89.38
314.853	95.38
315.083	98.38
315.312	83.38
315.542	82.38
315.771	83.38
316.001	80.38
316.23	84.38
316.46	84.38
316.689	96.38
316.919	94.38
317.148	108.38
317.377	105.38
317.607	90.38
317.836	100.38
318.065	85.38
318.295	92.38
318.524	91.38
318.753	102.38
318.983	87.38
319.212	92.38
319.441	78.38
319.67	98.38
319.9	96.38
320.129	82.38
320.358	87.38
320.587	80.38
320.816	83.38
321.046	86.38
321.275	93.38
321.504	80.38
321.733	98.38
321.962	96.38
322.191	108.38
322.42	78.38
322.649	83.38
322.878	86.38
323.108	75.38
323.337	84.38
323.566	98.38
323.795	93.38
324.024	78.38
324.253	102.38
324.482	84.38
324.71	80.38
324.939	73.38
325.168	82.38
325.397	87.38
325.626	79.38
325.855	92.38
326.084	90.38
326.313	94.38
326.542	90.38
326.77	91.38
326.999	105.38
327.228	98.38
327.457	94.38
327.686	86.38
327.914	89.38
328.143	98.38
328.372	94.38
328.6	88.38
328.829	91.38
329.058	86.38
329.287	88.38
329.515	85.38
329.744	93.38
329.972	96.38
330.201	87.38
330.43	75.38
330.658	77.38
330.887	85.38
331.115	99.38
331.344	89.38
331.572	90.38
331.801	76.38
332.03	100.38
332.258	81.38
332.486	73.38
332.715	82.38
332.943	80.38
333.172	79.38
333.4	96.38
333.629	89.38
333.857	87.38
334.085	78.38
334.314	96.38
334.542	98.38
334.771	82.38
334.999	80.38
335.227	77.38
335.455	84.38
335.684	86.38
335.912	94.38
336.14	85.38
336.369	82.38
336.597	101.38
336.825	93.38
337.053	94.38
337.281	86.38
337.51	83.38
337.738	83.38
337.966	87.38
338.194	86.38
338.422	95.38
338.65	91.38
338.878	91.38
339.106	81.38
339.334	85.38
339.562	86.38
339.79	96.38
340.018	75.38
340.246	86.38
340.474	88.38
340.702	78.38
340.93	82.38
341.158	98.38
341.386	91.38
341.614	84.38
341.842	93.38
342.07	95.38
342.298	101.38
342.526	99.38
342.754	78.38
342.981	106.38
343.209	78.38
343.437	87.38
343.665	95.38
343.893	85.38
344.12	86.38
344.348	92.38
344.576	93.38
344.804	86.38
345.031	97.38
345.259	96.38
345.487	75.38
345.714	90.38
345.942	76.38
346.17	92.38
346.397	81.38
346.625	88.38
346.853	108.38
347.08	71.38
347.308	73.38
347.535	82.38
347.763	84.38
347.99	80.38
348.218	72.38
348.445	83.38
348.673	83.38
348.9	89.38
349.128	105.38
349.355	90.38
349.583	97.38
349.81	77.38
350.037	94.38
350.265	88.38
350.492	92.38
350.72	90.38
350.947	86.38
351.174	87.38
351.402	93.38
351.629	86.38
351.856	84.38
352.083	92.38
352.311	87.38
352.538	64.38
352.765	84.38
352.992	94.38
353.22	84.38
353.447	83.38
353.674	79.38
353.901	97.38
354.128	95.38
354.355	85.38
354.583	88.38
354.81	70.38
355.037	77.38
355.264	88.38
355.491	94.38
355.718	83.38
355.945	104.38
356.172	88.38
356.399	91.38
356.626	77.38
356.853	79.38
357.08	96.38
357.307	97.38
357.534	95.38
357.761	82.38
357.988	84.38
358.215	92.38
358.441	82.38
358.668	79.38
358.895	89.38
359.122	90.38
359.349	73.38
359.576	81.38
359.802	87.38
360.029	92.38
360.256	86.38
360.483	82.38
360.709	87.38
360.936	97.38
361.163	68.38
361.39	72.38
361.616	88.38
361.843	89.38
362.07	92.38
362.296	86.38
362.523	78.38
362.749	89.38
362.976	83.38
363.203	87.38
363.429	84.38
363.656	104.38
363.882	91.38
364.109	90.38
364.335	98.38
364.562	90.38
364.788	105.38
365.015	98.38
365.241	83.38
365.468	81.38
365.694	73.38
365.92	79.38
366.147	86.38
366.373	87.38
366.599	86.38
366.826	80.38
367.052	91.38
367.278	92.38
367.505	87.38
367.731	76.38
367.957	88.38
368.184	78.38
368.41	75.38
368.636	80.38
368.862	99.38
369.089	99.38
369.315	90.38
369.541	85.38
369.767	86.38
369.993	71.38
370.219	80.38
370.445	82.38
370.672	79.38
370.898	90.38
371.124	79.38
371.35	88.38
371.576	90.38
371.802	88.38
372.028	95.38
372.254	89.38
372.48	96.38
372.706	96.38
372.932	89.38
373.158	87.38
373.384	88.38
373.61	88.38
373.835	95.38
374.061	107.38
374.287	87.38
374.513	100.38
374.739	90.38
374.965	89.38
375.191	86.38
375.416	82.38
375.642	81.38
375.868	95.38
376.094	99.38
376.319	92.38
376.545	71.38
376.771	68.38
376.997	78.38
377.222	82.38
377.448	92.38
377.674	93.38
377.899	90.38
378.125	82.38
378.35	98.38
378.576	101.38
378.802	90.38
379.027	93.38
379.253	83.38
379.478	80.38
379.704	88.38
379.929	87.38
380.155	85.38
380.38	77.38
380.606	82.38
380.831	96.38
381.057	100.38
381.282	88.38
381.507	77.38
381.733	86.38
381.958	80.38
382.184	77.38
382.409	89.38
382.634	93.38
382.86	74.38
383.085	100.38
383.31	97.38
383.535	89.38
383.761	70.38
383.986	95.38
384.211	83.38
384.436	95.38
384.662	83.38
384.887	90.38
385.112	91.38
385.337	80.38
385.562	85.38
385.787	85.38
386.013	103.38
386.238	87.38
386.463	92.38
386.688	85.38
386.913	85.38
387.138	86.38
387.363	97.38
387.588	92.38
387.813	84.38
388.038	91.38
388.263	87.38
388.488	95.38
388.713	100.38
388.938	87.38
389.163	93.38
389.387	90.38
389.612	82.38
389.837	87.38
390.062	84.38
390.287	74.38
390.512	78.38
390.736	94.38
390.961	92.38
391.186	92.38
391.411	96.38
391.636	94.38
391.86	107.38
392.085	86.38
392.31	89.38
392.534	89.38
392.759	79.38
392.984	86.38
393.208	95.38
393.433	87.38
393.658	83.38
393.882	90.38
394.107	96.38
394.331	87.38
394.556	100.38
394.78	85.38
395.005	84.38
395.229	82.38
395.454	92.38
395.678	87.38
395.903	87.38
396.127	91.38
396.352	106.38
396.576	84.38
396.801	87.38
397.025	84.38
397.249	87.38
397.474	98.38
397.698	99.38
397.922	109.38
398.147	81.38
398.371	86.38
398.595	100.38
398.82	86.38
399.044	91.38
399.268	107.38
399.492	98.38
399.717	94.38
399.941	87.38
400.165	107.38
400.389	94.38
400.613	103.38
400.837	98.38
401.062	103.38
401.286	86.38
401.51	100.38
401.734	92.38
401.958	100.38
402.182	103.38
402.406	100.38
402.63	87.38
402.854	90.38
403.078	86.38
403.302	96.38
403.526	94.38
403.75	79.38
403.974	86.38
404.198	92.38
404.422	98.38
404.645	106.38
404.869	91.38
405.093	90.38
405.317	89.38
405.541	82.38
405.765	91.38
405.988	95.38
406.212	98.38
406.436	99.38
406.66	96.38
406.883	102.38
407.107	82.38
407.331	83.38
407.555	78.38
407.778	89.38
408.002	99.38
408.226	85.38
408.449	80.38
408.673	92.38
408.896	107.38
409.12	89.38
409.344	98.38
409.567	87.38
409.791	93.38
410.014	99.38
410.238	80.38
410.461	92.38
410.685	96.38
410.908	91.38
411.132	90.38
411.355	91.38
411.578	95.38
411.802	85.38
412.025	100.38
412.249	89.38
412.472	97.38
412.695	97.38
412.919	90.38
413.142	100.38
413.365	95.38
413.589	102.38
413.812	98.38
414.035	101.38
414.258	88.38
414.482	98.38
414.705	82.38
414.928	101.38
415.151	102.38
415.374	104.38
415.597	93.38
415.821	83.38
416.044	99.38
416.267	99.38
416.49	90.38
416.713	90.38
416.936	84.38
417.159	90.38
417.382	88.38
417.605	93.38
417.828	99.38
418.051	89.38
418.274	86.38
418.497	94.38
418.72	93.38
418.943	109.38
419.166	78.38
419.389	99.38
419.611	96.38
419.834	99.38
420.057	101.38
420.28	103.38
420.503	95.38
420.726	87.38
420.948	97.38
421.171	108.38
421.394	83.38
421.617	91.38
421.839	100.38
422.062	103.38
422.285	96.38
422.507	83.38
422.73	87.38
422.953	91.38
423.175	84.38
423.398	80.38
423.621	99.38
423.843	93.38
424.066	86.38
424.288	96.38
424.511	102.38
424.733	98.38
424.956	89.38
425.178	103.38
425.401	94.38
425.623	90.38
425.846	98.38
426.068	98.38
426.291	110.38
426.513	103.38
426.735	96.38
426.958	92.38
427.18	100.38
427.402	114.38
427.625	107.38
427.847	98.38
428.069	81.38
428.292	81.38
428.514	101.38
428.736	96.38
428.958	106.38
429.181	89.38
429.403	88.38
429.625	88.38
429.847	80.38
430.069	97.38
430.292	102.38
430.514	88.38
430.736	90.38
430.958	93.38
431.18	99.38
431.402	83.38
431.624	103.38
431.846	98.38
432.068	87.38
432.29	90.38
432.512	86.38
432.734	100.38
432.956	102.38
433.178	94.38
433.4	90.38
433.622	104.38
433.844	98.38
434.066	97.38
434.287	79.38
434.509	90.38
434.731	88.38
434.953	99.38
435.175	100.38
435.397	102.38
435.618	90.38
435.84	95.38
436.062	98.38
436.284	97.38
436.505	108.38
436.727	94.38
436.949	102.38
437.17	95.38
437.392	98.38
437.614	96.38
437.835	91.38
438.057	110.38
438.278	90.38
438.5	90.38
438.721	100.38
438.943	95.38
439.165	89.38
439.386	112.38
439.608	102.38
439.829	102.38
440.05	100.38
440.272	106.38
440.493	97.38
440.715	94.38
440.936	107.38
441.158	96.38
441.379	99.38
441.6	103.38
441.822	90.38
442.043	99.38
442.264	97.38
442.486	111.38
442.707	99.38
442.928	111.38
443.149	93.38
443.371	109.38
443.592	98.38
443.813	116.38
444.034	95.38
444.255	82.38
444.476	110.38
444.698	91.38
444.919	93.38
445.14	228.38
445.361	154.38
445.582	102.38
445.803	103.38
446.024	86.38
446.245	108.38
446.466	101.38
446.687	99.38
446.908	100.38
447.129	108.38
447.35	93.38
447.571	104.38
447.792	93.38
448.013	108.38
448.234	97.38
448.455	98.38
448.675	95.38
448.896	112.38
449.117	109.38
449.338	89.38
449.559	87.38
449.779	103.38
450	86.38
450.221	95.38
450.442	101.38
450.662	100.38
450.883	87.38
451.104	86.38
451.324	105.38
451.545	91.38
451.766	94.38
451.986	92.38
452.207	105.38
452.428	79.38
452.648	98.38
452.869	97.38
453.089	92.38
453.31	87.38
453.53	79.38
453.751	93.38
453.971	86.38
454.192	90.38
454.412	96.38
454.633	83.38
454.853	92.38
455.073	89.38
455.294	98.38
455.514	95.38
455.734	78.38
455.955	92.38
456.175	83.38
456.395	91.38
456.616	96.38
456.836	104.38
457.056	103.38
457.276	95.38
457.497	95.38
457.717	101.38
457.937	92.38
458.157	92.38
458.377	85.38
458.598	102.38
458.818	94.38
459.038	89.38
459.258	86.38
459.478	94.38
459.698	88.38
459.918	84.38
460.138	92.38
460.358	86.38
460.578	84.38
460.798	92.38
461.018	84.38
461.238	90.38
461.458	102.38
461.678	91.38
461.898	98.38
462.118	103.38
462.338	88.38
462.558	89.38
462.777	98.38
462.997	95.38
463.217	91.38
463.437	89.38
463.657	93.38
463.876	86.38
464.096	96.38
464.316	99.38
464.536	83.38
464.755	93.38
464.975	88.38
465.195	84.38
465.414	95.38
465.634	86.38
465.854	94.38
466.073	94.38
466.293	99.38
466.512	110.38
466.732	91.38
466.951	106.38
467.171	96.38
467.391	90.38
467.61	109.38
467.829	104.38
468.049	106.38
468.268	101.38
468.488	100.38
468.707	90.38
468.927	99.38
469.146	101.38
469.365	86.38
469.585	94.38
469.804	87.38
470.023	92.38
470.243	103.38
470.462	104.38
470.681	106.38
470.901	109.38
471.12	86.38
471.339	87.38
471.558	109.38
471.777	106.38
471.997	93.38
472.216	104.38
472.435	95.38
472.654	83.38
472.873	90.38
473.092	89.38
473.311	93.38
473.53	91.38
473.749	84.38
473.968	96.38
474.187	104.38
474.406	91.38
474.625	106.38
474.844	91.38
475.063	95.38
475.282	111.38
475.501	89.38
475.72	92.38
475.939	93.38
476.158	92.38
476.377	94.38
476.596	89.38
476.814	84.38
477.033	97.38
477.252	89.38
477.471	94.38
477.69	88.38
477.908	90.38
478.127	103.38
478.346	100.38
478.564	112.38
478.783	92.38
479.002	93.38
479.22	92.38
479.439	108.38
479.658	100.38
479.876	86.38
480.095	95.38
480.313	93.38
480.532	91.38
480.751	93.38
480.969	96.38
481.188	100.38
481.406	85.38
481.624	84.38
481.843	81.38
482.061	104.38
482.28	91.38
482.498	103.38
482.717	76.38
482.935	103.38
483.153	102.38
483.372	107.38
483.59	116.38
483.808	108.38
484.027	94.38
484.245	79.38
484.463	104.38
484.681	108.38
484.9	103.38
485.118	95.38
485.336	105.38
485.554	91.38
485.772	97.38
485.99	93.38
486.209	86.38
486.427	78.38
486.645	106.38
486.863	106.38
487.081	93.38
487.299	109.38
487.517	111.38
487.735	106.38
487.953	104.38
488.171	116.38
488.389	115.38
488.607	109.38
488.825	99.38
489.043	96.38
489.261	108.38
489.479	102.38
489.696	91.38
489.914	91.38
490.132	99.38
490.35	105.38
490.568	100.38
490.786	107.38
491.003	114.38
491.221	89.38
491.439	112.38
491.657	114.38
491.874	119.38
492.092	127.38
492.31	128.38
492.527	135.38
492.745	110.38
492.963	121.38
493.18	110.38
493.398	112.38
493.615	101.38
493.833	98.38
494.05	108.38
494.268	110.38
494.485	101.38
494.703	107.38
494.92	105.38
495.138	110.38
495.355	104.38
495.573	105.38
495.79	118.38
496.008	105.38
496.225	107.38
496.442	105.38
496.66	99.38
496.877	106.38
497.094	104.38
497.312	114.38
497.529	104.38
497.746	102.38
497.963	105.38
498.181	102.38
498.398	99.38
498.615	76.38
498.832	93.38
499.049	95.38
499.267	93.38
499.484	86.38
499.701	97.38
499.918	99.38
500.135	86.38
500.352	105.38
500.569	95.38
500.786	108.38
501.003	103.38
501.22	99.38
501.437	88.38
501.654	100.38
501.871	83.38
502.088	92.38
502.305	100.38
502.522	107.38
502.739	88.38
502.956	109.38
503.172	105.38
503.389	96.38
503.606	111.38
503.823	99.38
504.04	89.38
504.256	101.38
504.473	96.38
504.69	93.38
504.907	102.38
505.123	83.38
505.34	110.38
505.557	95.38
505.773	89.38
505.99	102.38
506.207	109.38
506.423	108.38
506.64	88.38
506.856	91.38
507.073	90.38
507.289	98.38
507.506	86.38
507.722	91.38
507.939	86.38
508.155	100.38
508.372	95.38
508.588	111.38
508.805	94.38
509.021	86.38
509.238	105.38
509.454	102.38
509.67	86.38
509.887	88.38
510.103	88.38
510.319	77.38
510.536	86.38
510.752	78.38
510.968	83.38
511.184	94.38
511.401	94.38
511.617	106.38
511.833	81.38
512.049	95.38
512.265	81.38
512.481	98.38
512.698	83.38
512.914	87.38
513.13	81.38
513.346	91.38
513.562	90.38
513.778	77.38
513.994	85.38
514.21	86.38
514.426	80.38
514.642	90.38
514.858	86.38
515.074	86.38
515.29	93.38
515.506	94.38
515.721	97.38
515.937	95.38
516.153	98.38
516.369	94.38
516.585	89.38
516.801	78.38
517.016	87.38
517.232	98.38
517.448	95.38
517.664	104.38
517.879	94.38
518.095	91.38
518.311	92.38
518.527	88.38
518.742	81.38
518.958	95.38
519.173	96.38
519.389	96.38
519.605	94.38
519.82	97.38
520.036	94.38
520.251	76.38
520.467	92.38
520.682	98.38
520.898	93.38
521.113	89.38
521.329	86.38
521.544	90.38
521.76	88.38
521.975	87.38
522.19	83.38
522.406	84.38
522.621	114.38
522.836	99.38
523.052	91.38
523.267	94.38
523.482	105.38
523.698	99.38
523.913	89.38
524.128	100.38
524.343	99.38
524.559	90.38
524.774	112.38
524.989	86.38
525.204	86.38
525.419	88.38
525.634	94.38
525.849	95.38
526.064	101.38
526.28	82.38
526.495	83.38
526.71	92.38
526.925	75.38
527.14	80.38
527.355	93.38
527.57	80.38
527.785	90.38
527.999	87.38
528.214	99.38
528.429	104.38
528.644	98.38
528.859	99.38
529.074	105.38
529.289	100.38
529.503	103.38
529.718	107.38
529.933	94.38
530.148	82.38
530.363	97.38
530.577	78.38
530.792	87.38
531.007	82.38
531.221	78.38
531.436	88.38
531.651	79.38
531.865	88.38
532.08	85.38
532.295	88.38
532.509	83.38
532.724	76.38
532.938	82.38
533.153	96.38
533.367	89.38
533.582	95.38
533.796	114.38
534.011	80.38
534.225	79.38
534.44	102.38
534.654	86.38
534.868	85.38
535.083	83.38
535.297	98.38
535.511	91.38
535.726	100.38
535.94	86.38
536.154	75.38
536.369	90.38
536.583	90.38
536.797	88.38
537.011	95.38
537.225	100.38
537.44	82.38
537.654	89.38
537.868	90.38
538.082	97.38
538.296	98.38
538.51	112.38
538.724	96.38
538.938	98.38
539.153	94.38
539.367	91.38
539.581	102.38
539.795	78.38
540.009	91.38
540.222	100.38
540.436	107.38
540.65	95.38
540.864	91.38
541.078	103.38
541.292	105.38
541.506	108.38
541.72	120.38
541.934	122.38
542.147	116.38
542.361	116.38
542.575	103.38
542.789	98.38
543.002	102.38
543.216	98.38
543.43	108.38
543.644	115.38
543.857	101.38
544.071	106.38
544.285	117.38
544.498	105.38
544.712	102.38
544.925	108.38
545.139	97.38
545.352	110.38
545.566	118.38
545.779	106.38
545.993	91.38
546.206	116.38
546.42	101.38
546.633	104.38
546.847	105.38
547.06	115.38
547.274	116.38
547.487	106.38
547.7	120.38
547.914	116.38
548.127	105.38
548.34	111.38
548.554	116.38
548.767	105.38
548.98	104.38
549.193	100.38
549.407	110.38
549.62	109.38
549.833	108.38
550.046	111.38
550.259	116.38
550.473	105.38
550.686	125.38
550.899	111.38
551.112	108.38
551.325	105.38
551.538	89.38
551.751	96.38
551.964	107.38
552.177	108.38
552.39	113.38
552.603	118.38
552.816	106.38
553.029	104.38
553.242	106.38
553.455	107.38
553.667	112.38
553.88	117.38
554.093	104.38
554.306	104.38
554.519	98.38
554.732	110.38
554.944	99.38
555.157	111.38
555.37	105.38
555.583	103.38
555.795	112.38
556.008	104.38
556.221	95.38
556.433	101.38
556.646	107.38
556.859	95.38
557.071	114.38
557.284	104.38
557.496	104.38
557.709	102.38
557.921	105.38
558.134	102.38
558.346	100.38
558.559	101.38
558.771	96.38
558.984	100.38
559.196	114.38
559.409	91.38
559.621	92.38
559.833	99.38
560.046	109.38
560.258	103.38
560.47	104.38
560.683	90.38
560.895	101.38
561.107	117.38
561.32	96.38
561.532	97.38
561.744	93.38
561.956	102.38
562.168	100.38
562.381	88.38
562.593	90.38
562.805	115.38
563.017	96.38
563.229	94.38
563.441	96.38
563.653	102.38
563.865	100.38
564.077	103.38
564.289	89.38
564.501	87.38
564.713	103.38
564.925	95.38
565.137	101.38
565.349	96.38
565.561	98.38
565.773	109.38
565.985	100.38
566.197	112.38
566.408	107.38
566.62	98.38
566.832	88.38
567.044	86.38
567.255	88.38
567.467	107.38
567.679	84.38
567.891	87.38
568.102	92.38
568.314	103.38
568.526	91.38
568.737	110.38
568.949	102.38
569.161	81.38
569.372	94.38
569.584	81.38
569.795	98.38
570.007	92.38
570.218	96.38
570.43	87.38
570.641	91.38
570.853	84.38
571.064	91.38
571.276	93.38
571.487	92.38
571.698	87.38
571.91	101.38
572.121	88.38
572.333	86.38
572.544	87.38
572.755	85.38
572.966	80.38
573.178	97.38
573.389	81.38
573.6	99.38
573.811	85.38
574.023	91.38
574.234	93.38
574.445	78.38
574.656	90.38
574.867	94.38
575.078	101.38
575.289	80.38
575.501	90.38
575.712	90.38
575.923	90.38
576.134	96.38
576.345	86.38
576.556	74.38
576.767	104.38
576.978	88.38
577.188	99.38
577.399	85.38
577.61	90.38
577.821	93.38
578.032	86.38
578.243	103.38
578.454	109.38
578.665	100.38
578.875	93.38
579.086	94.38
579.297	82.38
579.508	76.38
579.718	84.38
579.929	84.38
580.14	85.38
580.35	77.38
580.561	112.38
580.772	79.38
580.982	91.38
581.193	90.38
581.403	100.38
581.614	103.38
581.825	93.38
582.035	92.38
582.246	102.38
582.456	100.38
582.667	94.38
582.877	81.38
583.087	93.38
583.298	96.38
583.508	89.38
583.719	81.38
583.929	100.38
584.139	91.38
584.35	79.38
584.56	110.38
584.77	89.38
584.981	89.38
585.191	94.38
585.401	95.38
585.611	83.38
585.821	98.38
586.032	90.38
586.242	96.38
586.452	107.38
586.662	92.38
586.872	103.38
587.082	90.38
587.292	93.38
587.502	89.38
587.713	99.38
587.923	97.38
588.133	96.38
588.343	89.38
588.553	96.38
588.762	90.38
588.972	85.38
589.182	99.38
589.392	99.38
589.602	87.38
589.812	91.38
590.022	80.38
590.232	83.38
590.441	81.38
590.651	86.38
590.861	84.38
591.071	88.38
591.281	101.38
591.49	95.38
591.7	82.38
591.91	94.38
592.119	79.38
592.329	74.38
592.539	89.38
592.748	98.38
592.958	95.38
593.167	92.38
593.377	78.38
593.587	106.38
593.796	95.38
594.006	87.38
594.215	89.38
594.424	91.38
594.634	90.38
594.843	93.38
595.053	106.38
595.262	96.38
595.472	90.38
595.681	87.38
595.89	95.38
596.1	87.38
596.309	91.38
596.518	75.38
596.727	93.38
596.937	92.38
597.146	94.38
597.355	92.38
597.564	91.38
597.774	87.38
597.983	95.38
598.192	84.38
598.401	101.38
598.61	86.38
598.819	89.38
599.028	78.38
599.237	83.38
599.446	99.38
599.655	106.38
599.864	94.38
600.073	77.38
600.282	96.38
600.491	101.38
600.7	81.38
600.909	91.38
601.118	95.38
601.327	88.38
601.536	83.38
601.745	94.38
601.953	94.38
602.162	82.38
602.371	91.38
602.58	100.38
602.789	106.38
602.997	97.38
603.206	111.38
603.415	96.38
603.623	85.38
603.832	93.38
604.041	90.38
604.249	87.38
604.458	95.38
604.666	93.38
604.875	81.38
605.084	100.38
605.292	95.38
605.501	92.38
605.709	95.38
605.918	101.38
606.126	98.38
606.334	91.38
606.543	80.38
606.751	95.38
606.96	91.38
607.168	88.38
607.376	103.38
607.585	106.38
607.793	104.38
608.001	98.38
608.21	88.38
608.418	98.38
608.626	101.38
608.834	91.38
609.043	102.38
609.251	92.38
609.459	89.38
609.667	79.38
609.875	94.38
610.083	86.38
610.291	91.38
610.499	96.38
610.707	110.38
610.916	80.38
611.124	102.38
611.332	103.38
611.54	94.38
611.748	80.38
611.955	89.38
612.163	120.38
612.371	88.38
612.579	87.38
612.787	92.38
612.995	80.38
613.203	91.38
613.411	98.38
613.618	93.38
613.826	98.38
614.034	99.38
614.242	94.38
614.449	95.38
614.657	92.38
614.865	98.38
615.072	85.38
615.28	104.38
615.488	94.38
615.695	109.38
615.903	106.38
616.111	88.38
616.318	98.38
616.526	87.38
616.733	99.38
616.941	82.38
617.148	94.38
617.356	86.38
617.563	87.38
617.771	120.38
617.978	108.38
618.185	104.38
618.393	83.38
618.6	101.38
618.807	95.38
619.015	102.38
619.222	100.38
619.429	95.38
619.637	91.38
619.844	102.38
620.051	107.38
620.258	103.38
620.466	99.38
620.673	79.38
620.88	102.38
621.087	90.38
621.294	81.38
621.501	80.38
621.708	96.38
621.915	103.38
622.122	106.38
622.329	100.38
622.536	109.38
622.743	88.38
622.95	98.38
623.157	95.38
623.364	90.38
623.571	95.38
623.778	97.38
623.985	104.38
624.192	103.38
624.399	76.38
624.606	108.38
624.812	107.38
625.019	90.38
625.226	93.38
625.433	102.38
625.639	108.38
625.846	103.38
626.053	81.38
626.259	89.38
626.466	93.38
626.673	106.38
626.879	88.38
627.086	96.38
627.293	85.38
627.499	94.38
627.706	93.38
627.912	95.38
628.119	85.38
628.325	106.38
628.532	94.38
628.738	94.38
628.945	105.38
629.151	95.38
629.357	94.38
629.564	92.38
629.77	89.38
629.976	79.38
630.183	83.38
630.389	96.38
630.595	106.38
630.802	96.38
631.008	80.38
631.214	86.38
631.42	100.38
631.627	97.38
631.833	88.38
632.039	86.38
632.245	91.38
632.451	88.38
632.657	99.38
632.863	104.38
633.069	83.38
633.275	76.38
633.481	81.38
633.688	89.38
633.893	102.38
634.099	80.38
634.305	90.38
634.511	92.38
634.717	101.38
634.923	83.38
635.129	98.38
635.335	86.38
635.541	98.38
635.747	75.38
635.952	89.38
636.158	87.38
636.364	93.38
636.57	98.38
636.775	98.38
636.981	87.38
637.187	88.38
637.392	91.38
637.598	89.38
637.804	100.38
638.009	83.38
638.215	107.38
638.421	90.38
638.626	93.38
638.832	101.38
639.037	92.38
639.243	86.38
639.448	82.38
639.654	102.38
639.859	85.38
640.065	99.38
640.27	111.38
640.475	96.38
640.681	86.38
640.886	87.38
641.091	88.38
641.297	96.38
641.502	87.38
641.707	91.38
641.913	93.38
642.118	75.38
642.323	90.38
642.528	106.38
642.733	115.38
642.939	100.38
643.144	96.38
643.349	70.38
643.554	87.38
643.759	93.38
643.964	96.38
644.169	98.38
644.374	98.38
644.579	97.38
644.784	98.38
644.989	94.38
645.194	80.38
645.399	116.38
645.604	100.38
645.809	84.38
646.014	95.38
646.219	90.38
646.423	84.38
646.628	99.38
646.833	101.38
647.038	91.38
647.243	107.38
647.447	91.38
647.652	89.38
647.857	103.38
648.062	102.38
648.266	90.38
648.471	65.38
648.676	93.38
648.88	89.38
649.085	83.38
649.289	76.38
649.494	76.38
649.698	100.38
649.903	84.38
650.107	91.38
650.312	78.38
650.516	91.38
650.721	94.38
650.925	82.38
651.13	91.38
651.334	78.38
651.539	77.38
651.743	98.38
651.947	87.38
652.152	90.38
652.356	103.38
652.56	78.38
652.764	90.38
652.969	91.38
653.173	85.38
653.377	82.38
653.581	95.38
653.785	89.38
653.99	85.38
654.194	80.38
654.398	102.38
654.602	88.38
654.806	84.38
655.01	72.38
655.214	79.38
655.418	84.38
655.622	90.38
655.826	97.38
656.03	94.38
656.234	80.38
656.438	88.38
656.642	83.38
656.846	90.38
657.049	85.38
657.253	85.38
657.457	83.38
657.661	93.38
657.865	80.38
658.068	92.38
658.272	80.38
658.476	93.38
658.68	77.38
658.883	89.38
659.087	88.38
659.291	93.38
659.494	77.38
659.698	87.38
659.901	81.38
660.105	91.38
660.309	96.38
660.512	83.38
660.716	86.38
660.919	84.38
661.123	94.38
661.326	86.38
661.53	79.38
661.733	85.38
661.936	89.38
662.14	102.38
662.343	84.38
662.546	73.38
662.75	87.38
662.953	89.38
663.156	91.38
663.36	79.38
663.563	83.38
663.766	84.38
663.969	79.38
664.173	98.38
664.376	87.38
664.579	82.38
664.782	75.38
664.985	86.38
665.188	88.38
665.391	80.38
665.594	95.38
665.797	86.38
666	74.38
666.203	80.38
666.406	72.38
666.609	90.38
666.812	72.38
667.015	75.38
667.218	85.38
667.421	85.38
667.624	78.38
667.827	95.38
668.03	100.38
668.232	99.38
668.435	76.38
668.638	92.38
668.841	86.38
669.043	84.38
669.246	84.38
669.449	72.38
669.651	67.38
669.854	79.38
670.057	95.38
670.259	81.38
670.462	67.38
670.665	79.38
670.867	87.38
671.07	91.38
671.272	95.38
671.475	98.38
671.677	89.38
671.88	80.38
672.082	85.38
672.284	93.38
672.487	90.38
672.689	77.38
672.892	88.38
