Data from Location5.07152019.Energy5.Lamp.07192019.3%Agarose_HRD10591_15-36-57-387.txt Node
Date: Fri Jul 19 15:36:57 EDT 2019
User: cochatt
Spectrometer: HR+D1059
Trigger mode: 1
Integration Time (sec): 1.000000E-1
Scans to average: 1
Electric dark correction enabled: true
Nonlinearity correction enabled: false
Boxcar width: 0
XAxis mode: Wavelengths
Number of Pixels in Spectrum: 2048
>>>>>Begin Spectral Data<<<<<
223.165	-11.62
223.4	-11.62
223.635	-11.62
223.869	-20.62
224.104	-9.62
224.338	-2.62
224.573	-13.62
224.808	-14.62
225.042	-17.62
225.277	-5.62
225.511	3.38
225.746	-5.62
225.98	0.38
226.215	2.38
226.449	9.38
226.683	27.38
226.918	25.38
227.152	33.38
227.387	29.38
227.621	25.38
227.856	42.38
228.09	44.38
228.324	50.38
228.559	55.38
228.793	51.38
229.027	60.38
229.262	60.38
229.496	59.38
229.73	51.38
229.964	68.38
230.199	48.38
230.433	76.38
230.667	69.38
230.901	82.38
231.136	78.38
231.37	90.38
231.604	75.38
231.838	58.38
232.072	76.38
232.306	82.38
232.541	83.38
232.775	84.38
233.009	76.38
233.243	75.38
233.477	68.38
233.711	91.38
233.945	90.38
234.179	94.38
234.413	84.38
234.647	80.38
234.881	66.38
235.115	82.38
235.349	82.38
235.583	100.38
235.817	64.38
236.051	78.38
236.285	77.38
236.519	64.38
236.753	82.38
236.987	76.38
237.221	72.38
237.455	75.38
237.689	86.38
237.922	84.38
238.156	59.38
238.39	67.38
238.624	87.38
238.858	60.38
239.091	71.38
239.325	74.38
239.559	95.38
239.793	58.38
240.027	83.38
240.26	64.38
240.494	75.38
240.728	78.38
240.961	55.38
241.195	72.38
241.429	60.38
241.662	71.38
241.896	72.38
242.13	74.38
242.363	56.38
242.597	70.38
242.83	76.38
243.064	81.38
243.298	72.38
243.531	82.38
243.765	63.38
243.998	83.38
244.232	81.38
244.465	78.38
244.699	77.38
244.932	79.38
245.166	79.38
245.399	77.38
245.633	82.38
245.866	74.38
246.099	58.38
246.333	74.38
246.566	67.38
246.8	73.38
247.033	66.38
247.266	78.38
247.5	76.38
247.733	69.38
247.966	77.38
248.2	79.38
248.433	69.38
248.666	86.38
248.899	83.38
249.133	85.38
249.366	84.38
249.599	89.38
249.832	69.38
250.066	87.38
250.299	91.38
250.532	70.38
250.765	78.38
250.998	73.38
251.231	70.38
251.465	68.38
251.698	98.38
251.931	87.38
252.164	78.38
252.397	81.38
252.63	74.38
252.863	89.38
253.096	70.38
253.329	84.38
253.562	82.38
253.795	89.38
254.028	73.38
254.261	65.38
254.494	68.38
254.727	83.38
254.96	68.38
255.193	85.38
255.426	73.38
255.659	74.38
255.892	79.38
256.124	65.38
256.357	73.38
256.59	83.38
256.823	80.38
257.056	86.38
257.289	67.38
257.521	80.38
257.754	75.38
257.987	84.38
258.22	80.38
258.452	68.38
258.685	83.38
258.918	82.38
259.151	70.38
259.383	84.38
259.616	80.38
259.849	65.38
260.081	91.38
260.314	74.38
260.547	64.38
260.779	82.38
261.012	89.38
261.244	76.38
261.477	64.38
261.71	74.38
261.942	67.38
262.175	74.38
262.407	76.38
262.64	77.38
262.872	76.38
263.105	76.38
263.337	74.38
263.57	70.38
263.802	79.38
264.035	68.38
264.267	84.38
264.499	76.38
264.732	81.38
264.964	81.38
265.197	70.38
265.429	62.38
265.661	76.38
265.894	85.38
266.126	88.38
266.358	81.38
266.591	78.38
266.823	71.38
267.055	68.38
267.287	78.38
267.52	76.38
267.752	72.38
267.984	87.38
268.216	83.38
268.448	79.38
268.681	90.38
268.913	73.38
269.145	81.38
269.377	73.38
269.609	79.38
269.841	86.38
270.073	79.38
270.306	85.38
270.538	91.38
270.77	85.38
271.002	78.38
271.234	84.38
271.466	73.38
271.698	72.38
271.93	82.38
272.162	80.38
272.394	71.38
272.626	75.38
272.858	91.38
273.09	80.38
273.322	82.38
273.553	92.38
273.785	84.38
274.017	81.38
274.249	72.38
274.481	76.38
274.713	79.38
274.945	84.38
275.176	71.38
275.408	83.38
275.64	87.38
275.872	81.38
276.104	94.38
276.335	83.38
276.567	87.38
276.799	73.38
277.031	83.38
277.262	80.38
277.494	82.38
277.726	80.38
277.957	93.38
278.189	96.38
278.421	88.38
278.652	77.38
278.884	75.38
279.115	78.38
279.347	82.38
279.579	88.38
279.81	96.38
280.042	80.38
280.273	87.38
280.505	75.38
280.736	89.38
280.968	83.38
281.199	84.38
281.431	84.38
281.662	85.38
281.894	80.38
282.125	77.38
282.356	76.38
282.588	86.38
282.819	79.38
283.051	72.38
283.282	84.38
283.513	93.38
283.745	85.38
283.976	80.38
284.207	75.38
284.439	80.38
284.67	83.38
284.901	71.38
285.132	72.38
285.364	81.38
285.595	84.38
285.826	80.38
286.057	72.38
286.288	87.38
286.52	83.38
286.751	87.38
286.982	78.38
287.213	78.38
287.444	90.38
287.675	80.38
287.906	95.38
288.138	82.38
288.369	86.38
288.6	83.38
288.831	70.38
289.062	92.38
289.293	82.38
289.524	81.38
289.755	70.38
289.986	75.38
290.217	86.38
290.448	78.38
290.679	94.38
290.91	93.38
291.141	73.38
291.371	94.38
291.602	88.38
291.833	70.38
292.064	89.38
292.295	81.38
292.526	90.38
292.757	88.38
292.987	82.38
293.218	76.38
293.449	76.38
293.68	93.38
293.91	78.38
294.141	76.38
294.372	99.38
294.603	80.38
294.833	92.38
295.064	76.38
295.295	89.38
295.525	85.38
295.756	82.38
295.987	69.38
296.217	100.38
296.448	78.38
296.679	74.38
296.909	74.38
297.14	82.38
297.37	97.38
297.601	65.38
297.831	85.38
298.062	89.38
298.292	90.38
298.523	86.38
298.753	78.38
298.984	80.38
299.214	77.38
299.445	90.38
299.675	98.38
299.905	81.38
300.136	79.38
300.366	95.38
300.597	84.38
300.827	68.38
301.057	69.38
301.288	71.38
301.518	76.38
301.748	85.38
301.979	63.38
302.209	90.38
302.439	89.38
302.669	90.38
302.9	76.38
303.13	88.38
303.36	83.38
303.59	78.38
303.82	82.38
304.051	69.38
304.281	72.38
304.511	84.38
304.741	84.38
304.971	82.38
305.201	87.38
305.431	88.38
305.661	84.38
305.891	79.38
306.121	81.38
306.352	92.38
306.582	94.38
306.812	86.38
307.042	87.38
307.272	99.38
307.502	87.38
307.731	85.38
307.961	78.38
308.191	79.38
308.421	86.38
308.651	95.38
308.881	81.38
309.111	80.38
309.341	81.38
309.571	74.38
309.8	79.38
310.03	82.38
310.26	84.38
310.49	91.38
310.72	76.38
310.949	98.38
311.179	85.38
311.409	79.38
311.639	98.38
311.868	89.38
312.098	80.38
312.328	87.38
312.557	84.38
312.787	79.38
313.017	79.38
313.246	86.38
313.476	79.38
313.706	82.38
313.935	84.38
314.165	86.38
314.394	80.38
314.624	88.38
314.853	83.38
315.083	95.38
315.312	87.38
315.542	72.38
315.771	90.38
316.001	89.38
316.23	89.38
316.46	97.38
316.689	85.38
316.919	72.38
317.148	88.38
317.377	69.38
317.607	93.38
317.836	84.38
318.065	69.38
318.295	91.38
318.524	96.38
318.753	88.38
318.983	91.38
319.212	99.38
319.441	77.38
319.67	78.38
319.9	87.38
320.129	94.38
320.358	83.38
320.587	88.38
320.816	82.38
321.046	87.38
321.275	85.38
321.504	86.38
321.733	93.38
321.962	76.38
322.191	73.38
322.42	82.38
322.649	75.38
322.878	83.38
323.108	96.38
323.337	81.38
323.566	70.38
323.795	89.38
324.024	76.38
324.253	84.38
324.482	81.38
324.71	75.38
324.939	75.38
325.168	95.38
325.397	93.38
325.626	90.38
325.855	87.38
326.084	82.38
326.313	84.38
326.542	90.38
326.77	91.38
326.999	74.38
327.228	83.38
327.457	78.38
327.686	92.38
327.914	92.38
328.143	88.38
328.372	83.38
328.6	82.38
328.829	75.38
329.058	87.38
329.287	75.38
329.515	82.38
329.744	92.38
329.972	92.38
330.201	79.38
330.43	91.38
330.658	79.38
330.887	78.38
331.115	86.38
331.344	95.38
331.572	85.38
331.801	83.38
332.03	90.38
332.258	82.38
332.486	68.38
332.715	98.38
332.943	92.38
333.172	92.38
333.4	81.38
333.629	100.38
333.857	85.38
334.085	76.38
334.314	71.38
334.542	88.38
334.771	79.38
334.999	90.38
335.227	86.38
335.455	83.38
335.684	84.38
335.912	87.38
336.14	91.38
336.369	99.38
336.597	87.38
336.825	85.38
337.053	62.38
337.281	68.38
337.51	89.38
337.738	72.38
337.966	81.38
338.194	80.38
338.422	82.38
338.65	81.38
338.878	87.38
339.106	96.38
339.334	82.38
339.562	70.38
339.79	78.38
340.018	74.38
340.246	85.38
340.474	66.38
340.702	81.38
340.93	91.38
341.158	87.38
341.386	79.38
341.614	67.38
341.842	80.38
342.07	90.38
342.298	83.38
342.526	94.38
342.754	87.38
342.981	79.38
343.209	82.38
343.437	102.38
343.665	87.38
343.893	82.38
344.12	91.38
344.348	83.38
344.576	83.38
344.804	95.38
345.031	82.38
345.259	90.38
345.487	96.38
345.714	77.38
345.942	80.38
346.17	81.38
346.397	79.38
346.625	93.38
346.853	93.38
347.08	86.38
347.308	81.38
347.535	73.38
347.763	97.38
347.99	79.38
348.218	82.38
348.445	73.38
348.673	99.38
348.9	79.38
349.128	87.38
349.355	86.38
349.583	71.38
349.81	91.38
350.037	79.38
350.265	74.38
350.492	85.38
350.72	74.38
350.947	93.38
351.174	78.38
351.402	86.38
351.629	73.38
351.856	96.38
352.083	91.38
352.311	89.38
352.538	95.38
352.765	94.38
352.992	83.38
353.22	95.38
353.447	93.38
353.674	79.38
353.901	89.38
354.128	97.38
354.355	91.38
354.583	92.38
354.81	71.38
355.037	82.38
355.264	78.38
355.491	83.38
355.718	77.38
355.945	82.38
356.172	89.38
356.399	99.38
356.626	90.38
356.853	83.38
357.08	80.38
357.307	83.38
357.534	78.38
357.761	80.38
357.988	74.38
358.215	91.38
358.441	75.38
358.668	87.38
358.895	87.38
359.122	95.38
359.349	77.38
359.576	82.38
359.802	88.38
360.029	98.38
360.256	89.38
360.483	83.38
360.709	80.38
360.936	76.38
361.163	97.38
361.39	87.38
361.616	104.38
361.843	80.38
362.07	82.38
362.296	92.38
362.523	90.38
362.749	81.38
362.976	80.38
363.203	75.38
363.429	90.38
363.656	99.38
363.882	82.38
364.109	94.38
364.335	92.38
364.562	89.38
364.788	101.38
365.015	80.38
365.241	73.38
365.468	86.38
365.694	85.38
365.92	79.38
366.147	96.38
366.373	74.38
366.599	72.38
366.826	65.38
367.052	70.38
367.278	74.38
367.505	73.38
367.731	82.38
367.957	72.38
368.184	78.38
368.41	81.38
368.636	84.38
368.862	90.38
369.089	88.38
369.315	77.38
369.541	84.38
369.767	93.38
369.993	94.38
370.219	81.38
370.445	89.38
370.672	82.38
370.898	82.38
371.124	85.38
371.35	78.38
371.576	96.38
371.802	81.38
372.028	75.38
372.254	89.38
372.48	75.38
372.706	75.38
372.932	77.38
373.158	77.38
373.384	99.38
373.61	86.38
373.835	85.38
374.061	77.38
374.287	98.38
374.513	91.38
374.739	73.38
374.965	80.38
375.191	73.38
375.416	88.38
375.642	98.38
375.868	72.38
376.094	91.38
376.319	74.38
376.545	73.38
376.771	84.38
376.997	89.38
377.222	79.38
377.448	84.38
377.674	87.38
377.899	79.38
378.125	85.38
378.35	88.38
378.576	86.38
378.802	85.38
379.027	97.38
379.253	84.38
379.478	81.38
379.704	84.38
379.929	88.38
380.155	95.38
380.38	82.38
380.606	90.38
380.831	80.38
381.057	89.38
381.282	83.38
381.507	82.38
381.733	83.38
381.958	94.38
382.184	80.38
382.409	81.38
382.634	91.38
382.86	80.38
383.085	111.38
383.31	96.38
383.535	89.38
383.761	93.38
383.986	94.38
384.211	85.38
384.436	90.38
384.662	86.38
384.887	85.38
385.112	87.38
385.337	91.38
385.562	86.38
385.787	99.38
386.013	105.38
386.238	81.38
386.463	85.38
386.688	77.38
386.913	76.38
387.138	76.38
387.363	89.38
387.588	85.38
387.813	94.38
388.038	84.38
388.263	85.38
388.488	87.38
388.713	67.38
388.938	77.38
389.163	82.38
389.387	80.38
389.612	91.38
389.837	81.38
390.062	79.38
390.287	89.38
390.512	77.38
390.736	72.38
390.961	91.38
391.186	88.38
391.411	80.38
391.636	86.38
391.86	86.38
392.085	79.38
392.31	83.38
392.534	84.38
392.759	76.38
392.984	95.38
393.208	81.38
393.433	92.38
393.658	89.38
393.882	82.38
394.107	98.38
394.331	98.38
394.556	87.38
394.78	82.38
395.005	79.38
395.229	83.38
395.454	76.38
395.678	92.38
395.903	91.38
396.127	86.38
396.352	70.38
396.576	84.38
396.801	84.38
397.025	87.38
397.249	77.38
397.474	89.38
397.698	104.38
397.922	90.38
398.147	86.38
398.371	97.38
398.595	91.38
398.82	91.38
399.044	75.38
399.268	75.38
399.492	88.38
399.717	98.38
399.941	77.38
400.165	100.38
400.389	97.38
400.613	80.38
400.837	79.38
401.062	84.38
401.286	90.38
401.51	94.38
401.734	79.38
401.958	91.38
402.182	88.38
402.406	94.38
402.63	99.38
402.854	87.38
403.078	90.38
403.302	99.38
403.526	84.38
403.75	83.38
403.974	71.38
404.198	82.38
404.422	97.38
404.645	90.38
404.869	89.38
405.093	82.38
405.317	80.38
405.541	90.38
405.765	76.38
405.988	81.38
406.212	80.38
406.436	101.38
406.66	80.38
406.883	86.38
407.107	88.38
407.331	72.38
407.555	81.38
407.778	95.38
408.002	88.38
408.226	91.38
408.449	99.38
408.673	92.38
408.896	81.38
409.12	84.38
409.344	88.38
409.567	79.38
409.791	88.38
410.014	85.38
410.238	98.38
410.461	91.38
410.685	80.38
410.908	91.38
411.132	105.38
411.355	87.38
411.578	96.38
411.802	91.38
412.025	89.38
412.249	87.38
412.472	91.38
412.695	91.38
412.919	97.38
413.142	74.38
413.365	92.38
413.589	96.38
413.812	91.38
414.035	98.38
414.258	78.38
414.482	80.38
414.705	92.38
414.928	97.38
415.151	84.38
415.374	87.38
415.597	92.38
415.821	89.38
416.044	90.38
416.267	97.38
416.49	95.38
416.713	93.38
416.936	89.38
417.159	93.38
417.382	95.38
417.605	106.38
417.828	95.38
418.051	83.38
418.274	89.38
418.497	86.38
418.72	90.38
418.943	97.38
419.166	97.38
419.389	91.38
419.611	90.38
419.834	101.38
420.057	98.38
420.28	82.38
420.503	91.38
420.726	98.38
420.948	99.38
421.171	115.38
421.394	82.38
421.617	87.38
421.839	98.38
422.062	94.38
422.285	110.38
422.507	97.38
422.73	88.38
422.953	88.38
423.175	95.38
423.398	105.38
423.621	74.38
423.843	93.38
424.066	83.38
424.288	106.38
424.511	85.38
424.733	107.38
424.956	87.38
425.178	103.38
425.401	90.38
425.623	101.38
425.846	91.38
426.068	92.38
426.291	87.38
426.513	88.38
426.735	95.38
426.958	96.38
427.18	98.38
427.402	96.38
427.625	98.38
427.847	87.38
428.069	90.38
428.292	80.38
428.514	97.38
428.736	94.38
428.958	94.38
429.181	85.38
429.403	88.38
429.625	91.38
429.847	84.38
430.069	83.38
430.292	95.38
430.514	95.38
430.736	89.38
430.958	94.38
431.18	80.38
431.402	108.38
431.624	87.38
431.846	94.38
432.068	95.38
432.29	63.38
432.512	102.38
432.734	103.38
432.956	92.38
433.178	112.38
433.4	99.38
433.622	102.38
433.844	89.38
434.066	91.38
434.287	86.38
434.509	79.38
434.731	100.38
434.953	72.38
435.175	86.38
435.397	89.38
435.618	94.38
435.84	94.38
436.062	83.38
436.284	88.38
436.505	96.38
436.727	103.38
436.949	99.38
437.17	95.38
437.392	91.38
437.614	85.38
437.835	81.38
438.057	83.38
438.278	89.38
438.5	103.38
438.721	94.38
438.943	92.38
439.165	96.38
439.386	82.38
439.608	94.38
439.829	87.38
440.05	86.38
440.272	100.38
440.493	97.38
440.715	82.38
440.936	99.38
441.158	97.38
441.379	93.38
441.6	98.38
441.822	91.38
442.043	119.38
442.264	97.38
442.486	87.38
442.707	99.38
442.928	106.38
443.149	99.38
443.371	90.38
443.592	96.38
443.813	99.38
444.034	89.38
444.255	101.38
444.476	84.38
444.698	86.38
444.919	96.38
445.14	176.38
445.361	138.38
445.582	100.38
445.803	94.38
446.024	107.38
446.245	107.38
446.466	95.38
446.687	91.38
446.908	99.38
447.129	112.38
447.35	103.38
447.571	100.38
447.792	94.38
448.013	80.38
448.234	90.38
448.455	97.38
448.675	95.38
448.896	91.38
449.117	106.38
449.338	103.38
449.559	98.38
449.779	104.38
450	111.38
450.221	86.38
450.442	85.38
450.662	103.38
450.883	96.38
451.104	84.38
451.324	96.38
451.545	98.38
451.766	103.38
451.986	104.38
452.207	85.38
452.428	88.38
452.648	97.38
452.869	95.38
453.089	88.38
453.31	86.38
453.53	97.38
453.751	87.38
453.971	100.38
454.192	81.38
454.412	102.38
454.633	78.38
454.853	86.38
455.073	86.38
455.294	86.38
455.514	95.38
455.734	80.38
455.955	90.38
456.175	95.38
456.395	90.38
456.616	77.38
456.836	90.38
457.056	87.38
457.276	82.38
457.497	77.38
457.717	95.38
457.937	87.38
458.157	85.38
458.377	75.38
458.598	87.38
458.818	85.38
459.038	72.38
459.258	76.38
459.478	98.38
459.698	69.38
459.918	93.38
460.138	87.38
460.358	97.38
460.578	88.38
460.798	100.38
461.018	83.38
461.238	95.38
461.458	88.38
461.678	100.38
461.898	92.38
462.118	90.38
462.338	84.38
462.558	85.38
462.777	73.38
462.997	85.38
463.217	95.38
463.437	84.38
463.657	94.38
463.876	85.38
464.096	96.38
464.316	88.38
464.536	86.38
464.755	94.38
464.975	84.38
465.195	80.38
465.414	85.38
465.634	95.38
465.854	90.38
466.073	91.38
466.293	108.38
466.512	82.38
466.732	81.38
466.951	93.38
467.171	107.38
467.391	96.38
467.61	97.38
467.829	97.38
468.049	104.38
468.268	93.38
468.488	94.38
468.707	110.38
468.927	92.38
469.146	90.38
469.365	94.38
469.585	106.38
469.804	105.38
470.023	95.38
470.243	86.38
470.462	98.38
470.681	106.38
470.901	100.38
471.12	96.38
471.339	91.38
471.558	102.38
471.777	89.38
471.997	99.38
472.216	90.38
472.435	86.38
472.654	78.38
472.873	90.38
473.092	72.38
473.311	96.38
473.53	85.38
473.749	92.38
473.968	98.38
474.187	82.38
474.406	86.38
474.625	93.38
474.844	94.38
475.063	96.38
475.282	88.38
475.501	90.38
475.72	107.38
475.939	87.38
476.158	86.38
476.377	93.38
476.596	79.38
476.814	88.38
477.033	91.38
477.252	94.38
477.471	89.38
477.69	99.38
477.908	89.38
478.127	98.38
478.346	99.38
478.564	81.38
478.783	94.38
479.002	99.38
479.22	89.38
479.439	99.38
479.658	84.38
479.876	75.38
480.095	85.38
480.313	104.38
480.532	91.38
480.751	105.38
480.969	87.38
481.188	67.38
481.406	79.38
481.624	80.38
481.843	82.38
482.061	88.38
482.28	82.38
482.498	87.38
482.717	96.38
482.935	79.38
483.153	92.38
483.372	107.38
483.59	87.38
483.808	102.38
484.027	99.38
484.245	90.38
484.463	86.38
484.681	98.38
484.9	93.38
485.118	95.38
485.336	88.38
485.554	87.38
485.772	105.38
485.99	85.38
486.209	98.38
486.427	88.38
486.645	102.38
486.863	91.38
487.081	106.38
487.299	94.38
487.517	97.38
487.735	105.38
487.953	108.38
488.171	110.38
488.389	114.38
488.607	93.38
488.825	98.38
489.043	90.38
489.261	89.38
489.479	88.38
489.696	85.38
489.914	93.38
490.132	101.38
490.35	90.38
490.568	96.38
490.786	97.38
491.003	104.38
491.221	108.38
491.439	113.38
491.657	110.38
491.874	104.38
492.092	109.38
492.31	122.38
492.527	130.38
492.745	112.38
492.963	115.38
493.18	116.38
493.398	94.38
493.615	97.38
493.833	100.38
494.05	99.38
494.268	101.38
494.485	109.38
494.703	112.38
494.92	100.38
495.138	109.38
495.355	95.38
495.573	99.38
495.79	102.38
496.008	103.38
496.225	112.38
496.442	109.38
496.66	101.38
496.877	120.38
497.094	101.38
497.312	105.38
497.529	91.38
497.746	97.38
497.963	82.38
498.181	85.38
498.398	89.38
498.615	96.38
498.832	81.38
499.049	88.38
499.267	87.38
499.484	84.38
499.701	92.38
499.918	93.38
500.135	97.38
500.352	100.38
500.569	98.38
500.786	102.38
501.003	107.38
501.22	89.38
501.437	89.38
501.654	88.38
501.871	94.38
502.088	80.38
502.305	87.38
502.522	89.38
502.739	80.38
502.956	112.38
503.172	98.38
503.389	96.38
503.606	100.38
503.823	81.38
504.04	97.38
504.256	84.38
504.473	84.38
504.69	92.38
504.907	96.38
505.123	98.38
505.34	87.38
505.557	97.38
505.773	91.38
505.99	96.38
506.207	88.38
506.423	101.38
506.64	92.38
506.856	93.38
507.073	95.38
507.289	88.38
507.506	90.38
507.722	84.38
507.939	83.38
508.155	94.38
508.372	90.38
508.588	94.38
508.805	85.38
509.021	86.38
509.238	89.38
509.454	68.38
509.67	79.38
509.887	81.38
510.103	98.38
510.319	91.38
510.536	83.38
510.752	95.38
510.968	89.38
511.184	96.38
511.401	86.38
511.617	91.38
511.833	94.38
512.049	85.38
512.265	82.38
512.481	83.38
512.698	77.38
512.914	86.38
513.13	80.38
513.346	94.38
513.562	95.38
513.778	78.38
513.994	82.38
514.21	59.38
514.426	95.38
514.642	74.38
514.858	78.38
515.074	70.38
515.29	83.38
515.506	75.38
515.721	87.38
515.937	83.38
516.153	83.38
516.369	83.38
516.585	78.38
516.801	90.38
517.016	78.38
517.232	96.38
517.448	85.38
517.664	86.38
517.879	85.38
518.095	82.38
518.311	86.38
518.527	75.38
518.742	80.38
518.958	75.38
519.173	96.38
519.389	86.38
519.605	99.38
519.82	80.38
520.036	84.38
520.251	87.38
520.467	87.38
520.682	90.38
520.898	88.38
521.113	88.38
521.329	88.38
521.544	67.38
521.76	93.38
521.975	89.38
522.19	84.38
522.406	89.38
522.621	71.38
522.836	85.38
523.052	74.38
523.267	87.38
523.482	95.38
523.698	108.38
523.913	107.38
524.128	78.38
524.343	87.38
524.559	94.38
524.774	102.38
524.989	101.38
525.204	96.38
525.419	94.38
525.634	102.38
525.849	85.38
526.064	86.38
526.28	92.38
526.495	87.38
526.71	79.38
526.925	83.38
527.14	60.38
527.355	75.38
527.57	76.38
527.785	80.38
527.999	88.38
528.214	85.38
528.429	90.38
528.644	105.38
528.859	95.38
529.074	87.38
529.289	87.38
529.503	102.38
529.718	106.38
529.933	91.38
530.148	75.38
530.363	72.38
530.577	77.38
530.792	90.38
531.007	69.38
531.221	76.38
531.436	87.38
531.651	91.38
531.865	83.38
532.08	67.38
532.295	87.38
532.509	80.38
532.724	77.38
532.938	78.38
533.153	103.38
533.367	80.38
533.582	95.38
533.796	84.38
534.011	75.38
534.225	68.38
534.44	89.38
534.654	74.38
534.868	86.38
535.083	88.38
535.297	83.38
535.511	87.38
535.726	89.38
535.94	82.38
536.154	87.38
536.369	82.38
536.583	72.38
536.797	79.38
537.011	87.38
537.225	78.38
537.44	89.38
537.654	76.38
537.868	69.38
538.082	89.38
538.296	74.38
538.51	81.38
538.724	94.38
538.938	83.38
539.153	93.38
539.367	107.38
539.581	104.38
539.795	86.38
540.009	85.38
540.222	72.38
540.436	96.38
540.65	85.38
540.864	91.38
541.078	103.38
541.292	98.38
541.506	109.38
541.72	91.38
541.934	104.38
542.147	125.38
542.361	119.38
542.575	87.38
542.789	104.38
543.002	96.38
543.216	102.38
543.43	86.38
543.644	97.38
543.857	98.38
544.071	110.38
544.285	94.38
544.498	99.38
544.712	94.38
544.925	98.38
545.139	99.38
545.352	111.38
545.566	99.38
545.779	112.38
545.993	104.38
546.206	116.38
546.42	111.38
546.633	105.38
546.847	116.38
547.06	114.38
547.274	110.38
547.487	101.38
547.7	113.38
547.914	110.38
548.127	101.38
548.34	95.38
548.554	102.38
548.767	99.38
548.98	113.38
549.193	98.38
549.407	102.38
549.62	111.38
549.833	88.38
550.046	106.38
550.259	106.38
550.473	95.38
550.686	106.38
550.899	97.38
551.112	95.38
551.325	95.38
551.538	95.38
551.751	90.38
551.964	82.38
552.177	97.38
552.39	102.38
552.603	93.38
552.816	104.38
553.029	101.38
553.242	98.38
553.455	103.38
553.667	98.38
553.88	101.38
554.093	103.38
554.306	96.38
554.519	99.38
554.732	91.38
554.944	96.38
555.157	93.38
555.37	98.38
555.583	107.38
555.795	103.38
556.008	99.38
556.221	103.38
556.433	90.38
556.646	121.38
556.859	97.38
557.071	98.38
557.284	84.38
557.496	101.38
557.709	88.38
557.921	99.38
558.134	98.38
558.346	97.38
558.559	95.38
558.771	96.38
558.984	95.38
559.196	81.38
559.409	89.38
559.621	90.38
559.833	76.38
560.046	83.38
560.258	96.38
560.47	104.38
560.683	93.38
560.895	96.38
561.107	93.38
561.32	92.38
561.532	80.38
561.744	97.38
561.956	93.38
562.168	90.38
562.381	113.38
562.593	100.38
562.805	102.38
563.017	102.38
563.229	93.38
563.441	87.38
563.653	97.38
563.865	103.38
564.077	90.38
564.289	92.38
564.501	92.38
564.713	118.38
564.925	97.38
565.137	87.38
565.349	98.38
565.561	93.38
565.773	89.38
565.985	87.38
566.197	81.38
566.408	94.38
566.62	99.38
566.832	90.38
567.044	94.38
567.255	86.38
567.467	87.38
567.679	87.38
567.891	98.38
568.102	88.38
568.314	91.38
568.526	81.38
568.737	69.38
568.949	96.38
569.161	75.38
569.372	85.38
569.584	80.38
569.795	85.38
570.007	73.38
570.218	81.38
570.43	83.38
570.641	63.38
570.853	80.38
571.064	96.38
571.276	92.38
571.487	96.38
571.698	93.38
571.91	70.38
572.121	79.38
572.333	83.38
572.544	87.38
572.755	90.38
572.966	86.38
573.178	76.38
573.389	75.38
573.6	79.38
573.811	95.38
574.023	86.38
574.234	79.38
574.445	76.38
574.656	91.38
574.867	95.38
575.078	100.38
575.289	90.38
575.501	87.38
575.712	90.38
575.923	77.38
576.134	90.38
576.345	94.38
576.556	88.38
576.767	96.38
576.978	83.38
577.188	79.38
577.399	80.38
577.61	82.38
577.821	83.38
578.032	76.38
578.243	81.38
578.454	90.38
578.665	97.38
578.875	94.38
579.086	82.38
579.297	92.38
579.508	81.38
579.718	94.38
579.929	100.38
580.14	94.38
580.35	70.38
580.561	78.38
580.772	77.38
580.982	91.38
581.193	85.38
581.403	81.38
581.614	79.38
581.825	93.38
582.035	89.38
582.246	82.38
582.456	89.38
582.667	85.38
582.877	80.38
583.087	72.38
583.298	82.38
583.508	90.38
583.719	95.38
583.929	95.38
584.139	88.38
584.35	87.38
584.56	88.38
584.77	79.38
584.981	66.38
585.191	82.38
585.401	73.38
585.611	75.38
585.821	91.38
586.032	79.38
586.242	64.38
586.452	80.38
586.662	85.38
586.872	80.38
587.082	93.38
587.292	74.38
587.502	82.38
587.713	76.38
587.923	85.38
588.133	91.38
588.343	90.38
588.553	91.38
588.762	88.38
588.972	94.38
589.182	86.38
589.392	71.38
589.602	95.38
589.812	70.38
590.022	82.38
590.232	90.38
590.441	84.38
590.651	83.38
590.861	89.38
591.071	86.38
591.281	78.38
591.49	85.38
591.7	79.38
591.91	98.38
592.119	80.38
592.329	84.38
592.539	84.38
592.748	85.38
592.958	79.38
593.167	83.38
593.377	87.38
593.587	84.38
593.796	74.38
594.006	83.38
594.215	90.38
594.424	88.38
594.634	85.38
594.843	74.38
595.053	72.38
595.262	76.38
595.472	90.38
595.681	94.38
595.89	89.38
596.1	109.38
596.309	88.38
596.518	80.38
596.727	82.38
596.937	91.38
597.146	87.38
597.355	73.38
597.564	83.38
597.774	81.38
597.983	77.38
598.192	84.38
598.401	82.38
598.61	85.38
598.819	78.38
599.028	87.38
599.237	85.38
599.446	79.38
599.655	91.38
599.864	72.38
600.073	78.38
600.282	83.38
600.491	85.38
600.7	74.38
600.909	86.38
601.118	76.38
601.327	89.38
601.536	93.38
601.745	87.38
601.953	107.38
602.162	93.38
602.371	99.38
602.58	91.38
602.789	90.38
602.997	99.38
603.206	88.38
603.415	81.38
603.623	82.38
603.832	102.38
604.041	103.38
604.249	78.38
604.458	80.38
604.666	79.38
604.875	79.38
605.084	80.38
605.292	86.38
605.501	80.38
605.709	77.38
605.918	96.38
606.126	87.38
606.334	93.38
606.543	95.38
606.751	90.38
606.96	81.38
607.168	77.38
607.376	94.38
607.585	72.38
607.793	95.38
608.001	83.38
608.21	89.38
608.418	88.38
608.626	78.38
608.834	97.38
609.043	86.38
609.251	79.38
609.459	104.38
609.667	91.38
609.875	103.38
610.083	90.38
610.291	94.38
610.499	89.38
610.707	103.38
610.916	99.38
611.124	86.38
611.332	98.38
611.54	84.38
611.748	89.38
611.955	104.38
612.163	92.38
612.371	92.38
612.579	96.38
612.787	97.38
612.995	87.38
613.203	74.38
613.411	90.38
613.618	91.38
613.826	94.38
614.034	92.38
614.242	100.38
614.449	87.38
614.657	98.38
614.865	89.38
615.072	101.38
615.28	86.38
615.488	91.38
615.695	94.38
615.903	80.38
616.111	95.38
616.318	101.38
616.526	86.38
616.733	102.38
616.941	96.38
617.148	90.38
617.356	84.38
617.563	105.38
617.771	75.38
617.978	90.38
618.185	73.38
618.393	96.38
618.6	90.38
618.807	87.38
619.015	93.38
619.222	99.38
619.429	104.38
619.637	100.38
619.844	96.38
620.051	85.38
620.258	84.38
620.466	98.38
620.673	82.38
620.88	85.38
621.087	89.38
621.294	97.38
621.501	75.38
621.708	98.38
621.915	87.38
622.122	81.38
622.329	100.38
622.536	104.38
622.743	74.38
622.95	105.38
623.157	90.38
623.364	74.38
623.571	65.38
623.778	102.38
623.985	91.38
624.192	83.38
624.399	88.38
624.606	80.38
624.812	78.38
625.019	86.38
625.226	102.38
625.433	80.38
625.639	97.38
625.846	99.38
626.053	83.38
626.259	79.38
626.466	101.38
626.673	79.38
626.879	78.38
627.086	90.38
627.293	89.38
627.499	91.38
627.706	93.38
627.912	101.38
628.119	81.38
628.325	92.38
628.532	82.38
628.738	84.38
628.945	79.38
629.151	86.38
629.357	81.38
629.564	88.38
629.77	76.38
629.976	102.38
630.183	85.38
630.389	83.38
630.595	83.38
630.802	99.38
631.008	84.38
631.214	100.38
631.42	92.38
631.627	101.38
631.833	76.38
632.039	91.38
632.245	83.38
632.451	80.38
632.657	81.38
632.863	82.38
633.069	98.38
633.275	87.38
633.481	84.38
633.688	90.38
633.893	87.38
634.099	84.38
634.305	89.38
634.511	97.38
634.717	74.38
634.923	86.38
635.129	94.38
635.335	79.38
635.541	80.38
635.747	89.38
635.952	97.38
636.158	96.38
636.364	92.38
636.57	89.38
636.775	82.38
636.981	82.38
637.187	91.38
637.392	92.38
637.598	101.38
637.804	76.38
638.009	94.38
638.215	103.38
638.421	102.38
638.626	89.38
638.832	88.38
639.037	85.38
639.243	100.38
639.448	76.38
639.654	85.38
639.859	87.38
640.065	89.38
640.27	86.38
640.475	104.38
640.681	81.38
640.886	95.38
641.091	86.38
641.297	88.38
641.502	108.38
641.707	75.38
641.913	98.38
642.118	85.38
642.323	83.38
642.528	80.38
642.733	81.38
642.939	78.38
643.144	77.38
643.349	85.38
643.554	82.38
643.759	86.38
643.964	91.38
644.169	80.38
644.374	85.38
644.579	98.38
644.784	91.38
644.989	83.38
645.194	98.38
645.399	86.38
645.604	92.38
645.809	81.38
646.014	97.38
646.219	72.38
646.423	92.38
646.628	101.38
646.833	80.38
647.038	72.38
647.243	86.38
647.447	91.38
647.652	99.38
647.857	83.38
648.062	94.38
648.266	81.38
648.471	86.38
648.676	94.38
648.88	85.38
649.085	101.38
649.289	81.38
649.494	76.38
649.698	92.38
649.903	99.38
650.107	89.38
650.312	73.38
650.516	90.38
650.721	84.38
650.925	90.38
651.13	75.38
651.334	82.38
651.539	83.38
651.743	87.38
651.947	87.38
652.152	86.38
652.356	80.38
652.56	97.38
652.764	85.38
652.969	92.38
653.173	86.38
653.377	104.38
653.581	90.38
653.785	79.38
653.99	88.38
654.194	77.38
654.398	82.38
654.602	82.38
654.806	78.38
655.01	80.38
655.214	87.38
655.418	83.38
655.622	88.38
655.826	84.38
656.03	84.38
656.234	96.38
656.438	89.38
656.642	94.38
656.846	98.38
657.049	90.38
657.253	90.38
657.457	74.38
657.661	84.38
657.865	80.38
658.068	79.38
658.272	81.38
658.476	77.38
658.68	91.38
658.883	78.38
659.087	84.38
659.291	91.38
659.494	80.38
659.698	71.38
659.901	99.38
660.105	76.38
660.309	80.38
660.512	83.38
660.716	72.38
660.919	92.38
661.123	82.38
661.326	78.38
661.53	82.38
661.733	81.38
661.936	79.38
662.14	85.38
662.343	76.38
662.546	81.38
662.75	87.38
662.953	82.38
663.156	86.38
663.36	82.38
663.563	86.38
663.766	77.38
663.969	69.38
664.173	99.38
664.376	88.38
664.579	75.38
664.782	89.38
664.985	98.38
665.188	69.38
665.391	83.38
665.594	89.38
665.797	84.38
666	80.38
666.203	74.38
666.406	88.38
666.609	83.38
666.812	91.38
667.015	91.38
667.218	86.38
667.421	106.38
667.624	77.38
667.827	90.38
668.03	82.38
668.232	85.38
668.435	89.38
668.638	83.38
668.841	88.38
669.043	83.38
669.246	95.38
669.449	77.38
669.651	84.38
669.854	100.38
670.057	82.38
670.259	95.38
670.462	68.38
670.665	83.38
670.867	81.38
671.07	81.38
671.272	81.38
671.475	85.38
671.677	83.38
671.88	84.38
672.082	90.38
672.284	83.38
672.487	80.38
672.689	80.38
672.892	72.38
