Data from Location5.07152019.Energy5.Lamp.07192019.3%Agarose_HRD10591_15-36-45-386.txt Node
Date: Fri Jul 19 15:36:45 EDT 2019
User: cochatt
Spectrometer: HR+D1059
Trigger mode: 1
Integration Time (sec): 1.000000E-1
Scans to average: 1
Electric dark correction enabled: true
Nonlinearity correction enabled: false
Boxcar width: 0
XAxis mode: Wavelengths
Number of Pixels in Spectrum: 2048
>>>>>Begin Spectral Data<<<<<
223.165	-14.31
223.4	-14.31
223.635	-14.31
223.869	-23.31
224.104	-6.31
224.338	-16.31
224.573	-10.31
224.808	-5.31
225.042	-1.31
225.277	1.69
225.511	-15.31
225.746	-9.31
225.98	16.69
226.215	8.69
226.449	20.69
226.683	12.69
226.918	13.69
227.152	27.69
227.387	26.69
227.621	35.69
227.856	30.69
228.09	42.69
228.324	49.69
228.559	57.69
228.793	49.69
229.027	47.69
229.262	61.69
229.496	63.69
229.73	76.69
229.964	58.69
230.199	68.69
230.433	53.69
230.667	78.69
230.901	55.69
231.136	76.69
231.37	72.69
231.604	62.69
231.838	72.69
232.072	78.69
232.306	73.69
232.541	79.69
232.775	75.69
233.009	72.69
233.243	83.69
233.477	76.69
233.711	72.69
233.945	76.69
234.179	81.69
234.413	73.69
234.647	82.69
234.881	80.69
235.115	80.69
235.349	77.69
235.583	79.69
235.817	70.69
236.051	77.69
236.285	65.69
236.519	67.69
236.753	71.69
236.987	73.69
237.221	79.69
237.455	75.69
237.689	78.69
237.922	71.69
238.156	68.69
238.39	82.69
238.624	75.69
238.858	68.69
239.091	78.69
239.325	77.69
239.559	92.69
239.793	95.69
240.027	81.69
240.26	71.69
240.494	64.69
240.728	70.69
240.961	70.69
241.195	70.69
241.429	83.69
241.662	76.69
241.896	68.69
242.13	76.69
242.363	70.69
242.597	73.69
242.83	64.69
243.064	75.69
243.298	69.69
243.531	69.69
243.765	78.69
243.998	83.69
244.232	75.69
244.465	78.69
244.699	78.69
244.932	67.69
245.166	74.69
245.399	75.69
245.633	76.69
245.866	79.69
246.099	86.69
246.333	74.69
246.566	81.69
246.8	82.69
247.033	64.69
247.266	70.69
247.5	64.69
247.733	77.69
247.966	76.69
248.2	84.69
248.433	81.69
248.666	75.69
248.899	72.69
249.133	73.69
249.366	65.69
249.599	65.69
249.832	72.69
250.066	68.69
250.299	78.69
250.532	67.69
250.765	69.69
250.998	67.69
251.231	74.69
251.465	71.69
251.698	79.69
251.931	65.69
252.164	76.69
252.397	79.69
252.63	81.69
252.863	69.69
253.096	75.69
253.329	83.69
253.562	81.69
253.795	62.69
254.028	76.69
254.261	76.69
254.494	72.69
254.727	74.69
254.96	77.69
255.193	68.69
255.426	84.69
255.659	76.69
255.892	80.69
256.124	72.69
256.357	76.69
256.59	77.69
256.823	70.69
257.056	80.69
257.289	77.69
257.521	66.69
257.754	72.69
257.987	75.69
258.22	82.69
258.452	86.69
258.685	79.69
258.918	72.69
259.151	71.69
259.383	84.69
259.616	63.69
259.849	80.69
260.081	79.69
260.314	70.69
260.547	81.69
260.779	70.69
261.012	75.69
261.244	77.69
261.477	70.69
261.71	65.69
261.942	73.69
262.175	79.69
262.407	78.69
262.64	87.69
262.872	78.69
263.105	74.69
263.337	82.69
263.57	67.69
263.802	48.69
264.035	73.69
264.267	85.69
264.499	82.69
264.732	80.69
264.964	68.69
265.197	80.69
265.429	85.69
265.661	84.69
265.894	69.69
266.126	77.69
266.358	75.69
266.591	85.69
266.823	81.69
267.055	81.69
267.287	67.69
267.52	68.69
267.752	73.69
267.984	73.69
268.216	92.69
268.448	62.69
268.681	77.69
268.913	80.69
269.145	82.69
269.377	84.69
269.609	68.69
269.841	71.69
270.073	74.69
270.306	75.69
270.538	74.69
270.77	82.69
271.002	85.69
271.234	86.69
271.466	73.69
271.698	79.69
271.93	78.69
272.162	77.69
272.394	80.69
272.626	82.69
272.858	69.69
273.09	85.69
273.322	74.69
273.553	78.69
273.785	74.69
274.017	72.69
274.249	79.69
274.481	85.69
274.713	57.69
274.945	67.69
275.176	72.69
275.408	83.69
275.64	84.69
275.872	91.69
276.104	77.69
276.335	83.69
276.567	82.69
276.799	79.69
277.031	89.69
277.262	73.69
277.494	82.69
277.726	80.69
277.957	62.69
278.189	79.69
278.421	78.69
278.652	79.69
278.884	76.69
279.115	69.69
279.347	84.69
279.579	62.69
279.81	78.69
280.042	70.69
280.273	70.69
280.505	85.69
280.736	83.69
280.968	78.69
281.199	77.69
281.431	76.69
281.662	74.69
281.894	76.69
282.125	76.69
282.356	82.69
282.588	87.69
282.819	94.69
283.051	74.69
283.282	73.69
283.513	73.69
283.745	63.69
283.976	68.69
284.207	98.69
284.439	85.69
284.67	80.69
284.901	80.69
285.132	81.69
285.364	76.69
285.595	85.69
285.826	90.69
286.057	82.69
286.288	76.69
286.52	87.69
286.751	83.69
286.982	90.69
287.213	81.69
287.444	71.69
287.675	74.69
287.906	83.69
288.138	78.69
288.369	69.69
288.6	74.69
288.831	78.69
289.062	70.69
289.293	74.69
289.524	82.69
289.755	69.69
289.986	83.69
290.217	73.69
290.448	74.69
290.679	80.69
290.91	93.69
291.141	74.69
291.371	91.69
291.602	68.69
291.833	91.69
292.064	85.69
292.295	87.69
292.526	87.69
292.757	84.69
292.987	76.69
293.218	84.69
293.449	79.69
293.68	91.69
293.91	76.69
294.141	87.69
294.372	85.69
294.603	80.69
294.833	75.69
295.064	81.69
295.295	81.69
295.525	81.69
295.756	99.69
295.987	91.69
296.217	83.69
296.448	77.69
296.679	71.69
296.909	92.69
297.14	86.69
297.37	87.69
297.601	82.69
297.831	70.69
298.062	71.69
298.292	78.69
298.523	68.69
298.753	81.69
298.984	85.69
299.214	69.69
299.445	77.69
299.675	69.69
299.905	78.69
300.136	83.69
300.366	78.69
300.597	80.69
300.827	69.69
301.057	93.69
301.288	87.69
301.518	72.69
301.748	80.69
301.979	79.69
302.209	82.69
302.439	75.69
302.669	75.69
302.9	75.69
303.13	79.69
303.36	94.69
303.59	84.69
303.82	84.69
304.051	74.69
304.281	77.69
304.511	85.69
304.741	70.69
304.971	81.69
305.201	70.69
305.431	85.69
305.661	77.69
305.891	78.69
306.121	92.69
306.352	79.69
306.582	74.69
306.812	81.69
307.042	83.69
307.272	99.69
307.502	93.69
307.731	79.69
307.961	78.69
308.191	79.69
308.421	95.69
308.651	85.69
308.881	82.69
309.111	83.69
309.341	64.69
309.571	80.69
309.8	65.69
310.03	89.69
310.26	75.69
310.49	80.69
310.72	76.69
310.949	90.69
311.179	80.69
311.409	69.69
311.639	78.69
311.868	82.69
312.098	79.69
312.328	80.69
312.557	82.69
312.787	69.69
313.017	84.69
313.246	79.69
313.476	75.69
313.706	89.69
313.935	82.69
314.165	90.69
314.394	66.69
314.624	76.69
314.853	70.69
315.083	74.69
315.312	84.69
315.542	84.69
315.771	76.69
316.001	82.69
316.23	94.69
316.46	92.69
316.689	99.69
316.919	87.69
317.148	98.69
317.377	82.69
317.607	69.69
317.836	75.69
318.065	86.69
318.295	82.69
318.524	79.69
318.753	86.69
318.983	81.69
319.212	74.69
319.441	66.69
319.67	73.69
319.9	89.69
320.129	71.69
320.358	71.69
320.587	86.69
320.816	89.69
321.046	81.69
321.275	85.69
321.504	83.69
321.733	83.69
321.962	76.69
322.191	69.69
322.42	68.69
322.649	97.69
322.878	93.69
323.108	75.69
323.337	86.69
323.566	90.69
323.795	82.69
324.024	77.69
324.253	77.69
324.482	90.69
324.71	92.69
324.939	84.69
325.168	82.69
325.397	78.69
325.626	79.69
325.855	76.69
326.084	68.69
326.313	83.69
326.542	80.69
326.77	79.69
326.999	81.69
327.228	73.69
327.457	73.69
327.686	70.69
327.914	77.69
328.143	85.69
328.372	83.69
328.6	84.69
328.829	83.69
329.058	84.69
329.287	66.69
329.515	86.69
329.744	91.69
329.972	77.69
330.201	77.69
330.43	87.69
330.658	86.69
330.887	90.69
331.115	85.69
331.344	83.69
331.572	84.69
331.801	85.69
332.03	68.69
332.258	95.69
332.486	85.69
332.715	79.69
332.943	81.69
333.172	77.69
333.4	75.69
333.629	75.69
333.857	67.69
334.085	77.69
334.314	66.69
334.542	73.69
334.771	89.69
334.999	84.69
335.227	87.69
335.455	72.69
335.684	87.69
335.912	61.69
336.14	69.69
336.369	82.69
336.597	78.69
336.825	84.69
337.053	77.69
337.281	74.69
337.51	81.69
337.738	76.69
337.966	75.69
338.194	90.69
338.422	87.69
338.65	75.69
338.878	78.69
339.106	80.69
339.334	86.69
339.562	74.69
339.79	86.69
340.018	82.69
340.246	78.69
340.474	72.69
340.702	88.69
340.93	82.69
341.158	80.69
341.386	79.69
341.614	80.69
341.842	76.69
342.07	80.69
342.298	100.69
342.526	69.69
342.754	68.69
342.981	67.69
343.209	79.69
343.437	77.69
343.665	86.69
343.893	71.69
344.12	80.69
344.348	78.69
344.576	77.69
344.804	89.69
345.031	76.69
345.259	83.69
345.487	83.69
345.714	93.69
345.942	93.69
346.17	82.69
346.397	84.69
346.625	70.69
346.853	81.69
347.08	76.69
347.308	73.69
347.535	77.69
347.763	69.69
347.99	86.69
348.218	80.69
348.445	83.69
348.673	76.69
348.9	70.69
349.128	93.69
349.355	75.69
349.583	91.69
349.81	81.69
350.037	77.69
350.265	72.69
350.492	77.69
350.72	74.69
350.947	75.69
351.174	85.69
351.402	69.69
351.629	72.69
351.856	87.69
352.083	65.69
352.311	86.69
352.538	73.69
352.765	71.69
352.992	88.69
353.22	77.69
353.447	80.69
353.674	81.69
353.901	76.69
354.128	72.69
354.355	85.69
354.583	73.69
354.81	87.69
355.037	83.69
355.264	87.69
355.491	70.69
355.718	84.69
355.945	72.69
356.172	78.69
356.399	87.69
356.626	87.69
356.853	77.69
357.08	77.69
357.307	62.69
357.534	78.69
357.761	63.69
357.988	81.69
358.215	69.69
358.441	83.69
358.668	84.69
358.895	81.69
359.122	85.69
359.349	87.69
359.576	71.69
359.802	98.69
360.029	82.69
360.256	80.69
360.483	81.69
360.709	86.69
360.936	86.69
361.163	90.69
361.39	85.69
361.616	89.69
361.843	73.69
362.07	79.69
362.296	83.69
362.523	76.69
362.749	94.69
362.976	75.69
363.203	75.69
363.429	89.69
363.656	71.69
363.882	93.69
364.109	84.69
364.335	81.69
364.562	90.69
364.788	76.69
365.015	66.69
365.241	68.69
365.468	82.69
365.694	80.69
365.92	78.69
366.147	87.69
366.373	96.69
366.599	76.69
366.826	98.69
367.052	83.69
367.278	73.69
367.505	90.69
367.731	77.69
367.957	83.69
368.184	83.69
368.41	74.69
368.636	82.69
368.862	73.69
369.089	78.69
369.315	70.69
369.541	81.69
369.767	75.69
369.993	81.69
370.219	81.69
370.445	74.69
370.672	74.69
370.898	82.69
371.124	83.69
371.35	86.69
371.576	86.69
371.802	72.69
372.028	93.69
372.254	78.69
372.48	83.69
372.706	80.69
372.932	74.69
373.158	68.69
373.384	84.69
373.61	78.69
373.835	84.69
374.061	72.69
374.287	76.69
374.513	94.69
374.739	78.69
374.965	81.69
375.191	77.69
375.416	90.69
375.642	74.69
375.868	79.69
376.094	74.69
376.319	93.69
376.545	74.69
376.771	90.69
376.997	76.69
377.222	87.69
377.448	77.69
377.674	80.69
377.899	76.69
378.125	70.69
378.35	72.69
378.576	80.69
378.802	75.69
379.027	87.69
379.253	85.69
379.478	84.69
379.704	95.69
379.929	85.69
380.155	85.69
380.38	87.69
380.606	84.69
380.831	83.69
381.057	85.69
381.282	79.69
381.507	80.69
381.733	71.69
381.958	86.69
382.184	76.69
382.409	79.69
382.634	80.69
382.86	79.69
383.085	88.69
383.31	71.69
383.535	82.69
383.761	84.69
383.986	92.69
384.211	79.69
384.436	89.69
384.662	88.69
384.887	82.69
385.112	81.69
385.337	96.69
385.562	90.69
385.787	71.69
386.013	71.69
386.238	76.69
386.463	81.69
386.688	86.69
386.913	83.69
387.138	75.69
387.363	95.69
387.588	97.69
387.813	85.69
388.038	82.69
388.263	82.69
388.488	84.69
388.713	72.69
388.938	71.69
389.163	70.69
389.387	86.69
389.612	98.69
389.837	86.69
390.062	79.69
390.287	87.69
390.512	78.69
390.736	83.69
390.961	89.69
391.186	75.69
391.411	77.69
391.636	73.69
391.86	72.69
392.085	79.69
392.31	82.69
392.534	73.69
392.759	89.69
392.984	83.69
393.208	81.69
393.433	89.69
393.658	93.69
393.882	76.69
394.107	92.69
394.331	77.69
394.556	72.69
394.78	76.69
395.005	85.69
395.229	73.69
395.454	78.69
395.678	80.69
395.903	78.69
396.127	84.69
396.352	83.69
396.576	74.69
396.801	90.69
397.025	87.69
397.249	75.69
397.474	84.69
397.698	85.69
397.922	81.69
398.147	75.69
398.371	77.69
398.595	80.69
398.82	78.69
399.044	68.69
399.268	79.69
399.492	77.69
399.717	84.69
399.941	86.69
400.165	82.69
400.389	88.69
400.613	74.69
400.837	97.69
401.062	82.69
401.286	84.69
401.51	84.69
401.734	70.69
401.958	66.69
402.182	74.69
402.406	81.69
402.63	81.69
402.854	74.69
403.078	87.69
403.302	74.69
403.526	85.69
403.75	87.69
403.974	76.69
404.198	76.69
404.422	89.69
404.645	87.69
404.869	86.69
405.093	93.69
405.317	81.69
405.541	72.69
405.765	79.69
405.988	85.69
406.212	94.69
406.436	80.69
406.66	96.69
406.883	94.69
407.107	90.69
407.331	83.69
407.555	79.69
407.778	85.69
408.002	93.69
408.226	91.69
408.449	93.69
408.673	71.69
408.896	78.69
409.12	98.69
409.344	75.69
409.567	91.69
409.791	92.69
410.014	79.69
410.238	82.69
410.461	81.69
410.685	84.69
410.908	80.69
411.132	94.69
411.355	91.69
411.578	83.69
411.802	92.69
412.025	74.69
412.249	89.69
412.472	77.69
412.695	73.69
412.919	81.69
413.142	80.69
413.365	87.69
413.589	103.69
413.812	84.69
414.035	91.69
414.258	93.69
414.482	79.69
414.705	96.69
414.928	87.69
415.151	92.69
415.374	92.69
415.597	99.69
415.821	74.69
416.044	81.69
416.267	81.69
416.49	83.69
416.713	74.69
416.936	83.69
417.159	82.69
417.382	96.69
417.605	71.69
417.828	77.69
418.051	85.69
418.274	81.69
418.497	86.69
418.72	103.69
418.943	73.69
419.166	106.69
419.389	106.69
419.611	94.69
419.834	98.69
420.057	91.69
420.28	83.69
420.503	102.69
420.726	92.69
420.948	74.69
421.171	81.69
421.394	89.69
421.617	67.69
421.839	91.69
422.062	91.69
422.285	84.69
422.507	83.69
422.73	79.69
422.953	73.69
423.175	78.69
423.398	86.69
423.621	92.69
423.843	83.69
424.066	87.69
424.288	97.69
424.511	82.69
424.733	87.69
424.956	91.69
425.178	82.69
425.401	76.69
425.623	80.69
425.846	89.69
426.068	89.69
426.291	92.69
426.513	90.69
426.735	78.69
426.958	85.69
427.18	70.69
427.402	92.69
427.625	96.69
427.847	93.69
428.069	86.69
428.292	93.69
428.514	84.69
428.736	101.69
428.958	91.69
429.181	89.69
429.403	91.69
429.625	89.69
429.847	77.69
430.069	82.69
430.292	91.69
430.514	81.69
430.736	95.69
430.958	83.69
431.18	96.69
431.402	87.69
431.624	95.69
431.846	86.69
432.068	79.69
432.29	87.69
432.512	71.69
432.734	82.69
432.956	79.69
433.178	83.69
433.4	94.69
433.622	97.69
433.844	82.69
434.066	88.69
434.287	90.69
434.509	78.69
434.731	80.69
434.953	78.69
435.175	94.69
435.397	81.69
435.618	82.69
435.84	75.69
436.062	66.69
436.284	96.69
436.505	92.69
436.727	87.69
436.949	108.69
437.17	97.69
437.392	96.69
437.614	88.69
437.835	76.69
438.057	88.69
438.278	70.69
438.5	86.69
438.721	82.69
438.943	76.69
439.165	92.69
439.386	92.69
439.608	83.69
439.829	80.69
440.05	91.69
440.272	100.69
440.493	79.69
440.715	88.69
440.936	84.69
441.158	94.69
441.379	93.69
441.6	87.69
441.822	90.69
442.043	86.69
442.264	104.69
442.486	103.69
442.707	89.69
442.928	84.69
443.149	78.69
443.371	90.69
443.592	91.69
443.813	92.69
444.034	96.69
444.255	73.69
444.476	88.69
444.698	104.69
444.919	93.69
445.14	214.69
445.361	155.69
445.582	100.69
445.803	101.69
446.024	87.69
446.245	93.69
446.466	78.69
446.687	113.69
446.908	94.69
447.129	96.69
447.35	99.69
447.571	107.69
447.792	79.69
448.013	88.69
448.234	87.69
448.455	96.69
448.675	83.69
448.896	88.69
449.117	104.69
449.338	91.69
449.559	101.69
449.779	89.69
450	101.69
450.221	88.69
450.442	85.69
450.662	97.69
450.883	85.69
451.104	94.69
451.324	82.69
451.545	83.69
451.766	95.69
451.986	91.69
452.207	86.69
452.428	88.69
452.648	93.69
452.869	84.69
453.089	94.69
453.31	74.69
453.53	83.69
453.751	83.69
453.971	100.69
454.192	82.69
454.412	86.69
454.633	83.69
454.853	92.69
455.073	91.69
455.294	98.69
455.514	83.69
455.734	84.69
455.955	90.69
456.175	90.69
456.395	81.69
456.616	82.69
456.836	79.69
457.056	78.69
457.276	74.69
457.497	84.69
457.717	71.69
457.937	78.69
458.157	85.69
458.377	85.69
458.598	82.69
458.818	89.69
459.038	79.69
459.258	75.69
459.478	76.69
459.698	78.69
459.918	74.69
460.138	74.69
460.358	82.69
460.578	94.69
460.798	81.69
461.018	92.69
461.238	82.69
461.458	100.69
461.678	82.69
461.898	82.69
462.118	86.69
462.338	82.69
462.558	87.69
462.777	90.69
462.997	99.69
463.217	78.69
463.437	71.69
463.657	79.69
463.876	100.69
464.096	89.69
464.316	82.69
464.536	94.69
464.755	92.69
464.975	83.69
465.195	91.69
465.414	92.69
465.634	79.69
465.854	83.69
466.073	86.69
466.293	82.69
466.512	80.69
466.732	91.69
466.951	84.69
467.171	74.69
467.391	94.69
467.61	89.69
467.829	77.69
468.049	76.69
468.268	93.69
468.488	89.69
468.707	98.69
468.927	87.69
469.146	80.69
469.365	87.69
469.585	96.69
469.804	84.69
470.023	90.69
470.243	86.69
470.462	92.69
470.681	89.69
470.901	94.69
471.12	79.69
471.339	89.69
471.558	86.69
471.777	98.69
471.997	74.69
472.216	82.69
472.435	72.69
472.654	90.69
472.873	85.69
473.092	77.69
473.311	98.69
473.53	92.69
473.749	87.69
473.968	97.69
474.187	80.69
474.406	78.69
474.625	86.69
474.844	101.69
475.063	73.69
475.282	91.69
475.501	86.69
475.72	92.69
475.939	83.69
476.158	77.69
476.377	70.69
476.596	79.69
476.814	81.69
477.033	85.69
477.252	85.69
477.471	84.69
477.69	86.69
477.908	91.69
478.127	85.69
478.346	98.69
478.564	80.69
478.783	99.69
479.002	93.69
479.22	89.69
479.439	77.69
479.658	103.69
479.876	86.69
480.095	76.69
480.313	95.69
480.532	93.69
480.751	85.69
480.969	75.69
481.188	81.69
481.406	83.69
481.624	72.69
481.843	83.69
482.061	83.69
482.28	81.69
482.498	94.69
482.717	80.69
482.935	98.69
483.153	99.69
483.372	103.69
483.59	97.69
483.808	96.69
484.027	87.69
484.245	85.69
484.463	99.69
484.681	101.69
484.9	77.69
485.118	103.69
485.336	89.69
485.554	96.69
485.772	81.69
485.99	91.69
486.209	80.69
486.427	82.69
486.645	78.69
486.863	85.69
487.081	86.69
487.299	83.69
487.517	87.69
487.735	84.69
487.953	102.69
488.171	108.69
488.389	101.69
488.607	94.69
488.825	95.69
489.043	105.69
489.261	97.69
489.479	84.69
489.696	93.69
489.914	98.69
490.132	79.69
490.35	78.69
490.568	86.69
490.786	92.69
491.003	103.69
491.221	99.69
491.439	105.69
491.657	95.69
491.874	111.69
492.092	106.69
492.31	102.69
492.527	105.69
492.745	106.69
492.963	107.69
493.18	96.69
493.398	94.69
493.615	114.69
493.833	90.69
494.05	98.69
494.268	100.69
494.485	109.69
494.703	98.69
494.92	87.69
495.138	109.69
495.355	95.69
495.573	100.69
495.79	105.69
496.008	90.69
496.225	111.69
496.442	95.69
496.66	90.69
496.877	102.69
497.094	111.69
497.312	83.69
497.529	99.69
497.746	92.69
497.963	96.69
498.181	94.69
498.398	85.69
498.615	87.69
498.832	88.69
499.049	94.69
499.267	91.69
499.484	81.69
499.701	106.69
499.918	100.69
500.135	101.69
500.352	96.69
500.569	75.69
500.786	99.69
501.003	97.69
501.22	88.69
501.437	89.69
501.654	94.69
501.871	91.69
502.088	84.69
502.305	80.69
502.522	92.69
502.739	104.69
502.956	105.69
503.172	98.69
503.389	96.69
503.606	85.69
503.823	93.69
504.04	83.69
504.256	93.69
504.473	95.69
504.69	97.69
504.907	89.69
505.123	80.69
505.34	81.69
505.557	81.69
505.773	90.69
505.99	88.69
506.207	92.69
506.423	87.69
506.64	92.69
506.856	83.69
507.073	88.69
507.289	82.69
507.506	82.69
507.722	77.69
507.939	89.69
508.155	93.69
508.372	81.69
508.588	88.69
508.805	92.69
509.021	91.69
509.238	79.69
509.454	75.69
509.67	78.69
509.887	79.69
510.103	75.69
510.319	87.69
510.536	93.69
510.752	86.69
510.968	68.69
511.184	66.69
511.401	77.69
511.617	87.69
511.833	85.69
512.049	83.69
512.265	82.69
512.481	66.69
512.698	86.69
512.914	89.69
513.13	94.69
513.346	69.69
513.562	80.69
513.778	92.69
513.994	87.69
514.21	68.69
514.426	75.69
514.642	83.69
514.858	90.69
515.074	78.69
515.29	89.69
515.506	79.69
515.721	88.69
515.937	79.69
516.153	80.69
516.369	71.69
516.585	74.69
516.801	84.69
517.016	73.69
517.232	74.69
517.448	84.69
517.664	75.69
517.879	74.69
518.095	89.69
518.311	75.69
518.527	86.69
518.742	93.69
518.958	87.69
519.173	101.69
519.389	85.69
519.605	80.69
519.82	77.69
520.036	89.69
520.251	82.69
520.467	84.69
520.682	91.69
520.898	82.69
521.113	75.69
521.329	89.69
521.544	77.69
521.76	84.69
521.975	83.69
522.19	54.69
522.406	86.69
522.621	90.69
522.836	66.69
523.052	90.69
523.267	91.69
523.482	92.69
523.698	95.69
523.913	91.69
524.128	79.69
524.343	90.69
524.559	102.69
524.774	95.69
524.989	90.69
525.204	81.69
525.419	91.69
525.634	87.69
525.849	90.69
526.064	89.69
526.28	96.69
526.495	82.69
526.71	81.69
526.925	78.69
527.14	71.69
527.355	78.69
527.57	75.69
527.785	87.69
527.999	80.69
528.214	91.69
528.429	85.69
528.644	81.69
528.859	92.69
529.074	114.69
529.289	96.69
529.503	114.69
529.718	95.69
529.933	84.69
530.148	98.69
530.363	85.69
530.577	79.69
530.792	81.69
531.007	86.69
531.221	88.69
531.436	81.69
531.651	77.69
531.865	90.69
532.08	84.69
532.295	76.69
532.509	80.69
532.724	82.69
532.938	77.69
533.153	83.69
533.367	74.69
533.582	101.69
533.796	98.69
534.011	103.69
534.225	76.69
534.44	70.69
534.654	84.69
534.868	90.69
535.083	77.69
535.297	90.69
535.511	69.69
535.726	88.69
535.94	79.69
536.154	86.69
536.369	89.69
536.583	80.69
536.797	69.69
537.011	68.69
537.225	74.69
537.44	71.69
537.654	82.69
537.868	84.69
538.082	83.69
538.296	88.69
538.51	76.69
538.724	80.69
538.938	90.69
539.153	86.69
539.367	87.69
539.581	91.69
539.795	77.69
540.009	80.69
540.222	68.69
540.436	101.69
540.65	91.69
540.864	79.69
541.078	109.69
541.292	96.69
541.506	100.69
541.72	115.69
541.934	95.69
542.147	117.69
542.361	109.69
542.575	94.69
542.789	91.69
543.002	82.69
543.216	96.69
543.43	95.69
543.644	97.69
543.857	101.69
544.071	101.69
544.285	107.69
544.498	81.69
544.712	112.69
544.925	109.69
545.139	90.69
545.352	95.69
545.566	82.69
545.779	105.69
545.993	101.69
546.206	97.69
546.42	89.69
546.633	101.69
546.847	102.69
547.06	84.69
547.274	88.69
547.487	95.69
547.7	111.69
547.914	100.69
548.127	109.69
548.34	107.69
548.554	100.69
548.767	113.69
548.98	118.69
549.193	98.69
549.407	88.69
549.62	98.69
549.833	89.69
550.046	95.69
550.259	97.69
550.473	97.69
550.686	93.69
550.899	91.69
551.112	98.69
551.325	101.69
551.538	90.69
551.751	86.69
551.964	77.69
552.177	82.69
552.39	94.69
552.603	101.69
552.816	105.69
553.029	89.69
553.242	92.69
553.455	97.69
553.667	96.69
553.88	125.69
554.093	95.69
554.306	87.69
554.519	98.69
554.732	101.69
554.944	92.69
555.157	102.69
555.37	111.69
555.583	79.69
555.795	97.69
556.008	101.69
556.221	88.69
556.433	84.69
556.646	99.69
556.859	97.69
557.071	90.69
557.284	116.69
557.496	94.69
557.709	86.69
557.921	97.69
558.134	100.69
558.346	82.69
558.559	85.69
558.771	90.69
558.984	84.69
559.196	89.69
559.409	92.69
559.621	87.69
559.833	94.69
560.046	87.69
560.258	87.69
560.47	103.69
560.683	98.69
560.895	101.69
561.107	109.69
561.32	92.69
561.532	83.69
561.744	90.69
561.956	100.69
562.168	87.69
562.381	95.69
562.593	84.69
562.805	99.69
563.017	92.69
563.229	94.69
563.441	82.69
563.653	81.69
563.865	83.69
564.077	84.69
564.289	86.69
564.501	97.69
564.713	85.69
564.925	83.69
565.137	93.69
565.349	95.69
565.561	87.69
565.773	74.69
565.985	98.69
566.197	89.69
566.408	66.69
566.62	101.69
566.832	85.69
567.044	83.69
567.255	103.69
567.467	93.69
567.679	70.69
567.891	93.69
568.102	93.69
568.314	84.69
568.526	78.69
568.737	78.69
568.949	97.69
569.161	84.69
569.372	83.69
569.584	90.69
569.795	82.69
570.007	77.69
570.218	90.69
570.43	84.69
570.641	77.69
570.853	94.69
571.064	80.69
571.276	88.69
571.487	79.69
571.698	94.69
571.91	76.69
572.121	97.69
572.333	77.69
572.544	83.69
572.755	108.69
572.966	99.69
573.178	93.69
573.389	81.69
573.6	83.69
573.811	81.69
574.023	77.69
574.234	89.69
574.445	87.69
574.656	78.69
574.867	70.69
575.078	84.69
575.289	78.69
575.501	85.69
575.712	79.69
575.923	84.69
576.134	70.69
576.345	70.69
576.556	89.69
576.767	91.69
576.978	81.69
577.188	87.69
577.399	78.69
577.61	84.69
577.821	88.69
578.032	77.69
578.243	84.69
578.454	76.69
578.665	81.69
578.875	83.69
579.086	69.69
579.297	77.69
579.508	80.69
579.718	86.69
579.929	58.69
580.14	77.69
580.35	77.69
580.561	89.69
580.772	86.69
580.982	82.69
581.193	96.69
581.403	79.69
581.614	83.69
581.825	84.69
582.035	89.69
582.246	97.69
582.456	82.69
582.667	92.69
582.877	82.69
583.087	78.69
583.298	65.69
583.508	89.69
583.719	69.69
583.929	94.69
584.139	79.69
584.35	83.69
584.56	89.69
584.77	77.69
584.981	85.69
585.191	84.69
585.401	78.69
585.611	80.69
585.821	80.69
586.032	89.69
586.242	88.69
586.452	79.69
586.662	81.69
586.872	98.69
587.082	77.69
587.292	82.69
587.502	78.69
587.713	70.69
587.923	73.69
588.133	86.69
588.343	73.69
588.553	98.69
588.762	99.69
588.972	85.69
589.182	85.69
589.392	74.69
589.602	83.69
589.812	76.69
590.022	92.69
590.232	73.69
590.441	82.69
590.651	83.69
590.861	90.69
591.071	77.69
591.281	85.69
591.49	98.69
591.7	84.69
591.91	78.69
592.119	61.69
592.329	64.69
592.539	83.69
592.748	86.69
592.958	99.69
593.167	99.69
593.377	73.69
593.587	87.69
593.796	78.69
594.006	83.69
594.215	76.69
594.424	93.69
594.634	78.69
594.843	69.69
595.053	75.69
595.262	87.69
595.472	84.69
595.681	80.69
595.89	58.69
596.1	82.69
596.309	69.69
596.518	86.69
596.727	74.69
596.937	77.69
597.146	68.69
597.355	69.69
597.564	78.69
597.774	69.69
597.983	66.69
598.192	89.69
598.401	79.69
598.61	100.69
598.819	81.69
599.028	72.69
599.237	82.69
599.446	78.69
599.655	85.69
599.864	78.69
600.073	87.69
600.282	84.69
600.491	84.69
600.7	85.69
600.909	83.69
601.118	88.69
601.327	83.69
601.536	74.69
601.745	86.69
601.953	81.69
602.162	85.69
602.371	84.69
602.58	83.69
602.789	72.69
602.997	83.69
603.206	97.69
603.415	89.69
603.623	90.69
603.832	84.69
604.041	78.69
604.249	90.69
604.458	86.69
604.666	99.69
604.875	87.69
605.084	86.69
605.292	97.69
605.501	93.69
605.709	92.69
605.918	97.69
606.126	82.69
606.334	95.69
606.543	84.69
606.751	84.69
606.96	92.69
607.168	99.69
607.376	71.69
607.585	86.69
607.793	81.69
608.001	95.69
608.21	93.69
608.418	97.69
608.626	87.69
608.834	86.69
609.043	86.69
609.251	97.69
609.459	93.69
609.667	102.69
609.875	91.69
610.083	77.69
610.291	84.69
610.499	78.69
610.707	91.69
610.916	86.69
611.124	68.69
611.332	82.69
611.54	87.69
611.748	92.69
611.955	90.69
612.163	89.69
612.371	98.69
612.579	85.69
612.787	87.69
612.995	94.69
613.203	99.69
613.411	99.69
613.618	91.69
613.826	76.69
614.034	77.69
614.242	86.69
614.449	90.69
614.657	93.69
614.865	92.69
615.072	92.69
615.28	92.69
615.488	97.69
615.695	90.69
615.903	78.69
616.111	98.69
616.318	105.69
616.526	98.69
616.733	85.69
616.941	92.69
617.148	101.69
617.356	90.69
617.563	94.69
617.771	95.69
617.978	78.69
618.185	88.69
618.393	77.69
618.6	79.69
618.807	69.69
619.015	80.69
619.222	95.69
619.429	76.69
619.637	90.69
619.844	92.69
620.051	89.69
620.258	80.69
620.466	79.69
620.673	67.69
620.88	84.69
621.087	86.69
621.294	86.69
621.501	91.69
621.708	73.69
621.915	74.69
622.122	86.69
622.329	83.69
622.536	109.69
622.743	79.69
622.95	94.69
623.157	82.69
623.364	86.69
623.571	74.69
623.778	93.69
623.985	90.69
624.192	82.69
624.399	81.69
624.606	93.69
624.812	71.69
625.019	73.69
625.226	83.69
625.433	95.69
625.639	88.69
625.846	97.69
626.053	85.69
626.259	83.69
626.466	66.69
626.673	88.69
626.879	93.69
627.086	92.69
627.293	91.69
627.499	83.69
627.706	76.69
627.912	84.69
628.119	92.69
628.325	85.69
628.532	101.69
628.738	78.69
628.945	86.69
629.151	87.69
629.357	89.69
629.564	82.69
629.77	89.69
629.976	81.69
630.183	76.69
630.389	89.69
630.595	67.69
630.802	87.69
631.008	89.69
631.214	77.69
631.42	82.69
631.627	84.69
631.833	86.69
632.039	81.69
632.245	73.69
632.451	78.69
632.657	83.69
632.863	97.69
633.069	78.69
633.275	100.69
633.481	76.69
633.688	80.69
633.893	89.69
634.099	100.69
634.305	76.69
634.511	85.69
634.717	68.69
634.923	82.69
635.129	78.69
635.335	100.69
635.541	84.69
635.747	90.69
635.952	83.69
636.158	80.69
636.364	90.69
636.57	80.69
636.775	79.69
636.981	77.69
637.187	82.69
637.392	79.69
637.598	91.69
637.804	89.69
638.009	93.69
638.215	78.69
638.421	73.69
638.626	93.69
638.832	78.69
639.037	77.69
639.243	89.69
639.448	77.69
639.654	85.69
639.859	99.69
640.065	82.69
640.27	94.69
640.475	81.69
640.681	72.69
640.886	93.69
641.091	97.69
641.297	97.69
641.502	89.69
641.707	71.69
641.913	79.69
642.118	80.69
642.323	75.69
642.528	89.69
642.733	81.69
642.939	78.69
643.144	88.69
643.349	83.69
643.554	88.69
643.759	73.69
643.964	94.69
644.169	89.69
644.374	84.69
644.579	87.69
644.784	78.69
644.989	91.69
645.194	84.69
645.399	73.69
645.604	75.69
645.809	102.69
646.014	83.69
646.219	97.69
646.423	85.69
646.628	79.69
646.833	71.69
647.038	71.69
647.243	80.69
647.447	89.69
647.652	90.69
647.857	74.69
648.062	93.69
648.266	84.69
648.471	79.69
648.676	85.69
648.88	73.69
649.085	91.69
649.289	80.69
649.494	84.69
649.698	82.69
649.903	77.69
650.107	81.69
650.312	80.69
650.516	98.69
650.721	81.69
650.925	89.69
651.13	73.69
651.334	68.69
651.539	81.69
651.743	77.69
651.947	95.69
652.152	89.69
652.356	77.69
652.56	85.69
652.764	83.69
652.969	69.69
653.173	68.69
653.377	74.69
653.581	80.69
653.785	74.69
653.99	87.69
654.194	81.69
654.398	83.69
654.602	90.69
654.806	72.69
655.01	70.69
655.214	80.69
655.418	90.69
655.622	89.69
655.826	76.69
656.03	76.69
656.234	76.69
656.438	66.69
656.642	94.69
656.846	80.69
657.049	86.69
657.253	82.69
657.457	71.69
657.661	92.69
657.865	75.69
658.068	81.69
658.272	82.69
658.476	82.69
658.68	76.69
658.883	75.69
659.087	83.69
659.291	90.69
659.494	66.69
659.698	86.69
659.901	79.69
660.105	73.69
660.309	86.69
660.512	78.69
660.716	74.69
660.919	81.69
661.123	72.69
661.326	77.69
661.53	75.69
661.733	62.69
661.936	77.69
662.14	93.69
662.343	79.69
662.546	85.69
662.75	94.69
662.953	65.69
663.156	85.69
663.36	67.69
663.563	79.69
663.766	83.69
663.969	86.69
664.173	69.69
664.376	75.69
664.579	79.69
664.782	76.69
664.985	93.69
665.188	77.69
665.391	76.69
665.594	74.69
665.797	75.69
666	69.69
666.203	94.69
666.406	83.69
666.609	80.69
666.812	75.69
667.015	75.69
667.218	84.69
667.421	73.69
667.624	75.69
667.827	75.69
668.03	82.69
668.232	77.69
668.435	74.69
668.638	86.69
668.841	90.69
669.043	91.69
669.246	85.69
669.449	75.69
669.651	82.69
669.854	98.69
670.057	92.69
670.259	76.69
670.462	91.69
670.665	78.69
670.867	89.69
671.07	78.69
671.272	76.69
671.475	86.69
671.677	70.69
671.88	76.69
672.082	83.69
672.284	70.69
672.487	91.69
672.689	78.69
672.892	78.69
