Data from Location5.07152019.Energy5.Lamp.07192019.3%Agarose_HRD10591_16-02-27-627.txt Node
Date: Fri Jul 19 16:02:27 EDT 2019
User: cochatt
Spectrometer: HR+D1059
Trigger mode: 1
Integration Time (sec): 1.000000E-1
Scans to average: 1
Electric dark correction enabled: true
Nonlinearity correction enabled: false
Boxcar width: 0
XAxis mode: Wavelengths
Number of Pixels in Spectrum: 2048
>>>>>Begin Spectral Data<<<<<
223.165	-22.62
223.4	-22.62
223.635	-22.62
223.869	-3.62
224.104	-32.62
224.338	-20.62
224.573	-0.62
224.808	-1.62
225.042	-13.62
225.277	-19.62
225.511	-6.62
225.746	2.38
225.98	15.38
226.215	13.38
226.449	20.38
226.683	14.38
226.918	23.38
227.152	32.38
227.387	35.38
227.621	35.38
227.856	42.38
228.09	42.38
228.324	46.38
228.559	54.38
228.793	46.38
229.027	64.38
229.262	70.38
229.496	79.38
229.73	68.38
229.964	74.38
230.199	73.38
230.433	83.38
230.667	76.38
230.901	75.38
231.136	68.38
231.37	87.38
231.604	71.38
231.838	72.38
232.072	98.38
232.306	84.38
232.541	74.38
232.775	64.38
233.009	85.38
233.243	76.38
233.477	82.38
233.711	73.38
233.945	84.38
234.179	88.38
234.413	82.38
234.647	79.38
234.881	84.38
235.115	75.38
235.349	74.38
235.583	80.38
235.817	77.38
236.051	76.38
236.285	90.38
236.519	81.38
236.753	79.38
236.987	72.38
237.221	75.38
237.455	75.38
237.689	62.38
237.922	66.38
238.156	67.38
238.39	96.38
238.624	78.38
238.858	76.38
239.091	66.38
239.325	64.38
239.559	73.38
239.793	66.38
240.027	84.38
240.26	75.38
240.494	86.38
240.728	83.38
240.961	67.38
241.195	76.38
241.429	80.38
241.662	77.38
241.896	66.38
242.13	75.38
242.363	71.38
242.597	57.38
242.83	100.38
243.064	75.38
243.298	73.38
243.531	74.38
243.765	76.38
243.998	72.38
244.232	67.38
244.465	82.38
244.699	73.38
244.932	82.38
245.166	84.38
245.399	85.38
245.633	79.38
245.866	67.38
246.099	64.38
246.333	73.38
246.566	71.38
246.8	82.38
247.033	83.38
247.266	77.38
247.5	80.38
247.733	66.38
247.966	76.38
248.2	76.38
248.433	85.38
248.666	72.38
248.899	73.38
249.133	69.38
249.366	84.38
249.599	88.38
249.832	75.38
250.066	88.38
250.299	96.38
250.532	82.38
250.765	87.38
250.998	98.38
251.231	86.38
251.465	89.38
251.698	67.38
251.931	79.38
252.164	91.38
252.397	74.38
252.63	83.38
252.863	76.38
253.096	91.38
253.329	68.38
253.562	80.38
253.795	83.38
254.028	94.38
254.261	80.38
254.494	81.38
254.727	93.38
254.96	74.38
255.193	82.38
255.426	64.38
255.659	71.38
255.892	83.38
256.124	70.38
256.357	83.38
256.59	79.38
256.823	87.38
257.056	92.38
257.289	77.38
257.521	92.38
257.754	73.38
257.987	73.38
258.22	86.38
258.452	75.38
258.685	87.38
258.918	82.38
259.151	81.38
259.383	97.38
259.616	86.38
259.849	91.38
260.081	86.38
260.314	88.38
260.547	86.38
260.779	92.38
261.012	72.38
261.244	85.38
261.477	80.38
261.71	93.38
261.942	98.38
262.175	85.38
262.407	72.38
262.64	83.38
262.872	86.38
263.105	92.38
263.337	86.38
263.57	78.38
263.802	87.38
264.035	94.38
264.267	91.38
264.499	90.38
264.732	75.38
264.964	72.38
265.197	86.38
265.429	90.38
265.661	90.38
265.894	88.38
266.126	83.38
266.358	89.38
266.591	80.38
266.823	77.38
267.055	81.38
267.287	92.38
267.52	79.38
267.752	75.38
267.984	83.38
268.216	97.38
268.448	77.38
268.681	79.38
268.913	83.38
269.145	80.38
269.377	85.38
269.609	90.38
269.841	84.38
270.073	81.38
270.306	70.38
270.538	83.38
270.77	78.38
271.002	87.38
271.234	90.38
271.466	83.38
271.698	82.38
271.93	84.38
272.162	76.38
272.394	97.38
272.626	75.38
272.858	82.38
273.09	95.38
273.322	80.38
273.553	75.38
273.785	77.38
274.017	87.38
274.249	78.38
274.481	90.38
274.713	84.38
274.945	84.38
275.176	101.38
275.408	89.38
275.64	90.38
275.872	83.38
276.104	92.38
276.335	87.38
276.567	95.38
276.799	75.38
277.031	83.38
277.262	93.38
277.494	90.38
277.726	76.38
277.957	81.38
278.189	78.38
278.421	95.38
278.652	78.38
278.884	78.38
279.115	79.38
279.347	99.38
279.579	89.38
279.81	87.38
280.042	88.38
280.273	96.38
280.505	95.38
280.736	82.38
280.968	90.38
281.199	90.38
281.431	90.38
281.662	88.38
281.894	96.38
282.125	94.38
282.356	92.38
282.588	91.38
282.819	77.38
283.051	80.38
283.282	74.38
283.513	98.38
283.745	94.38
283.976	97.38
284.207	75.38
284.439	106.38
284.67	91.38
284.901	81.38
285.132	91.38
285.364	87.38
285.595	81.38
285.826	78.38
286.057	87.38
286.288	82.38
286.52	84.38
286.751	83.38
286.982	86.38
287.213	87.38
287.444	92.38
287.675	85.38
287.906	84.38
288.138	101.38
288.369	94.38
288.6	82.38
288.831	87.38
289.062	90.38
289.293	71.38
289.524	85.38
289.755	90.38
289.986	96.38
290.217	64.38
290.448	92.38
290.679	88.38
290.91	98.38
291.141	94.38
291.371	99.38
291.602	82.38
291.833	89.38
292.064	76.38
292.295	83.38
292.526	98.38
292.757	87.38
292.987	93.38
293.218	81.38
293.449	80.38
293.68	100.38
293.91	93.38
294.141	85.38
294.372	81.38
294.603	80.38
294.833	74.38
295.064	74.38
295.295	91.38
295.525	81.38
295.756	84.38
295.987	79.38
296.217	96.38
296.448	97.38
296.679	94.38
296.909	82.38
297.14	89.38
297.37	98.38
297.601	91.38
297.831	86.38
298.062	69.38
298.292	87.38
298.523	85.38
298.753	75.38
298.984	82.38
299.214	91.38
299.445	87.38
299.675	93.38
299.905	76.38
300.136	87.38
300.366	105.38
300.597	91.38
300.827	86.38
301.057	83.38
301.288	95.38
301.518	86.38
301.748	95.38
301.979	88.38
302.209	86.38
302.439	87.38
302.669	91.38
302.9	90.38
303.13	101.38
303.36	101.38
303.59	75.38
303.82	83.38
304.051	89.38
304.281	100.38
304.511	102.38
304.741	89.38
304.971	85.38
305.201	96.38
305.431	84.38
305.661	93.38
305.891	106.38
306.121	87.38
306.352	85.38
306.582	90.38
306.812	92.38
307.042	88.38
307.272	86.38
307.502	94.38
307.731	92.38
307.961	97.38
308.191	86.38
308.421	88.38
308.651	98.38
308.881	82.38
309.111	83.38
309.341	88.38
309.571	97.38
309.8	112.38
310.03	89.38
310.26	91.38
310.49	103.38
310.72	96.38
310.949	96.38
311.179	96.38
311.409	92.38
311.639	93.38
311.868	101.38
312.098	91.38
312.328	97.38
312.557	85.38
312.787	81.38
313.017	100.38
313.246	86.38
313.476	86.38
313.706	89.38
313.935	87.38
314.165	96.38
314.394	84.38
314.624	97.38
314.853	103.38
315.083	89.38
315.312	91.38
315.542	93.38
315.771	99.38
316.001	90.38
316.23	98.38
316.46	89.38
316.689	92.38
316.919	90.38
317.148	78.38
317.377	75.38
317.607	86.38
317.836	97.38
318.065	74.38
318.295	105.38
318.524	99.38
318.753	92.38
318.983	92.38
319.212	99.38
319.441	84.38
319.67	100.38
319.9	101.38
320.129	83.38
320.358	107.38
320.587	98.38
320.816	80.38
321.046	84.38
321.275	70.38
321.504	88.38
321.733	93.38
321.962	97.38
322.191	101.38
322.42	90.38
322.649	98.38
322.878	102.38
323.108	95.38
323.337	90.38
323.566	97.38
323.795	92.38
324.024	94.38
324.253	96.38
324.482	81.38
324.71	88.38
324.939	91.38
325.168	100.38
325.397	100.38
325.626	94.38
325.855	81.38
326.084	90.38
326.313	88.38
326.542	95.38
326.77	93.38
326.999	97.38
327.228	95.38
327.457	90.38
327.686	89.38
327.914	102.38
328.143	101.38
328.372	94.38
328.6	80.38
328.829	95.38
329.058	94.38
329.287	86.38
329.515	105.38
329.744	103.38
329.972	89.38
330.201	100.38
330.43	91.38
330.658	101.38
330.887	94.38
331.115	85.38
331.344	101.38
331.572	97.38
331.801	94.38
332.03	82.38
332.258	84.38
332.486	91.38
332.715	98.38
332.943	103.38
333.172	84.38
333.4	102.38
333.629	104.38
333.857	91.38
334.085	98.38
334.314	93.38
334.542	105.38
334.771	101.38
334.999	90.38
335.227	92.38
335.455	90.38
335.684	102.38
335.912	96.38
336.14	101.38
336.369	101.38
336.597	106.38
336.825	91.38
337.053	99.38
337.281	107.38
337.51	115.38
337.738	111.38
337.966	97.38
338.194	91.38
338.422	89.38
338.65	98.38
338.878	95.38
339.106	88.38
339.334	81.38
339.562	99.38
339.79	100.38
340.018	91.38
340.246	83.38
340.474	106.38
340.702	94.38
340.93	77.38
341.158	85.38
341.386	100.38
341.614	106.38
341.842	94.38
342.07	105.38
342.298	102.38
342.526	88.38
342.754	95.38
342.981	88.38
343.209	99.38
343.437	104.38
343.665	106.38
343.893	97.38
344.12	98.38
344.348	91.38
344.576	83.38
344.804	89.38
345.031	98.38
345.259	93.38
345.487	90.38
345.714	100.38
345.942	96.38
346.17	91.38
346.397	91.38
346.625	98.38
346.853	85.38
347.08	90.38
347.308	98.38
347.535	100.38
347.763	74.38
347.99	92.38
348.218	85.38
348.445	111.38
348.673	97.38
348.9	77.38
349.128	97.38
349.355	76.38
349.583	89.38
349.81	100.38
350.037	99.38
350.265	89.38
350.492	87.38
350.72	84.38
350.947	93.38
351.174	94.38
351.402	96.38
351.629	95.38
351.856	101.38
352.083	88.38
352.311	98.38
352.538	96.38
352.765	102.38
352.992	98.38
353.22	87.38
353.447	93.38
353.674	96.38
353.901	79.38
354.128	81.38
354.355	86.38
354.583	92.38
354.81	92.38
355.037	93.38
355.264	82.38
355.491	89.38
355.718	99.38
355.945	104.38
356.172	87.38
356.399	98.38
356.626	90.38
356.853	99.38
357.08	86.38
357.307	98.38
357.534	95.38
357.761	101.38
357.988	101.38
358.215	98.38
358.441	83.38
358.668	99.38
358.895	99.38
359.122	97.38
359.349	94.38
359.576	103.38
359.802	91.38
360.029	77.38
360.256	94.38
360.483	95.38
360.709	103.38
360.936	101.38
361.163	97.38
361.39	77.38
361.616	93.38
361.843	104.38
362.07	90.38
362.296	92.38
362.523	91.38
362.749	84.38
362.976	88.38
363.203	95.38
363.429	91.38
363.656	105.38
363.882	105.38
364.109	93.38
364.335	97.38
364.562	98.38
364.788	91.38
365.015	111.38
365.241	89.38
365.468	97.38
365.694	82.38
365.92	103.38
366.147	90.38
366.373	79.38
366.599	108.38
366.826	91.38
367.052	80.38
367.278	97.38
367.505	84.38
367.731	93.38
367.957	81.38
368.184	101.38
368.41	80.38
368.636	96.38
368.862	100.38
369.089	103.38
369.315	81.38
369.541	83.38
369.767	96.38
369.993	90.38
370.219	84.38
370.445	78.38
370.672	94.38
370.898	89.38
371.124	94.38
371.35	90.38
371.576	88.38
371.802	85.38
372.028	95.38
372.254	100.38
372.48	87.38
372.706	97.38
372.932	82.38
373.158	96.38
373.384	98.38
373.61	92.38
373.835	99.38
374.061	95.38
374.287	93.38
374.513	83.38
374.739	108.38
374.965	113.38
375.191	107.38
375.416	107.38
375.642	104.38
375.868	104.38
376.094	90.38
376.319	91.38
376.545	77.38
376.771	90.38
376.997	95.38
377.222	93.38
377.448	94.38
377.674	94.38
377.899	94.38
378.125	81.38
378.35	79.38
378.576	91.38
378.802	85.38
379.027	90.38
379.253	75.38
379.478	96.38
379.704	89.38
379.929	85.38
380.155	89.38
380.38	110.38
380.606	95.38
380.831	89.38
381.057	104.38
381.282	90.38
381.507	89.38
381.733	106.38
381.958	87.38
382.184	93.38
382.409	92.38
382.634	101.38
382.86	108.38
383.085	93.38
383.31	88.38
383.535	103.38
383.761	104.38
383.986	105.38
384.211	100.38
384.436	95.38
384.662	94.38
384.887	108.38
385.112	92.38
385.337	86.38
385.562	84.38
385.787	96.38
386.013	119.38
386.238	116.38
386.463	108.38
386.688	89.38
386.913	99.38
387.138	75.38
387.363	86.38
387.588	110.38
387.813	106.38
388.038	88.38
388.263	97.38
388.488	92.38
388.713	88.38
388.938	105.38
389.163	98.38
389.387	106.38
389.612	106.38
389.837	106.38
390.062	84.38
390.287	86.38
390.512	98.38
390.736	93.38
390.961	97.38
391.186	89.38
391.411	97.38
391.636	81.38
391.86	96.38
392.085	90.38
392.31	105.38
392.534	84.38
392.759	99.38
392.984	88.38
393.208	94.38
393.433	86.38
393.658	91.38
393.882	99.38
394.107	83.38
394.331	87.38
394.556	107.38
394.78	97.38
395.005	98.38
395.229	85.38
395.454	90.38
395.678	105.38
395.903	90.38
396.127	101.38
396.352	90.38
396.576	88.38
396.801	102.38
397.025	98.38
397.249	100.38
397.474	103.38
397.698	99.38
397.922	110.38
398.147	92.38
398.371	101.38
398.595	96.38
398.82	97.38
399.044	101.38
399.268	94.38
399.492	111.38
399.717	131.38
399.941	119.38
400.165	96.38
400.389	101.38
400.613	94.38
400.837	97.38
401.062	96.38
401.286	93.38
401.51	102.38
401.734	93.38
401.958	95.38
402.182	95.38
402.406	96.38
402.63	95.38
402.854	102.38
403.078	93.38
403.302	98.38
403.526	99.38
403.75	82.38
403.974	98.38
404.198	84.38
404.422	94.38
404.645	108.38
404.869	107.38
405.093	114.38
405.317	105.38
405.541	89.38
405.765	102.38
405.988	97.38
406.212	110.38
406.436	101.38
406.66	92.38
406.883	106.38
407.107	104.38
407.331	110.38
407.555	103.38
407.778	101.38
408.002	118.38
408.226	107.38
408.449	101.38
408.673	108.38
408.896	97.38
409.12	91.38
409.344	118.38
409.567	104.38
409.791	100.38
410.014	106.38
410.238	86.38
410.461	99.38
410.685	82.38
410.908	107.38
411.132	104.38
411.355	100.38
411.578	107.38
411.802	107.38
412.025	97.38
412.249	95.38
412.472	84.38
412.695	88.38
412.919	100.38
413.142	100.38
413.365	104.38
413.589	98.38
413.812	100.38
414.035	114.38
414.258	101.38
414.482	103.38
414.705	92.38
414.928	101.38
415.151	99.38
415.374	99.38
415.597	99.38
415.821	96.38
416.044	90.38
416.267	103.38
416.49	108.38
416.713	102.38
416.936	94.38
417.159	98.38
417.382	111.38
417.605	107.38
417.828	99.38
418.051	89.38
418.274	94.38
418.497	116.38
418.72	105.38
418.943	107.38
419.166	95.38
419.389	103.38
419.611	98.38
419.834	100.38
420.057	104.38
420.28	105.38
420.503	105.38
420.726	99.38
420.948	89.38
421.171	88.38
421.394	95.38
421.617	111.38
421.839	106.38
422.062	118.38
422.285	103.38
422.507	96.38
422.73	94.38
422.953	104.38
423.175	84.38
423.398	89.38
423.621	92.38
423.843	99.38
424.066	108.38
424.288	104.38
424.511	112.38
424.733	98.38
424.956	92.38
425.178	88.38
425.401	98.38
425.623	101.38
425.846	91.38
426.068	111.38
426.291	83.38
426.513	97.38
426.735	98.38
426.958	87.38
427.18	106.38
427.402	109.38
427.625	104.38
427.847	93.38
428.069	101.38
428.292	103.38
428.514	95.38
428.736	82.38
428.958	96.38
429.181	99.38
429.403	93.38
429.625	92.38
429.847	95.38
430.069	79.38
430.292	98.38
430.514	104.38
430.736	100.38
430.958	105.38
431.18	85.38
431.402	94.38
431.624	106.38
431.846	107.38
432.068	106.38
432.29	96.38
432.512	96.38
432.734	98.38
432.956	95.38
433.178	92.38
433.4	84.38
433.622	87.38
433.844	94.38
434.066	93.38
434.287	94.38
434.509	97.38
434.731	83.38
434.953	100.38
435.175	102.38
435.397	96.38
435.618	90.38
435.84	104.38
436.062	90.38
436.284	101.38
436.505	94.38
436.727	95.38
436.949	97.38
437.17	79.38
437.392	75.38
437.614	83.38
437.835	106.38
438.057	90.38
438.278	89.38
438.5	96.38
438.721	101.38
438.943	91.38
439.165	94.38
439.386	99.38
439.608	102.38
439.829	102.38
440.05	97.38
440.272	101.38
440.493	105.38
440.715	103.38
440.936	107.38
441.158	88.38
441.379	92.38
441.6	109.38
441.822	98.38
442.043	94.38
442.264	85.38
442.486	99.38
442.707	85.38
442.928	92.38
443.149	94.38
443.371	99.38
443.592	93.38
443.813	94.38
444.034	109.38
444.255	92.38
444.476	96.38
444.698	115.38
444.919	120.38
445.14	226.38
445.361	154.38
445.582	97.38
445.803	92.38
446.024	100.38
446.245	96.38
446.466	114.38
446.687	105.38
446.908	105.38
447.129	94.38
447.35	83.38
447.571	89.38
447.792	91.38
448.013	86.38
448.234	83.38
448.455	97.38
448.675	103.38
448.896	96.38
449.117	93.38
449.338	86.38
449.559	100.38
449.779	98.38
450	92.38
450.221	83.38
450.442	99.38
450.662	107.38
450.883	104.38
451.104	78.38
451.324	110.38
451.545	94.38
451.766	102.38
451.986	98.38
452.207	97.38
452.428	98.38
452.648	97.38
452.869	84.38
453.089	95.38
453.31	76.38
453.53	91.38
453.751	88.38
453.971	92.38
454.192	90.38
454.412	98.38
454.633	106.38
454.853	89.38
455.073	92.38
455.294	104.38
455.514	92.38
455.734	93.38
455.955	91.38
456.175	107.38
456.395	87.38
456.616	98.38
456.836	94.38
457.056	106.38
457.276	97.38
457.497	83.38
457.717	90.38
457.937	93.38
458.157	93.38
458.377	82.38
458.598	97.38
458.818	102.38
459.038	107.38
459.258	87.38
459.478	84.38
459.698	92.38
459.918	90.38
460.138	90.38
460.358	97.38
460.578	115.38
460.798	118.38
461.018	104.38
461.238	106.38
461.458	116.38
461.678	115.38
461.898	94.38
462.118	100.38
462.338	99.38
462.558	99.38
462.777	104.38
462.997	99.38
463.217	96.38
463.437	106.38
463.657	100.38
463.876	90.38
464.096	105.38
464.316	111.38
464.536	86.38
464.755	103.38
464.975	90.38
465.195	97.38
465.414	106.38
465.634	104.38
465.854	91.38
466.073	95.38
466.293	88.38
466.512	103.38
466.732	88.38
466.951	93.38
467.171	112.38
467.391	108.38
467.61	95.38
467.829	100.38
468.049	101.38
468.268	104.38
468.488	98.38
468.707	104.38
468.927	99.38
469.146	97.38
469.365	91.38
469.585	83.38
469.804	93.38
470.023	92.38
470.243	102.38
470.462	107.38
470.681	94.38
470.901	107.38
471.12	96.38
471.339	101.38
471.558	104.38
471.777	82.38
471.997	93.38
472.216	98.38
472.435	98.38
472.654	103.38
472.873	101.38
473.092	95.38
473.311	102.38
473.53	102.38
473.749	99.38
473.968	97.38
474.187	87.38
474.406	101.38
474.625	103.38
474.844	98.38
475.063	94.38
475.282	102.38
475.501	84.38
475.72	98.38
475.939	108.38
476.158	108.38
476.377	89.38
476.596	97.38
476.814	104.38
477.033	94.38
477.252	97.38
477.471	91.38
477.69	101.38
477.908	102.38
478.127	98.38
478.346	111.38
478.564	108.38
478.783	107.38
479.002	109.38
479.22	88.38
479.439	94.38
479.658	110.38
479.876	104.38
480.095	88.38
480.313	94.38
480.532	111.38
480.751	116.38
480.969	98.38
481.188	102.38
481.406	91.38
481.624	105.38
481.843	96.38
482.061	103.38
482.28	100.38
482.498	98.38
482.717	81.38
482.935	111.38
483.153	104.38
483.372	101.38
483.59	110.38
483.808	90.38
484.027	115.38
484.245	92.38
484.463	108.38
484.681	109.38
484.9	108.38
485.118	106.38
485.336	97.38
485.554	105.38
485.772	96.38
485.99	114.38
486.209	99.38
486.427	108.38
486.645	107.38
486.863	97.38
487.081	99.38
487.299	121.38
487.517	109.38
487.735	103.38
487.953	103.38
488.171	99.38
488.389	104.38
488.607	111.38
488.825	113.38
489.043	99.38
489.261	110.38
489.479	103.38
489.696	98.38
489.914	104.38
490.132	119.38
490.35	105.38
490.568	112.38
490.786	114.38
491.003	119.38
491.221	112.38
491.439	116.38
491.657	113.38
491.874	118.38
492.092	112.38
492.31	122.38
492.527	121.38
492.745	130.38
492.963	103.38
493.18	120.38
493.398	120.38
493.615	104.38
493.833	110.38
494.05	130.38
494.268	106.38
494.485	112.38
494.703	118.38
494.92	123.38
495.138	119.38
495.355	117.38
495.573	110.38
495.79	121.38
496.008	121.38
496.225	118.38
496.442	120.38
496.66	128.38
496.877	117.38
497.094	117.38
497.312	102.38
497.529	118.38
497.746	112.38
497.963	104.38
498.181	124.38
498.398	118.38
498.615	127.38
498.832	114.38
499.049	123.38
499.267	138.38
499.484	129.38
499.701	138.38
499.918	158.38
500.135	147.38
500.352	166.38
500.569	172.38
500.786	161.38
501.003	154.38
501.22	140.38
501.437	130.38
501.654	140.38
501.871	135.38
502.088	126.38
502.305	127.38
502.522	121.38
502.739	122.38
502.956	117.38
503.172	120.38
503.389	105.38
503.606	122.38
503.823	102.38
504.04	120.38
504.256	118.38
504.473	114.38
504.69	108.38
504.907	130.38
505.123	97.38
505.34	112.38
505.557	127.38
505.773	116.38
505.99	119.38
506.207	110.38
506.423	101.38
506.64	110.38
506.856	107.38
507.073	108.38
507.289	114.38
507.506	112.38
507.722	102.38
507.939	104.38
508.155	106.38
508.372	113.38
508.588	99.38
508.805	116.38
509.021	110.38
509.238	114.38
509.454	93.38
509.67	107.38
509.887	105.38
510.103	91.38
510.319	109.38
510.536	113.38
510.752	92.38
510.968	116.38
511.184	97.38
511.401	93.38
511.617	104.38
511.833	93.38
512.049	120.38
512.265	120.38
512.481	95.38
512.698	101.38
512.914	113.38
513.13	99.38
513.346	110.38
513.562	102.38
513.778	83.38
513.994	93.38
514.21	105.38
514.426	105.38
514.642	98.38
514.858	114.38
515.074	97.38
515.29	110.38
515.506	96.38
515.721	85.38
515.937	92.38
516.153	104.38
516.369	122.38
516.585	119.38
516.801	119.38
517.016	107.38
517.232	112.38
517.448	117.38
517.664	119.38
517.879	107.38
518.095	103.38
518.311	111.38
518.527	105.38
518.742	117.38
518.958	107.38
519.173	119.38
519.389	98.38
519.605	113.38
519.82	119.38
520.036	93.38
520.251	96.38
520.467	104.38
520.682	104.38
520.898	98.38
521.113	96.38
521.329	102.38
521.544	102.38
521.76	90.38
521.975	93.38
522.19	95.38
522.406	92.38
522.621	96.38
522.836	102.38
523.052	107.38
523.267	90.38
523.482	84.38
523.698	87.38
523.913	106.38
524.128	97.38
524.343	101.38
524.559	94.38
524.774	114.38
524.989	117.38
525.204	90.38
525.419	101.38
525.634	102.38
525.849	100.38
526.064	89.38
526.28	92.38
526.495	100.38
526.71	97.38
526.925	100.38
527.14	97.38
527.355	92.38
527.57	104.38
527.785	100.38
527.999	100.38
528.214	95.38
528.429	107.38
528.644	110.38
528.859	98.38
529.074	98.38
529.289	110.38
529.503	101.38
529.718	97.38
529.933	88.38
530.148	113.38
530.363	102.38
530.577	83.38
530.792	97.38
531.007	99.38
531.221	94.38
531.436	107.38
531.651	99.38
531.865	105.38
532.08	92.38
532.295	102.38
532.509	91.38
532.724	99.38
532.938	104.38
533.153	107.38
533.367	104.38
533.582	107.38
533.796	105.38
534.011	105.38
534.225	104.38
534.44	105.38
534.654	99.38
534.868	94.38
535.083	100.38
535.297	82.38
535.511	88.38
535.726	109.38
535.94	97.38
536.154	97.38
536.369	103.38
536.583	115.38
536.797	100.38
537.011	103.38
537.225	101.38
537.44	89.38
537.654	104.38
537.868	98.38
538.082	94.38
538.296	89.38
538.51	116.38
538.724	90.38
538.938	106.38
539.153	121.38
539.367	111.38
539.581	99.38
539.795	104.38
540.009	106.38
540.222	104.38
540.436	105.38
540.65	85.38
540.864	116.38
541.078	91.38
541.292	108.38
541.506	108.38
541.72	117.38
541.934	118.38
542.147	115.38
542.361	100.38
542.575	100.38
542.789	105.38
543.002	100.38
543.216	107.38
543.43	99.38
543.644	99.38
543.857	95.38
544.071	107.38
544.285	95.38
544.498	94.38
544.712	87.38
544.925	99.38
545.139	100.38
545.352	98.38
545.566	100.38
545.779	83.38
545.993	104.38
546.206	117.38
546.42	103.38
546.633	111.38
546.847	101.38
547.06	108.38
547.274	94.38
547.487	99.38
547.7	103.38
547.914	103.38
548.127	105.38
548.34	111.38
548.554	108.38
548.767	99.38
548.98	112.38
549.193	113.38
549.407	96.38
549.62	105.38
549.833	97.38
550.046	87.38
550.259	104.38
550.473	97.38
550.686	122.38
550.899	112.38
551.112	108.38
551.325	110.38
551.538	101.38
551.751	89.38
551.964	79.38
552.177	105.38
552.39	92.38
552.603	110.38
552.816	98.38
553.029	97.38
553.242	113.38
553.455	98.38
553.667	118.38
553.88	96.38
554.093	118.38
554.306	103.38
554.519	106.38
554.732	108.38
554.944	95.38
555.157	104.38
555.37	93.38
555.583	96.38
555.795	114.38
556.008	104.38
556.221	95.38
556.433	102.38
556.646	107.38
556.859	80.38
557.071	94.38
557.284	102.38
557.496	114.38
557.709	105.38
557.921	110.38
558.134	122.38
558.346	100.38
558.559	104.38
558.771	96.38
558.984	101.38
559.196	91.38
559.409	99.38
559.621	98.38
559.833	111.38
560.046	95.38
560.258	102.38
560.47	90.38
560.683	94.38
560.895	89.38
561.107	97.38
561.32	98.38
561.532	96.38
561.744	95.38
561.956	82.38
562.168	120.38
562.381	110.38
562.593	105.38
562.805	93.38
563.017	95.38
563.229	110.38
563.441	93.38
563.653	94.38
563.865	96.38
564.077	84.38
564.289	79.38
564.501	94.38
564.713	97.38
564.925	105.38
565.137	102.38
565.349	92.38
565.561	111.38
565.773	100.38
565.985	101.38
566.197	95.38
566.408	92.38
566.62	97.38
566.832	95.38
567.044	108.38
567.255	122.38
567.467	98.38
567.679	120.38
567.891	96.38
568.102	105.38
568.314	103.38
568.526	111.38
568.737	108.38
568.949	99.38
569.161	97.38
569.372	111.38
569.584	121.38
569.795	107.38
570.007	115.38
570.218	95.38
570.43	84.38
570.641	87.38
570.853	97.38
571.064	105.38
571.276	110.38
571.487	87.38
571.698	92.38
571.91	102.38
572.121	99.38
572.333	100.38
572.544	92.38
572.755	98.38
572.966	91.38
573.178	91.38
573.389	89.38
573.6	91.38
573.811	96.38
574.023	96.38
574.234	92.38
574.445	86.38
574.656	88.38
574.867	113.38
575.078	81.38
575.289	92.38
575.501	87.38
575.712	82.38
575.923	101.38
576.134	86.38
576.345	85.38
576.556	99.38
576.767	86.38
576.978	92.38
577.188	94.38
577.399	91.38
577.61	99.38
577.821	100.38
578.032	89.38
578.243	93.38
578.454	99.38
578.665	91.38
578.875	97.38
579.086	96.38
579.297	92.38
579.508	91.38
579.718	89.38
579.929	97.38
580.14	89.38
580.35	107.38
580.561	94.38
580.772	81.38
580.982	93.38
581.193	74.38
581.403	91.38
581.614	83.38
581.825	99.38
582.035	92.38
582.246	104.38
582.456	85.38
582.667	88.38
582.877	80.38
583.087	82.38
583.298	84.38
583.508	86.38
583.719	90.38
583.929	101.38
584.139	81.38
584.35	85.38
584.56	96.38
584.77	90.38
584.981	100.38
585.191	83.38
585.401	76.38
585.611	93.38
585.821	85.38
586.032	86.38
586.242	98.38
586.452	90.38
586.662	76.38
586.872	95.38
587.082	91.38
587.292	89.38
587.502	84.38
587.713	96.38
587.923	87.38
588.133	100.38
588.343	99.38
588.553	88.38
588.762	85.38
588.972	99.38
589.182	97.38
589.392	86.38
589.602	75.38
589.812	89.38
590.022	94.38
590.232	98.38
590.441	101.38
590.651	95.38
590.861	94.38
591.071	89.38
591.281	83.38
591.49	82.38
591.7	82.38
591.91	92.38
592.119	86.38
592.329	89.38
592.539	97.38
592.748	105.38
592.958	98.38
593.167	94.38
593.377	84.38
593.587	95.38
593.796	107.38
594.006	98.38
594.215	102.38
594.424	80.38
594.634	84.38
594.843	87.38
595.053	97.38
595.262	100.38
595.472	80.38
595.681	97.38
595.89	94.38
596.1	93.38
596.309	91.38
596.518	88.38
596.727	91.38
596.937	82.38
597.146	95.38
597.355	91.38
597.564	88.38
597.774	91.38
597.983	78.38
598.192	90.38
598.401	100.38
598.61	84.38
598.819	85.38
599.028	87.38
599.237	79.38
599.446	82.38
599.655	81.38
599.864	96.38
600.073	87.38
600.282	101.38
600.491	113.38
600.7	105.38
600.909	101.38
601.118	99.38
601.327	93.38
601.536	76.38
601.745	84.38
601.953	95.38
602.162	93.38
602.371	93.38
602.58	110.38
602.789	83.38
602.997	93.38
603.206	93.38
603.415	95.38
603.623	100.38
603.832	90.38
604.041	85.38
604.249	88.38
604.458	74.38
604.666	80.38
604.875	79.38
605.084	88.38
605.292	88.38
605.501	87.38
605.709	79.38
605.918	88.38
606.126	90.38
606.334	74.38
606.543	88.38
606.751	100.38
606.96	88.38
607.168	80.38
607.376	97.38
607.585	96.38
607.793	105.38
608.001	89.38
608.21	85.38
608.418	99.38
608.626	96.38
608.834	79.38
609.043	87.38
609.251	77.38
609.459	81.38
609.667	88.38
609.875	98.38
610.083	91.38
610.291	98.38
610.499	99.38
610.707	80.38
610.916	90.38
611.124	105.38
611.332	86.38
611.54	83.38
611.748	95.38
611.955	95.38
612.163	82.38
612.371	96.38
612.579	88.38
612.787	91.38
612.995	101.38
613.203	107.38
613.411	99.38
613.618	78.38
613.826	93.38
614.034	87.38
614.242	89.38
614.449	91.38
614.657	83.38
614.865	84.38
615.072	76.38
615.28	92.38
615.488	88.38
615.695	91.38
615.903	96.38
616.111	91.38
616.318	90.38
616.526	98.38
616.733	89.38
616.941	69.38
617.148	92.38
617.356	88.38
617.563	79.38
617.771	74.38
617.978	94.38
618.185	91.38
618.393	80.38
618.6	91.38
618.807	94.38
619.015	86.38
619.222	88.38
619.429	90.38
619.637	83.38
619.844	90.38
620.051	83.38
620.258	92.38
620.466	88.38
620.673	84.38
620.88	86.38
621.087	94.38
621.294	95.38
621.501	92.38
621.708	91.38
621.915	84.38
622.122	91.38
622.329	97.38
622.536	88.38
622.743	87.38
622.95	88.38
623.157	86.38
623.364	97.38
623.571	111.38
623.778	90.38
623.985	92.38
624.192	89.38
624.399	92.38
624.606	98.38
624.812	96.38
625.019	84.38
625.226	95.38
625.433	102.38
625.639	78.38
625.846	89.38
626.053	93.38
626.259	80.38
626.466	94.38
626.673	81.38
626.879	74.38
627.086	89.38
627.293	101.38
627.499	79.38
627.706	83.38
627.912	99.38
628.119	85.38
628.325	71.38
628.532	99.38
628.738	79.38
628.945	67.38
629.151	97.38
629.357	84.38
629.564	83.38
629.77	82.38
629.976	91.38
630.183	85.38
630.389	92.38
630.595	86.38
630.802	81.38
631.008	91.38
631.214	84.38
631.42	88.38
631.627	91.38
631.833	84.38
632.039	83.38
632.245	90.38
632.451	94.38
632.657	86.38
632.863	79.38
633.069	75.38
633.275	76.38
633.481	90.38
633.688	72.38
633.893	85.38
634.099	74.38
634.305	83.38
634.511	77.38
634.717	85.38
634.923	93.38
635.129	79.38
635.335	99.38
635.541	78.38
635.747	93.38
635.952	96.38
636.158	88.38
636.364	96.38
636.57	86.38
636.775	95.38
636.981	88.38
637.187	85.38
637.392	81.38
637.598	89.38
637.804	95.38
638.009	106.38
638.215	107.38
638.421	82.38
638.626	93.38
638.832	95.38
639.037	84.38
639.243	95.38
639.448	100.38
639.654	97.38
639.859	80.38
640.065	91.38
640.27	94.38
640.475	103.38
640.681	92.38
640.886	83.38
641.091	96.38
641.297	88.38
641.502	99.38
641.707	81.38
641.913	84.38
642.118	82.38
642.323	96.38
642.528	86.38
642.733	86.38
642.939	90.38
643.144	76.38
643.349	77.38
643.554	77.38
643.759	82.38
643.964	85.38
644.169	85.38
644.374	86.38
644.579	93.38
644.784	73.38
644.989	86.38
645.194	82.38
645.399	82.38
645.604	81.38
645.809	87.38
646.014	82.38
646.219	96.38
646.423	96.38
646.628	86.38
646.833	70.38
647.038	91.38
647.243	76.38
647.447	88.38
647.652	93.38
647.857	75.38
648.062	76.38
648.266	85.38
648.471	78.38
648.676	84.38
648.88	81.38
649.085	89.38
649.289	83.38
649.494	91.38
649.698	84.38
649.903	91.38
650.107	95.38
650.312	90.38
650.516	100.38
650.721	89.38
650.925	96.38
651.13	88.38
651.334	78.38
651.539	91.38
651.743	80.38
651.947	81.38
652.152	88.38
652.356	101.38
652.56	86.38
652.764	83.38
652.969	79.38
653.173	96.38
653.377	81.38
653.581	75.38
653.785	91.38
653.99	73.38
654.194	82.38
654.398	94.38
654.602	71.38
654.806	82.38
655.01	82.38
655.214	72.38
655.418	71.38
655.622	88.38
655.826	81.38
656.03	71.38
656.234	82.38
656.438	93.38
656.642	83.38
656.846	75.38
657.049	78.38
657.253	76.38
657.457	104.38
657.661	93.38
657.865	84.38
658.068	75.38
658.272	101.38
658.476	87.38
658.68	78.38
658.883	89.38
659.087	86.38
659.291	81.38
659.494	81.38
659.698	75.38
659.901	84.38
660.105	90.38
660.309	73.38
660.512	88.38
660.716	84.38
660.919	85.38
661.123	79.38
661.326	82.38
661.53	86.38
661.733	77.38
661.936	81.38
662.14	86.38
662.343	86.38
662.546	93.38
662.75	90.38
662.953	87.38
663.156	79.38
663.36	83.38
663.563	72.38
663.766	81.38
663.969	99.38
664.173	82.38
664.376	58.38
664.579	87.38
664.782	96.38
664.985	76.38
665.188	88.38
665.391	71.38
665.594	79.38
665.797	73.38
666	81.38
666.203	99.38
666.406	97.38
666.609	78.38
666.812	84.38
667.015	93.38
667.218	79.38
667.421	91.38
667.624	83.38
667.827	70.38
668.03	72.38
668.232	82.38
668.435	80.38
668.638	89.38
668.841	76.38
669.043	90.38
669.246	80.38
669.449	67.38
669.651	82.38
669.854	81.38
670.057	81.38
670.259	80.38
670.462	88.38
670.665	77.38
670.867	82.38
671.07	97.38
671.272	72.38
671.475	87.38
671.677	91.38
671.88	81.38
672.082	88.38
672.284	81.38
672.487	82.38
672.689	79.38
672.892	79.38
