Data from Location5.07152019.Energy5.Lamp.07192019.3%Agarose_HRD10591_15-36-21-386.txt Node
Date: Fri Jul 19 15:36:21 EDT 2019
User: cochatt
Spectrometer: HR+D1059
Trigger mode: 1
Integration Time (sec): 1.000000E-1
Scans to average: 1
Electric dark correction enabled: true
Nonlinearity correction enabled: false
Boxcar width: 0
XAxis mode: Wavelengths
Number of Pixels in Spectrum: 2048
>>>>>Begin Spectral Data<<<<<
223.165	-9.62
223.4	-9.62
223.635	-9.62
223.869	-21.62
224.104	-32.62
224.338	-15.62
224.573	-3.62
224.808	-7.62
225.042	-17.62
225.277	-11.62
225.511	0.38
225.746	5.38
225.98	-1.62
226.215	-0.62
226.449	19.38
226.683	21.38
226.918	33.38
227.152	42.38
227.387	23.38
227.621	21.38
227.856	39.38
228.09	37.38
228.324	46.38
228.559	47.38
228.793	47.38
229.027	60.38
229.262	65.38
229.496	60.38
229.73	79.38
229.964	72.38
230.199	79.38
230.433	60.38
230.667	84.38
230.901	68.38
231.136	73.38
231.37	69.38
231.604	63.38
231.838	69.38
232.072	85.38
232.306	80.38
232.541	82.38
232.775	73.38
233.009	79.38
233.243	73.38
233.477	78.38
233.711	73.38
233.945	86.38
234.179	82.38
234.413	76.38
234.647	73.38
234.881	87.38
235.115	69.38
235.349	70.38
235.583	73.38
235.817	73.38
236.051	74.38
236.285	88.38
236.519	80.38
236.753	74.38
236.987	70.38
237.221	69.38
237.455	70.38
237.689	63.38
237.922	79.38
238.156	75.38
238.39	78.38
238.624	87.38
238.858	70.38
239.091	83.38
239.325	79.38
239.559	79.38
239.793	71.38
240.027	84.38
240.26	71.38
240.494	72.38
240.728	76.38
240.961	71.38
241.195	78.38
241.429	79.38
241.662	76.38
241.896	68.38
242.13	72.38
242.363	71.38
242.597	72.38
242.83	61.38
243.064	66.38
243.298	69.38
243.531	79.38
243.765	68.38
243.998	78.38
244.232	74.38
244.465	79.38
244.699	67.38
244.932	71.38
245.166	79.38
245.399	59.38
245.633	79.38
245.866	66.38
246.099	73.38
246.333	85.38
246.566	69.38
246.8	83.38
247.033	59.38
247.266	75.38
247.5	96.38
247.733	79.38
247.966	67.38
248.2	73.38
248.433	79.38
248.666	80.38
248.899	72.38
249.133	59.38
249.366	74.38
249.599	73.38
249.832	66.38
250.066	74.38
250.299	72.38
250.532	69.38
250.765	80.38
250.998	84.38
251.231	67.38
251.465	73.38
251.698	85.38
251.931	79.38
252.164	64.38
252.397	67.38
252.63	79.38
252.863	78.38
253.096	68.38
253.329	82.38
253.562	77.38
253.795	78.38
254.028	80.38
254.261	78.38
254.494	80.38
254.727	83.38
254.96	77.38
255.193	78.38
255.426	75.38
255.659	76.38
255.892	68.38
256.124	77.38
256.357	78.38
256.59	67.38
256.823	67.38
257.056	68.38
257.289	74.38
257.521	69.38
257.754	75.38
257.987	71.38
258.22	80.38
258.452	78.38
258.685	81.38
258.918	79.38
259.151	63.38
259.383	76.38
259.616	72.38
259.849	76.38
260.081	72.38
260.314	78.38
260.547	76.38
260.779	77.38
261.012	88.38
261.244	77.38
261.477	84.38
261.71	78.38
261.942	71.38
262.175	75.38
262.407	75.38
262.64	80.38
262.872	77.38
263.105	80.38
263.337	85.38
263.57	94.38
263.802	67.38
264.035	89.38
264.267	88.38
264.499	72.38
264.732	82.38
264.964	73.38
265.197	82.38
265.429	83.38
265.661	83.38
265.894	71.38
266.126	78.38
266.358	71.38
266.591	78.38
266.823	80.38
267.055	76.38
267.287	74.38
267.52	95.38
267.752	78.38
267.984	70.38
268.216	87.38
268.448	84.38
268.681	75.38
268.913	70.38
269.145	69.38
269.377	81.38
269.609	72.38
269.841	78.38
270.073	72.38
270.306	70.38
270.538	68.38
270.77	78.38
271.002	74.38
271.234	86.38
271.466	72.38
271.698	83.38
271.93	83.38
272.162	75.38
272.394	70.38
272.626	80.38
272.858	75.38
273.09	74.38
273.322	68.38
273.553	74.38
273.785	65.38
274.017	86.38
274.249	87.38
274.481	71.38
274.713	79.38
274.945	94.38
275.176	80.38
275.408	72.38
275.64	78.38
275.872	80.38
276.104	74.38
276.335	87.38
276.567	77.38
276.799	87.38
277.031	70.38
277.262	75.38
277.494	78.38
277.726	90.38
277.957	78.38
278.189	80.38
278.421	60.38
278.652	77.38
278.884	77.38
279.115	83.38
279.347	87.38
279.579	86.38
279.81	83.38
280.042	89.38
280.273	72.38
280.505	60.38
280.736	72.38
280.968	66.38
281.199	79.38
281.431	76.38
281.662	78.38
281.894	91.38
282.125	87.38
282.356	92.38
282.588	80.38
282.819	81.38
283.051	86.38
283.282	80.38
283.513	91.38
283.745	63.38
283.976	83.38
284.207	92.38
284.439	81.38
284.67	93.38
284.901	74.38
285.132	81.38
285.364	82.38
285.595	92.38
285.826	88.38
286.057	71.38
286.288	63.38
286.52	74.38
286.751	86.38
286.982	66.38
287.213	76.38
287.444	89.38
287.675	68.38
287.906	86.38
288.138	79.38
288.369	80.38
288.6	70.38
288.831	88.38
289.062	86.38
289.293	82.38
289.524	79.38
289.755	92.38
289.986	60.38
290.217	91.38
290.448	86.38
290.679	72.38
290.91	75.38
291.141	67.38
291.371	74.38
291.602	68.38
291.833	78.38
292.064	87.38
292.295	71.38
292.526	80.38
292.757	80.38
292.987	63.38
293.218	71.38
293.449	74.38
293.68	78.38
293.91	91.38
294.141	74.38
294.372	73.38
294.603	78.38
294.833	71.38
295.064	77.38
295.295	96.38
295.525	77.38
295.756	82.38
295.987	85.38
296.217	83.38
296.448	79.38
296.679	83.38
296.909	73.38
297.14	91.38
297.37	79.38
297.601	80.38
297.831	75.38
298.062	101.38
298.292	76.38
298.523	63.38
298.753	83.38
298.984	92.38
299.214	80.38
299.445	80.38
299.675	86.38
299.905	76.38
300.136	71.38
300.366	84.38
300.597	96.38
300.827	79.38
301.057	91.38
301.288	83.38
301.518	79.38
301.748	83.38
301.979	78.38
302.209	68.38
302.439	80.38
302.669	82.38
302.9	75.38
303.13	71.38
303.36	80.38
303.59	80.38
303.82	81.38
304.051	71.38
304.281	86.38
304.511	88.38
304.741	79.38
304.971	81.38
305.201	78.38
305.431	83.38
305.661	86.38
305.891	78.38
306.121	72.38
306.352	77.38
306.582	72.38
306.812	90.38
307.042	78.38
307.272	87.38
307.502	67.38
307.731	86.38
307.961	87.38
308.191	79.38
308.421	74.38
308.651	85.38
308.881	80.38
309.111	87.38
309.341	83.38
309.571	80.38
309.8	87.38
310.03	86.38
310.26	85.38
310.49	87.38
310.72	81.38
310.949	81.38
311.179	80.38
311.409	80.38
311.639	85.38
311.868	91.38
312.098	80.38
312.328	71.38
312.557	91.38
312.787	63.38
313.017	96.38
313.246	77.38
313.476	63.38
313.706	93.38
313.935	95.38
314.165	74.38
314.394	76.38
314.624	82.38
314.853	70.38
315.083	70.38
315.312	75.38
315.542	81.38
315.771	77.38
316.001	86.38
316.23	87.38
316.46	83.38
316.689	70.38
316.919	76.38
317.148	81.38
317.377	83.38
317.607	86.38
317.836	83.38
318.065	75.38
318.295	85.38
318.524	71.38
318.753	79.38
318.983	69.38
319.212	80.38
319.441	62.38
319.67	80.38
319.9	72.38
320.129	78.38
320.358	70.38
320.587	85.38
320.816	71.38
321.046	95.38
321.275	91.38
321.504	81.38
321.733	83.38
321.962	92.38
322.191	76.38
322.42	86.38
322.649	82.38
322.878	87.38
323.108	87.38
323.337	75.38
323.566	74.38
323.795	78.38
324.024	62.38
324.253	93.38
324.482	86.38
324.71	70.38
324.939	90.38
325.168	77.38
325.397	79.38
325.626	82.38
325.855	90.38
326.084	86.38
326.313	95.38
326.542	81.38
326.77	72.38
326.999	86.38
327.228	79.38
327.457	72.38
327.686	79.38
327.914	83.38
328.143	84.38
328.372	78.38
328.6	81.38
328.829	73.38
329.058	61.38
329.287	81.38
329.515	78.38
329.744	88.38
329.972	93.38
330.201	87.38
330.43	106.38
330.658	88.38
330.887	80.38
331.115	72.38
331.344	71.38
331.572	79.38
331.801	85.38
332.03	82.38
332.258	80.38
332.486	92.38
332.715	91.38
332.943	89.38
333.172	90.38
333.4	81.38
333.629	80.38
333.857	96.38
334.085	69.38
334.314	82.38
334.542	80.38
334.771	90.38
334.999	85.38
335.227	88.38
335.455	82.38
335.684	93.38
335.912	86.38
336.14	65.38
336.369	80.38
336.597	71.38
336.825	82.38
337.053	77.38
337.281	72.38
337.51	76.38
337.738	82.38
337.966	66.38
338.194	83.38
338.422	85.38
338.65	79.38
338.878	90.38
339.106	78.38
339.334	83.38
339.562	85.38
339.79	78.38
340.018	71.38
340.246	87.38
340.474	72.38
340.702	76.38
340.93	83.38
341.158	66.38
341.386	68.38
341.614	77.38
341.842	84.38
342.07	83.38
342.298	69.38
342.526	76.38
342.754	94.38
342.981	89.38
343.209	74.38
343.437	78.38
343.665	92.38
343.893	68.38
344.12	84.38
344.348	83.38
344.576	81.38
344.804	77.38
345.031	80.38
345.259	84.38
345.487	83.38
345.714	74.38
345.942	86.38
346.17	88.38
346.397	88.38
346.625	74.38
346.853	79.38
347.08	71.38
347.308	67.38
347.535	79.38
347.763	75.38
347.99	88.38
348.218	84.38
348.445	77.38
348.673	79.38
348.9	66.38
349.128	85.38
349.355	91.38
349.583	72.38
349.81	82.38
350.037	68.38
350.265	70.38
350.492	76.38
350.72	79.38
350.947	83.38
351.174	101.38
351.402	84.38
351.629	73.38
351.856	80.38
352.083	95.38
352.311	79.38
352.538	73.38
352.765	80.38
352.992	90.38
353.22	77.38
353.447	80.38
353.674	84.38
353.901	90.38
354.128	81.38
354.355	75.38
354.583	88.38
354.81	88.38
355.037	85.38
355.264	97.38
355.491	83.38
355.718	80.38
355.945	79.38
356.172	81.38
356.399	76.38
356.626	78.38
356.853	84.38
357.08	83.38
357.307	84.38
357.534	74.38
357.761	75.38
357.988	90.38
358.215	77.38
358.441	83.38
358.668	92.38
358.895	65.38
359.122	89.38
359.349	109.38
359.576	75.38
359.802	82.38
360.029	65.38
360.256	79.38
360.483	78.38
360.709	78.38
360.936	84.38
361.163	70.38
361.39	70.38
361.616	79.38
361.843	71.38
362.07	83.38
362.296	81.38
362.523	82.38
362.749	78.38
362.976	95.38
363.203	87.38
363.429	95.38
363.656	82.38
363.882	79.38
364.109	80.38
364.335	84.38
364.562	74.38
364.788	84.38
365.015	73.38
365.241	76.38
365.468	70.38
365.694	80.38
365.92	72.38
366.147	80.38
366.373	73.38
366.599	76.38
366.826	82.38
367.052	76.38
367.278	76.38
367.505	79.38
367.731	80.38
367.957	72.38
368.184	83.38
368.41	76.38
368.636	77.38
368.862	80.38
369.089	95.38
369.315	69.38
369.541	80.38
369.767	86.38
369.993	89.38
370.219	86.38
370.445	85.38
370.672	78.38
370.898	80.38
371.124	72.38
371.35	77.38
371.576	78.38
371.802	85.38
372.028	78.38
372.254	79.38
372.48	77.38
372.706	80.38
372.932	83.38
373.158	86.38
373.384	66.38
373.61	76.38
373.835	67.38
374.061	70.38
374.287	90.38
374.513	84.38
374.739	73.38
374.965	78.38
375.191	80.38
375.416	95.38
375.642	74.38
375.868	85.38
376.094	80.38
376.319	84.38
376.545	79.38
376.771	82.38
376.997	82.38
377.222	91.38
377.448	73.38
377.674	89.38
377.899	88.38
378.125	64.38
378.35	80.38
378.576	78.38
378.802	83.38
379.027	82.38
379.253	94.38
379.478	72.38
379.704	75.38
379.929	81.38
380.155	76.38
380.38	87.38
380.606	82.38
380.831	79.38
381.057	80.38
381.282	67.38
381.507	70.38
381.733	85.38
381.958	83.38
382.184	101.38
382.409	90.38
382.634	82.38
382.86	84.38
383.085	80.38
383.31	74.38
383.535	86.38
383.761	67.38
383.986	85.38
384.211	91.38
384.436	86.38
384.662	64.38
384.887	88.38
385.112	75.38
385.337	78.38
385.562	83.38
385.787	84.38
386.013	90.38
386.238	66.38
386.463	67.38
386.688	75.38
386.913	78.38
387.138	79.38
387.363	73.38
387.588	84.38
387.813	77.38
388.038	90.38
388.263	79.38
388.488	88.38
388.713	68.38
388.938	86.38
389.163	68.38
389.387	72.38
389.612	79.38
389.837	77.38
390.062	78.38
390.287	93.38
390.512	84.38
390.736	79.38
390.961	77.38
391.186	69.38
391.411	83.38
391.636	89.38
391.86	66.38
392.085	92.38
392.31	96.38
392.534	78.38
392.759	77.38
392.984	84.38
393.208	86.38
393.433	76.38
393.658	86.38
393.882	84.38
394.107	84.38
394.331	94.38
394.556	68.38
394.78	78.38
395.005	86.38
395.229	93.38
395.454	83.38
395.678	71.38
395.903	80.38
396.127	78.38
396.352	73.38
396.576	92.38
396.801	82.38
397.025	85.38
397.249	85.38
397.474	73.38
397.698	73.38
397.922	77.38
398.147	89.38
398.371	88.38
398.595	87.38
398.82	88.38
399.044	76.38
399.268	84.38
399.492	86.38
399.717	85.38
399.941	82.38
400.165	77.38
400.389	76.38
400.613	76.38
400.837	91.38
401.062	83.38
401.286	89.38
401.51	76.38
401.734	80.38
401.958	83.38
402.182	66.38
402.406	88.38
402.63	70.38
402.854	83.38
403.078	89.38
403.302	91.38
403.526	86.38
403.75	75.38
403.974	86.38
404.198	81.38
404.422	88.38
404.645	82.38
404.869	85.38
405.093	93.38
405.317	85.38
405.541	78.38
405.765	83.38
405.988	96.38
406.212	101.38
406.436	88.38
406.66	80.38
406.883	92.38
407.107	90.38
407.331	70.38
407.555	77.38
407.778	77.38
408.002	83.38
408.226	90.38
408.449	84.38
408.673	84.38
408.896	68.38
409.12	77.38
409.344	90.38
409.567	60.38
409.791	86.38
410.014	93.38
410.238	87.38
410.461	84.38
410.685	79.38
410.908	82.38
411.132	78.38
411.355	87.38
411.578	83.38
411.802	93.38
412.025	81.38
412.249	90.38
412.472	89.38
412.695	85.38
412.919	86.38
413.142	85.38
413.365	80.38
413.589	80.38
413.812	74.38
414.035	73.38
414.258	76.38
414.482	96.38
414.705	90.38
414.928	96.38
415.151	86.38
415.374	78.38
415.597	84.38
415.821	87.38
416.044	109.38
416.267	93.38
416.49	83.38
416.713	92.38
416.936	81.38
417.159	88.38
417.382	74.38
417.605	93.38
417.828	94.38
418.051	89.38
418.274	87.38
418.497	81.38
418.72	95.38
418.943	91.38
419.166	93.38
419.389	79.38
419.611	95.38
419.834	94.38
420.057	96.38
420.28	97.38
420.503	92.38
420.726	86.38
420.948	82.38
421.171	88.38
421.394	79.38
421.617	83.38
421.839	84.38
422.062	112.38
422.285	82.38
422.507	84.38
422.73	87.38
422.953	74.38
423.175	86.38
423.398	95.38
423.621	92.38
423.843	96.38
424.066	87.38
424.288	75.38
424.511	87.38
424.733	84.38
424.956	84.38
425.178	96.38
425.401	92.38
425.623	76.38
425.846	96.38
426.068	89.38
426.291	72.38
426.513	97.38
426.735	93.38
426.958	90.38
427.18	86.38
427.402	86.38
427.625	95.38
427.847	97.38
428.069	98.38
428.292	104.38
428.514	86.38
428.736	90.38
428.958	71.38
429.181	96.38
429.403	92.38
429.625	90.38
429.847	72.38
430.069	101.38
430.292	87.38
430.514	84.38
430.736	83.38
430.958	100.38
431.18	77.38
431.402	72.38
431.624	82.38
431.846	74.38
432.068	82.38
432.29	78.38
432.512	94.38
432.734	87.38
432.956	78.38
433.178	84.38
433.4	88.38
433.622	93.38
433.844	90.38
434.066	94.38
434.287	87.38
434.509	92.38
434.731	79.38
434.953	86.38
435.175	86.38
435.397	83.38
435.618	94.38
435.84	92.38
436.062	79.38
436.284	85.38
436.505	99.38
436.727	97.38
436.949	82.38
437.17	84.38
437.392	74.38
437.614	68.38
437.835	88.38
438.057	95.38
438.278	86.38
438.5	101.38
438.721	92.38
438.943	74.38
439.165	92.38
439.386	91.38
439.608	94.38
439.829	85.38
440.05	84.38
440.272	108.38
440.493	93.38
440.715	91.38
440.936	93.38
441.158	89.38
441.379	89.38
441.6	86.38
441.822	96.38
442.043	83.38
442.264	68.38
442.486	101.38
442.707	83.38
442.928	86.38
443.149	82.38
443.371	86.38
443.592	85.38
443.813	90.38
444.034	98.38
444.255	88.38
444.476	98.38
444.698	94.38
444.919	90.38
445.14	210.38
445.361	157.38
445.582	102.38
445.803	92.38
446.024	83.38
446.245	94.38
446.466	95.38
446.687	95.38
446.908	94.38
447.129	96.38
447.35	105.38
447.571	96.38
447.792	97.38
448.013	96.38
448.234	105.38
448.455	90.38
448.675	90.38
448.896	98.38
449.117	93.38
449.338	86.38
449.559	93.38
449.779	86.38
450	88.38
450.221	83.38
450.442	97.38
450.662	95.38
450.883	88.38
451.104	76.38
451.324	97.38
451.545	90.38
451.766	91.38
451.986	87.38
452.207	94.38
452.428	86.38
452.648	75.38
452.869	80.38
453.089	82.38
453.31	85.38
453.53	76.38
453.751	76.38
453.971	79.38
454.192	86.38
454.412	79.38
454.633	83.38
454.853	78.38
455.073	90.38
455.294	66.38
455.514	82.38
455.734	106.38
455.955	81.38
456.175	89.38
456.395	92.38
456.616	90.38
456.836	91.38
457.056	86.38
457.276	85.38
457.497	84.38
457.717	79.38
457.937	72.38
458.157	75.38
458.377	90.38
458.598	82.38
458.818	77.38
459.038	66.38
459.258	75.38
459.478	71.38
459.698	92.38
459.918	77.38
460.138	83.38
460.358	76.38
460.578	91.38
460.798	72.38
461.018	96.38
461.238	94.38
461.458	74.38
461.678	88.38
461.898	88.38
462.118	91.38
462.338	83.38
462.558	94.38
462.777	80.38
462.997	75.38
463.217	72.38
463.437	95.38
463.657	82.38
463.876	93.38
464.096	97.38
464.316	96.38
464.536	103.38
464.755	90.38
464.975	92.38
465.195	78.38
465.414	87.38
465.634	94.38
465.854	86.38
466.073	89.38
466.293	74.38
466.512	80.38
466.732	93.38
466.951	92.38
467.171	90.38
467.391	91.38
467.61	95.38
467.829	85.38
468.049	84.38
468.268	94.38
468.488	79.38
468.707	98.38
468.927	98.38
469.146	85.38
469.365	91.38
469.585	82.38
469.804	89.38
470.023	86.38
470.243	95.38
470.462	86.38
470.681	82.38
470.901	95.38
471.12	90.38
471.339	87.38
471.558	92.38
471.777	96.38
471.997	100.38
472.216	93.38
472.435	77.38
472.654	91.38
472.873	84.38
473.092	95.38
473.311	83.38
473.53	84.38
473.749	102.38
473.968	91.38
474.187	85.38
474.406	87.38
474.625	86.38
474.844	93.38
475.063	78.38
475.282	90.38
475.501	94.38
475.72	83.38
475.939	92.38
476.158	84.38
476.377	91.38
476.596	58.38
476.814	89.38
477.033	67.38
477.252	88.38
477.471	90.38
477.69	82.38
477.908	84.38
478.127	100.38
478.346	77.38
478.564	88.38
478.783	92.38
479.002	88.38
479.22	88.38
479.439	90.38
479.658	87.38
479.876	72.38
480.095	83.38
480.313	84.38
480.532	91.38
480.751	84.38
480.969	82.38
481.188	91.38
481.406	80.38
481.624	93.38
481.843	79.38
482.061	78.38
482.28	97.38
482.498	97.38
482.717	76.38
482.935	92.38
483.153	94.38
483.372	84.38
483.59	96.38
483.808	94.38
484.027	97.38
484.245	95.38
484.463	83.38
484.681	91.38
484.9	88.38
485.118	77.38
485.336	96.38
485.554	87.38
485.772	93.38
485.99	76.38
486.209	86.38
486.427	82.38
486.645	84.38
486.863	89.38
487.081	77.38
487.299	85.38
487.517	87.38
487.735	92.38
487.953	97.38
488.171	112.38
488.389	103.38
488.607	88.38
488.825	99.38
489.043	84.38
489.261	92.38
489.479	90.38
489.696	87.38
489.914	100.38
490.132	101.38
490.35	96.38
490.568	88.38
490.786	116.38
491.003	100.38
491.221	93.38
491.439	107.38
491.657	95.38
491.874	103.38
492.092	99.38
492.31	105.38
492.527	116.38
492.745	110.38
492.963	91.38
493.18	103.38
493.398	103.38
493.615	102.38
493.833	108.38
494.05	108.38
494.268	95.38
494.485	100.38
494.703	103.38
494.92	108.38
495.138	97.38
495.355	91.38
495.573	104.38
495.79	95.38
496.008	99.38
496.225	96.38
496.442	108.38
496.66	89.38
496.877	87.38
497.094	114.38
497.312	99.38
497.529	93.38
497.746	96.38
497.963	89.38
498.181	78.38
498.398	90.38
498.615	79.38
498.832	85.38
499.049	83.38
499.267	92.38
499.484	103.38
499.701	98.38
499.918	89.38
500.135	94.38
500.352	92.38
500.569	94.38
500.786	92.38
501.003	103.38
501.22	106.38
501.437	94.38
501.654	98.38
501.871	93.38
502.088	75.38
502.305	87.38
502.522	85.38
502.739	92.38
502.956	98.38
503.172	91.38
503.389	85.38
503.606	95.38
503.823	94.38
504.04	81.38
504.256	81.38
504.473	86.38
504.69	92.38
504.907	83.38
505.123	78.38
505.34	90.38
505.557	93.38
505.773	94.38
505.99	106.38
506.207	95.38
506.423	90.38
506.64	85.38
506.856	94.38
507.073	96.38
507.289	80.38
507.506	97.38
507.722	94.38
507.939	71.38
508.155	82.38
508.372	87.38
508.588	77.38
508.805	82.38
509.021	92.38
509.238	72.38
509.454	78.38
509.67	84.38
509.887	69.38
510.103	82.38
510.319	76.38
510.536	82.38
510.752	74.38
510.968	80.38
511.184	75.38
511.401	81.38
511.617	94.38
511.833	70.38
512.049	79.38
512.265	79.38
512.481	85.38
512.698	91.38
512.914	91.38
513.13	73.38
513.346	70.38
513.562	82.38
513.778	103.38
513.994	86.38
514.21	85.38
514.426	100.38
514.642	83.38
514.858	100.38
515.074	79.38
515.29	84.38
515.506	76.38
515.721	86.38
515.937	81.38
516.153	84.38
516.369	78.38
516.585	79.38
516.801	79.38
517.016	80.38
517.232	75.38
517.448	76.38
517.664	94.38
517.879	82.38
518.095	84.38
518.311	77.38
518.527	83.38
518.742	82.38
518.958	76.38
519.173	72.38
519.389	85.38
519.605	85.38
519.82	84.38
520.036	93.38
520.251	80.38
520.467	84.38
520.682	90.38
520.898	100.38
521.113	84.38
521.329	68.38
521.544	74.38
521.76	80.38
521.975	75.38
522.19	86.38
522.406	84.38
522.621	81.38
522.836	80.38
523.052	85.38
523.267	73.38
523.482	77.38
523.698	77.38
523.913	69.38
524.128	90.38
524.343	75.38
524.559	87.38
524.774	84.38
524.989	100.38
525.204	94.38
525.419	97.38
525.634	93.38
525.849	76.38
526.064	92.38
526.28	87.38
526.495	88.38
526.71	80.38
526.925	71.38
527.14	80.38
527.355	78.38
527.57	69.38
527.785	83.38
527.999	94.38
528.214	91.38
528.429	86.38
528.644	82.38
528.859	86.38
529.074	100.38
529.289	103.38
529.503	99.38
529.718	103.38
529.933	96.38
530.148	76.38
530.363	83.38
530.577	88.38
530.792	80.38
531.007	92.38
531.221	88.38
531.436	78.38
531.651	71.38
531.865	71.38
532.08	82.38
532.295	76.38
532.509	82.38
532.724	71.38
532.938	80.38
533.153	78.38
533.367	88.38
533.582	77.38
533.796	93.38
534.011	92.38
534.225	76.38
534.44	88.38
534.654	85.38
534.868	88.38
535.083	82.38
535.297	77.38
535.511	92.38
535.726	79.38
535.94	89.38
536.154	85.38
536.369	75.38
536.583	69.38
536.797	83.38
537.011	93.38
537.225	84.38
537.44	71.38
537.654	79.38
537.868	89.38
538.082	85.38
538.296	88.38
538.51	91.38
538.724	96.38
538.938	73.38
539.153	93.38
539.367	88.38
539.581	98.38
539.795	86.38
540.009	82.38
540.222	74.38
540.436	80.38
540.65	88.38
540.864	88.38
541.078	87.38
541.292	91.38
541.506	98.38
541.72	99.38
541.934	96.38
542.147	106.38
542.361	108.38
542.575	97.38
542.789	83.38
543.002	90.38
543.216	86.38
543.43	78.38
543.644	93.38
543.857	93.38
544.071	88.38
544.285	120.38
544.498	110.38
544.712	117.38
544.925	99.38
545.139	92.38
545.352	103.38
545.566	101.38
545.779	99.38
545.993	104.38
546.206	99.38
546.42	108.38
546.633	102.38
546.847	107.38
547.06	96.38
547.274	114.38
547.487	109.38
547.7	114.38
547.914	109.38
548.127	106.38
548.34	102.38
548.554	106.38
548.767	103.38
548.98	101.38
549.193	112.38
549.407	100.38
549.62	99.38
549.833	93.38
550.046	85.38
550.259	96.38
550.473	92.38
550.686	96.38
550.899	94.38
551.112	85.38
551.325	95.38
551.538	97.38
551.751	79.38
551.964	87.38
552.177	101.38
552.39	86.38
552.603	97.38
552.816	97.38
553.029	99.38
553.242	115.38
553.455	111.38
553.667	95.38
553.88	108.38
554.093	80.38
554.306	99.38
554.519	106.38
554.732	110.38
554.944	84.38
555.157	100.38
555.37	88.38
555.583	104.38
555.795	91.38
556.008	92.38
556.221	101.38
556.433	108.38
556.646	98.38
556.859	100.38
557.071	109.38
557.284	97.38
557.496	95.38
557.709	78.38
557.921	87.38
558.134	99.38
558.346	104.38
558.559	95.38
558.771	92.38
558.984	93.38
559.196	85.38
559.409	102.38
559.621	101.38
559.833	91.38
560.046	81.38
560.258	104.38
560.47	95.38
560.683	81.38
560.895	106.38
561.107	86.38
561.32	94.38
561.532	91.38
561.744	101.38
561.956	98.38
562.168	92.38
562.381	95.38
562.593	86.38
562.805	91.38
563.017	87.38
563.229	111.38
563.441	84.38
563.653	100.38
563.865	98.38
564.077	93.38
564.289	91.38
564.501	97.38
564.713	86.38
564.925	88.38
565.137	95.38
565.349	92.38
565.561	91.38
565.773	80.38
565.985	90.38
566.197	84.38
566.408	96.38
566.62	95.38
566.832	90.38
567.044	101.38
567.255	95.38
567.467	99.38
567.679	71.38
567.891	93.38
568.102	70.38
568.314	75.38
568.526	89.38
568.737	99.38
568.949	85.38
569.161	74.38
569.372	83.38
569.584	71.38
569.795	78.38
570.007	87.38
570.218	85.38
570.43	81.38
570.641	89.38
570.853	77.38
571.064	84.38
571.276	86.38
571.487	95.38
571.698	86.38
571.91	89.38
572.121	84.38
572.333	77.38
572.544	66.38
572.755	92.38
572.966	71.38
573.178	82.38
573.389	76.38
573.6	68.38
573.811	95.38
574.023	87.38
574.234	78.38
574.445	90.38
574.656	76.38
574.867	81.38
575.078	83.38
575.289	82.38
575.501	77.38
575.712	78.38
575.923	83.38
576.134	94.38
576.345	80.38
576.556	86.38
576.767	80.38
576.978	89.38
577.188	89.38
577.399	85.38
577.61	84.38
577.821	91.38
578.032	66.38
578.243	74.38
578.454	74.38
578.665	89.38
578.875	83.38
579.086	94.38
579.297	87.38
579.508	76.38
579.718	78.38
579.929	104.38
580.14	70.38
580.35	72.38
580.561	80.38
580.772	77.38
580.982	76.38
581.193	80.38
581.403	79.38
581.614	65.38
581.825	96.38
582.035	79.38
582.246	84.38
582.456	89.38
582.667	79.38
582.877	83.38
583.087	79.38
583.298	80.38
583.508	85.38
583.719	82.38
583.929	84.38
584.139	84.38
584.35	86.38
584.56	78.38
584.77	88.38
584.981	73.38
585.191	87.38
585.401	78.38
585.611	85.38
585.821	82.38
586.032	85.38
586.242	95.38
586.452	70.38
586.662	66.38
586.872	86.38
587.082	89.38
587.292	84.38
587.502	76.38
587.713	85.38
587.923	71.38
588.133	87.38
588.343	78.38
588.553	70.38
588.762	84.38
588.972	92.38
589.182	69.38
589.392	80.38
589.602	78.38
589.812	83.38
590.022	86.38
590.232	73.38
590.441	96.38
590.651	84.38
590.861	78.38
591.071	73.38
591.281	68.38
591.49	95.38
591.7	83.38
591.91	90.38
592.119	78.38
592.329	70.38
592.539	84.38
592.748	91.38
592.958	67.38
593.167	79.38
593.377	83.38
593.587	79.38
593.796	76.38
594.006	70.38
594.215	87.38
594.424	76.38
594.634	78.38
594.843	77.38
595.053	84.38
595.262	78.38
595.472	66.38
595.681	77.38
595.89	87.38
596.1	80.38
596.309	84.38
596.518	90.38
596.727	71.38
596.937	83.38
597.146	78.38
597.355	87.38
597.564	92.38
597.774	74.38
597.983	87.38
598.192	82.38
598.401	68.38
598.61	87.38
598.819	78.38
599.028	75.38
599.237	87.38
599.446	82.38
599.655	82.38
599.864	86.38
600.073	87.38
600.282	80.38
600.491	68.38
600.7	85.38
600.909	77.38
601.118	81.38
601.327	79.38
601.536	77.38
601.745	92.38
601.953	88.38
602.162	86.38
602.371	82.38
602.58	77.38
602.789	86.38
602.997	77.38
603.206	80.38
603.415	89.38
603.623	82.38
603.832	68.38
604.041	92.38
604.249	107.38
604.458	82.38
604.666	82.38
604.875	79.38
605.084	77.38
605.292	98.38
605.501	96.38
605.709	89.38
605.918	104.38
606.126	97.38
606.334	87.38
606.543	88.38
606.751	84.38
606.96	71.38
607.168	88.38
607.376	94.38
607.585	100.38
607.793	100.38
608.001	77.38
608.21	77.38
608.418	100.38
608.626	91.38
608.834	94.38
609.043	97.38
609.251	76.38
609.459	88.38
609.667	88.38
609.875	79.38
610.083	85.38
610.291	88.38
610.499	77.38
610.707	89.38
610.916	95.38
611.124	92.38
611.332	84.38
611.54	92.38
611.748	92.38
611.955	82.38
612.163	84.38
612.371	94.38
612.579	87.38
612.787	82.38
612.995	86.38
613.203	89.38
613.411	101.38
613.618	90.38
613.826	94.38
614.034	89.38
614.242	92.38
614.449	90.38
614.657	101.38
614.865	90.38
615.072	75.38
615.28	83.38
615.488	86.38
615.695	88.38
615.903	78.38
616.111	94.38
616.318	100.38
616.526	84.38
616.733	95.38
616.941	86.38
617.148	83.38
617.356	81.38
617.563	81.38
617.771	80.38
617.978	91.38
618.185	88.38
618.393	95.38
618.6	88.38
618.807	78.38
619.015	91.38
619.222	92.38
619.429	73.38
619.637	99.38
619.844	70.38
620.051	84.38
620.258	98.38
620.466	76.38
620.673	88.38
620.88	82.38
621.087	85.38
621.294	92.38
621.501	68.38
621.708	91.38
621.915	98.38
622.122	87.38
622.329	88.38
622.536	80.38
622.743	85.38
622.95	93.38
623.157	79.38
623.364	85.38
623.571	78.38
623.778	76.38
623.985	72.38
624.192	71.38
624.399	85.38
624.606	99.38
624.812	90.38
625.019	85.38
625.226	87.38
625.433	77.38
625.639	82.38
625.846	76.38
626.053	68.38
626.259	76.38
626.466	74.38
626.673	80.38
626.879	81.38
627.086	79.38
627.293	96.38
627.499	83.38
627.706	81.38
627.912	84.38
628.119	86.38
628.325	86.38
628.532	96.38
628.738	95.38
628.945	93.38
629.151	97.38
629.357	82.38
629.564	88.38
629.77	83.38
629.976	79.38
630.183	80.38
630.389	80.38
630.595	83.38
630.802	94.38
631.008	86.38
631.214	92.38
631.42	83.38
631.627	106.38
631.833	87.38
632.039	77.38
632.245	75.38
632.451	84.38
632.657	89.38
632.863	70.38
633.069	85.38
633.275	83.38
633.481	68.38
633.688	78.38
633.893	90.38
634.099	67.38
634.305	75.38
634.511	83.38
634.717	78.38
634.923	88.38
635.129	80.38
635.335	96.38
635.541	70.38
635.747	97.38
635.952	73.38
636.158	92.38
636.364	93.38
636.57	86.38
636.775	84.38
636.981	90.38
637.187	89.38
637.392	88.38
637.598	82.38
637.804	73.38
638.009	93.38
638.215	73.38
638.421	88.38
638.626	86.38
638.832	84.38
639.037	71.38
639.243	86.38
639.448	80.38
639.654	81.38
639.859	88.38
640.065	61.38
640.27	76.38
640.475	89.38
640.681	76.38
640.886	81.38
641.091	72.38
641.297	93.38
641.502	86.38
641.707	86.38
641.913	84.38
642.118	79.38
642.323	91.38
642.528	87.38
642.733	96.38
642.939	86.38
643.144	78.38
643.349	86.38
643.554	83.38
643.759	85.38
643.964	88.38
644.169	96.38
644.374	84.38
644.579	83.38
644.784	72.38
644.989	71.38
645.194	83.38
645.399	73.38
645.604	92.38
645.809	84.38
646.014	77.38
646.219	68.38
646.423	82.38
646.628	95.38
646.833	95.38
647.038	95.38
647.243	90.38
647.447	89.38
647.652	92.38
647.857	87.38
648.062	84.38
648.266	96.38
648.471	77.38
648.676	90.38
648.88	92.38
649.085	89.38
649.289	84.38
649.494	80.38
649.698	87.38
649.903	86.38
650.107	90.38
650.312	88.38
650.516	77.38
650.721	91.38
650.925	75.38
651.13	79.38
651.334	98.38
651.539	77.38
651.743	89.38
651.947	92.38
652.152	88.38
652.356	71.38
652.56	82.38
652.764	94.38
652.969	67.38
653.173	100.38
653.377	90.38
653.581	76.38
653.785	91.38
653.99	84.38
654.194	97.38
654.398	86.38
654.602	87.38
654.806	83.38
655.01	81.38
655.214	84.38
655.418	80.38
655.622	74.38
655.826	82.38
656.03	91.38
656.234	80.38
656.438	82.38
656.642	87.38
656.846	94.38
657.049	78.38
657.253	88.38
657.457	85.38
657.661	72.38
657.865	69.38
658.068	90.38
658.272	70.38
658.476	77.38
658.68	76.38
658.883	81.38
659.087	79.38
659.291	82.38
659.494	92.38
659.698	78.38
659.901	77.38
660.105	80.38
660.309	84.38
660.512	79.38
660.716	82.38
660.919	71.38
661.123	80.38
661.326	83.38
661.53	71.38
661.733	86.38
661.936	77.38
662.14	85.38
662.343	88.38
662.546	70.38
662.75	74.38
662.953	95.38
663.156	76.38
663.36	84.38
663.563	81.38
663.766	72.38
663.969	86.38
664.173	75.38
664.376	72.38
664.579	81.38
664.782	73.38
664.985	75.38
665.188	78.38
665.391	68.38
665.594	88.38
665.797	63.38
666	72.38
666.203	84.38
666.406	77.38
666.609	87.38
666.812	81.38
667.015	74.38
667.218	66.38
667.421	88.38
667.624	73.38
667.827	63.38
668.03	87.38
668.232	78.38
668.435	85.38
668.638	77.38
668.841	89.38
669.043	84.38
669.246	88.38
669.449	87.38
669.651	72.38
669.854	84.38
670.057	86.38
670.259	77.38
670.462	80.38
670.665	87.38
670.867	72.38
671.07	79.38
671.272	72.38
671.475	100.38
671.677	76.38
671.88	71.38
672.082	72.38
672.284	81.38
672.487	83.38
672.689	72.38
672.892	81.38
