Data from Location5.07152019.Energy5.Lamp.07192019.3%Agarose_HRD10591_16-04-02-628.txt Node
Date: Fri Jul 19 16:04:02 EDT 2019
User: cochatt
Spectrometer: HR+D1059
Trigger mode: 1
Integration Time (sec): 1.000000E-1
Scans to average: 1
Electric dark correction enabled: true
Nonlinearity correction enabled: false
Boxcar width: 0
XAxis mode: Wavelengths
Number of Pixels in Spectrum: 2048
>>>>>Begin Spectral Data<<<<<
223.165	-19.25
223.4	-19.25
223.635	-19.25
223.869	-10.25
224.104	-43.25
224.338	-19.25
224.573	-19.25
224.808	-5.25
225.042	-17.25
225.277	4.75
225.511	-14.25
225.746	15.75
225.98	7.75
226.215	16.75
226.449	24.75
226.683	24.75
226.918	27.75
227.152	25.75
227.387	35.75
227.621	30.75
227.856	47.75
228.09	35.75
228.324	52.75
228.559	38.75
228.793	50.75
229.027	43.75
229.262	56.75
229.496	51.75
229.73	64.75
229.964	77.75
230.199	65.75
230.433	63.75
230.667	85.75
230.901	83.75
231.136	60.75
231.37	73.75
231.604	67.75
231.838	63.75
232.072	72.75
232.306	78.75
232.541	81.75
232.775	78.75
233.009	71.75
233.243	80.75
233.477	88.75
233.711	84.75
233.945	90.75
234.179	91.75
234.413	72.75
234.647	80.75
234.881	79.75
235.115	84.75
235.349	82.75
235.583	79.75
235.817	92.75
236.051	70.75
236.285	70.75
236.519	79.75
236.753	74.75
236.987	79.75
237.221	66.75
237.455	81.75
237.689	67.75
237.922	80.75
238.156	77.75
238.39	86.75
238.624	72.75
238.858	74.75
239.091	78.75
239.325	86.75
239.559	78.75
239.793	77.75
240.027	69.75
240.26	89.75
240.494	79.75
240.728	79.75
240.961	75.75
241.195	66.75
241.429	72.75
241.662	77.75
241.896	80.75
242.13	73.75
242.363	87.75
242.597	74.75
242.83	84.75
243.064	86.75
243.298	76.75
243.531	80.75
243.765	72.75
243.998	85.75
244.232	72.75
244.465	55.75
244.699	65.75
244.932	77.75
245.166	71.75
245.399	84.75
245.633	84.75
245.866	74.75
246.099	79.75
246.333	72.75
246.566	69.75
246.8	81.75
247.033	84.75
247.266	75.75
247.5	66.75
247.733	71.75
247.966	83.75
248.2	78.75
248.433	78.75
248.666	88.75
248.899	79.75
249.133	71.75
249.366	80.75
249.599	67.75
249.832	70.75
250.066	82.75
250.299	84.75
250.532	81.75
250.765	70.75
250.998	70.75
251.231	76.75
251.465	69.75
251.698	86.75
251.931	73.75
252.164	79.75
252.397	76.75
252.63	95.75
252.863	87.75
253.096	89.75
253.329	97.75
253.562	87.75
253.795	76.75
254.028	79.75
254.261	93.75
254.494	78.75
254.727	84.75
254.96	93.75
255.193	86.75
255.426	81.75
255.659	72.75
255.892	86.75
256.124	76.75
256.357	78.75
256.59	68.75
256.823	86.75
257.056	67.75
257.289	80.75
257.521	74.75
257.754	94.75
257.987	81.75
258.22	82.75
258.452	76.75
258.685	78.75
258.918	77.75
259.151	94.75
259.383	88.75
259.616	71.75
259.849	76.75
260.081	73.75
260.314	71.75
260.547	86.75
260.779	72.75
261.012	72.75
261.244	83.75
261.477	91.75
261.71	73.75
261.942	94.75
262.175	73.75
262.407	79.75
262.64	98.75
262.872	75.75
263.105	76.75
263.337	92.75
263.57	65.75
263.802	79.75
264.035	79.75
264.267	88.75
264.499	89.75
264.732	88.75
264.964	87.75
265.197	76.75
265.429	76.75
265.661	76.75
265.894	75.75
266.126	79.75
266.358	82.75
266.591	91.75
266.823	90.75
267.055	77.75
267.287	80.75
267.52	85.75
267.752	96.75
267.984	95.75
268.216	88.75
268.448	72.75
268.681	89.75
268.913	93.75
269.145	64.75
269.377	98.75
269.609	59.75
269.841	79.75
270.073	72.75
270.306	83.75
270.538	69.75
270.77	79.75
271.002	79.75
271.234	72.75
271.466	91.75
271.698	90.75
271.93	73.75
272.162	68.75
272.394	101.75
272.626	71.75
272.858	83.75
273.09	71.75
273.322	85.75
273.553	88.75
273.785	86.75
274.017	91.75
274.249	93.75
274.481	107.75
274.713	69.75
274.945	77.75
275.176	65.75
275.408	78.75
275.64	75.75
275.872	74.75
276.104	83.75
276.335	76.75
276.567	77.75
276.799	86.75
277.031	89.75
277.262	89.75
277.494	87.75
277.726	69.75
277.957	86.75
278.189	79.75
278.421	93.75
278.652	82.75
278.884	89.75
279.115	84.75
279.347	80.75
279.579	74.75
279.81	94.75
280.042	77.75
280.273	99.75
280.505	97.75
280.736	95.75
280.968	84.75
281.199	95.75
281.431	82.75
281.662	73.75
281.894	72.75
282.125	95.75
282.356	86.75
282.588	85.75
282.819	73.75
283.051	79.75
283.282	89.75
283.513	93.75
283.745	76.75
283.976	83.75
284.207	81.75
284.439	74.75
284.67	99.75
284.901	86.75
285.132	78.75
285.364	84.75
285.595	79.75
285.826	89.75
286.057	101.75
286.288	79.75
286.52	89.75
286.751	95.75
286.982	93.75
287.213	86.75
287.444	72.75
287.675	91.75
287.906	102.75
288.138	80.75
288.369	88.75
288.6	81.75
288.831	81.75
289.062	73.75
289.293	89.75
289.524	75.75
289.755	80.75
289.986	87.75
290.217	85.75
290.448	90.75
290.679	74.75
290.91	83.75
291.141	92.75
291.371	98.75
291.602	89.75
291.833	81.75
292.064	72.75
292.295	88.75
292.526	95.75
292.757	94.75
292.987	79.75
293.218	93.75
293.449	94.75
293.68	85.75
293.91	89.75
294.141	86.75
294.372	85.75
294.603	86.75
294.833	83.75
295.064	85.75
295.295	86.75
295.525	99.75
295.756	85.75
295.987	81.75
296.217	97.75
296.448	93.75
296.679	90.75
296.909	88.75
297.14	101.75
297.37	104.75
297.601	77.75
297.831	79.75
298.062	79.75
298.292	93.75
298.523	86.75
298.753	78.75
298.984	100.75
299.214	90.75
299.445	87.75
299.675	96.75
299.905	94.75
300.136	78.75
300.366	84.75
300.597	92.75
300.827	96.75
301.057	90.75
301.288	95.75
301.518	89.75
301.748	89.75
301.979	94.75
302.209	85.75
302.439	101.75
302.669	91.75
302.9	83.75
303.13	95.75
303.36	92.75
303.59	83.75
303.82	89.75
304.051	83.75
304.281	80.75
304.511	98.75
304.741	94.75
304.971	87.75
305.201	90.75
305.431	92.75
305.661	88.75
305.891	86.75
306.121	86.75
306.352	83.75
306.582	93.75
306.812	87.75
307.042	100.75
307.272	98.75
307.502	89.75
307.731	95.75
307.961	83.75
308.191	86.75
308.421	92.75
308.651	87.75
308.881	93.75
309.111	101.75
309.341	76.75
309.571	93.75
309.8	73.75
310.03	81.75
310.26	82.75
310.49	77.75
310.72	84.75
310.949	85.75
311.179	79.75
311.409	93.75
311.639	89.75
311.868	83.75
312.098	91.75
312.328	91.75
312.557	79.75
312.787	92.75
313.017	96.75
313.246	86.75
313.476	78.75
313.706	91.75
313.935	97.75
314.165	77.75
314.394	80.75
314.624	88.75
314.853	96.75
315.083	87.75
315.312	98.75
315.542	85.75
315.771	86.75
316.001	81.75
316.23	88.75
316.46	84.75
316.689	81.75
316.919	80.75
317.148	97.75
317.377	84.75
317.607	87.75
317.836	85.75
318.065	98.75
318.295	86.75
318.524	74.75
318.753	93.75
318.983	88.75
319.212	83.75
319.441	93.75
319.67	95.75
319.9	77.75
320.129	85.75
320.358	83.75
320.587	81.75
320.816	90.75
321.046	85.75
321.275	84.75
321.504	82.75
321.733	95.75
321.962	82.75
322.191	82.75
322.42	89.75
322.649	84.75
322.878	96.75
323.108	79.75
323.337	90.75
323.566	69.75
323.795	85.75
324.024	74.75
324.253	84.75
324.482	88.75
324.71	100.75
324.939	89.75
325.168	94.75
325.397	97.75
325.626	87.75
325.855	74.75
326.084	92.75
326.313	94.75
326.542	82.75
326.77	88.75
326.999	81.75
327.228	76.75
327.457	77.75
327.686	94.75
327.914	84.75
328.143	107.75
328.372	84.75
328.6	94.75
328.829	96.75
329.058	95.75
329.287	89.75
329.515	89.75
329.744	79.75
329.972	90.75
330.201	89.75
330.43	92.75
330.658	80.75
330.887	91.75
331.115	94.75
331.344	76.75
331.572	97.75
331.801	77.75
332.03	73.75
332.258	77.75
332.486	90.75
332.715	89.75
332.943	88.75
333.172	93.75
333.4	106.75
333.629	91.75
333.857	93.75
334.085	82.75
334.314	110.75
334.542	99.75
334.771	90.75
334.999	104.75
335.227	91.75
335.455	93.75
335.684	96.75
335.912	89.75
336.14	96.75
336.369	97.75
336.597	90.75
336.825	93.75
337.053	94.75
337.281	88.75
337.51	87.75
337.738	90.75
337.966	88.75
338.194	96.75
338.422	88.75
338.65	96.75
338.878	79.75
339.106	93.75
339.334	86.75
339.562	95.75
339.79	94.75
340.018	82.75
340.246	87.75
340.474	86.75
340.702	91.75
340.93	97.75
341.158	77.75
341.386	94.75
341.614	81.75
341.842	84.75
342.07	98.75
342.298	85.75
342.526	91.75
342.754	84.75
342.981	85.75
343.209	89.75
343.437	94.75
343.665	84.75
343.893	93.75
344.12	94.75
344.348	84.75
344.576	82.75
344.804	95.75
345.031	92.75
345.259	79.75
345.487	93.75
345.714	87.75
345.942	100.75
346.17	86.75
346.397	88.75
346.625	91.75
346.853	100.75
347.08	95.75
347.308	87.75
347.535	81.75
347.763	98.75
347.99	90.75
348.218	96.75
348.445	86.75
348.673	96.75
348.9	84.75
349.128	87.75
349.355	94.75
349.583	93.75
349.81	78.75
350.037	91.75
350.265	102.75
350.492	84.75
350.72	87.75
350.947	73.75
351.174	90.75
351.402	82.75
351.629	88.75
351.856	97.75
352.083	96.75
352.311	89.75
352.538	93.75
352.765	84.75
352.992	84.75
353.22	96.75
353.447	97.75
353.674	94.75
353.901	89.75
354.128	87.75
354.355	89.75
354.583	71.75
354.81	92.75
355.037	112.75
355.264	92.75
355.491	93.75
355.718	93.75
355.945	91.75
356.172	84.75
356.399	70.75
356.626	68.75
356.853	97.75
357.08	90.75
357.307	99.75
357.534	108.75
357.761	84.75
357.988	97.75
358.215	93.75
358.441	98.75
358.668	83.75
358.895	87.75
359.122	100.75
359.349	85.75
359.576	89.75
359.802	86.75
360.029	90.75
360.256	88.75
360.483	80.75
360.709	86.75
360.936	95.75
361.163	93.75
361.39	92.75
361.616	76.75
361.843	94.75
362.07	95.75
362.296	88.75
362.523	87.75
362.749	99.75
362.976	89.75
363.203	92.75
363.429	85.75
363.656	92.75
363.882	89.75
364.109	101.75
364.335	85.75
364.562	89.75
364.788	92.75
365.015	85.75
365.241	108.75
365.468	81.75
365.694	76.75
365.92	87.75
366.147	87.75
366.373	88.75
366.599	89.75
366.826	93.75
367.052	79.75
367.278	90.75
367.505	78.75
367.731	100.75
367.957	92.75
368.184	84.75
368.41	88.75
368.636	83.75
368.862	85.75
369.089	104.75
369.315	100.75
369.541	92.75
369.767	95.75
369.993	95.75
370.219	91.75
370.445	92.75
370.672	82.75
370.898	95.75
371.124	91.75
371.35	81.75
371.576	85.75
371.802	78.75
372.028	97.75
372.254	83.75
372.48	79.75
372.706	73.75
372.932	92.75
373.158	99.75
373.384	88.75
373.61	85.75
373.835	89.75
374.061	100.75
374.287	75.75
374.513	91.75
374.739	89.75
374.965	98.75
375.191	92.75
375.416	107.75
375.642	92.75
375.868	88.75
376.094	78.75
376.319	95.75
376.545	102.75
376.771	86.75
376.997	83.75
377.222	79.75
377.448	97.75
377.674	72.75
377.899	94.75
378.125	95.75
378.35	89.75
378.576	81.75
378.802	80.75
379.027	80.75
379.253	91.75
379.478	92.75
379.704	98.75
379.929	93.75
380.155	93.75
380.38	104.75
380.606	87.75
380.831	101.75
381.057	102.75
381.282	99.75
381.507	83.75
381.733	84.75
381.958	73.75
382.184	78.75
382.409	94.75
382.634	87.75
382.86	90.75
383.085	99.75
383.31	86.75
383.535	95.75
383.761	91.75
383.986	100.75
384.211	89.75
384.436	100.75
384.662	80.75
384.887	99.75
385.112	88.75
385.337	77.75
385.562	106.75
385.787	93.75
386.013	83.75
386.238	99.75
386.463	113.75
386.688	95.75
386.913	88.75
387.138	80.75
387.363	92.75
387.588	101.75
387.813	91.75
388.038	76.75
388.263	104.75
388.488	91.75
388.713	95.75
388.938	96.75
389.163	86.75
389.387	94.75
389.612	94.75
389.837	99.75
390.062	97.75
390.287	87.75
390.512	93.75
390.736	96.75
390.961	98.75
391.186	81.75
391.411	95.75
391.636	96.75
391.86	88.75
392.085	81.75
392.31	81.75
392.534	104.75
392.759	94.75
392.984	79.75
393.208	102.75
393.433	91.75
393.658	85.75
393.882	95.75
394.107	98.75
394.331	90.75
394.556	93.75
394.78	80.75
395.005	98.75
395.229	84.75
395.454	95.75
395.678	107.75
395.903	98.75
396.127	91.75
396.352	89.75
396.576	87.75
396.801	87.75
397.025	87.75
397.249	98.75
397.474	96.75
397.698	82.75
397.922	92.75
398.147	91.75
398.371	95.75
398.595	90.75
398.82	83.75
399.044	91.75
399.268	90.75
399.492	108.75
399.717	88.75
399.941	97.75
400.165	117.75
400.389	93.75
400.613	76.75
400.837	98.75
401.062	99.75
401.286	95.75
401.51	99.75
401.734	91.75
401.958	92.75
402.182	92.75
402.406	87.75
402.63	90.75
402.854	111.75
403.078	85.75
403.302	82.75
403.526	89.75
403.75	101.75
403.974	96.75
404.198	87.75
404.422	102.75
404.645	98.75
404.869	89.75
405.093	94.75
405.317	103.75
405.541	97.75
405.765	88.75
405.988	87.75
406.212	89.75
406.436	91.75
406.66	86.75
406.883	84.75
407.107	100.75
407.331	102.75
407.555	94.75
407.778	94.75
408.002	102.75
408.226	91.75
408.449	82.75
408.673	96.75
408.896	102.75
409.12	109.75
409.344	99.75
409.567	91.75
409.791	91.75
410.014	105.75
410.238	88.75
410.461	90.75
410.685	86.75
410.908	88.75
411.132	93.75
411.355	100.75
411.578	116.75
411.802	80.75
412.025	83.75
412.249	78.75
412.472	100.75
412.695	98.75
412.919	95.75
413.142	92.75
413.365	96.75
413.589	87.75
413.812	100.75
414.035	93.75
414.258	94.75
414.482	100.75
414.705	90.75
414.928	91.75
415.151	92.75
415.374	92.75
415.597	96.75
415.821	101.75
416.044	91.75
416.267	85.75
416.49	86.75
416.713	95.75
416.936	112.75
417.159	99.75
417.382	91.75
417.605	90.75
417.828	101.75
418.051	88.75
418.274	111.75
418.497	98.75
418.72	107.75
418.943	105.75
419.166	89.75
419.389	95.75
419.611	99.75
419.834	95.75
420.057	97.75
420.28	92.75
420.503	100.75
420.726	94.75
420.948	96.75
421.171	89.75
421.394	88.75
421.617	93.75
421.839	97.75
422.062	97.75
422.285	93.75
422.507	102.75
422.73	99.75
422.953	96.75
423.175	96.75
423.398	92.75
423.621	85.75
423.843	96.75
424.066	90.75
424.288	102.75
424.511	102.75
424.733	95.75
424.956	94.75
425.178	82.75
425.401	95.75
425.623	90.75
425.846	93.75
426.068	100.75
426.291	97.75
426.513	87.75
426.735	83.75
426.958	94.75
427.18	115.75
427.402	87.75
427.625	73.75
427.847	87.75
428.069	92.75
428.292	73.75
428.514	98.75
428.736	97.75
428.958	92.75
429.181	85.75
429.403	97.75
429.625	94.75
429.847	105.75
430.069	93.75
430.292	88.75
430.514	84.75
430.736	86.75
430.958	95.75
431.18	88.75
431.402	98.75
431.624	89.75
431.846	85.75
432.068	97.75
432.29	99.75
432.512	86.75
432.734	99.75
432.956	107.75
433.178	82.75
433.4	97.75
433.622	105.75
433.844	92.75
434.066	86.75
434.287	81.75
434.509	87.75
434.731	99.75
434.953	93.75
435.175	91.75
435.397	99.75
435.618	98.75
435.84	90.75
436.062	73.75
436.284	86.75
436.505	89.75
436.727	96.75
436.949	97.75
437.17	91.75
437.392	97.75
437.614	85.75
437.835	88.75
438.057	88.75
438.278	87.75
438.5	93.75
438.721	85.75
438.943	90.75
439.165	93.75
439.386	85.75
439.608	93.75
439.829	90.75
440.05	94.75
440.272	86.75
440.493	94.75
440.715	86.75
440.936	83.75
441.158	78.75
441.379	96.75
441.6	96.75
441.822	88.75
442.043	85.75
442.264	103.75
442.486	99.75
442.707	83.75
442.928	98.75
443.149	91.75
443.371	95.75
443.592	91.75
443.813	96.75
444.034	89.75
444.255	79.75
444.476	97.75
444.698	91.75
444.919	85.75
445.14	184.75
445.361	129.75
445.582	107.75
445.803	90.75
446.024	84.75
446.245	80.75
446.466	90.75
446.687	87.75
446.908	99.75
447.129	86.75
447.35	77.75
447.571	87.75
447.792	92.75
448.013	74.75
448.234	96.75
448.455	99.75
448.675	99.75
448.896	102.75
449.117	80.75
449.338	91.75
449.559	94.75
449.779	87.75
450	97.75
450.221	78.75
450.442	84.75
450.662	71.75
450.883	88.75
451.104	81.75
451.324	93.75
451.545	84.75
451.766	67.75
451.986	91.75
452.207	94.75
452.428	91.75
452.648	83.75
452.869	65.75
453.089	98.75
453.31	86.75
453.53	72.75
453.751	96.75
453.971	92.75
454.192	95.75
454.412	90.75
454.633	94.75
454.853	101.75
455.073	88.75
455.294	77.75
455.514	92.75
455.734	94.75
455.955	84.75
456.175	85.75
456.395	86.75
456.616	95.75
456.836	92.75
457.056	98.75
457.276	98.75
457.497	89.75
457.717	88.75
457.937	76.75
458.157	79.75
458.377	85.75
458.598	95.75
458.818	85.75
459.038	87.75
459.258	92.75
459.478	87.75
459.698	87.75
459.918	95.75
460.138	86.75
460.358	92.75
460.578	79.75
460.798	87.75
461.018	84.75
461.238	88.75
461.458	82.75
461.678	92.75
461.898	90.75
462.118	88.75
462.338	103.75
462.558	90.75
462.777	94.75
462.997	90.75
463.217	101.75
463.437	101.75
463.657	98.75
463.876	99.75
464.096	89.75
464.316	87.75
464.536	108.75
464.755	105.75
464.975	97.75
465.195	97.75
465.414	91.75
465.634	98.75
465.854	88.75
466.073	82.75
466.293	115.75
466.512	93.75
466.732	96.75
466.951	69.75
467.171	98.75
467.391	73.75
467.61	95.75
467.829	96.75
468.049	94.75
468.268	104.75
468.488	81.75
468.707	86.75
468.927	82.75
469.146	87.75
469.365	68.75
469.585	98.75
469.804	92.75
470.023	91.75
470.243	84.75
470.462	98.75
470.681	92.75
470.901	96.75
471.12	92.75
471.339	102.75
471.558	97.75
471.777	98.75
471.997	109.75
472.216	104.75
472.435	93.75
472.654	101.75
472.873	97.75
473.092	92.75
473.311	86.75
473.53	103.75
473.749	96.75
473.968	99.75
474.187	83.75
474.406	84.75
474.625	95.75
474.844	97.75
475.063	93.75
475.282	101.75
475.501	96.75
475.72	99.75
475.939	91.75
476.158	76.75
476.377	91.75
476.596	85.75
476.814	88.75
477.033	91.75
477.252	98.75
477.471	95.75
477.69	85.75
477.908	92.75
478.127	95.75
478.346	80.75
478.564	107.75
478.783	109.75
479.002	97.75
479.22	103.75
479.439	104.75
479.658	97.75
479.876	96.75
480.095	98.75
480.313	95.75
480.532	107.75
480.751	93.75
480.969	108.75
481.188	85.75
481.406	101.75
481.624	103.75
481.843	96.75
482.061	88.75
482.28	96.75
482.498	99.75
482.717	102.75
482.935	102.75
483.153	101.75
483.372	111.75
483.59	95.75
483.808	103.75
484.027	116.75
484.245	113.75
484.463	99.75
484.681	100.75
484.9	97.75
485.118	117.75
485.336	98.75
485.554	119.75
485.772	96.75
485.99	101.75
486.209	97.75
486.427	92.75
486.645	89.75
486.863	75.75
487.081	99.75
487.299	116.75
487.517	110.75
487.735	104.75
487.953	97.75
488.171	110.75
488.389	105.75
488.607	94.75
488.825	100.75
489.043	111.75
489.261	80.75
489.479	111.75
489.696	110.75
489.914	91.75
490.132	95.75
490.35	109.75
490.568	102.75
490.786	88.75
491.003	102.75
491.221	128.75
491.439	109.75
491.657	111.75
491.874	116.75
492.092	119.75
492.31	120.75
492.527	116.75
492.745	116.75
492.963	109.75
493.18	109.75
493.398	109.75
493.615	120.75
493.833	102.75
494.05	108.75
494.268	97.75
494.485	110.75
494.703	102.75
494.92	105.75
495.138	112.75
495.355	111.75
495.573	115.75
495.79	98.75
496.008	116.75
496.225	104.75
496.442	101.75
496.66	112.75
496.877	98.75
497.094	113.75
497.312	101.75
497.529	103.75
497.746	110.75
497.963	99.75
498.181	101.75
498.398	101.75
498.615	114.75
498.832	111.75
499.049	115.75
499.267	113.75
499.484	104.75
499.701	127.75
499.918	132.75
500.135	133.75
500.352	152.75
500.569	149.75
500.786	163.75
501.003	133.75
501.22	135.75
501.437	131.75
501.654	141.75
501.871	124.75
502.088	95.75
502.305	116.75
502.522	109.75
502.739	117.75
502.956	111.75
503.172	111.75
503.389	117.75
503.606	92.75
503.823	103.75
504.04	109.75
504.256	102.75
504.473	92.75
504.69	109.75
504.907	111.75
505.123	101.75
505.34	99.75
505.557	108.75
505.773	89.75
505.99	114.75
506.207	97.75
506.423	101.75
506.64	112.75
506.856	113.75
507.073	114.75
507.289	99.75
507.506	105.75
507.722	95.75
507.939	108.75
508.155	90.75
508.372	86.75
508.588	95.75
508.805	101.75
509.021	95.75
509.238	98.75
509.454	82.75
509.67	116.75
509.887	99.75
510.103	98.75
510.319	90.75
510.536	100.75
510.752	108.75
510.968	98.75
511.184	98.75
511.401	107.75
511.617	108.75
511.833	101.75
512.049	95.75
512.265	96.75
512.481	90.75
512.698	96.75
512.914	106.75
513.13	104.75
513.346	93.75
513.562	97.75
513.778	90.75
513.994	86.75
514.21	87.75
514.426	107.75
514.642	100.75
514.858	110.75
515.074	91.75
515.29	101.75
515.506	103.75
515.721	88.75
515.937	105.75
516.153	91.75
516.369	90.75
516.585	88.75
516.801	113.75
517.016	101.75
517.232	93.75
517.448	99.75
517.664	104.75
517.879	105.75
518.095	120.75
518.311	107.75
518.527	88.75
518.742	103.75
518.958	96.75
519.173	105.75
519.389	97.75
519.605	107.75
519.82	96.75
520.036	96.75
520.251	89.75
520.467	94.75
520.682	89.75
520.898	99.75
521.113	88.75
521.329	90.75
521.544	108.75
521.76	97.75
521.975	76.75
522.19	105.75
522.406	93.75
522.621	86.75
522.836	100.75
523.052	99.75
523.267	90.75
523.482	104.75
523.698	99.75
523.913	101.75
524.128	102.75
524.343	88.75
524.559	101.75
524.774	106.75
524.989	104.75
525.204	109.75
525.419	90.75
525.634	106.75
525.849	100.75
526.064	97.75
526.28	84.75
526.495	97.75
526.71	96.75
526.925	107.75
527.14	96.75
527.355	98.75
527.57	97.75
527.785	84.75
527.999	94.75
528.214	98.75
528.429	103.75
528.644	104.75
528.859	100.75
529.074	89.75
529.289	80.75
529.503	108.75
529.718	83.75
529.933	96.75
530.148	107.75
530.363	104.75
530.577	100.75
530.792	81.75
531.007	97.75
531.221	81.75
531.436	100.75
531.651	97.75
531.865	93.75
532.08	102.75
532.295	93.75
532.509	113.75
532.724	85.75
532.938	87.75
533.153	84.75
533.367	104.75
533.582	102.75
533.796	100.75
534.011	97.75
534.225	92.75
534.44	93.75
534.654	85.75
534.868	96.75
535.083	98.75
535.297	97.75
535.511	85.75
535.726	91.75
535.94	84.75
536.154	89.75
536.369	86.75
536.583	85.75
536.797	90.75
537.011	92.75
537.225	84.75
537.44	97.75
537.654	102.75
537.868	91.75
538.082	92.75
538.296	94.75
538.51	96.75
538.724	103.75
538.938	104.75
539.153	109.75
539.367	97.75
539.581	96.75
539.795	92.75
540.009	99.75
540.222	94.75
540.436	87.75
540.65	88.75
540.864	95.75
541.078	98.75
541.292	107.75
541.506	87.75
541.72	95.75
541.934	109.75
542.147	105.75
542.361	98.75
542.575	110.75
542.789	111.75
543.002	105.75
543.216	94.75
543.43	112.75
543.644	99.75
543.857	105.75
544.071	93.75
544.285	103.75
544.498	95.75
544.712	109.75
544.925	104.75
545.139	95.75
545.352	97.75
545.566	97.75
545.779	89.75
545.993	99.75
546.206	104.75
546.42	101.75
546.633	93.75
546.847	111.75
547.06	98.75
547.274	104.75
547.487	100.75
547.7	92.75
547.914	108.75
548.127	111.75
548.34	99.75
548.554	93.75
548.767	102.75
548.98	95.75
549.193	97.75
549.407	91.75
549.62	101.75
549.833	114.75
550.046	112.75
550.259	107.75
550.473	79.75
550.686	100.75
550.899	103.75
551.112	101.75
551.325	100.75
551.538	94.75
551.751	101.75
551.964	92.75
552.177	93.75
552.39	104.75
552.603	103.75
552.816	111.75
553.029	117.75
553.242	104.75
553.455	101.75
553.667	97.75
553.88	111.75
554.093	100.75
554.306	112.75
554.519	101.75
554.732	109.75
554.944	88.75
555.157	84.75
555.37	96.75
555.583	92.75
555.795	108.75
556.008	98.75
556.221	96.75
556.433	96.75
556.646	99.75
556.859	94.75
557.071	91.75
557.284	92.75
557.496	107.75
557.709	106.75
557.921	99.75
558.134	85.75
558.346	88.75
558.559	80.75
558.771	90.75
558.984	87.75
559.196	83.75
559.409	90.75
559.621	99.75
559.833	104.75
560.046	91.75
560.258	101.75
560.47	91.75
560.683	100.75
560.895	93.75
561.107	86.75
561.32	105.75
561.532	101.75
561.744	90.75
561.956	91.75
562.168	111.75
562.381	97.75
562.593	104.75
562.805	91.75
563.017	87.75
563.229	102.75
563.441	88.75
563.653	98.75
563.865	78.75
564.077	91.75
564.289	108.75
564.501	91.75
564.713	99.75
564.925	94.75
565.137	98.75
565.349	93.75
565.561	95.75
565.773	93.75
565.985	90.75
566.197	92.75
566.408	95.75
566.62	95.75
566.832	99.75
567.044	107.75
567.255	107.75
567.467	99.75
567.679	101.75
567.891	105.75
568.102	108.75
568.314	94.75
568.526	86.75
568.737	98.75
568.949	87.75
569.161	88.75
569.372	89.75
569.584	85.75
569.795	90.75
570.007	93.75
570.218	97.75
570.43	95.75
570.641	88.75
570.853	87.75
571.064	89.75
571.276	93.75
571.487	84.75
571.698	93.75
571.91	93.75
572.121	79.75
572.333	104.75
572.544	84.75
572.755	86.75
572.966	92.75
573.178	93.75
573.389	81.75
573.6	82.75
573.811	105.75
574.023	93.75
574.234	92.75
574.445	84.75
574.656	83.75
574.867	94.75
575.078	85.75
575.289	91.75
575.501	89.75
575.712	92.75
575.923	93.75
576.134	88.75
576.345	75.75
576.556	94.75
576.767	113.75
576.978	89.75
577.188	94.75
577.399	91.75
577.61	88.75
577.821	85.75
578.032	81.75
578.243	99.75
578.454	83.75
578.665	97.75
578.875	103.75
579.086	94.75
579.297	88.75
579.508	85.75
579.718	88.75
579.929	94.75
580.14	85.75
580.35	89.75
580.561	88.75
580.772	87.75
580.982	86.75
581.193	75.75
581.403	91.75
581.614	95.75
581.825	80.75
582.035	97.75
582.246	90.75
582.456	94.75
582.667	92.75
582.877	85.75
583.087	78.75
583.298	83.75
583.508	101.75
583.719	77.75
583.929	93.75
584.139	80.75
584.35	101.75
584.56	75.75
584.77	71.75
584.981	91.75
585.191	99.75
585.401	77.75
585.611	82.75
585.821	87.75
586.032	93.75
586.242	85.75
586.452	90.75
586.662	82.75
586.872	100.75
587.082	84.75
587.292	85.75
587.502	98.75
587.713	97.75
587.923	87.75
588.133	80.75
588.343	83.75
588.553	87.75
588.762	99.75
588.972	90.75
589.182	88.75
589.392	102.75
589.602	81.75
589.812	91.75
590.022	98.75
590.232	96.75
590.441	87.75
590.651	89.75
590.861	80.75
591.071	103.75
591.281	86.75
591.49	89.75
591.7	89.75
591.91	86.75
592.119	89.75
592.329	82.75
592.539	83.75
592.748	77.75
592.958	109.75
593.167	93.75
593.377	91.75
593.587	100.75
593.796	104.75
594.006	92.75
594.215	91.75
594.424	74.75
594.634	75.75
594.843	93.75
595.053	93.75
595.262	104.75
595.472	91.75
595.681	94.75
595.89	89.75
596.1	80.75
596.309	83.75
596.518	79.75
596.727	82.75
596.937	102.75
597.146	97.75
597.355	96.75
597.564	82.75
597.774	88.75
597.983	83.75
598.192	93.75
598.401	85.75
598.61	93.75
598.819	83.75
599.028	88.75
599.237	95.75
599.446	92.75
599.655	80.75
599.864	88.75
600.073	82.75
600.282	78.75
600.491	73.75
600.7	84.75
600.909	79.75
601.118	94.75
601.327	81.75
601.536	81.75
601.745	82.75
601.953	83.75
602.162	83.75
602.371	81.75
602.58	92.75
602.789	79.75
602.997	77.75
603.206	98.75
603.415	83.75
603.623	84.75
603.832	86.75
604.041	81.75
604.249	87.75
604.458	82.75
604.666	79.75
604.875	84.75
605.084	81.75
605.292	91.75
605.501	83.75
605.709	76.75
605.918	80.75
606.126	88.75
606.334	85.75
606.543	67.75
606.751	94.75
606.96	77.75
607.168	83.75
607.376	96.75
607.585	81.75
607.793	95.75
608.001	85.75
608.21	88.75
608.418	95.75
608.626	82.75
608.834	88.75
609.043	99.75
609.251	83.75
609.459	81.75
609.667	88.75
609.875	83.75
610.083	94.75
610.291	87.75
610.499	91.75
610.707	79.75
610.916	86.75
611.124	83.75
611.332	101.75
611.54	78.75
611.748	70.75
611.955	85.75
612.163	95.75
612.371	86.75
612.579	96.75
612.787	92.75
612.995	86.75
613.203	82.75
613.411	98.75
613.618	89.75
613.826	79.75
614.034	80.75
614.242	91.75
614.449	62.75
614.657	80.75
614.865	76.75
615.072	78.75
615.28	84.75
615.488	91.75
615.695	90.75
615.903	97.75
616.111	87.75
616.318	81.75
616.526	78.75
616.733	99.75
616.941	82.75
617.148	75.75
617.356	93.75
617.563	85.75
617.771	77.75
617.978	81.75
618.185	77.75
618.393	86.75
618.6	83.75
618.807	87.75
619.015	86.75
619.222	76.75
619.429	95.75
619.637	71.75
619.844	93.75
620.051	90.75
620.258	74.75
620.466	90.75
620.673	83.75
620.88	92.75
621.087	72.75
621.294	86.75
621.501	96.75
621.708	94.75
621.915	81.75
622.122	84.75
622.329	97.75
622.536	91.75
622.743	76.75
622.95	85.75
623.157	95.75
623.364	87.75
623.571	85.75
623.778	79.75
623.985	92.75
624.192	89.75
624.399	91.75
624.606	103.75
624.812	85.75
625.019	95.75
625.226	87.75
625.433	76.75
625.639	98.75
625.846	83.75
626.053	73.75
626.259	91.75
626.466	84.75
626.673	88.75
626.879	79.75
627.086	81.75
627.293	83.75
627.499	80.75
627.706	107.75
627.912	107.75
628.119	89.75
628.325	88.75
628.532	67.75
628.738	91.75
628.945	84.75
629.151	89.75
629.357	81.75
629.564	89.75
629.77	94.75
629.976	91.75
630.183	85.75
630.389	80.75
630.595	77.75
630.802	86.75
631.008	94.75
631.214	61.75
631.42	79.75
631.627	88.75
631.833	89.75
632.039	92.75
632.245	82.75
632.451	75.75
632.657	60.75
632.863	81.75
633.069	92.75
633.275	71.75
633.481	101.75
633.688	81.75
633.893	91.75
634.099	75.75
634.305	80.75
634.511	73.75
634.717	74.75
634.923	79.75
635.129	84.75
635.335	72.75
635.541	84.75
635.747	98.75
635.952	87.75
636.158	84.75
636.364	84.75
636.57	79.75
636.775	97.75
636.981	102.75
637.187	96.75
637.392	68.75
637.598	85.75
637.804	81.75
638.009	86.75
638.215	87.75
638.421	81.75
638.626	93.75
638.832	88.75
639.037	78.75
639.243	89.75
639.448	87.75
639.654	86.75
639.859	86.75
640.065	96.75
640.27	88.75
640.475	95.75
640.681	89.75
640.886	75.75
641.091	87.75
641.297	86.75
641.502	87.75
641.707	81.75
641.913	95.75
642.118	72.75
642.323	84.75
642.528	88.75
642.733	81.75
642.939	80.75
643.144	80.75
643.349	89.75
643.554	76.75
643.759	81.75
643.964	85.75
644.169	99.75
644.374	105.75
644.579	85.75
644.784	83.75
644.989	78.75
645.194	81.75
645.399	82.75
645.604	93.75
645.809	85.75
646.014	73.75
646.219	83.75
646.423	88.75
646.628	86.75
646.833	79.75
647.038	72.75
647.243	91.75
647.447	77.75
647.652	81.75
647.857	84.75
648.062	83.75
648.266	92.75
648.471	81.75
648.676	74.75
648.88	73.75
649.085	84.75
649.289	87.75
649.494	81.75
649.698	72.75
649.903	80.75
650.107	76.75
650.312	88.75
650.516	77.75
650.721	90.75
650.925	84.75
651.13	89.75
651.334	81.75
651.539	78.75
651.743	88.75
651.947	89.75
652.152	84.75
652.356	79.75
652.56	96.75
652.764	80.75
652.969	78.75
653.173	68.75
653.377	86.75
653.581	77.75
653.785	84.75
653.99	84.75
654.194	86.75
654.398	79.75
654.602	92.75
654.806	90.75
655.01	89.75
655.214	83.75
655.418	77.75
655.622	68.75
655.826	80.75
656.03	70.75
656.234	69.75
656.438	83.75
656.642	80.75
656.846	79.75
657.049	94.75
657.253	91.75
657.457	91.75
657.661	82.75
657.865	84.75
658.068	80.75
658.272	78.75
658.476	90.75
658.68	74.75
658.883	71.75
659.087	81.75
659.291	90.75
659.494	72.75
659.698	76.75
659.901	87.75
660.105	83.75
660.309	73.75
660.512	76.75
660.716	78.75
660.919	71.75
661.123	75.75
661.326	85.75
661.53	94.75
661.733	82.75
661.936	72.75
662.14	84.75
662.343	79.75
662.546	80.75
662.75	92.75
662.953	94.75
663.156	86.75
663.36	89.75
663.563	79.75
663.766	77.75
663.969	76.75
664.173	72.75
664.376	73.75
664.579	90.75
664.782	72.75
664.985	84.75
665.188	86.75
665.391	90.75
665.594	85.75
665.797	88.75
666	83.75
666.203	86.75
666.406	91.75
666.609	89.75
666.812	84.75
667.015	91.75
667.218	69.75
667.421	83.75
667.624	72.75
667.827	87.75
668.03	94.75
668.232	83.75
668.435	69.75
668.638	82.75
668.841	86.75
669.043	69.75
669.246	73.75
669.449	81.75
669.651	66.75
669.854	71.75
670.057	79.75
670.259	87.75
670.462	85.75
670.665	82.75
670.867	83.75
671.07	79.75
671.272	72.75
671.475	84.75
671.677	83.75
671.88	74.75
672.082	79.75
672.284	74.75
672.487	88.75
672.689	80.75
672.892	65.75
