Data from Location5.07152019.Energy5.Lamp.07192019.3%Agarose_HRD10591_15-36-36-386.txt Node
Date: Fri Jul 19 15:36:36 EDT 2019
User: cochatt
Spectrometer: HR+D1059
Trigger mode: 1
Integration Time (sec): 1.000000E-1
Scans to average: 1
Electric dark correction enabled: true
Nonlinearity correction enabled: false
Boxcar width: 0
XAxis mode: Wavelengths
Number of Pixels in Spectrum: 2048
>>>>>Begin Spectral Data<<<<<
223.165	-6.12
223.4	-6.12
223.635	-6.12
223.869	-27.12
224.104	-12.12
224.338	-17.12
224.573	-17.12
224.808	-25.12
225.042	-10.12
225.277	-6.12
225.511	0.88
225.746	10.88
225.98	3.88
226.215	10.88
226.449	14.88
226.683	23.88
226.918	22.88
227.152	32.88
227.387	34.88
227.621	28.88
227.856	47.88
228.09	45.88
228.324	55.88
228.559	52.88
228.793	49.88
229.027	58.88
229.262	65.88
229.496	75.88
229.73	76.88
229.964	60.88
230.199	79.88
230.433	72.88
230.667	73.88
230.901	61.88
231.136	71.88
231.37	80.88
231.604	71.88
231.838	83.88
232.072	87.88
232.306	87.88
232.541	77.88
232.775	69.88
233.009	70.88
233.243	74.88
233.477	82.88
233.711	68.88
233.945	66.88
234.179	73.88
234.413	92.88
234.647	93.88
234.881	62.88
235.115	74.88
235.349	78.88
235.583	71.88
235.817	67.88
236.051	57.88
236.285	70.88
236.519	85.88
236.753	69.88
236.987	81.88
237.221	75.88
237.455	57.88
237.689	67.88
237.922	73.88
238.156	84.88
238.39	71.88
238.624	69.88
238.858	72.88
239.091	68.88
239.325	78.88
239.559	63.88
239.793	73.88
240.027	71.88
240.26	81.88
240.494	73.88
240.728	76.88
240.961	70.88
241.195	71.88
241.429	80.88
241.662	79.88
241.896	71.88
242.13	84.88
242.363	81.88
242.597	79.88
242.83	75.88
243.064	77.88
243.298	69.88
243.531	65.88
243.765	95.88
243.998	71.88
244.232	71.88
244.465	71.88
244.699	71.88
244.932	73.88
245.166	81.88
245.399	80.88
245.633	78.88
245.866	88.88
246.099	83.88
246.333	82.88
246.566	71.88
246.8	80.88
247.033	77.88
247.266	84.88
247.5	83.88
247.733	75.88
247.966	72.88
248.2	61.88
248.433	69.88
248.666	77.88
248.899	66.88
249.133	72.88
249.366	81.88
249.599	68.88
249.832	78.88
250.066	66.88
250.299	61.88
250.532	72.88
250.765	73.88
250.998	56.88
251.231	82.88
251.465	79.88
251.698	78.88
251.931	71.88
252.164	78.88
252.397	61.88
252.63	75.88
252.863	86.88
253.096	79.88
253.329	74.88
253.562	82.88
253.795	85.88
254.028	64.88
254.261	73.88
254.494	80.88
254.727	69.88
254.96	87.88
255.193	78.88
255.426	75.88
255.659	77.88
255.892	82.88
256.124	78.88
256.357	60.88
256.59	74.88
256.823	63.88
257.056	79.88
257.289	88.88
257.521	81.88
257.754	72.88
257.987	91.88
258.22	85.88
258.452	71.88
258.685	85.88
258.918	71.88
259.151	67.88
259.383	81.88
259.616	78.88
259.849	79.88
260.081	75.88
260.314	70.88
260.547	76.88
260.779	87.88
261.012	69.88
261.244	86.88
261.477	83.88
261.71	81.88
261.942	77.88
262.175	86.88
262.407	90.88
262.64	76.88
262.872	68.88
263.105	73.88
263.337	75.88
263.57	87.88
263.802	85.88
264.035	76.88
264.267	69.88
264.499	77.88
264.732	55.88
264.964	61.88
265.197	78.88
265.429	84.88
265.661	75.88
265.894	80.88
266.126	87.88
266.358	69.88
266.591	69.88
266.823	87.88
267.055	81.88
267.287	82.88
267.52	76.88
267.752	93.88
267.984	90.88
268.216	67.88
268.448	85.88
268.681	77.88
268.913	84.88
269.145	76.88
269.377	85.88
269.609	90.88
269.841	86.88
270.073	71.88
270.306	77.88
270.538	76.88
270.77	83.88
271.002	80.88
271.234	80.88
271.466	82.88
271.698	69.88
271.93	79.88
272.162	65.88
272.394	86.88
272.626	75.88
272.858	77.88
273.09	89.88
273.322	71.88
273.553	82.88
273.785	83.88
274.017	77.88
274.249	82.88
274.481	78.88
274.713	77.88
274.945	93.88
275.176	69.88
275.408	81.88
275.64	80.88
275.872	76.88
276.104	83.88
276.335	73.88
276.567	76.88
276.799	69.88
277.031	81.88
277.262	80.88
277.494	82.88
277.726	77.88
277.957	90.88
278.189	86.88
278.421	82.88
278.652	89.88
278.884	68.88
279.115	76.88
279.347	76.88
279.579	90.88
279.81	75.88
280.042	84.88
280.273	85.88
280.505	96.88
280.736	82.88
280.968	57.88
281.199	84.88
281.431	68.88
281.662	82.88
281.894	84.88
282.125	86.88
282.356	74.88
282.588	85.88
282.819	76.88
283.051	77.88
283.282	65.88
283.513	72.88
283.745	71.88
283.976	68.88
284.207	82.88
284.439	94.88
284.67	96.88
284.901	85.88
285.132	75.88
285.364	78.88
285.595	71.88
285.826	74.88
286.057	79.88
286.288	75.88
286.52	83.88
286.751	80.88
286.982	78.88
287.213	75.88
287.444	81.88
287.675	75.88
287.906	94.88
288.138	74.88
288.369	78.88
288.6	83.88
288.831	85.88
289.062	79.88
289.293	70.88
289.524	61.88
289.755	76.88
289.986	84.88
290.217	69.88
290.448	91.88
290.679	93.88
290.91	71.88
291.141	74.88
291.371	82.88
291.602	78.88
291.833	91.88
292.064	75.88
292.295	68.88
292.526	91.88
292.757	85.88
292.987	66.88
293.218	81.88
293.449	87.88
293.68	85.88
293.91	71.88
294.141	87.88
294.372	87.88
294.603	74.88
294.833	74.88
295.064	94.88
295.295	83.88
295.525	59.88
295.756	80.88
295.987	88.88
296.217	77.88
296.448	76.88
296.679	76.88
296.909	63.88
297.14	101.88
297.37	83.88
297.601	85.88
297.831	80.88
298.062	87.88
298.292	80.88
298.523	83.88
298.753	76.88
298.984	91.88
299.214	87.88
299.445	76.88
299.675	86.88
299.905	82.88
300.136	83.88
300.366	97.88
300.597	71.88
300.827	92.88
301.057	90.88
301.288	77.88
301.518	94.88
301.748	73.88
301.979	86.88
302.209	67.88
302.439	75.88
302.669	82.88
302.9	82.88
303.13	73.88
303.36	61.88
303.59	70.88
303.82	79.88
304.051	86.88
304.281	81.88
304.511	88.88
304.741	92.88
304.971	92.88
305.201	85.88
305.431	81.88
305.661	83.88
305.891	85.88
306.121	87.88
306.352	82.88
306.582	94.88
306.812	91.88
307.042	83.88
307.272	96.88
307.502	92.88
307.731	86.88
307.961	77.88
308.191	76.88
308.421	84.88
308.651	77.88
308.881	63.88
309.111	67.88
309.341	81.88
309.571	90.88
309.8	88.88
310.03	78.88
310.26	78.88
310.49	81.88
310.72	63.88
310.949	76.88
311.179	77.88
311.409	70.88
311.639	73.88
311.868	91.88
312.098	86.88
312.328	82.88
312.557	80.88
312.787	82.88
313.017	78.88
313.246	73.88
313.476	70.88
313.706	85.88
313.935	81.88
314.165	83.88
314.394	89.88
314.624	77.88
314.853	78.88
315.083	94.88
315.312	71.88
315.542	77.88
315.771	81.88
316.001	84.88
316.23	84.88
316.46	73.88
316.689	82.88
316.919	73.88
317.148	85.88
317.377	87.88
317.607	87.88
317.836	83.88
318.065	74.88
318.295	76.88
318.524	78.88
318.753	78.88
318.983	80.88
319.212	79.88
319.441	87.88
319.67	78.88
319.9	66.88
320.129	71.88
320.358	80.88
320.587	70.88
320.816	83.88
321.046	74.88
321.275	78.88
321.504	72.88
321.733	83.88
321.962	89.88
322.191	84.88
322.42	90.88
322.649	69.88
322.878	70.88
323.108	90.88
323.337	90.88
323.566	89.88
323.795	88.88
324.024	78.88
324.253	82.88
324.482	79.88
324.71	86.88
324.939	66.88
325.168	81.88
325.397	81.88
325.626	70.88
325.855	84.88
326.084	80.88
326.313	81.88
326.542	85.88
326.77	78.88
326.999	90.88
327.228	67.88
327.457	78.88
327.686	84.88
327.914	76.88
328.143	86.88
328.372	84.88
328.6	68.88
328.829	76.88
329.058	77.88
329.287	81.88
329.515	76.88
329.744	83.88
329.972	84.88
330.201	71.88
330.43	78.88
330.658	77.88
330.887	80.88
331.115	79.88
331.344	80.88
331.572	79.88
331.801	82.88
332.03	74.88
332.258	82.88
332.486	63.88
332.715	80.88
332.943	78.88
333.172	81.88
333.4	66.88
333.629	79.88
333.857	71.88
334.085	76.88
334.314	81.88
334.542	85.88
334.771	81.88
334.999	75.88
335.227	74.88
335.455	81.88
335.684	75.88
335.912	92.88
336.14	85.88
336.369	82.88
336.597	79.88
336.825	83.88
337.053	77.88
337.281	68.88
337.51	79.88
337.738	70.88
337.966	81.88
338.194	76.88
338.422	77.88
338.65	82.88
338.878	86.88
339.106	82.88
339.334	77.88
339.562	80.88
339.79	73.88
340.018	75.88
340.246	82.88
340.474	75.88
340.702	67.88
340.93	74.88
341.158	77.88
341.386	75.88
341.614	76.88
341.842	86.88
342.07	76.88
342.298	85.88
342.526	75.88
342.754	73.88
342.981	65.88
343.209	83.88
343.437	86.88
343.665	82.88
343.893	85.88
344.12	82.88
344.348	66.88
344.576	79.88
344.804	76.88
345.031	83.88
345.259	70.88
345.487	86.88
345.714	83.88
345.942	82.88
346.17	87.88
346.397	80.88
346.625	77.88
346.853	88.88
347.08	80.88
347.308	94.88
347.535	85.88
347.763	67.88
347.99	78.88
348.218	67.88
348.445	74.88
348.673	91.88
348.9	79.88
349.128	73.88
349.355	77.88
349.583	75.88
349.81	84.88
350.037	91.88
350.265	93.88
350.492	80.88
350.72	80.88
350.947	82.88
351.174	79.88
351.402	73.88
351.629	73.88
351.856	88.88
352.083	70.88
352.311	68.88
352.538	83.88
352.765	91.88
352.992	89.88
353.22	75.88
353.447	78.88
353.674	101.88
353.901	70.88
354.128	69.88
354.355	93.88
354.583	77.88
354.81	75.88
355.037	71.88
355.264	77.88
355.491	72.88
355.718	87.88
355.945	79.88
356.172	79.88
356.399	61.88
356.626	66.88
356.853	65.88
357.08	89.88
357.307	85.88
357.534	68.88
357.761	76.88
357.988	81.88
358.215	81.88
358.441	84.88
358.668	70.88
358.895	83.88
359.122	77.88
359.349	75.88
359.576	91.88
359.802	73.88
360.029	95.88
360.256	74.88
360.483	81.88
360.709	70.88
360.936	67.88
361.163	72.88
361.39	77.88
361.616	70.88
361.843	77.88
362.07	81.88
362.296	81.88
362.523	79.88
362.749	84.88
362.976	74.88
363.203	77.88
363.429	75.88
363.656	65.88
363.882	70.88
364.109	79.88
364.335	87.88
364.562	90.88
364.788	79.88
365.015	66.88
365.241	68.88
365.468	71.88
365.694	71.88
365.92	77.88
366.147	95.88
366.373	74.88
366.599	80.88
366.826	80.88
367.052	79.88
367.278	86.88
367.505	88.88
367.731	87.88
367.957	71.88
368.184	97.88
368.41	80.88
368.636	79.88
368.862	75.88
369.089	71.88
369.315	70.88
369.541	75.88
369.767	92.88
369.993	76.88
370.219	86.88
370.445	77.88
370.672	72.88
370.898	72.88
371.124	70.88
371.35	81.88
371.576	83.88
371.802	76.88
372.028	78.88
372.254	84.88
372.48	81.88
372.706	77.88
372.932	87.88
373.158	70.88
373.384	81.88
373.61	76.88
373.835	59.88
374.061	82.88
374.287	80.88
374.513	86.88
374.739	75.88
374.965	80.88
375.191	67.88
375.416	84.88
375.642	84.88
375.868	97.88
376.094	89.88
376.319	72.88
376.545	89.88
376.771	74.88
376.997	82.88
377.222	72.88
377.448	69.88
377.674	91.88
377.899	91.88
378.125	74.88
378.35	82.88
378.576	88.88
378.802	80.88
379.027	78.88
379.253	91.88
379.478	87.88
379.704	87.88
379.929	90.88
380.155	68.88
380.38	84.88
380.606	75.88
380.831	76.88
381.057	90.88
381.282	77.88
381.507	77.88
381.733	82.88
381.958	79.88
382.184	85.88
382.409	87.88
382.634	79.88
382.86	78.88
383.085	78.88
383.31	82.88
383.535	87.88
383.761	96.88
383.986	91.88
384.211	87.88
384.436	92.88
384.662	75.88
384.887	93.88
385.112	76.88
385.337	78.88
385.562	80.88
385.787	73.88
386.013	79.88
386.238	78.88
386.463	69.88
386.688	84.88
386.913	86.88
387.138	86.88
387.363	74.88
387.588	89.88
387.813	82.88
388.038	76.88
388.263	78.88
388.488	72.88
388.713	83.88
388.938	75.88
389.163	76.88
389.387	71.88
389.612	82.88
389.837	74.88
390.062	72.88
390.287	75.88
390.512	83.88
390.736	70.88
390.961	87.88
391.186	80.88
391.411	90.88
391.636	67.88
391.86	80.88
392.085	87.88
392.31	71.88
392.534	67.88
392.759	90.88
392.984	71.88
393.208	73.88
393.433	72.88
393.658	78.88
393.882	71.88
394.107	93.88
394.331	94.88
394.556	69.88
394.78	75.88
395.005	85.88
395.229	90.88
395.454	93.88
395.678	82.88
395.903	73.88
396.127	85.88
396.352	75.88
396.576	83.88
396.801	79.88
397.025	84.88
397.249	90.88
397.474	86.88
397.698	70.88
397.922	81.88
398.147	79.88
398.371	72.88
398.595	79.88
398.82	84.88
399.044	90.88
399.268	93.88
399.492	90.88
399.717	85.88
399.941	90.88
400.165	67.88
400.389	87.88
400.613	80.88
400.837	76.88
401.062	93.88
401.286	85.88
401.51	86.88
401.734	98.88
401.958	85.88
402.182	72.88
402.406	89.88
402.63	87.88
402.854	82.88
403.078	77.88
403.302	87.88
403.526	81.88
403.75	94.88
403.974	103.88
404.198	81.88
404.422	76.88
404.645	79.88
404.869	79.88
405.093	62.88
405.317	80.88
405.541	82.88
405.765	78.88
405.988	83.88
406.212	91.88
406.436	77.88
406.66	81.88
406.883	86.88
407.107	78.88
407.331	71.88
407.555	81.88
407.778	83.88
408.002	112.88
408.226	99.88
408.449	97.88
408.673	84.88
408.896	80.88
409.12	78.88
409.344	92.88
409.567	84.88
409.791	97.88
410.014	99.88
410.238	90.88
410.461	89.88
410.685	87.88
410.908	71.88
411.132	102.88
411.355	95.88
411.578	79.88
411.802	95.88
412.025	87.88
412.249	88.88
412.472	81.88
412.695	77.88
412.919	87.88
413.142	81.88
413.365	80.88
413.589	94.88
413.812	83.88
414.035	91.88
414.258	96.88
414.482	89.88
414.705	71.88
414.928	93.88
415.151	100.88
415.374	92.88
415.597	84.88
415.821	80.88
416.044	79.88
416.267	76.88
416.49	100.88
416.713	99.88
416.936	88.88
417.159	89.88
417.382	101.88
417.605	83.88
417.828	84.88
418.051	76.88
418.274	85.88
418.497	78.88
418.72	89.88
418.943	80.88
419.166	102.88
419.389	95.88
419.611	88.88
419.834	105.88
420.057	88.88
420.28	99.88
420.503	75.88
420.726	79.88
420.948	88.88
421.171	102.88
421.394	81.88
421.617	105.88
421.839	90.88
422.062	92.88
422.285	93.88
422.507	92.88
422.73	88.88
422.953	74.88
423.175	78.88
423.398	81.88
423.621	80.88
423.843	72.88
424.066	102.88
424.288	84.88
424.511	78.88
424.733	86.88
424.956	87.88
425.178	83.88
425.401	95.88
425.623	79.88
425.846	81.88
426.068	86.88
426.291	92.88
426.513	96.88
426.735	84.88
426.958	84.88
427.18	88.88
427.402	82.88
427.625	91.88
427.847	93.88
428.069	71.88
428.292	82.88
428.514	88.88
428.736	90.88
428.958	82.88
429.181	90.88
429.403	87.88
429.625	92.88
429.847	94.88
430.069	92.88
430.292	105.88
430.514	88.88
430.736	85.88
430.958	99.88
431.18	77.88
431.402	82.88
431.624	85.88
431.846	77.88
432.068	90.88
432.29	92.88
432.512	75.88
432.734	83.88
432.956	86.88
433.178	107.88
433.4	91.88
433.622	97.88
433.844	93.88
434.066	81.88
434.287	80.88
434.509	90.88
434.731	74.88
434.953	88.88
435.175	80.88
435.397	76.88
435.618	93.88
435.84	85.88
436.062	87.88
436.284	72.88
436.505	94.88
436.727	82.88
436.949	95.88
437.17	94.88
437.392	81.88
437.614	88.88
437.835	87.88
438.057	85.88
438.278	85.88
438.5	94.88
438.721	83.88
438.943	90.88
439.165	94.88
439.386	92.88
439.608	68.88
439.829	100.88
440.05	93.88
440.272	98.88
440.493	95.88
440.715	91.88
440.936	77.88
441.158	86.88
441.379	97.88
441.6	95.88
441.822	82.88
442.043	95.88
442.264	78.88
442.486	72.88
442.707	102.88
442.928	86.88
443.149	93.88
443.371	94.88
443.592	82.88
443.813	90.88
444.034	90.88
444.255	88.88
444.476	101.88
444.698	94.88
444.919	99.88
445.14	214.88
445.361	142.88
445.582	93.88
445.803	91.88
446.024	92.88
446.245	91.88
446.466	100.88
446.687	101.88
446.908	96.88
447.129	86.88
447.35	84.88
447.571	81.88
447.792	104.88
448.013	93.88
448.234	105.88
448.455	95.88
448.675	78.88
448.896	89.88
449.117	90.88
449.338	94.88
449.559	98.88
449.779	88.88
450	80.88
450.221	84.88
450.442	82.88
450.662	93.88
450.883	91.88
451.104	82.88
451.324	87.88
451.545	102.88
451.766	81.88
451.986	85.88
452.207	96.88
452.428	82.88
452.648	75.88
452.869	79.88
453.089	102.88
453.31	81.88
453.53	91.88
453.751	67.88
453.971	83.88
454.192	84.88
454.412	71.88
454.633	85.88
454.853	88.88
455.073	83.88
455.294	90.88
455.514	81.88
455.734	91.88
455.955	78.88
456.175	77.88
456.395	86.88
456.616	89.88
456.836	84.88
457.056	80.88
457.276	80.88
457.497	90.88
457.717	81.88
457.937	70.88
458.157	89.88
458.377	81.88
458.598	77.88
458.818	76.88
459.038	90.88
459.258	84.88
459.478	85.88
459.698	83.88
459.918	98.88
460.138	73.88
460.358	85.88
460.578	74.88
460.798	92.88
461.018	104.88
461.238	94.88
461.458	83.88
461.678	86.88
461.898	87.88
462.118	89.88
462.338	88.88
462.558	86.88
462.777	77.88
462.997	84.88
463.217	76.88
463.437	59.88
463.657	84.88
463.876	73.88
464.096	80.88
464.316	87.88
464.536	85.88
464.755	90.88
464.975	70.88
465.195	78.88
465.414	86.88
465.634	77.88
465.854	83.88
466.073	83.88
466.293	89.88
466.512	79.88
466.732	96.88
466.951	94.88
467.171	108.88
467.391	87.88
467.61	80.88
467.829	73.88
468.049	81.88
468.268	89.88
468.488	94.88
468.707	87.88
468.927	93.88
469.146	81.88
469.365	93.88
469.585	96.88
469.804	88.88
470.023	85.88
470.243	71.88
470.462	91.88
470.681	94.88
470.901	105.88
471.12	84.88
471.339	102.88
471.558	81.88
471.777	87.88
471.997	89.88
472.216	72.88
472.435	79.88
472.654	89.88
472.873	96.88
473.092	87.88
473.311	86.88
473.53	94.88
473.749	97.88
473.968	100.88
474.187	86.88
474.406	75.88
474.625	84.88
474.844	93.88
475.063	96.88
475.282	92.88
475.501	93.88
475.72	105.88
475.939	88.88
476.158	95.88
476.377	94.88
476.596	86.88
476.814	88.88
477.033	91.88
477.252	80.88
477.471	87.88
477.69	99.88
477.908	97.88
478.127	90.88
478.346	87.88
478.564	97.88
478.783	93.88
479.002	89.88
479.22	102.88
479.439	86.88
479.658	87.88
479.876	82.88
480.095	94.88
480.313	89.88
480.532	106.88
480.751	92.88
480.969	61.88
481.188	85.88
481.406	94.88
481.624	74.88
481.843	77.88
482.061	84.88
482.28	84.88
482.498	80.88
482.717	80.88
482.935	87.88
483.153	87.88
483.372	96.88
483.59	100.88
483.808	89.88
484.027	79.88
484.245	98.88
484.463	90.88
484.681	106.88
484.9	111.88
485.118	90.88
485.336	102.88
485.554	81.88
485.772	96.88
485.99	85.88
486.209	102.88
486.427	93.88
486.645	93.88
486.863	85.88
487.081	102.88
487.299	98.88
487.517	85.88
487.735	85.88
487.953	97.88
488.171	113.88
488.389	109.88
488.607	111.88
488.825	90.88
489.043	86.88
489.261	86.88
489.479	98.88
489.696	109.88
489.914	85.88
490.132	101.88
490.35	91.88
490.568	102.88
490.786	102.88
491.003	98.88
491.221	109.88
491.439	85.88
491.657	97.88
491.874	120.88
492.092	112.88
492.31	120.88
492.527	124.88
492.745	95.88
492.963	106.88
493.18	107.88
493.398	109.88
493.615	106.88
493.833	103.88
494.05	81.88
494.268	108.88
494.485	106.88
494.703	110.88
494.92	93.88
495.138	95.88
495.355	112.88
495.573	101.88
495.79	100.88
496.008	106.88
496.225	94.88
496.442	98.88
496.66	113.88
496.877	100.88
497.094	105.88
497.312	88.88
497.529	105.88
497.746	101.88
497.963	90.88
498.181	90.88
498.398	80.88
498.615	85.88
498.832	87.88
499.049	76.88
499.267	90.88
499.484	115.88
499.701	91.88
499.918	94.88
500.135	77.88
500.352	90.88
500.569	112.88
500.786	102.88
501.003	95.88
501.22	107.88
501.437	100.88
501.654	87.88
501.871	94.88
502.088	96.88
502.305	91.88
502.522	87.88
502.739	79.88
502.956	82.88
503.172	81.88
503.389	95.88
503.606	80.88
503.823	87.88
504.04	86.88
504.256	87.88
504.473	82.88
504.69	94.88
504.907	83.88
505.123	81.88
505.34	106.88
505.557	111.88
505.773	100.88
505.99	88.88
506.207	100.88
506.423	71.88
506.64	90.88
506.856	97.88
507.073	83.88
507.289	93.88
507.506	93.88
507.722	95.88
507.939	87.88
508.155	92.88
508.372	91.88
508.588	79.88
508.805	83.88
509.021	70.88
509.238	89.88
509.454	75.88
509.67	86.88
509.887	79.88
510.103	94.88
510.319	72.88
510.536	90.88
510.752	98.88
510.968	78.88
511.184	78.88
511.401	65.88
511.617	66.88
511.833	80.88
512.049	96.88
512.265	80.88
512.481	82.88
512.698	73.88
512.914	92.88
513.13	87.88
513.346	84.88
513.562	89.88
513.778	84.88
513.994	74.88
514.21	68.88
514.426	76.88
514.642	75.88
514.858	87.88
515.074	75.88
515.29	81.88
515.506	96.88
515.721	67.88
515.937	75.88
516.153	80.88
516.369	86.88
516.585	86.88
516.801	77.88
517.016	72.88
517.232	70.88
517.448	85.88
517.664	85.88
517.879	84.88
518.095	83.88
518.311	82.88
518.527	84.88
518.742	82.88
518.958	77.88
519.173	85.88
519.389	81.88
519.605	103.88
519.82	81.88
520.036	85.88
520.251	75.88
520.467	82.88
520.682	90.88
520.898	60.88
521.113	72.88
521.329	69.88
521.544	78.88
521.76	87.88
521.975	76.88
522.19	82.88
522.406	70.88
522.621	77.88
522.836	95.88
523.052	92.88
523.267	84.88
523.482	85.88
523.698	85.88
523.913	97.88
524.128	86.88
524.343	76.88
524.559	88.88
524.774	89.88
524.989	92.88
525.204	92.88
525.419	95.88
525.634	100.88
525.849	80.88
526.064	87.88
526.28	96.88
526.495	98.88
526.71	69.88
526.925	71.88
527.14	67.88
527.355	84.88
527.57	86.88
527.785	97.88
527.999	85.88
528.214	84.88
528.429	86.88
528.644	89.88
528.859	96.88
529.074	94.88
529.289	97.88
529.503	98.88
529.718	102.88
529.933	82.88
530.148	79.88
530.363	78.88
530.577	81.88
530.792	80.88
531.007	89.88
531.221	88.88
531.436	79.88
531.651	85.88
531.865	84.88
532.08	78.88
532.295	79.88
532.509	78.88
532.724	88.88
532.938	99.88
533.153	77.88
533.367	88.88
533.582	98.88
533.796	90.88
534.011	98.88
534.225	90.88
534.44	75.88
534.654	77.88
534.868	69.88
535.083	81.88
535.297	78.88
535.511	80.88
535.726	84.88
535.94	71.88
536.154	84.88
536.369	86.88
536.583	85.88
536.797	89.88
537.011	79.88
537.225	82.88
537.44	84.88
537.654	73.88
537.868	89.88
538.082	86.88
538.296	78.88
538.51	92.88
538.724	80.88
538.938	79.88
539.153	105.88
539.367	98.88
539.581	92.88
539.795	90.88
540.009	93.88
540.222	93.88
540.436	90.88
540.65	81.88
540.864	86.88
541.078	87.88
541.292	105.88
541.506	111.88
541.72	110.88
541.934	112.88
542.147	117.88
542.361	94.88
542.575	95.88
542.789	93.88
543.002	81.88
543.216	102.88
543.43	91.88
543.644	84.88
543.857	87.88
544.071	97.88
544.285	110.88
544.498	101.88
544.712	90.88
544.925	101.88
545.139	112.88
545.352	91.88
545.566	110.88
545.779	106.88
545.993	99.88
546.206	99.88
546.42	109.88
546.633	97.88
546.847	90.88
547.06	98.88
547.274	93.88
547.487	113.88
547.7	100.88
547.914	100.88
548.127	95.88
548.34	102.88
548.554	102.88
548.767	97.88
548.98	97.88
549.193	81.88
549.407	100.88
549.62	94.88
549.833	91.88
550.046	93.88
550.259	80.88
550.473	106.88
550.686	93.88
550.899	97.88
551.112	87.88
551.325	94.88
551.538	100.88
551.751	87.88
551.964	86.88
552.177	90.88
552.39	97.88
552.603	113.88
552.816	94.88
553.029	97.88
553.242	85.88
553.455	89.88
553.667	113.88
553.88	88.88
554.093	102.88
554.306	104.88
554.519	105.88
554.732	108.88
554.944	105.88
555.157	100.88
555.37	115.88
555.583	89.88
555.795	91.88
556.008	92.88
556.221	91.88
556.433	93.88
556.646	94.88
556.859	101.88
557.071	85.88
557.284	79.88
557.496	100.88
557.709	99.88
557.921	92.88
558.134	93.88
558.346	91.88
558.559	101.88
558.771	94.88
558.984	96.88
559.196	95.88
559.409	81.88
559.621	92.88
559.833	76.88
560.046	92.88
560.258	95.88
560.47	98.88
560.683	94.88
560.895	100.88
561.107	94.88
561.32	103.88
561.532	89.88
561.744	94.88
561.956	88.88
562.168	97.88
562.381	95.88
562.593	87.88
562.805	87.88
563.017	80.88
563.229	92.88
563.441	84.88
563.653	82.88
563.865	92.88
564.077	79.88
564.289	82.88
564.501	81.88
564.713	91.88
564.925	90.88
565.137	92.88
565.349	91.88
565.561	96.88
565.773	94.88
565.985	86.88
566.197	87.88
566.408	89.88
566.62	88.88
566.832	110.88
567.044	79.88
567.255	94.88
567.467	85.88
567.679	84.88
567.891	78.88
568.102	70.88
568.314	80.88
568.526	91.88
568.737	102.88
568.949	71.88
569.161	67.88
569.372	66.88
569.584	89.88
569.795	90.88
570.007	91.88
570.218	79.88
570.43	85.88
570.641	84.88
570.853	74.88
571.064	91.88
571.276	90.88
571.487	80.88
571.698	74.88
571.91	102.88
572.121	89.88
572.333	93.88
572.544	92.88
572.755	93.88
572.966	75.88
573.178	99.88
573.389	81.88
573.6	91.88
573.811	90.88
574.023	84.88
574.234	77.88
574.445	89.88
574.656	85.88
574.867	80.88
575.078	83.88
575.289	83.88
575.501	75.88
575.712	85.88
575.923	78.88
576.134	69.88
576.345	88.88
576.556	71.88
576.767	86.88
576.978	93.88
577.188	99.88
577.399	79.88
577.61	84.88
577.821	81.88
578.032	87.88
578.243	77.88
578.454	96.88
578.665	92.88
578.875	66.88
579.086	74.88
579.297	77.88
579.508	96.88
579.718	85.88
579.929	85.88
580.14	86.88
580.35	83.88
580.561	88.88
580.772	73.88
580.982	85.88
581.193	86.88
581.403	84.88
581.614	85.88
581.825	80.88
582.035	82.88
582.246	79.88
582.456	79.88
582.667	85.88
582.877	76.88
583.087	78.88
583.298	72.88
583.508	79.88
583.719	89.88
583.929	98.88
584.139	86.88
584.35	73.88
584.56	73.88
584.77	79.88
584.981	66.88
585.191	82.88
585.401	92.88
585.611	97.88
585.821	73.88
586.032	86.88
586.242	74.88
586.452	78.88
586.662	89.88
586.872	66.88
587.082	77.88
587.292	86.88
587.502	76.88
587.713	70.88
587.923	80.88
588.133	70.88
588.343	79.88
588.553	84.88
588.762	85.88
588.972	91.88
589.182	82.88
589.392	70.88
589.602	65.88
589.812	80.88
590.022	98.88
590.232	81.88
590.441	82.88
590.651	74.88
590.861	76.88
591.071	79.88
591.281	87.88
591.49	77.88
591.7	84.88
591.91	91.88
592.119	81.88
592.329	100.88
592.539	82.88
592.748	81.88
592.958	85.88
593.167	83.88
593.377	65.88
593.587	95.88
593.796	68.88
594.006	70.88
594.215	74.88
594.424	68.88
594.634	80.88
594.843	83.88
595.053	78.88
595.262	82.88
595.472	69.88
595.681	81.88
595.89	83.88
596.1	99.88
596.309	94.88
596.518	82.88
596.727	82.88
596.937	67.88
597.146	86.88
597.355	82.88
597.564	79.88
597.774	89.88
597.983	87.88
598.192	61.88
598.401	81.88
598.61	83.88
598.819	79.88
599.028	81.88
599.237	98.88
599.446	80.88
599.655	88.88
599.864	90.88
600.073	84.88
600.282	77.88
600.491	78.88
600.7	73.88
600.909	72.88
601.118	77.88
601.327	88.88
601.536	93.88
601.745	87.88
601.953	101.88
602.162	79.88
602.371	87.88
602.58	76.88
602.789	86.88
602.997	86.88
603.206	87.88
603.415	92.88
603.623	69.88
603.832	86.88
604.041	87.88
604.249	85.88
604.458	86.88
604.666	87.88
604.875	86.88
605.084	97.88
605.292	93.88
605.501	78.88
605.709	82.88
605.918	84.88
606.126	93.88
606.334	89.88
606.543	84.88
606.751	93.88
606.96	86.88
607.168	101.88
607.376	93.88
607.585	77.88
607.793	77.88
608.001	74.88
608.21	80.88
608.418	86.88
608.626	90.88
608.834	83.88
609.043	91.88
609.251	87.88
609.459	92.88
609.667	84.88
609.875	86.88
610.083	92.88
610.291	97.88
610.499	87.88
610.707	92.88
610.916	88.88
611.124	89.88
611.332	86.88
611.54	81.88
611.748	90.88
611.955	94.88
612.163	93.88
612.371	83.88
612.579	82.88
612.787	85.88
612.995	83.88
613.203	86.88
613.411	84.88
613.618	82.88
613.826	77.88
614.034	87.88
614.242	89.88
614.449	96.88
614.657	80.88
614.865	90.88
615.072	110.88
615.28	87.88
615.488	87.88
615.695	91.88
615.903	86.88
616.111	98.88
616.318	91.88
616.526	98.88
616.733	102.88
616.941	92.88
617.148	86.88
617.356	90.88
617.563	81.88
617.771	93.88
617.978	80.88
618.185	96.88
618.393	79.88
618.6	94.88
618.807	86.88
619.015	96.88
619.222	93.88
619.429	89.88
619.637	89.88
619.844	81.88
620.051	82.88
620.258	78.88
620.466	88.88
620.673	80.88
620.88	89.88
621.087	96.88
621.294	83.88
621.501	94.88
621.708	86.88
621.915	78.88
622.122	83.88
622.329	78.88
622.536	93.88
622.743	82.88
622.95	73.88
623.157	106.88
623.364	89.88
623.571	81.88
623.778	84.88
623.985	94.88
624.192	98.88
624.399	84.88
624.606	92.88
624.812	77.88
625.019	81.88
625.226	82.88
625.433	90.88
625.639	85.88
625.846	82.88
626.053	85.88
626.259	89.88
626.466	65.88
626.673	99.88
626.879	74.88
627.086	92.88
627.293	87.88
627.499	94.88
627.706	97.88
627.912	87.88
628.119	91.88
628.325	86.88
628.532	78.88
628.738	71.88
628.945	83.88
629.151	99.88
629.357	80.88
629.564	73.88
629.77	83.88
629.976	82.88
630.183	74.88
630.389	76.88
630.595	77.88
630.802	72.88
631.008	85.88
631.214	83.88
631.42	51.88
631.627	87.88
631.833	88.88
632.039	86.88
632.245	83.88
632.451	77.88
632.657	86.88
632.863	90.88
633.069	81.88
633.275	98.88
633.481	96.88
633.688	86.88
633.893	72.88
634.099	66.88
634.305	70.88
634.511	89.88
634.717	82.88
634.923	87.88
635.129	74.88
635.335	82.88
635.541	87.88
635.747	95.88
635.952	83.88
636.158	91.88
636.364	82.88
636.57	109.88
636.775	94.88
636.981	87.88
637.187	75.88
637.392	92.88
637.598	83.88
637.804	90.88
638.009	88.88
638.215	79.88
638.421	91.88
638.626	83.88
638.832	83.88
639.037	81.88
639.243	92.88
639.448	74.88
639.654	82.88
639.859	85.88
640.065	78.88
640.27	94.88
640.475	80.88
640.681	78.88
640.886	84.88
641.091	76.88
641.297	99.88
641.502	74.88
641.707	85.88
641.913	81.88
642.118	74.88
642.323	86.88
642.528	83.88
642.733	71.88
642.939	86.88
643.144	79.88
643.349	81.88
643.554	87.88
643.759	85.88
643.964	77.88
644.169	78.88
644.374	93.88
644.579	72.88
644.784	106.88
644.989	83.88
645.194	90.88
645.399	80.88
645.604	81.88
645.809	78.88
646.014	72.88
646.219	82.88
646.423	83.88
646.628	77.88
646.833	90.88
647.038	83.88
647.243	85.88
647.447	80.88
647.652	74.88
647.857	72.88
648.062	82.88
648.266	92.88
648.471	70.88
648.676	70.88
648.88	89.88
649.085	82.88
649.289	79.88
649.494	77.88
649.698	70.88
649.903	79.88
650.107	69.88
650.312	84.88
650.516	75.88
650.721	81.88
650.925	83.88
651.13	72.88
651.334	92.88
651.539	91.88
651.743	83.88
651.947	91.88
652.152	86.88
652.356	95.88
652.56	93.88
652.764	85.88
652.969	82.88
653.173	84.88
653.377	72.88
653.581	81.88
653.785	79.88
653.99	83.88
654.194	76.88
654.398	86.88
654.602	78.88
654.806	85.88
655.01	79.88
655.214	81.88
655.418	78.88
655.622	93.88
655.826	69.88
656.03	90.88
656.234	77.88
656.438	85.88
656.642	84.88
656.846	82.88
657.049	80.88
657.253	86.88
657.457	75.88
657.661	76.88
657.865	85.88
658.068	87.88
658.272	69.88
658.476	102.88
658.68	82.88
658.883	80.88
659.087	71.88
659.291	63.88
659.494	79.88
659.698	84.88
659.901	74.88
660.105	75.88
660.309	81.88
660.512	86.88
660.716	87.88
660.919	79.88
661.123	73.88
661.326	67.88
661.53	78.88
661.733	75.88
661.936	78.88
662.14	80.88
662.343	68.88
662.546	81.88
662.75	84.88
662.953	68.88
663.156	73.88
663.36	86.88
663.563	80.88
663.766	78.88
663.969	82.88
664.173	87.88
664.376	71.88
664.579	80.88
664.782	79.88
664.985	63.88
665.188	78.88
665.391	81.88
665.594	90.88
665.797	83.88
666	79.88
666.203	67.88
666.406	83.88
666.609	94.88
666.812	63.88
667.015	80.88
667.218	80.88
667.421	87.88
667.624	76.88
667.827	69.88
668.03	78.88
668.232	90.88
668.435	86.88
668.638	80.88
668.841	78.88
669.043	91.88
669.246	81.88
669.449	75.88
669.651	93.88
669.854	75.88
670.057	91.88
670.259	77.88
670.462	84.88
670.665	87.88
670.867	71.88
671.07	81.88
671.272	76.88
671.475	79.88
671.677	78.88
671.88	71.88
672.082	80.88
672.284	81.88
672.487	85.88
672.689	65.88
672.892	90.88
