Data from Location5.07152019.Energy5.Lamp.07192019.3%Agarose_HRD10591_15-37-57-387.txt Node
Date: Fri Jul 19 15:37:57 EDT 2019
User: cochatt
Spectrometer: HR+D1059
Trigger mode: 1
Integration Time (sec): 1.000000E-1
Scans to average: 1
Electric dark correction enabled: true
Nonlinearity correction enabled: false
Boxcar width: 0
XAxis mode: Wavelengths
Number of Pixels in Spectrum: 2048
>>>>>Begin Spectral Data<<<<<
223.165	-20.88
223.4	-20.88
223.635	-20.88
223.869	-3.88
224.104	-26.88
224.338	-15.88
224.573	-14.88
224.808	-13.88
225.042	-11.88
225.277	0.12
225.511	-4.88
225.746	8.12
225.98	14.12
226.215	4.12
226.449	8.12
226.683	19.12
226.918	23.12
227.152	36.12
227.387	47.12
227.621	32.12
227.856	36.12
228.09	32.12
228.324	62.12
228.559	51.12
228.793	44.12
229.027	39.12
229.262	63.12
229.496	58.12
229.73	64.12
229.964	68.12
230.199	71.12
230.433	77.12
230.667	90.12
230.901	78.12
231.136	73.12
231.37	75.12
231.604	74.12
231.838	72.12
232.072	79.12
232.306	86.12
232.541	84.12
232.775	81.12
233.009	77.12
233.243	73.12
233.477	69.12
233.711	77.12
233.945	84.12
234.179	73.12
234.413	84.12
234.647	81.12
234.881	58.12
235.115	75.12
235.349	64.12
235.583	80.12
235.817	100.12
236.051	63.12
236.285	61.12
236.519	73.12
236.753	86.12
236.987	68.12
237.221	77.12
237.455	79.12
237.689	73.12
237.922	85.12
238.156	74.12
238.39	80.12
238.624	77.12
238.858	76.12
239.091	79.12
239.325	78.12
239.559	64.12
239.793	88.12
240.027	77.12
240.26	72.12
240.494	75.12
240.728	69.12
240.961	74.12
241.195	72.12
241.429	79.12
241.662	63.12
241.896	79.12
242.13	79.12
242.363	58.12
242.597	63.12
242.83	64.12
243.064	79.12
243.298	69.12
243.531	73.12
243.765	79.12
243.998	79.12
244.232	78.12
244.465	73.12
244.699	72.12
244.932	91.12
245.166	79.12
245.399	90.12
245.633	72.12
245.866	72.12
246.099	71.12
246.333	86.12
246.566	80.12
246.8	63.12
247.033	78.12
247.266	64.12
247.5	76.12
247.733	73.12
247.966	74.12
248.2	81.12
248.433	87.12
248.666	71.12
248.899	68.12
249.133	68.12
249.366	67.12
249.599	68.12
249.832	71.12
250.066	73.12
250.299	80.12
250.532	79.12
250.765	87.12
250.998	64.12
251.231	84.12
251.465	82.12
251.698	67.12
251.931	80.12
252.164	70.12
252.397	70.12
252.63	85.12
252.863	77.12
253.096	74.12
253.329	78.12
253.562	81.12
253.795	67.12
254.028	83.12
254.261	73.12
254.494	86.12
254.727	87.12
254.96	73.12
255.193	83.12
255.426	89.12
255.659	84.12
255.892	70.12
256.124	79.12
256.357	76.12
256.59	78.12
256.823	70.12
257.056	69.12
257.289	83.12
257.521	84.12
257.754	76.12
257.987	79.12
258.22	74.12
258.452	73.12
258.685	87.12
258.918	63.12
259.151	84.12
259.383	81.12
259.616	76.12
259.849	83.12
260.081	78.12
260.314	67.12
260.547	83.12
260.779	84.12
261.012	88.12
261.244	72.12
261.477	86.12
261.71	74.12
261.942	83.12
262.175	73.12
262.407	74.12
262.64	82.12
262.872	92.12
263.105	75.12
263.337	86.12
263.57	88.12
263.802	74.12
264.035	76.12
264.267	86.12
264.499	77.12
264.732	84.12
264.964	80.12
265.197	74.12
265.429	99.12
265.661	79.12
265.894	61.12
266.126	81.12
266.358	82.12
266.591	75.12
266.823	83.12
267.055	90.12
267.287	82.12
267.52	81.12
267.752	87.12
267.984	81.12
268.216	71.12
268.448	64.12
268.681	81.12
268.913	71.12
269.145	90.12
269.377	94.12
269.609	70.12
269.841	71.12
270.073	79.12
270.306	99.12
270.538	89.12
270.77	87.12
271.002	61.12
271.234	84.12
271.466	80.12
271.698	97.12
271.93	80.12
272.162	84.12
272.394	87.12
272.626	86.12
272.858	84.12
273.09	70.12
273.322	75.12
273.553	74.12
273.785	82.12
274.017	93.12
274.249	84.12
274.481	66.12
274.713	99.12
274.945	82.12
275.176	56.12
275.408	84.12
275.64	79.12
275.872	86.12
276.104	83.12
276.335	77.12
276.567	73.12
276.799	61.12
277.031	77.12
277.262	87.12
277.494	70.12
277.726	80.12
277.957	66.12
278.189	71.12
278.421	83.12
278.652	74.12
278.884	70.12
279.115	80.12
279.347	82.12
279.579	84.12
279.81	70.12
280.042	80.12
280.273	87.12
280.505	76.12
280.736	85.12
280.968	94.12
281.199	79.12
281.431	82.12
281.662	79.12
281.894	95.12
282.125	84.12
282.356	88.12
282.588	64.12
282.819	86.12
283.051	76.12
283.282	86.12
283.513	80.12
283.745	85.12
283.976	82.12
284.207	81.12
284.439	73.12
284.67	81.12
284.901	79.12
285.132	67.12
285.364	91.12
285.595	73.12
285.826	88.12
286.057	78.12
286.288	87.12
286.52	82.12
286.751	91.12
286.982	80.12
287.213	73.12
287.444	80.12
287.675	107.12
287.906	84.12
288.138	91.12
288.369	83.12
288.6	83.12
288.831	90.12
289.062	86.12
289.293	88.12
289.524	70.12
289.755	83.12
289.986	79.12
290.217	91.12
290.448	77.12
290.679	85.12
290.91	96.12
291.141	72.12
291.371	72.12
291.602	80.12
291.833	88.12
292.064	88.12
292.295	94.12
292.526	81.12
292.757	89.12
292.987	88.12
293.218	71.12
293.449	78.12
293.68	77.12
293.91	72.12
294.141	78.12
294.372	85.12
294.603	82.12
294.833	70.12
295.064	77.12
295.295	82.12
295.525	64.12
295.756	66.12
295.987	95.12
296.217	63.12
296.448	81.12
296.679	84.12
296.909	82.12
297.14	82.12
297.37	79.12
297.601	83.12
297.831	78.12
298.062	89.12
298.292	75.12
298.523	77.12
298.753	82.12
298.984	71.12
299.214	87.12
299.445	68.12
299.675	88.12
299.905	77.12
300.136	76.12
300.366	87.12
300.597	68.12
300.827	75.12
301.057	67.12
301.288	81.12
301.518	73.12
301.748	79.12
301.979	96.12
302.209	82.12
302.439	82.12
302.669	73.12
302.9	88.12
303.13	87.12
303.36	82.12
303.59	74.12
303.82	81.12
304.051	80.12
304.281	66.12
304.511	78.12
304.741	80.12
304.971	69.12
305.201	83.12
305.431	89.12
305.661	78.12
305.891	96.12
306.121	87.12
306.352	83.12
306.582	88.12
306.812	72.12
307.042	74.12
307.272	84.12
307.502	71.12
307.731	80.12
307.961	79.12
308.191	69.12
308.421	80.12
308.651	80.12
308.881	101.12
309.111	101.12
309.341	73.12
309.571	76.12
309.8	81.12
310.03	89.12
310.26	84.12
310.49	83.12
310.72	85.12
310.949	87.12
311.179	76.12
311.409	75.12
311.639	74.12
311.868	83.12
312.098	69.12
312.328	85.12
312.557	89.12
312.787	68.12
313.017	85.12
313.246	79.12
313.476	77.12
313.706	81.12
313.935	85.12
314.165	85.12
314.394	82.12
314.624	71.12
314.853	78.12
315.083	91.12
315.312	85.12
315.542	81.12
315.771	84.12
316.001	71.12
316.23	78.12
316.46	74.12
316.689	77.12
316.919	93.12
317.148	75.12
317.377	79.12
317.607	95.12
317.836	72.12
318.065	73.12
318.295	88.12
318.524	83.12
318.753	74.12
318.983	94.12
319.212	95.12
319.441	87.12
319.67	86.12
319.9	73.12
320.129	86.12
320.358	87.12
320.587	68.12
320.816	63.12
321.046	72.12
321.275	67.12
321.504	72.12
321.733	82.12
321.962	70.12
322.191	67.12
322.42	77.12
322.649	79.12
322.878	73.12
323.108	84.12
323.337	77.12
323.566	78.12
323.795	72.12
324.024	72.12
324.253	80.12
324.482	84.12
324.71	89.12
324.939	86.12
325.168	72.12
325.397	72.12
325.626	74.12
325.855	87.12
326.084	89.12
326.313	80.12
326.542	89.12
326.77	71.12
326.999	79.12
327.228	84.12
327.457	69.12
327.686	81.12
327.914	79.12
328.143	94.12
328.372	66.12
328.6	77.12
328.829	69.12
329.058	85.12
329.287	76.12
329.515	81.12
329.744	78.12
329.972	89.12
330.201	80.12
330.43	80.12
330.658	73.12
330.887	78.12
331.115	69.12
331.344	88.12
331.572	89.12
331.801	80.12
332.03	83.12
332.258	94.12
332.486	88.12
332.715	89.12
332.943	85.12
333.172	78.12
333.4	91.12
333.629	82.12
333.857	73.12
334.085	75.12
334.314	88.12
334.542	85.12
334.771	65.12
334.999	76.12
335.227	98.12
335.455	79.12
335.684	82.12
335.912	87.12
336.14	83.12
336.369	98.12
336.597	77.12
336.825	86.12
337.053	76.12
337.281	87.12
337.51	88.12
337.738	83.12
337.966	73.12
338.194	85.12
338.422	85.12
338.65	91.12
338.878	91.12
339.106	83.12
339.334	81.12
339.562	78.12
339.79	92.12
340.018	94.12
340.246	85.12
340.474	78.12
340.702	83.12
340.93	74.12
341.158	93.12
341.386	91.12
341.614	72.12
341.842	69.12
342.07	82.12
342.298	82.12
342.526	91.12
342.754	69.12
342.981	86.12
343.209	83.12
343.437	71.12
343.665	73.12
343.893	81.12
344.12	81.12
344.348	73.12
344.576	101.12
344.804	88.12
345.031	69.12
345.259	91.12
345.487	74.12
345.714	81.12
345.942	75.12
346.17	69.12
346.397	73.12
346.625	86.12
346.853	79.12
347.08	78.12
347.308	80.12
347.535	74.12
347.763	90.12
347.99	92.12
348.218	78.12
348.445	78.12
348.673	83.12
348.9	86.12
349.128	82.12
349.355	67.12
349.583	61.12
349.81	83.12
350.037	70.12
350.265	82.12
350.492	68.12
350.72	72.12
350.947	90.12
351.174	86.12
351.402	73.12
351.629	86.12
351.856	70.12
352.083	78.12
352.311	73.12
352.538	83.12
352.765	75.12
352.992	70.12
353.22	78.12
353.447	77.12
353.674	85.12
353.901	92.12
354.128	73.12
354.355	96.12
354.583	88.12
354.81	84.12
355.037	87.12
355.264	82.12
355.491	79.12
355.718	88.12
355.945	72.12
356.172	86.12
356.399	82.12
356.626	71.12
356.853	87.12
357.08	82.12
357.307	80.12
357.534	82.12
357.761	61.12
357.988	90.12
358.215	92.12
358.441	73.12
358.668	102.12
358.895	80.12
359.122	71.12
359.349	79.12
359.576	71.12
359.802	70.12
360.029	84.12
360.256	95.12
360.483	69.12
360.709	85.12
360.936	83.12
361.163	78.12
361.39	83.12
361.616	79.12
361.843	81.12
362.07	80.12
362.296	73.12
362.523	78.12
362.749	76.12
362.976	93.12
363.203	88.12
363.429	94.12
363.656	86.12
363.882	85.12
364.109	87.12
364.335	84.12
364.562	67.12
364.788	84.12
365.015	87.12
365.241	96.12
365.468	76.12
365.694	68.12
365.92	74.12
366.147	82.12
366.373	79.12
366.599	85.12
366.826	75.12
367.052	99.12
367.278	83.12
367.505	73.12
367.731	94.12
367.957	65.12
368.184	70.12
368.41	77.12
368.636	79.12
368.862	83.12
369.089	93.12
369.315	88.12
369.541	87.12
369.767	84.12
369.993	87.12
370.219	80.12
370.445	69.12
370.672	67.12
370.898	84.12
371.124	80.12
371.35	80.12
371.576	73.12
371.802	70.12
372.028	78.12
372.254	80.12
372.48	92.12
372.706	89.12
372.932	74.12
373.158	92.12
373.384	80.12
373.61	76.12
373.835	102.12
374.061	79.12
374.287	74.12
374.513	72.12
374.739	82.12
374.965	72.12
375.191	87.12
375.416	83.12
375.642	74.12
375.868	88.12
376.094	82.12
376.319	89.12
376.545	79.12
376.771	74.12
376.997	88.12
377.222	82.12
377.448	85.12
377.674	90.12
377.899	77.12
378.125	63.12
378.35	84.12
378.576	82.12
378.802	79.12
379.027	82.12
379.253	87.12
379.478	79.12
379.704	88.12
379.929	92.12
380.155	82.12
380.38	94.12
380.606	100.12
380.831	92.12
381.057	81.12
381.282	90.12
381.507	79.12
381.733	84.12
381.958	93.12
382.184	70.12
382.409	67.12
382.634	83.12
382.86	77.12
383.085	70.12
383.31	103.12
383.535	88.12
383.761	94.12
383.986	69.12
384.211	75.12
384.436	87.12
384.662	70.12
384.887	76.12
385.112	73.12
385.337	83.12
385.562	69.12
385.787	91.12
386.013	84.12
386.238	83.12
386.463	86.12
386.688	63.12
386.913	79.12
387.138	71.12
387.363	76.12
387.588	89.12
387.813	78.12
388.038	94.12
388.263	81.12
388.488	89.12
388.713	84.12
388.938	97.12
389.163	90.12
389.387	69.12
389.612	77.12
389.837	77.12
390.062	82.12
390.287	83.12
390.512	84.12
390.736	88.12
390.961	82.12
391.186	86.12
391.411	88.12
391.636	72.12
391.86	81.12
392.085	85.12
392.31	84.12
392.534	80.12
392.759	80.12
392.984	82.12
393.208	86.12
393.433	79.12
393.658	86.12
393.882	90.12
394.107	86.12
394.331	88.12
394.556	79.12
394.78	89.12
395.005	81.12
395.229	93.12
395.454	85.12
395.678	75.12
395.903	79.12
396.127	86.12
396.352	89.12
396.576	86.12
396.801	78.12
397.025	84.12
397.249	89.12
397.474	88.12
397.698	79.12
397.922	98.12
398.147	72.12
398.371	85.12
398.595	94.12
398.82	84.12
399.044	83.12
399.268	93.12
399.492	83.12
399.717	86.12
399.941	74.12
400.165	82.12
400.389	82.12
400.613	89.12
400.837	74.12
401.062	87.12
401.286	85.12
401.51	94.12
401.734	82.12
401.958	86.12
402.182	88.12
402.406	87.12
402.63	93.12
402.854	83.12
403.078	92.12
403.302	78.12
403.526	82.12
403.75	102.12
403.974	83.12
404.198	79.12
404.422	84.12
404.645	79.12
404.869	81.12
405.093	65.12
405.317	95.12
405.541	81.12
405.765	72.12
405.988	74.12
406.212	87.12
406.436	91.12
406.66	83.12
406.883	89.12
407.107	91.12
407.331	70.12
407.555	85.12
407.778	78.12
408.002	88.12
408.226	81.12
408.449	77.12
408.673	84.12
408.896	92.12
409.12	107.12
409.344	75.12
409.567	85.12
409.791	87.12
410.014	101.12
410.238	80.12
410.461	81.12
410.685	99.12
410.908	87.12
411.132	79.12
411.355	80.12
411.578	89.12
411.802	85.12
412.025	84.12
412.249	87.12
412.472	92.12
412.695	75.12
412.919	83.12
413.142	87.12
413.365	96.12
413.589	89.12
413.812	96.12
414.035	100.12
414.258	82.12
414.482	79.12
414.705	72.12
414.928	88.12
415.151	84.12
415.374	76.12
415.597	82.12
415.821	97.12
416.044	83.12
416.267	86.12
416.49	92.12
416.713	88.12
416.936	90.12
417.159	102.12
417.382	91.12
417.605	94.12
417.828	84.12
418.051	103.12
418.274	99.12
418.497	78.12
418.72	89.12
418.943	91.12
419.166	92.12
419.389	88.12
419.611	80.12
419.834	102.12
420.057	71.12
420.28	88.12
420.503	87.12
420.726	83.12
420.948	86.12
421.171	86.12
421.394	87.12
421.617	95.12
421.839	93.12
422.062	83.12
422.285	72.12
422.507	104.12
422.73	92.12
422.953	94.12
423.175	89.12
423.398	81.12
423.621	109.12
423.843	89.12
424.066	86.12
424.288	84.12
424.511	95.12
424.733	94.12
424.956	114.12
425.178	95.12
425.401	88.12
425.623	89.12
425.846	92.12
426.068	92.12
426.291	75.12
426.513	89.12
426.735	93.12
426.958	98.12
427.18	91.12
427.402	102.12
427.625	89.12
427.847	88.12
428.069	83.12
428.292	97.12
428.514	85.12
428.736	80.12
428.958	97.12
429.181	96.12
429.403	91.12
429.625	98.12
429.847	89.12
430.069	92.12
430.292	96.12
430.514	107.12
430.736	84.12
430.958	94.12
431.18	91.12
431.402	80.12
431.624	83.12
431.846	88.12
432.068	87.12
432.29	76.12
432.512	77.12
432.734	84.12
432.956	86.12
433.178	100.12
433.4	95.12
433.622	98.12
433.844	98.12
434.066	88.12
434.287	79.12
434.509	83.12
434.731	71.12
434.953	92.12
435.175	74.12
435.397	86.12
435.618	97.12
435.84	89.12
436.062	94.12
436.284	92.12
436.505	88.12
436.727	87.12
436.949	94.12
437.17	79.12
437.392	87.12
437.614	96.12
437.835	81.12
438.057	77.12
438.278	91.12
438.5	66.12
438.721	93.12
438.943	94.12
439.165	86.12
439.386	88.12
439.608	92.12
439.829	87.12
440.05	91.12
440.272	97.12
440.493	80.12
440.715	74.12
440.936	91.12
441.158	93.12
441.379	99.12
441.6	85.12
441.822	76.12
442.043	92.12
442.264	96.12
442.486	112.12
442.707	92.12
442.928	75.12
443.149	86.12
443.371	89.12
443.592	99.12
443.813	89.12
444.034	91.12
444.255	111.12
444.476	73.12
444.698	95.12
444.919	103.12
445.14	193.12
445.361	120.12
445.582	79.12
445.803	83.12
446.024	97.12
446.245	99.12
446.466	94.12
446.687	84.12
446.908	102.12
447.129	94.12
447.35	93.12
447.571	91.12
447.792	92.12
448.013	98.12
448.234	85.12
448.455	88.12
448.675	99.12
448.896	107.12
449.117	98.12
449.338	80.12
449.559	99.12
449.779	82.12
450	96.12
450.221	79.12
450.442	71.12
450.662	86.12
450.883	89.12
451.104	94.12
451.324	95.12
451.545	96.12
451.766	95.12
451.986	87.12
452.207	94.12
452.428	94.12
452.648	103.12
452.869	102.12
453.089	87.12
453.31	93.12
453.53	81.12
453.751	88.12
453.971	72.12
454.192	95.12
454.412	82.12
454.633	77.12
454.853	88.12
455.073	70.12
455.294	96.12
455.514	88.12
455.734	84.12
455.955	97.12
456.175	86.12
456.395	95.12
456.616	86.12
456.836	96.12
457.056	93.12
457.276	86.12
457.497	83.12
457.717	98.12
457.937	98.12
458.157	79.12
458.377	79.12
458.598	79.12
458.818	85.12
459.038	86.12
459.258	75.12
459.478	89.12
459.698	91.12
459.918	81.12
460.138	86.12
460.358	84.12
460.578	88.12
460.798	72.12
461.018	90.12
461.238	83.12
461.458	78.12
461.678	87.12
461.898	82.12
462.118	87.12
462.338	83.12
462.558	89.12
462.777	92.12
462.997	92.12
463.217	84.12
463.437	73.12
463.657	84.12
463.876	67.12
464.096	81.12
464.316	78.12
464.536	70.12
464.755	87.12
464.975	98.12
465.195	88.12
465.414	105.12
465.634	76.12
465.854	87.12
466.073	85.12
466.293	86.12
466.512	89.12
466.732	97.12
466.951	97.12
467.171	85.12
467.391	100.12
467.61	96.12
467.829	93.12
468.049	98.12
468.268	93.12
468.488	93.12
468.707	103.12
468.927	79.12
469.146	84.12
469.365	100.12
469.585	104.12
469.804	94.12
470.023	92.12
470.243	100.12
470.462	84.12
470.681	101.12
470.901	100.12
471.12	115.12
471.339	98.12
471.558	85.12
471.777	102.12
471.997	95.12
472.216	93.12
472.435	91.12
472.654	86.12
472.873	86.12
473.092	86.12
473.311	82.12
473.53	88.12
473.749	93.12
473.968	85.12
474.187	88.12
474.406	74.12
474.625	93.12
474.844	87.12
475.063	93.12
475.282	111.12
475.501	80.12
475.72	90.12
475.939	93.12
476.158	91.12
476.377	88.12
476.596	85.12
476.814	100.12
477.033	87.12
477.252	91.12
477.471	82.12
477.69	92.12
477.908	88.12
478.127	98.12
478.346	83.12
478.564	72.12
478.783	95.12
479.002	87.12
479.22	96.12
479.439	106.12
479.658	101.12
479.876	88.12
480.095	84.12
480.313	63.12
480.532	80.12
480.751	67.12
480.969	87.12
481.188	77.12
481.406	88.12
481.624	79.12
481.843	83.12
482.061	91.12
482.28	91.12
482.498	80.12
482.717	88.12
482.935	99.12
483.153	98.12
483.372	95.12
483.59	101.12
483.808	98.12
484.027	87.12
484.245	98.12
484.463	89.12
484.681	97.12
484.9	85.12
485.118	99.12
485.336	86.12
485.554	87.12
485.772	93.12
485.99	78.12
486.209	96.12
486.427	84.12
486.645	85.12
486.863	84.12
487.081	99.12
487.299	96.12
487.517	95.12
487.735	102.12
487.953	110.12
488.171	107.12
488.389	111.12
488.607	107.12
488.825	96.12
489.043	95.12
489.261	101.12
489.479	94.12
489.696	93.12
489.914	92.12
490.132	113.12
490.35	98.12
490.568	99.12
490.786	102.12
491.003	108.12
491.221	99.12
491.439	102.12
491.657	103.12
491.874	116.12
492.092	101.12
492.31	123.12
492.527	119.12
492.745	106.12
492.963	99.12
493.18	97.12
493.398	105.12
493.615	100.12
493.833	100.12
494.05	103.12
494.268	114.12
494.485	111.12
494.703	96.12
494.92	107.12
495.138	102.12
495.355	99.12
495.573	94.12
495.79	98.12
496.008	100.12
496.225	101.12
496.442	91.12
496.66	101.12
496.877	113.12
497.094	93.12
497.312	100.12
497.529	103.12
497.746	96.12
497.963	87.12
498.181	81.12
498.398	82.12
498.615	83.12
498.832	93.12
499.049	79.12
499.267	97.12
499.484	90.12
499.701	90.12
499.918	104.12
500.135	90.12
500.352	86.12
500.569	95.12
500.786	113.12
501.003	88.12
501.22	91.12
501.437	99.12
501.654	96.12
501.871	93.12
502.088	91.12
502.305	87.12
502.522	83.12
502.739	86.12
502.956	95.12
503.172	76.12
503.389	88.12
503.606	84.12
503.823	80.12
504.04	81.12
504.256	80.12
504.473	92.12
504.69	101.12
504.907	87.12
505.123	86.12
505.34	86.12
505.557	98.12
505.773	91.12
505.99	81.12
506.207	91.12
506.423	76.12
506.64	102.12
506.856	79.12
507.073	92.12
507.289	91.12
507.506	86.12
507.722	86.12
507.939	111.12
508.155	68.12
508.372	72.12
508.588	88.12
508.805	92.12
509.021	93.12
509.238	79.12
509.454	99.12
509.67	69.12
509.887	81.12
510.103	93.12
510.319	84.12
510.536	99.12
510.752	75.12
510.968	77.12
511.184	82.12
511.401	87.12
511.617	82.12
511.833	79.12
512.049	79.12
512.265	81.12
512.481	76.12
512.698	76.12
512.914	79.12
513.13	80.12
513.346	91.12
513.562	86.12
513.778	83.12
513.994	81.12
514.21	78.12
514.426	96.12
514.642	75.12
514.858	83.12
515.074	86.12
515.29	93.12
515.506	88.12
515.721	71.12
515.937	63.12
516.153	93.12
516.369	89.12
516.585	81.12
516.801	85.12
517.016	85.12
517.232	86.12
517.448	80.12
517.664	89.12
517.879	95.12
518.095	95.12
518.311	88.12
518.527	73.12
518.742	73.12
518.958	90.12
519.173	92.12
519.389	95.12
519.605	78.12
519.82	74.12
520.036	73.12
520.251	96.12
520.467	101.12
520.682	79.12
520.898	87.12
521.113	74.12
521.329	76.12
521.544	93.12
521.76	79.12
521.975	98.12
522.19	68.12
522.406	88.12
522.621	79.12
522.836	88.12
523.052	72.12
523.267	83.12
523.482	91.12
523.698	81.12
523.913	89.12
524.128	90.12
524.343	91.12
524.559	91.12
524.774	87.12
524.989	104.12
525.204	77.12
525.419	84.12
525.634	85.12
525.849	98.12
526.064	89.12
526.28	87.12
526.495	72.12
526.71	89.12
526.925	88.12
527.14	77.12
527.355	67.12
527.57	88.12
527.785	82.12
527.999	69.12
528.214	86.12
528.429	84.12
528.644	84.12
528.859	96.12
529.074	94.12
529.289	93.12
529.503	99.12
529.718	105.12
529.933	92.12
530.148	102.12
530.363	107.12
530.577	84.12
530.792	81.12
531.007	79.12
531.221	86.12
531.436	78.12
531.651	78.12
531.865	76.12
532.08	99.12
532.295	76.12
532.509	79.12
532.724	93.12
532.938	83.12
533.153	76.12
533.367	79.12
533.582	94.12
533.796	84.12
534.011	88.12
534.225	79.12
534.44	88.12
534.654	79.12
534.868	62.12
535.083	74.12
535.297	85.12
535.511	101.12
535.726	90.12
535.94	91.12
536.154	67.12
536.369	86.12
536.583	81.12
536.797	75.12
537.011	84.12
537.225	80.12
537.44	84.12
537.654	90.12
537.868	65.12
538.082	74.12
538.296	69.12
538.51	93.12
538.724	94.12
538.938	94.12
539.153	85.12
539.367	75.12
539.581	94.12
539.795	83.12
540.009	73.12
540.222	93.12
540.436	78.12
540.65	88.12
540.864	90.12
541.078	94.12
541.292	97.12
541.506	101.12
541.72	102.12
541.934	101.12
542.147	110.12
542.361	114.12
542.575	102.12
542.789	104.12
543.002	92.12
543.216	94.12
543.43	87.12
543.644	101.12
543.857	80.12
544.071	85.12
544.285	111.12
544.498	103.12
544.712	101.12
544.925	94.12
545.139	104.12
545.352	108.12
545.566	107.12
545.779	88.12
545.993	122.12
546.206	111.12
546.42	107.12
546.633	110.12
546.847	125.12
547.06	96.12
547.274	100.12
547.487	116.12
547.7	109.12
547.914	105.12
548.127	95.12
548.34	93.12
548.554	108.12
548.767	104.12
548.98	91.12
549.193	94.12
549.407	102.12
549.62	111.12
549.833	90.12
550.046	96.12
550.259	97.12
550.473	93.12
550.686	95.12
550.899	99.12
551.112	101.12
551.325	102.12
551.538	84.12
551.751	97.12
551.964	95.12
552.177	112.12
552.39	89.12
552.603	101.12
552.816	86.12
553.029	100.12
553.242	104.12
553.455	113.12
553.667	102.12
553.88	109.12
554.093	94.12
554.306	100.12
554.519	92.12
554.732	103.12
554.944	94.12
555.157	90.12
555.37	96.12
555.583	84.12
555.795	111.12
556.008	95.12
556.221	99.12
556.433	95.12
556.646	98.12
556.859	95.12
557.071	81.12
557.284	109.12
557.496	101.12
557.709	97.12
557.921	99.12
558.134	91.12
558.346	95.12
558.559	111.12
558.771	88.12
558.984	89.12
559.196	93.12
559.409	88.12
559.621	96.12
559.833	91.12
560.046	97.12
560.258	94.12
560.47	107.12
560.683	95.12
560.895	101.12
561.107	92.12
561.32	92.12
561.532	86.12
561.744	91.12
561.956	99.12
562.168	94.12
562.381	84.12
562.593	85.12
562.805	101.12
563.017	89.12
563.229	91.12
563.441	88.12
563.653	101.12
563.865	89.12
564.077	91.12
564.289	88.12
564.501	89.12
564.713	88.12
564.925	85.12
565.137	106.12
565.349	92.12
565.561	87.12
565.773	104.12
565.985	105.12
566.197	91.12
566.408	95.12
566.62	85.12
566.832	93.12
567.044	83.12
567.255	88.12
567.467	86.12
567.679	95.12
567.891	79.12
568.102	96.12
568.314	76.12
568.526	79.12
568.737	85.12
568.949	80.12
569.161	86.12
569.372	83.12
569.584	83.12
569.795	88.12
570.007	76.12
570.218	73.12
570.43	83.12
570.641	82.12
570.853	87.12
571.064	90.12
571.276	81.12
571.487	88.12
571.698	93.12
571.91	88.12
572.121	80.12
572.333	87.12
572.544	79.12
572.755	83.12
572.966	91.12
573.178	86.12
573.389	84.12
573.6	85.12
573.811	78.12
574.023	86.12
574.234	83.12
574.445	93.12
574.656	73.12
574.867	86.12
575.078	88.12
575.289	79.12
575.501	88.12
575.712	86.12
575.923	66.12
576.134	76.12
576.345	85.12
576.556	95.12
576.767	99.12
576.978	77.12
577.188	80.12
577.399	87.12
577.61	89.12
577.821	71.12
578.032	81.12
578.243	88.12
578.454	81.12
578.665	88.12
578.875	73.12
579.086	81.12
579.297	83.12
579.508	77.12
579.718	82.12
579.929	84.12
580.14	83.12
580.35	83.12
580.561	91.12
580.772	88.12
580.982	78.12
581.193	102.12
581.403	89.12
581.614	73.12
581.825	79.12
582.035	78.12
582.246	89.12
582.456	101.12
582.667	73.12
582.877	85.12
583.087	86.12
583.298	77.12
583.508	85.12
583.719	98.12
583.929	76.12
584.139	89.12
584.35	93.12
584.56	86.12
584.77	77.12
584.981	77.12
585.191	75.12
585.401	95.12
585.611	77.12
585.821	76.12
586.032	94.12
586.242	69.12
586.452	89.12
586.662	85.12
586.872	99.12
587.082	86.12
587.292	79.12
587.502	79.12
587.713	80.12
587.923	86.12
588.133	80.12
588.343	66.12
588.553	77.12
588.762	92.12
588.972	83.12
589.182	77.12
589.392	78.12
589.602	67.12
589.812	76.12
590.022	92.12
590.232	89.12
590.441	63.12
590.651	80.12
590.861	78.12
591.071	82.12
591.281	75.12
591.49	81.12
591.7	79.12
591.91	78.12
592.119	80.12
592.329	82.12
592.539	81.12
592.748	74.12
592.958	81.12
593.167	73.12
593.377	81.12
593.587	78.12
593.796	84.12
594.006	79.12
594.215	89.12
594.424	78.12
594.634	71.12
594.843	96.12
595.053	80.12
595.262	77.12
595.472	82.12
595.681	83.12
595.89	91.12
596.1	92.12
596.309	95.12
596.518	90.12
596.727	88.12
596.937	84.12
597.146	82.12
597.355	86.12
597.564	84.12
597.774	87.12
597.983	85.12
598.192	91.12
598.401	81.12
598.61	69.12
598.819	81.12
599.028	82.12
599.237	92.12
599.446	71.12
599.655	94.12
599.864	86.12
600.073	87.12
600.282	81.12
600.491	81.12
600.7	86.12
600.909	88.12
601.118	86.12
601.327	86.12
601.536	99.12
601.745	83.12
601.953	92.12
602.162	99.12
602.371	84.12
602.58	85.12
602.789	94.12
602.997	81.12
603.206	94.12
603.415	90.12
603.623	81.12
603.832	85.12
604.041	92.12
604.249	88.12
604.458	93.12
604.666	87.12
604.875	87.12
605.084	88.12
605.292	83.12
605.501	86.12
605.709	87.12
605.918	84.12
606.126	87.12
606.334	84.12
606.543	94.12
606.751	98.12
606.96	101.12
607.168	111.12
607.376	89.12
607.585	102.12
607.793	98.12
608.001	77.12
608.21	88.12
608.418	81.12
608.626	82.12
608.834	99.12
609.043	83.12
609.251	95.12
609.459	95.12
609.667	94.12
609.875	87.12
610.083	88.12
610.291	97.12
610.499	88.12
610.707	77.12
610.916	77.12
611.124	100.12
611.332	81.12
611.54	88.12
611.748	93.12
611.955	92.12
612.163	96.12
612.371	86.12
612.579	84.12
612.787	87.12
612.995	96.12
613.203	81.12
613.411	97.12
613.618	95.12
613.826	93.12
614.034	96.12
614.242	103.12
614.449	96.12
614.657	96.12
614.865	84.12
615.072	85.12
615.28	84.12
615.488	83.12
615.695	84.12
615.903	85.12
616.111	90.12
616.318	86.12
616.526	82.12
616.733	84.12
616.941	101.12
617.148	81.12
617.356	92.12
617.563	81.12
617.771	90.12
617.978	91.12
618.185	90.12
618.393	90.12
618.6	99.12
618.807	79.12
619.015	87.12
619.222	107.12
619.429	83.12
619.637	95.12
619.844	99.12
620.051	87.12
620.258	87.12
620.466	91.12
620.673	92.12
620.88	83.12
621.087	84.12
621.294	85.12
621.501	102.12
621.708	88.12
621.915	68.12
622.122	95.12
622.329	91.12
622.536	89.12
622.743	77.12
622.95	80.12
623.157	82.12
623.364	94.12
623.571	78.12
623.778	75.12
623.985	77.12
624.192	84.12
624.399	104.12
624.606	84.12
624.812	95.12
625.019	88.12
625.226	72.12
625.433	98.12
625.639	89.12
625.846	83.12
626.053	87.12
626.259	64.12
626.466	77.12
626.673	85.12
626.879	86.12
627.086	92.12
627.293	81.12
627.499	73.12
627.706	82.12
627.912	107.12
628.119	88.12
628.325	96.12
628.532	87.12
628.738	81.12
628.945	87.12
629.151	87.12
629.357	95.12
629.564	80.12
629.77	94.12
629.976	91.12
630.183	79.12
630.389	87.12
630.595	73.12
630.802	79.12
631.008	86.12
631.214	72.12
631.42	80.12
631.627	85.12
631.833	97.12
632.039	86.12
632.245	85.12
632.451	81.12
632.657	84.12
632.863	86.12
633.069	100.12
633.275	102.12
633.481	92.12
633.688	89.12
633.893	94.12
634.099	85.12
634.305	97.12
634.511	87.12
634.717	95.12
634.923	96.12
635.129	82.12
635.335	77.12
635.541	83.12
635.747	78.12
635.952	85.12
636.158	72.12
636.364	87.12
636.57	83.12
636.775	87.12
636.981	84.12
637.187	84.12
637.392	86.12
637.598	91.12
637.804	86.12
638.009	85.12
638.215	81.12
638.421	80.12
638.626	83.12
638.832	95.12
639.037	87.12
639.243	72.12
639.448	88.12
639.654	73.12
639.859	80.12
640.065	85.12
640.27	83.12
640.475	79.12
640.681	77.12
640.886	80.12
641.091	79.12
641.297	95.12
641.502	87.12
641.707	73.12
641.913	89.12
642.118	87.12
642.323	71.12
642.528	84.12
642.733	83.12
642.939	77.12
643.144	79.12
643.349	89.12
643.554	73.12
643.759	80.12
643.964	92.12
644.169	91.12
644.374	99.12
644.579	88.12
644.784	81.12
644.989	86.12
645.194	96.12
645.399	79.12
645.604	85.12
645.809	86.12
646.014	72.12
646.219	87.12
646.423	75.12
646.628	92.12
646.833	93.12
647.038	96.12
647.243	82.12
647.447	82.12
647.652	91.12
647.857	83.12
648.062	77.12
648.266	95.12
648.471	79.12
648.676	84.12
648.88	88.12
649.085	93.12
649.289	93.12
649.494	84.12
649.698	76.12
649.903	83.12
650.107	92.12
650.312	80.12
650.516	75.12
650.721	84.12
650.925	75.12
651.13	80.12
651.334	63.12
651.539	92.12
651.743	91.12
651.947	77.12
652.152	78.12
652.356	88.12
652.56	76.12
652.764	89.12
652.969	75.12
653.173	78.12
653.377	87.12
653.581	80.12
653.785	77.12
653.99	93.12
654.194	69.12
654.398	87.12
654.602	60.12
654.806	90.12
655.01	100.12
655.214	81.12
655.418	71.12
655.622	90.12
655.826	65.12
656.03	82.12
656.234	63.12
656.438	94.12
656.642	66.12
656.846	83.12
657.049	86.12
657.253	76.12
657.457	72.12
657.661	69.12
657.865	74.12
658.068	78.12
658.272	72.12
658.476	97.12
658.68	76.12
658.883	70.12
659.087	83.12
659.291	77.12
659.494	68.12
659.698	79.12
659.901	75.12
660.105	76.12
660.309	82.12
660.512	81.12
660.716	85.12
660.919	89.12
661.123	86.12
661.326	71.12
661.53	80.12
661.733	75.12
661.936	68.12
662.14	81.12
662.343	63.12
662.546	99.12
662.75	85.12
662.953	87.12
663.156	78.12
663.36	80.12
663.563	75.12
663.766	77.12
663.969	68.12
664.173	77.12
664.376	83.12
664.579	79.12
664.782	74.12
664.985	78.12
665.188	72.12
665.391	81.12
665.594	74.12
665.797	73.12
666	92.12
666.203	81.12
666.406	71.12
666.609	88.12
666.812	69.12
667.015	75.12
667.218	72.12
667.421	74.12
667.624	63.12
667.827	71.12
668.03	86.12
668.232	87.12
668.435	85.12
668.638	81.12
668.841	82.12
669.043	74.12
669.246	73.12
669.449	83.12
669.651	76.12
669.854	66.12
670.057	70.12
670.259	81.12
670.462	75.12
670.665	70.12
670.867	72.12
671.07	89.12
671.272	72.12
671.475	73.12
671.677	85.12
671.88	95.12
672.082	69.12
672.284	73.12
672.487	77.12
672.689	79.12
672.892	75.12
