Data from Location5.07152019.Energy5.Lamp.07192019.3%Agarose_HRD10591_16-04-40-629.txt Node
Date: Fri Jul 19 16:04:40 EDT 2019
User: cochatt
Spectrometer: HR+D1059
Trigger mode: 1
Integration Time (sec): 1.000000E-1
Scans to average: 1
Electric dark correction enabled: true
Nonlinearity correction enabled: false
Boxcar width: 0
XAxis mode: Wavelengths
Number of Pixels in Spectrum: 2048
>>>>>Begin Spectral Data<<<<<
223.165	-21.12
223.4	-21.12
223.635	-21.12
223.869	-16.12
224.104	-13.12
224.338	-16.12
224.573	-22.12
224.808	-4.12
225.042	-17.12
225.277	-16.12
225.511	-13.12
225.746	11.88
225.98	7.88
226.215	17.88
226.449	4.88
226.683	25.88
226.918	42.88
227.152	27.88
227.387	16.88
227.621	37.88
227.856	39.88
228.09	31.88
228.324	35.88
228.559	54.88
228.793	52.88
229.027	65.88
229.262	77.88
229.496	56.88
229.73	77.88
229.964	70.88
230.199	60.88
230.433	65.88
230.667	84.88
230.901	71.88
231.136	66.88
231.37	77.88
231.604	70.88
231.838	74.88
232.072	74.88
232.306	69.88
232.541	70.88
232.775	84.88
233.009	65.88
233.243	79.88
233.477	81.88
233.711	69.88
233.945	74.88
234.179	83.88
234.413	84.88
234.647	81.88
234.881	74.88
235.115	59.88
235.349	60.88
235.583	76.88
235.817	65.88
236.051	82.88
236.285	80.88
236.519	65.88
236.753	82.88
236.987	71.88
237.221	67.88
237.455	87.88
237.689	79.88
237.922	70.88
238.156	75.88
238.39	87.88
238.624	74.88
238.858	88.88
239.091	73.88
239.325	60.88
239.559	70.88
239.793	70.88
240.027	76.88
240.26	76.88
240.494	69.88
240.728	76.88
240.961	87.88
241.195	81.88
241.429	71.88
241.662	81.88
241.896	71.88
242.13	61.88
242.363	90.88
242.597	74.88
242.83	67.88
243.064	81.88
243.298	80.88
243.531	64.88
243.765	71.88
243.998	78.88
244.232	77.88
244.465	86.88
244.699	70.88
244.932	80.88
245.166	71.88
245.399	77.88
245.633	69.88
245.866	72.88
246.099	72.88
246.333	71.88
246.566	76.88
246.8	71.88
247.033	71.88
247.266	76.88
247.5	73.88
247.733	82.88
247.966	76.88
248.2	82.88
248.433	82.88
248.666	85.88
248.899	81.88
249.133	83.88
249.366	63.88
249.599	76.88
249.832	87.88
250.066	78.88
250.299	80.88
250.532	75.88
250.765	65.88
250.998	79.88
251.231	69.88
251.465	86.88
251.698	79.88
251.931	83.88
252.164	71.88
252.397	90.88
252.63	66.88
252.863	91.88
253.096	77.88
253.329	57.88
253.562	78.88
253.795	94.88
254.028	79.88
254.261	82.88
254.494	74.88
254.727	85.88
254.96	84.88
255.193	78.88
255.426	71.88
255.659	82.88
255.892	93.88
256.124	85.88
256.357	80.88
256.59	83.88
256.823	72.88
257.056	77.88
257.289	74.88
257.521	84.88
257.754	87.88
257.987	75.88
258.22	75.88
258.452	80.88
258.685	78.88
258.918	90.88
259.151	83.88
259.383	84.88
259.616	93.88
259.849	84.88
260.081	76.88
260.314	72.88
260.547	75.88
260.779	68.88
261.012	78.88
261.244	78.88
261.477	79.88
261.71	86.88
261.942	78.88
262.175	85.88
262.407	91.88
262.64	85.88
262.872	77.88
263.105	85.88
263.337	93.88
263.57	83.88
263.802	66.88
264.035	76.88
264.267	96.88
264.499	73.88
264.732	82.88
264.964	81.88
265.197	86.88
265.429	72.88
265.661	83.88
265.894	80.88
266.126	87.88
266.358	81.88
266.591	86.88
266.823	77.88
267.055	89.88
267.287	81.88
267.52	78.88
267.752	81.88
267.984	93.88
268.216	85.88
268.448	69.88
268.681	90.88
268.913	73.88
269.145	82.88
269.377	92.88
269.609	73.88
269.841	84.88
270.073	72.88
270.306	83.88
270.538	71.88
270.77	85.88
271.002	90.88
271.234	93.88
271.466	68.88
271.698	88.88
271.93	79.88
272.162	95.88
272.394	78.88
272.626	83.88
272.858	92.88
273.09	90.88
273.322	76.88
273.553	80.88
273.785	89.88
274.017	76.88
274.249	87.88
274.481	76.88
274.713	69.88
274.945	79.88
275.176	87.88
275.408	80.88
275.64	84.88
275.872	95.88
276.104	90.88
276.335	89.88
276.567	82.88
276.799	104.88
277.031	78.88
277.262	73.88
277.494	93.88
277.726	97.88
277.957	93.88
278.189	81.88
278.421	83.88
278.652	85.88
278.884	81.88
279.115	82.88
279.347	84.88
279.579	76.88
279.81	76.88
280.042	85.88
280.273	91.88
280.505	95.88
280.736	79.88
280.968	78.88
281.199	93.88
281.431	89.88
281.662	71.88
281.894	73.88
282.125	82.88
282.356	88.88
282.588	83.88
282.819	92.88
283.051	79.88
283.282	72.88
283.513	79.88
283.745	91.88
283.976	78.88
284.207	85.88
284.439	84.88
284.67	83.88
284.901	87.88
285.132	103.88
285.364	80.88
285.595	93.88
285.826	87.88
286.057	89.88
286.288	79.88
286.52	75.88
286.751	85.88
286.982	86.88
287.213	89.88
287.444	85.88
287.675	84.88
287.906	84.88
288.138	71.88
288.369	82.88
288.6	97.88
288.831	77.88
289.062	86.88
289.293	78.88
289.524	79.88
289.755	88.88
289.986	78.88
290.217	87.88
290.448	80.88
290.679	95.88
290.91	91.88
291.141	96.88
291.371	91.88
291.602	91.88
291.833	75.88
292.064	92.88
292.295	84.88
292.526	87.88
292.757	79.88
292.987	101.88
293.218	72.88
293.449	79.88
293.68	88.88
293.91	90.88
294.141	79.88
294.372	83.88
294.603	95.88
294.833	80.88
295.064	86.88
295.295	100.88
295.525	86.88
295.756	84.88
295.987	91.88
296.217	91.88
296.448	84.88
296.679	81.88
296.909	86.88
297.14	77.88
297.37	69.88
297.601	93.88
297.831	88.88
298.062	99.88
298.292	73.88
298.523	96.88
298.753	90.88
298.984	82.88
299.214	71.88
299.445	87.88
299.675	91.88
299.905	87.88
300.136	87.88
300.366	94.88
300.597	77.88
300.827	84.88
301.057	93.88
301.288	87.88
301.518	90.88
301.748	95.88
301.979	77.88
302.209	80.88
302.439	91.88
302.669	85.88
302.9	86.88
303.13	82.88
303.36	78.88
303.59	84.88
303.82	86.88
304.051	102.88
304.281	88.88
304.511	90.88
304.741	63.88
304.971	82.88
305.201	91.88
305.431	81.88
305.661	92.88
305.891	83.88
306.121	85.88
306.352	84.88
306.582	76.88
306.812	80.88
307.042	87.88
307.272	88.88
307.502	75.88
307.731	96.88
307.961	91.88
308.191	84.88
308.421	81.88
308.651	80.88
308.881	84.88
309.111	92.88
309.341	93.88
309.571	86.88
309.8	90.88
310.03	62.88
310.26	98.88
310.49	97.88
310.72	86.88
310.949	91.88
311.179	81.88
311.409	93.88
311.639	81.88
311.868	86.88
312.098	83.88
312.328	86.88
312.557	79.88
312.787	94.88
313.017	87.88
313.246	79.88
313.476	77.88
313.706	87.88
313.935	78.88
314.165	87.88
314.394	89.88
314.624	86.88
314.853	97.88
315.083	91.88
315.312	85.88
315.542	86.88
315.771	88.88
316.001	96.88
316.23	100.88
316.46	84.88
316.689	80.88
316.919	81.88
317.148	93.88
317.377	100.88
317.607	97.88
317.836	77.88
318.065	82.88
318.295	89.88
318.524	93.88
318.753	92.88
318.983	84.88
319.212	79.88
319.441	95.88
319.67	95.88
319.9	88.88
320.129	85.88
320.358	96.88
320.587	87.88
320.816	88.88
321.046	83.88
321.275	93.88
321.504	82.88
321.733	91.88
321.962	88.88
322.191	87.88
322.42	84.88
322.649	110.88
322.878	87.88
323.108	96.88
323.337	78.88
323.566	75.88
323.795	77.88
324.024	88.88
324.253	88.88
324.482	96.88
324.71	79.88
324.939	85.88
325.168	84.88
325.397	78.88
325.626	94.88
325.855	72.88
326.084	89.88
326.313	101.88
326.542	85.88
326.77	95.88
326.999	86.88
327.228	90.88
327.457	96.88
327.686	89.88
327.914	95.88
328.143	83.88
328.372	92.88
328.6	83.88
328.829	91.88
329.058	89.88
329.287	92.88
329.515	91.88
329.744	83.88
329.972	105.88
330.201	88.88
330.43	82.88
330.658	96.88
330.887	84.88
331.115	80.88
331.344	88.88
331.572	88.88
331.801	79.88
332.03	87.88
332.258	98.88
332.486	85.88
332.715	93.88
332.943	104.88
333.172	94.88
333.4	84.88
333.629	76.88
333.857	94.88
334.085	82.88
334.314	85.88
334.542	92.88
334.771	92.88
334.999	88.88
335.227	91.88
335.455	81.88
335.684	92.88
335.912	89.88
336.14	99.88
336.369	96.88
336.597	82.88
336.825	85.88
337.053	90.88
337.281	74.88
337.51	75.88
337.738	75.88
337.966	93.88
338.194	96.88
338.422	95.88
338.65	84.88
338.878	83.88
339.106	72.88
339.334	79.88
339.562	72.88
339.79	90.88
340.018	87.88
340.246	78.88
340.474	86.88
340.702	89.88
340.93	90.88
341.158	81.88
341.386	81.88
341.614	80.88
341.842	95.88
342.07	94.88
342.298	91.88
342.526	83.88
342.754	87.88
342.981	90.88
343.209	91.88
343.437	88.88
343.665	88.88
343.893	90.88
344.12	88.88
344.348	98.88
344.576	81.88
344.804	78.88
345.031	89.88
345.259	87.88
345.487	74.88
345.714	86.88
345.942	74.88
346.17	87.88
346.397	90.88
346.625	76.88
346.853	85.88
347.08	83.88
347.308	89.88
347.535	88.88
347.763	92.88
347.99	86.88
348.218	88.88
348.445	86.88
348.673	105.88
348.9	102.88
349.128	88.88
349.355	64.88
349.583	79.88
349.81	75.88
350.037	86.88
350.265	81.88
350.492	84.88
350.72	77.88
350.947	79.88
351.174	93.88
351.402	82.88
351.629	95.88
351.856	94.88
352.083	77.88
352.311	92.88
352.538	84.88
352.765	97.88
352.992	91.88
353.22	87.88
353.447	87.88
353.674	80.88
353.901	82.88
354.128	81.88
354.355	78.88
354.583	75.88
354.81	78.88
355.037	88.88
355.264	107.88
355.491	82.88
355.718	87.88
355.945	85.88
356.172	98.88
356.399	80.88
356.626	81.88
356.853	77.88
357.08	84.88
357.307	83.88
357.534	92.88
357.761	79.88
357.988	71.88
358.215	96.88
358.441	88.88
358.668	87.88
358.895	81.88
359.122	92.88
359.349	91.88
359.576	92.88
359.802	80.88
360.029	83.88
360.256	78.88
360.483	86.88
360.709	102.88
360.936	92.88
361.163	92.88
361.39	74.88
361.616	90.88
361.843	80.88
362.07	92.88
362.296	102.88
362.523	75.88
362.749	91.88
362.976	79.88
363.203	99.88
363.429	82.88
363.656	88.88
363.882	85.88
364.109	88.88
364.335	85.88
364.562	88.88
364.788	94.88
365.015	72.88
365.241	90.88
365.468	91.88
365.694	79.88
365.92	88.88
366.147	96.88
366.373	73.88
366.599	92.88
366.826	88.88
367.052	80.88
367.278	87.88
367.505	95.88
367.731	99.88
367.957	89.88
368.184	81.88
368.41	80.88
368.636	88.88
368.862	69.88
369.089	86.88
369.315	96.88
369.541	91.88
369.767	85.88
369.993	90.88
370.219	79.88
370.445	77.88
370.672	82.88
370.898	87.88
371.124	91.88
371.35	82.88
371.576	83.88
371.802	91.88
372.028	87.88
372.254	83.88
372.48	85.88
372.706	86.88
372.932	81.88
373.158	90.88
373.384	96.88
373.61	84.88
373.835	96.88
374.061	77.88
374.287	80.88
374.513	88.88
374.739	84.88
374.965	90.88
375.191	84.88
375.416	86.88
375.642	86.88
375.868	89.88
376.094	91.88
376.319	75.88
376.545	86.88
376.771	84.88
376.997	100.88
377.222	97.88
377.448	85.88
377.674	85.88
377.899	80.88
378.125	95.88
378.35	95.88
378.576	84.88
378.802	77.88
379.027	82.88
379.253	84.88
379.478	93.88
379.704	88.88
379.929	102.88
380.155	89.88
380.38	91.88
380.606	86.88
380.831	90.88
381.057	91.88
381.282	73.88
381.507	100.88
381.733	75.88
381.958	95.88
382.184	90.88
382.409	87.88
382.634	83.88
382.86	96.88
383.085	83.88
383.31	94.88
383.535	81.88
383.761	85.88
383.986	77.88
384.211	87.88
384.436	83.88
384.662	82.88
384.887	88.88
385.112	80.88
385.337	78.88
385.562	84.88
385.787	96.88
386.013	80.88
386.238	72.88
386.463	89.88
386.688	89.88
386.913	93.88
387.138	75.88
387.363	89.88
387.588	87.88
387.813	101.88
388.038	80.88
388.263	63.88
388.488	83.88
388.713	80.88
388.938	86.88
389.163	90.88
389.387	98.88
389.612	56.88
389.837	80.88
390.062	91.88
390.287	79.88
390.512	86.88
390.736	89.88
390.961	78.88
391.186	109.88
391.411	92.88
391.636	73.88
391.86	91.88
392.085	98.88
392.31	87.88
392.534	95.88
392.759	91.88
392.984	81.88
393.208	81.88
393.433	73.88
393.658	83.88
393.882	86.88
394.107	95.88
394.331	91.88
394.556	85.88
394.78	98.88
395.005	85.88
395.229	90.88
395.454	73.88
395.678	92.88
395.903	75.88
396.127	93.88
396.352	86.88
396.576	74.88
396.801	96.88
397.025	97.88
397.249	89.88
397.474	88.88
397.698	91.88
397.922	83.88
398.147	74.88
398.371	94.88
398.595	91.88
398.82	77.88
399.044	94.88
399.268	88.88
399.492	102.88
399.717	108.88
399.941	87.88
400.165	98.88
400.389	95.88
400.613	91.88
400.837	77.88
401.062	99.88
401.286	95.88
401.51	101.88
401.734	84.88
401.958	91.88
402.182	88.88
402.406	90.88
402.63	81.88
402.854	89.88
403.078	90.88
403.302	81.88
403.526	79.88
403.75	94.88
403.974	91.88
404.198	105.88
404.422	97.88
404.645	104.88
404.869	95.88
405.093	83.88
405.317	82.88
405.541	90.88
405.765	102.88
405.988	105.88
406.212	108.88
406.436	79.88
406.66	89.88
406.883	95.88
407.107	97.88
407.331	99.88
407.555	86.88
407.778	87.88
408.002	95.88
408.226	90.88
408.449	98.88
408.673	95.88
408.896	95.88
409.12	102.88
409.344	72.88
409.567	80.88
409.791	96.88
410.014	101.88
410.238	92.88
410.461	95.88
410.685	90.88
410.908	90.88
411.132	94.88
411.355	88.88
411.578	86.88
411.802	95.88
412.025	100.88
412.249	84.88
412.472	85.88
412.695	84.88
412.919	93.88
413.142	92.88
413.365	89.88
413.589	97.88
413.812	95.88
414.035	86.88
414.258	80.88
414.482	65.88
414.705	99.88
414.928	84.88
415.151	88.88
415.374	97.88
415.597	105.88
415.821	96.88
416.044	89.88
416.267	94.88
416.49	84.88
416.713	87.88
416.936	97.88
417.159	88.88
417.382	93.88
417.605	102.88
417.828	86.88
418.051	102.88
418.274	92.88
418.497	88.88
418.72	91.88
418.943	91.88
419.166	90.88
419.389	87.88
419.611	95.88
419.834	91.88
420.057	90.88
420.28	80.88
420.503	87.88
420.726	83.88
420.948	83.88
421.171	93.88
421.394	92.88
421.617	103.88
421.839	88.88
422.062	92.88
422.285	89.88
422.507	71.88
422.73	70.88
422.953	92.88
423.175	95.88
423.398	79.88
423.621	93.88
423.843	99.88
424.066	90.88
424.288	85.88
424.511	93.88
424.733	102.88
424.956	92.88
425.178	78.88
425.401	98.88
425.623	79.88
425.846	84.88
426.068	96.88
426.291	99.88
426.513	86.88
426.735	84.88
426.958	79.88
427.18	68.88
427.402	79.88
427.625	86.88
427.847	84.88
428.069	103.88
428.292	89.88
428.514	95.88
428.736	101.88
428.958	84.88
429.181	85.88
429.403	80.88
429.625	86.88
429.847	88.88
430.069	97.88
430.292	91.88
430.514	83.88
430.736	88.88
430.958	88.88
431.18	104.88
431.402	95.88
431.624	86.88
431.846	89.88
432.068	90.88
432.29	92.88
432.512	88.88
432.734	67.88
432.956	73.88
433.178	81.88
433.4	92.88
433.622	107.88
433.844	89.88
434.066	83.88
434.287	97.88
434.509	80.88
434.731	88.88
434.953	83.88
435.175	88.88
435.397	92.88
435.618	87.88
435.84	92.88
436.062	93.88
436.284	96.88
436.505	96.88
436.727	95.88
436.949	92.88
437.17	75.88
437.392	86.88
437.614	67.88
437.835	91.88
438.057	81.88
438.278	112.88
438.5	94.88
438.721	94.88
438.943	81.88
439.165	94.88
439.386	87.88
439.608	90.88
439.829	91.88
440.05	88.88
440.272	80.88
440.493	84.88
440.715	84.88
440.936	86.88
441.158	101.88
441.379	85.88
441.6	77.88
441.822	98.88
442.043	93.88
442.264	75.88
442.486	77.88
442.707	85.88
442.928	83.88
443.149	83.88
443.371	98.88
443.592	82.88
443.813	86.88
444.034	87.88
444.255	76.88
444.476	90.88
444.698	85.88
444.919	94.88
445.14	210.88
445.361	139.88
445.582	101.88
445.803	84.88
446.024	90.88
446.245	95.88
446.466	96.88
446.687	77.88
446.908	87.88
447.129	92.88
447.35	92.88
447.571	95.88
447.792	90.88
448.013	94.88
448.234	89.88
448.455	80.88
448.675	85.88
448.896	79.88
449.117	85.88
449.338	97.88
449.559	89.88
449.779	90.88
450	101.88
450.221	91.88
450.442	78.88
450.662	100.88
450.883	96.88
451.104	85.88
451.324	79.88
451.545	87.88
451.766	88.88
451.986	80.88
452.207	87.88
452.428	88.88
452.648	96.88
452.869	82.88
453.089	91.88
453.31	80.88
453.53	73.88
453.751	96.88
453.971	97.88
454.192	91.88
454.412	102.88
454.633	86.88
454.853	99.88
455.073	84.88
455.294	100.88
455.514	87.88
455.734	102.88
455.955	80.88
456.175	86.88
456.395	84.88
456.616	77.88
456.836	80.88
457.056	89.88
457.276	85.88
457.497	84.88
457.717	93.88
457.937	93.88
458.157	86.88
458.377	88.88
458.598	80.88
458.818	95.88
459.038	69.88
459.258	95.88
459.478	87.88
459.698	83.88
459.918	87.88
460.138	89.88
460.358	89.88
460.578	89.88
460.798	92.88
461.018	100.88
461.238	87.88
461.458	95.88
461.678	80.88
461.898	103.88
462.118	87.88
462.338	95.88
462.558	99.88
462.777	73.88
462.997	106.88
463.217	109.88
463.437	108.88
463.657	93.88
463.876	105.88
464.096	107.88
464.316	88.88
464.536	93.88
464.755	86.88
464.975	90.88
465.195	103.88
465.414	82.88
465.634	97.88
465.854	109.88
466.073	87.88
466.293	88.88
466.512	107.88
466.732	101.88
466.951	84.88
467.171	94.88
467.391	94.88
467.61	90.88
467.829	83.88
468.049	86.88
468.268	107.88
468.488	98.88
468.707	85.88
468.927	95.88
469.146	96.88
469.365	90.88
469.585	94.88
469.804	89.88
470.023	99.88
470.243	91.88
470.462	97.88
470.681	81.88
470.901	108.88
471.12	93.88
471.339	94.88
471.558	86.88
471.777	94.88
471.997	101.88
472.216	88.88
472.435	96.88
472.654	96.88
472.873	102.88
473.092	81.88
473.311	76.88
473.53	95.88
473.749	101.88
473.968	90.88
474.187	84.88
474.406	92.88
474.625	100.88
474.844	88.88
475.063	86.88
475.282	94.88
475.501	89.88
475.72	93.88
475.939	87.88
476.158	90.88
476.377	98.88
476.596	97.88
476.814	101.88
477.033	93.88
477.252	92.88
477.471	96.88
477.69	92.88
477.908	100.88
478.127	109.88
478.346	110.88
478.564	112.88
478.783	91.88
479.002	97.88
479.22	102.88
479.439	90.88
479.658	100.88
479.876	86.88
480.095	94.88
480.313	90.88
480.532	103.88
480.751	102.88
480.969	95.88
481.188	94.88
481.406	85.88
481.624	89.88
481.843	88.88
482.061	94.88
482.28	94.88
482.498	110.88
482.717	83.88
482.935	92.88
483.153	81.88
483.372	91.88
483.59	100.88
483.808	105.88
484.027	94.88
484.245	86.88
484.463	91.88
484.681	119.88
484.9	87.88
485.118	95.88
485.336	94.88
485.554	85.88
485.772	77.88
485.99	88.88
486.209	95.88
486.427	100.88
486.645	99.88
486.863	116.88
487.081	84.88
487.299	108.88
487.517	100.88
487.735	103.88
487.953	87.88
488.171	109.88
488.389	103.88
488.607	102.88
488.825	97.88
489.043	109.88
489.261	111.88
489.479	104.88
489.696	109.88
489.914	92.88
490.132	89.88
490.35	100.88
490.568	102.88
490.786	105.88
491.003	96.88
491.221	97.88
491.439	96.88
491.657	109.88
491.874	114.88
492.092	107.88
492.31	118.88
492.527	106.88
492.745	85.88
492.963	110.88
493.18	98.88
493.398	112.88
493.615	107.88
493.833	94.88
494.05	96.88
494.268	102.88
494.485	112.88
494.703	99.88
494.92	92.88
495.138	108.88
495.355	112.88
495.573	112.88
495.79	102.88
496.008	114.88
496.225	114.88
496.442	101.88
496.66	112.88
496.877	103.88
497.094	102.88
497.312	107.88
497.529	98.88
497.746	100.88
497.963	103.88
498.181	96.88
498.398	98.88
498.615	108.88
498.832	94.88
499.049	116.88
499.267	123.88
499.484	109.88
499.701	124.88
499.918	128.88
500.135	133.88
500.352	153.88
500.569	143.88
500.786	136.88
501.003	143.88
501.22	125.88
501.437	130.88
501.654	115.88
501.871	105.88
502.088	114.88
502.305	117.88
502.522	102.88
502.739	104.88
502.956	112.88
503.172	99.88
503.389	97.88
503.606	110.88
503.823	99.88
504.04	110.88
504.256	98.88
504.473	105.88
504.69	121.88
504.907	100.88
505.123	111.88
505.34	105.88
505.557	102.88
505.773	93.88
505.99	109.88
506.207	97.88
506.423	95.88
506.64	107.88
506.856	107.88
507.073	94.88
507.289	97.88
507.506	105.88
507.722	95.88
507.939	84.88
508.155	86.88
508.372	89.88
508.588	96.88
508.805	93.88
509.021	104.88
509.238	100.88
509.454	102.88
509.67	85.88
509.887	97.88
510.103	93.88
510.319	101.88
510.536	105.88
510.752	100.88
510.968	85.88
511.184	76.88
511.401	98.88
511.617	85.88
511.833	78.88
512.049	89.88
512.265	87.88
512.481	86.88
512.698	93.88
512.914	103.88
513.13	95.88
513.346	103.88
513.562	88.88
513.778	93.88
513.994	103.88
514.21	78.88
514.426	106.88
514.642	87.88
514.858	98.88
515.074	81.88
515.29	98.88
515.506	108.88
515.721	93.88
515.937	109.88
516.153	88.88
516.369	78.88
516.585	108.88
516.801	93.88
517.016	109.88
517.232	111.88
517.448	114.88
517.664	84.88
517.879	91.88
518.095	91.88
518.311	96.88
518.527	100.88
518.742	103.88
518.958	99.88
519.173	97.88
519.389	116.88
519.605	118.88
519.82	100.88
520.036	83.88
520.251	103.88
520.467	102.88
520.682	95.88
520.898	97.88
521.113	97.88
521.329	105.88
521.544	89.88
521.76	87.88
521.975	101.88
522.19	94.88
522.406	90.88
522.621	92.88
522.836	94.88
523.052	85.88
523.267	94.88
523.482	104.88
523.698	86.88
523.913	100.88
524.128	88.88
524.343	90.88
524.559	83.88
524.774	87.88
524.989	92.88
525.204	106.88
525.419	89.88
525.634	84.88
525.849	99.88
526.064	85.88
526.28	88.88
526.495	95.88
526.71	91.88
526.925	96.88
527.14	107.88
527.355	87.88
527.57	112.88
527.785	102.88
527.999	94.88
528.214	94.88
528.429	91.88
528.644	82.88
528.859	110.88
529.074	92.88
529.289	94.88
529.503	99.88
529.718	91.88
529.933	104.88
530.148	98.88
530.363	100.88
530.577	95.88
530.792	100.88
531.007	88.88
531.221	98.88
531.436	99.88
531.651	84.88
531.865	84.88
532.08	92.88
532.295	101.88
532.509	106.88
532.724	97.88
532.938	78.88
533.153	84.88
533.367	94.88
533.582	91.88
533.796	89.88
534.011	95.88
534.225	104.88
534.44	91.88
534.654	100.88
534.868	89.88
535.083	87.88
535.297	89.88
535.511	92.88
535.726	91.88
535.94	98.88
536.154	102.88
536.369	97.88
536.583	80.88
536.797	100.88
537.011	84.88
537.225	74.88
537.44	91.88
537.654	84.88
537.868	89.88
538.082	104.88
538.296	85.88
538.51	83.88
538.724	102.88
538.938	100.88
539.153	79.88
539.367	89.88
539.581	95.88
539.795	102.88
540.009	95.88
540.222	95.88
540.436	84.88
540.65	87.88
540.864	91.88
541.078	88.88
541.292	100.88
541.506	93.88
541.72	108.88
541.934	108.88
542.147	115.88
542.361	109.88
542.575	104.88
542.789	111.88
543.002	92.88
543.216	99.88
543.43	95.88
543.644	88.88
543.857	107.88
544.071	85.88
544.285	92.88
544.498	112.88
544.712	96.88
544.925	112.88
545.139	107.88
545.352	99.88
545.566	95.88
545.779	83.88
545.993	94.88
546.206	85.88
546.42	92.88
546.633	100.88
546.847	83.88
547.06	93.88
547.274	113.88
547.487	95.88
547.7	94.88
547.914	107.88
548.127	94.88
548.34	94.88
548.554	105.88
548.767	90.88
548.98	108.88
549.193	103.88
549.407	94.88
549.62	92.88
549.833	110.88
550.046	109.88
550.259	90.88
550.473	99.88
550.686	89.88
550.899	98.88
551.112	103.88
551.325	104.88
551.538	97.88
551.751	82.88
551.964	94.88
552.177	76.88
552.39	92.88
552.603	99.88
552.816	91.88
553.029	97.88
553.242	94.88
553.455	86.88
553.667	105.88
553.88	115.88
554.093	85.88
554.306	96.88
554.519	91.88
554.732	85.88
554.944	92.88
555.157	93.88
555.37	97.88
555.583	99.88
555.795	107.88
556.008	95.88
556.221	103.88
556.433	109.88
556.646	102.88
556.859	102.88
557.071	81.88
557.284	101.88
557.496	105.88
557.709	100.88
557.921	94.88
558.134	97.88
558.346	101.88
558.559	74.88
558.771	98.88
558.984	95.88
559.196	96.88
559.409	93.88
559.621	100.88
559.833	97.88
560.046	96.88
560.258	98.88
560.47	84.88
560.683	101.88
560.895	81.88
561.107	84.88
561.32	86.88
561.532	86.88
561.744	78.88
561.956	93.88
562.168	94.88
562.381	87.88
562.593	94.88
562.805	97.88
563.017	108.88
563.229	83.88
563.441	85.88
563.653	111.88
563.865	89.88
564.077	81.88
564.289	96.88
564.501	102.88
564.713	99.88
564.925	79.88
565.137	95.88
565.349	88.88
565.561	91.88
565.773	92.88
565.985	83.88
566.197	110.88
566.408	89.88
566.62	100.88
566.832	97.88
567.044	90.88
567.255	102.88
567.467	101.88
567.679	103.88
567.891	105.88
568.102	102.88
568.314	93.88
568.526	99.88
568.737	101.88
568.949	92.88
569.161	100.88
569.372	86.88
569.584	93.88
569.795	94.88
570.007	86.88
570.218	82.88
570.43	82.88
570.641	99.88
570.853	94.88
571.064	94.88
571.276	83.88
571.487	86.88
571.698	101.88
571.91	105.88
572.121	98.88
572.333	95.88
572.544	81.88
572.755	88.88
572.966	76.88
573.178	79.88
573.389	98.88
573.6	80.88
573.811	82.88
574.023	86.88
574.234	86.88
574.445	73.88
574.656	86.88
574.867	84.88
575.078	99.88
575.289	88.88
575.501	100.88
575.712	88.88
575.923	87.88
576.134	81.88
576.345	96.88
576.556	77.88
576.767	88.88
576.978	76.88
577.188	94.88
577.399	88.88
577.61	89.88
577.821	73.88
578.032	83.88
578.243	87.88
578.454	83.88
578.665	72.88
578.875	89.88
579.086	88.88
579.297	96.88
579.508	78.88
579.718	84.88
579.929	92.88
580.14	88.88
580.35	82.88
580.561	85.88
580.772	88.88
580.982	80.88
581.193	80.88
581.403	82.88
581.614	94.88
581.825	100.88
582.035	79.88
582.246	80.88
582.456	79.88
582.667	96.88
582.877	95.88
583.087	84.88
583.298	85.88
583.508	82.88
583.719	89.88
583.929	90.88
584.139	93.88
584.35	83.88
584.56	85.88
584.77	78.88
584.981	83.88
585.191	85.88
585.401	84.88
585.611	87.88
585.821	81.88
586.032	95.88
586.242	72.88
586.452	72.88
586.662	93.88
586.872	84.88
587.082	80.88
587.292	87.88
587.502	86.88
587.713	81.88
587.923	78.88
588.133	83.88
588.343	79.88
588.553	104.88
588.762	88.88
588.972	88.88
589.182	88.88
589.392	94.88
589.602	88.88
589.812	96.88
590.022	88.88
590.232	83.88
590.441	70.88
590.651	89.88
590.861	76.88
591.071	85.88
591.281	71.88
591.49	84.88
591.7	84.88
591.91	88.88
592.119	90.88
592.329	97.88
592.539	83.88
592.748	94.88
592.958	86.88
593.167	84.88
593.377	84.88
593.587	89.88
593.796	90.88
594.006	80.88
594.215	69.88
594.424	86.88
594.634	92.88
594.843	88.88
595.053	90.88
595.262	69.88
595.472	83.88
595.681	85.88
595.89	84.88
596.1	72.88
596.309	71.88
596.518	90.88
596.727	85.88
596.937	69.88
597.146	96.88
597.355	85.88
597.564	76.88
597.774	74.88
597.983	77.88
598.192	78.88
598.401	87.88
598.61	76.88
598.819	76.88
599.028	87.88
599.237	78.88
599.446	80.88
599.655	78.88
599.864	75.88
600.073	79.88
600.282	76.88
600.491	88.88
600.7	90.88
600.909	79.88
601.118	95.88
601.327	79.88
601.536	85.88
601.745	89.88
601.953	99.88
602.162	80.88
602.371	89.88
602.58	94.88
602.789	87.88
602.997	86.88
603.206	92.88
603.415	90.88
603.623	84.88
603.832	81.88
604.041	88.88
604.249	76.88
604.458	63.88
604.666	77.88
604.875	90.88
605.084	73.88
605.292	84.88
605.501	80.88
605.709	83.88
605.918	74.88
606.126	86.88
606.334	78.88
606.543	79.88
606.751	90.88
606.96	91.88
607.168	93.88
607.376	97.88
607.585	82.88
607.793	92.88
608.001	86.88
608.21	101.88
608.418	75.88
608.626	81.88
608.834	78.88
609.043	82.88
609.251	82.88
609.459	85.88
609.667	77.88
609.875	75.88
610.083	74.88
610.291	93.88
610.499	105.88
610.707	79.88
610.916	84.88
611.124	84.88
611.332	88.88
611.54	86.88
611.748	91.88
611.955	79.88
612.163	85.88
612.371	65.88
612.579	74.88
612.787	86.88
612.995	88.88
613.203	95.88
613.411	91.88
613.618	87.88
613.826	83.88
614.034	79.88
614.242	72.88
614.449	79.88
614.657	75.88
614.865	75.88
615.072	96.88
615.28	89.88
615.488	88.88
615.695	69.88
615.903	93.88
616.111	88.88
616.318	81.88
616.526	72.88
616.733	83.88
616.941	77.88
617.148	100.88
617.356	80.88
617.563	91.88
617.771	95.88
617.978	81.88
618.185	82.88
618.393	94.88
618.6	76.88
618.807	89.88
619.015	76.88
619.222	94.88
619.429	85.88
619.637	68.88
619.844	71.88
620.051	90.88
620.258	67.88
620.466	87.88
620.673	94.88
620.88	86.88
621.087	80.88
621.294	93.88
621.501	94.88
621.708	74.88
621.915	92.88
622.122	93.88
622.329	90.88
622.536	81.88
622.743	82.88
622.95	91.88
623.157	79.88
623.364	94.88
623.571	84.88
623.778	89.88
623.985	93.88
624.192	78.88
624.399	71.88
624.606	79.88
624.812	77.88
625.019	84.88
625.226	79.88
625.433	88.88
625.639	90.88
625.846	83.88
626.053	68.88
626.259	86.88
626.466	85.88
626.673	76.88
626.879	91.88
627.086	80.88
627.293	93.88
627.499	97.88
627.706	96.88
627.912	86.88
628.119	86.88
628.325	87.88
628.532	81.88
628.738	73.88
628.945	88.88
629.151	88.88
629.357	82.88
629.564	95.88
629.77	90.88
629.976	89.88
630.183	72.88
630.389	72.88
630.595	99.88
630.802	89.88
631.008	98.88
631.214	86.88
631.42	89.88
631.627	102.88
631.833	90.88
632.039	100.88
632.245	78.88
632.451	84.88
632.657	78.88
632.863	84.88
633.069	71.88
633.275	76.88
633.481	87.88
633.688	88.88
633.893	76.88
634.099	78.88
634.305	80.88
634.511	72.88
634.717	75.88
634.923	65.88
635.129	80.88
635.335	101.88
635.541	75.88
635.747	72.88
635.952	81.88
636.158	84.88
636.364	91.88
636.57	74.88
636.775	75.88
636.981	78.88
637.187	85.88
637.392	71.88
637.598	87.88
637.804	79.88
638.009	96.88
638.215	91.88
638.421	77.88
638.626	79.88
638.832	81.88
639.037	71.88
639.243	82.88
639.448	73.88
639.654	97.88
639.859	84.88
640.065	71.88
640.27	82.88
640.475	85.88
640.681	83.88
640.886	75.88
641.091	65.88
641.297	77.88
641.502	76.88
641.707	80.88
641.913	72.88
642.118	80.88
642.323	80.88
642.528	85.88
642.733	73.88
642.939	81.88
643.144	79.88
643.349	80.88
643.554	85.88
643.759	74.88
643.964	85.88
644.169	99.88
644.374	83.88
644.579	75.88
644.784	80.88
644.989	89.88
645.194	76.88
645.399	92.88
645.604	64.88
645.809	79.88
646.014	70.88
646.219	73.88
646.423	84.88
646.628	82.88
646.833	80.88
647.038	87.88
647.243	79.88
647.447	82.88
647.652	90.88
647.857	80.88
648.062	76.88
648.266	97.88
648.471	66.88
648.676	73.88
648.88	71.88
649.085	86.88
649.289	74.88
649.494	82.88
649.698	100.88
649.903	90.88
650.107	84.88
650.312	83.88
650.516	102.88
650.721	96.88
650.925	85.88
651.13	87.88
651.334	87.88
651.539	75.88
651.743	81.88
651.947	76.88
652.152	96.88
652.356	78.88
652.56	74.88
652.764	75.88
652.969	79.88
653.173	73.88
653.377	89.88
653.581	96.88
653.785	76.88
653.99	81.88
654.194	88.88
654.398	78.88
654.602	85.88
654.806	92.88
655.01	82.88
655.214	90.88
655.418	81.88
655.622	82.88
655.826	72.88
656.03	85.88
656.234	76.88
656.438	80.88
656.642	84.88
656.846	71.88
657.049	81.88
657.253	77.88
657.457	86.88
657.661	87.88
657.865	82.88
658.068	77.88
658.272	77.88
658.476	85.88
658.68	84.88
658.883	70.88
659.087	81.88
659.291	83.88
659.494	86.88
659.698	83.88
659.901	87.88
660.105	87.88
660.309	85.88
660.512	80.88
660.716	80.88
660.919	80.88
661.123	91.88
661.326	78.88
661.53	79.88
661.733	76.88
661.936	85.88
662.14	79.88
662.343	90.88
662.546	70.88
662.75	70.88
662.953	83.88
663.156	73.88
663.36	73.88
663.563	82.88
663.766	81.88
663.969	66.88
664.173	84.88
664.376	83.88
664.579	69.88
664.782	89.88
664.985	74.88
665.188	76.88
665.391	86.88
665.594	65.88
665.797	79.88
666	72.88
666.203	84.88
666.406	63.88
666.609	65.88
666.812	72.88
667.015	87.88
667.218	83.88
667.421	74.88
667.624	87.88
667.827	91.88
668.03	86.88
668.232	79.88
668.435	80.88
668.638	81.88
668.841	69.88
669.043	71.88
669.246	73.88
669.449	76.88
669.651	87.88
669.854	72.88
670.057	77.88
670.259	80.88
670.462	71.88
670.665	89.88
670.867	71.88
671.07	90.88
671.272	85.88
671.475	72.88
671.677	86.88
671.88	86.88
672.082	73.88
672.284	94.88
672.487	73.88
672.689	79.88
672.892	67.88
