Data from Location5.07152019.Energy5.Lamp.07192019.3%Agarose_HRD10591_16-04-46-629.txt Node
Date: Fri Jul 19 16:04:46 EDT 2019
User: cochatt
Spectrometer: HR+D1059
Trigger mode: 1
Integration Time (sec): 1.000000E-1
Scans to average: 1
Electric dark correction enabled: true
Nonlinearity correction enabled: false
Boxcar width: 0
XAxis mode: Wavelengths
Number of Pixels in Spectrum: 2048
>>>>>Begin Spectral Data<<<<<
223.165	-29.31
223.4	-29.31
223.635	-29.31
223.869	-16.31
224.104	-15.31
224.338	-25.31
224.573	-23.31
224.808	-5.31
225.042	3.69
225.277	-1.31
225.511	3.69
225.746	1.69
225.98	5.69
226.215	8.69
226.449	18.69
226.683	25.69
226.918	27.69
227.152	20.69
227.387	24.69
227.621	29.69
227.856	38.69
228.09	45.69
228.324	44.69
228.559	42.69
228.793	46.69
229.027	54.69
229.262	63.69
229.496	61.69
229.73	72.69
229.964	66.69
230.199	63.69
230.433	73.69
230.667	78.69
230.901	69.69
231.136	70.69
231.37	74.69
231.604	77.69
231.838	72.69
232.072	77.69
232.306	80.69
232.541	78.69
232.775	83.69
233.009	89.69
233.243	67.69
233.477	83.69
233.711	78.69
233.945	79.69
234.179	83.69
234.413	79.69
234.647	85.69
234.881	74.69
235.115	73.69
235.349	91.69
235.583	84.69
235.817	57.69
236.051	87.69
236.285	63.69
236.519	67.69
236.753	82.69
236.987	88.69
237.221	85.69
237.455	75.69
237.689	70.69
237.922	59.69
238.156	72.69
238.39	61.69
238.624	77.69
238.858	80.69
239.091	87.69
239.325	69.69
239.559	89.69
239.793	78.69
240.027	77.69
240.26	69.69
240.494	86.69
240.728	90.69
240.961	78.69
241.195	79.69
241.429	63.69
241.662	79.69
241.896	77.69
242.13	74.69
242.363	81.69
242.597	74.69
242.83	72.69
243.064	74.69
243.298	63.69
243.531	82.69
243.765	79.69
243.998	74.69
244.232	63.69
244.465	72.69
244.699	78.69
244.932	69.69
245.166	64.69
245.399	74.69
245.633	79.69
245.866	82.69
246.099	87.69
246.333	88.69
246.566	86.69
246.8	56.69
247.033	74.69
247.266	60.69
247.5	69.69
247.733	93.69
247.966	61.69
248.2	88.69
248.433	75.69
248.666	83.69
248.899	81.69
249.133	80.69
249.366	76.69
249.599	78.69
249.832	80.69
250.066	88.69
250.299	68.69
250.532	71.69
250.765	80.69
250.998	69.69
251.231	74.69
251.465	79.69
251.698	73.69
251.931	72.69
252.164	90.69
252.397	73.69
252.63	78.69
252.863	59.69
253.096	66.69
253.329	78.69
253.562	82.69
253.795	80.69
254.028	84.69
254.261	81.69
254.494	79.69
254.727	63.69
254.96	71.69
255.193	71.69
255.426	80.69
255.659	81.69
255.892	86.69
256.124	89.69
256.357	79.69
256.59	76.69
256.823	77.69
257.056	94.69
257.289	83.69
257.521	80.69
257.754	86.69
257.987	81.69
258.22	87.69
258.452	75.69
258.685	76.69
258.918	87.69
259.151	78.69
259.383	74.69
259.616	72.69
259.849	79.69
260.081	88.69
260.314	78.69
260.547	66.69
260.779	67.69
261.012	73.69
261.244	103.69
261.477	75.69
261.71	81.69
261.942	88.69
262.175	75.69
262.407	84.69
262.64	75.69
262.872	79.69
263.105	79.69
263.337	79.69
263.57	79.69
263.802	83.69
264.035	86.69
264.267	73.69
264.499	77.69
264.732	86.69
264.964	63.69
265.197	78.69
265.429	79.69
265.661	78.69
265.894	76.69
266.126	95.69
266.358	93.69
266.591	80.69
266.823	82.69
267.055	94.69
267.287	71.69
267.52	74.69
267.752	89.69
267.984	79.69
268.216	68.69
268.448	82.69
268.681	84.69
268.913	84.69
269.145	69.69
269.377	88.69
269.609	73.69
269.841	81.69
270.073	81.69
270.306	74.69
270.538	76.69
270.77	79.69
271.002	82.69
271.234	71.69
271.466	85.69
271.698	85.69
271.93	99.69
272.162	82.69
272.394	88.69
272.626	78.69
272.858	70.69
273.09	84.69
273.322	86.69
273.553	76.69
273.785	79.69
274.017	91.69
274.249	106.69
274.481	83.69
274.713	82.69
274.945	89.69
275.176	83.69
275.408	90.69
275.64	88.69
275.872	92.69
276.104	74.69
276.335	81.69
276.567	80.69
276.799	78.69
277.031	90.69
277.262	80.69
277.494	81.69
277.726	89.69
277.957	78.69
278.189	82.69
278.421	74.69
278.652	79.69
278.884	94.69
279.115	97.69
279.347	88.69
279.579	88.69
279.81	89.69
280.042	87.69
280.273	83.69
280.505	88.69
280.736	74.69
280.968	76.69
281.199	98.69
281.431	68.69
281.662	82.69
281.894	85.69
282.125	75.69
282.356	99.69
282.588	87.69
282.819	84.69
283.051	88.69
283.282	73.69
283.513	86.69
283.745	79.69
283.976	90.69
284.207	94.69
284.439	82.69
284.67	66.69
284.901	80.69
285.132	77.69
285.364	82.69
285.595	89.69
285.826	77.69
286.057	72.69
286.288	85.69
286.52	82.69
286.751	93.69
286.982	87.69
287.213	87.69
287.444	58.69
287.675	81.69
287.906	96.69
288.138	92.69
288.369	79.69
288.6	81.69
288.831	84.69
289.062	90.69
289.293	75.69
289.524	87.69
289.755	82.69
289.986	85.69
290.217	101.69
290.448	76.69
290.679	94.69
290.91	93.69
291.141	87.69
291.371	82.69
291.602	81.69
291.833	85.69
292.064	101.69
292.295	91.69
292.526	72.69
292.757	80.69
292.987	94.69
293.218	71.69
293.449	83.69
293.68	95.69
293.91	82.69
294.141	88.69
294.372	99.69
294.603	89.69
294.833	77.69
295.064	90.69
295.295	82.69
295.525	80.69
295.756	93.69
295.987	79.69
296.217	73.69
296.448	95.69
296.679	90.69
296.909	87.69
297.14	87.69
297.37	89.69
297.601	93.69
297.831	81.69
298.062	83.69
298.292	97.69
298.523	93.69
298.753	92.69
298.984	86.69
299.214	83.69
299.445	92.69
299.675	93.69
299.905	81.69
300.136	87.69
300.366	85.69
300.597	74.69
300.827	85.69
301.057	93.69
301.288	83.69
301.518	91.69
301.748	78.69
301.979	77.69
302.209	99.69
302.439	83.69
302.669	81.69
302.9	93.69
303.13	77.69
303.36	90.69
303.59	95.69
303.82	81.69
304.051	88.69
304.281	93.69
304.511	69.69
304.741	95.69
304.971	99.69
305.201	97.69
305.431	93.69
305.661	85.69
305.891	72.69
306.121	80.69
306.352	98.69
306.582	78.69
306.812	95.69
307.042	81.69
307.272	95.69
307.502	96.69
307.731	91.69
307.961	97.69
308.191	89.69
308.421	84.69
308.651	89.69
308.881	86.69
309.111	103.69
309.341	82.69
309.571	83.69
309.8	64.69
310.03	92.69
310.26	86.69
310.49	85.69
310.72	91.69
310.949	88.69
311.179	67.69
311.409	87.69
311.639	81.69
311.868	76.69
312.098	88.69
312.328	92.69
312.557	93.69
312.787	89.69
313.017	81.69
313.246	99.69
313.476	80.69
313.706	68.69
313.935	99.69
314.165	102.69
314.394	87.69
314.624	98.69
314.853	87.69
315.083	96.69
315.312	103.69
315.542	85.69
315.771	86.69
316.001	99.69
316.23	89.69
316.46	85.69
316.689	82.69
316.919	79.69
317.148	92.69
317.377	81.69
317.607	81.69
317.836	81.69
318.065	87.69
318.295	93.69
318.524	77.69
318.753	76.69
318.983	73.69
319.212	79.69
319.441	102.69
319.67	97.69
319.9	81.69
320.129	85.69
320.358	87.69
320.587	98.69
320.816	89.69
321.046	81.69
321.275	99.69
321.504	87.69
321.733	93.69
321.962	88.69
322.191	86.69
322.42	107.69
322.649	107.69
322.878	92.69
323.108	84.69
323.337	94.69
323.566	97.69
323.795	96.69
324.024	80.69
324.253	69.69
324.482	85.69
324.71	87.69
324.939	87.69
325.168	86.69
325.397	79.69
325.626	86.69
325.855	90.69
326.084	85.69
326.313	83.69
326.542	106.69
326.77	74.69
326.999	75.69
327.228	92.69
327.457	88.69
327.686	71.69
327.914	109.69
328.143	84.69
328.372	90.69
328.6	90.69
328.829	97.69
329.058	85.69
329.287	90.69
329.515	80.69
329.744	79.69
329.972	91.69
330.201	88.69
330.43	86.69
330.658	81.69
330.887	69.69
331.115	103.69
331.344	89.69
331.572	84.69
331.801	92.69
332.03	93.69
332.258	90.69
332.486	81.69
332.715	102.69
332.943	84.69
333.172	89.69
333.4	79.69
333.629	91.69
333.857	96.69
334.085	96.69
334.314	92.69
334.542	102.69
334.771	101.69
334.999	87.69
335.227	93.69
335.455	96.69
335.684	104.69
335.912	83.69
336.14	79.69
336.369	80.69
336.597	89.69
336.825	98.69
337.053	93.69
337.281	97.69
337.51	86.69
337.738	78.69
337.966	85.69
338.194	91.69
338.422	85.69
338.65	71.69
338.878	91.69
339.106	85.69
339.334	99.69
339.562	87.69
339.79	85.69
340.018	86.69
340.246	83.69
340.474	96.69
340.702	91.69
340.93	76.69
341.158	81.69
341.386	88.69
341.614	84.69
341.842	103.69
342.07	93.69
342.298	85.69
342.526	79.69
342.754	97.69
342.981	94.69
343.209	76.69
343.437	87.69
343.665	93.69
343.893	98.69
344.12	95.69
344.348	85.69
344.576	93.69
344.804	84.69
345.031	84.69
345.259	88.69
345.487	84.69
345.714	77.69
345.942	89.69
346.17	97.69
346.397	82.69
346.625	70.69
346.853	90.69
347.08	90.69
347.308	86.69
347.535	104.69
347.763	88.69
347.99	93.69
348.218	89.69
348.445	86.69
348.673	94.69
348.9	96.69
349.128	85.69
349.355	87.69
349.583	102.69
349.81	83.69
350.037	89.69
350.265	90.69
350.492	97.69
350.72	93.69
350.947	92.69
351.174	94.69
351.402	79.69
351.629	91.69
351.856	74.69
352.083	88.69
352.311	94.69
352.538	78.69
352.765	89.69
352.992	93.69
353.22	96.69
353.447	89.69
353.674	96.69
353.901	78.69
354.128	77.69
354.355	78.69
354.583	86.69
354.81	88.69
355.037	95.69
355.264	104.69
355.491	72.69
355.718	77.69
355.945	97.69
356.172	101.69
356.399	77.69
356.626	86.69
356.853	80.69
357.08	81.69
357.307	73.69
357.534	94.69
357.761	87.69
357.988	86.69
358.215	75.69
358.441	89.69
358.668	89.69
358.895	91.69
359.122	71.69
359.349	87.69
359.576	100.69
359.802	80.69
360.029	82.69
360.256	83.69
360.483	82.69
360.709	96.69
360.936	94.69
361.163	103.69
361.39	89.69
361.616	86.69
361.843	90.69
362.07	95.69
362.296	78.69
362.523	78.69
362.749	99.69
362.976	98.69
363.203	95.69
363.429	79.69
363.656	78.69
363.882	78.69
364.109	93.69
364.335	95.69
364.562	83.69
364.788	79.69
365.015	95.69
365.241	95.69
365.468	88.69
365.694	86.69
365.92	80.69
366.147	79.69
366.373	77.69
366.599	91.69
366.826	82.69
367.052	85.69
367.278	71.69
367.505	82.69
367.731	89.69
367.957	82.69
368.184	77.69
368.41	95.69
368.636	82.69
368.862	96.69
369.089	88.69
369.315	94.69
369.541	94.69
369.767	91.69
369.993	77.69
370.219	81.69
370.445	95.69
370.672	91.69
370.898	87.69
371.124	102.69
371.35	76.69
371.576	97.69
371.802	86.69
372.028	81.69
372.254	91.69
372.48	92.69
372.706	85.69
372.932	87.69
373.158	86.69
373.384	99.69
373.61	94.69
373.835	95.69
374.061	82.69
374.287	102.69
374.513	96.69
374.739	95.69
374.965	85.69
375.191	95.69
375.416	69.69
375.642	90.69
375.868	96.69
376.094	95.69
376.319	98.69
376.545	67.69
376.771	80.69
376.997	100.69
377.222	92.69
377.448	86.69
377.674	83.69
377.899	83.69
378.125	77.69
378.35	95.69
378.576	81.69
378.802	94.69
379.027	85.69
379.253	93.69
379.478	92.69
379.704	89.69
379.929	82.69
380.155	98.69
380.38	74.69
380.606	83.69
380.831	83.69
381.057	96.69
381.282	102.69
381.507	85.69
381.733	81.69
381.958	87.69
382.184	79.69
382.409	97.69
382.634	93.69
382.86	94.69
383.085	81.69
383.31	76.69
383.535	85.69
383.761	78.69
383.986	97.69
384.211	84.69
384.436	71.69
384.662	87.69
384.887	96.69
385.112	92.69
385.337	97.69
385.562	76.69
385.787	85.69
386.013	85.69
386.238	93.69
386.463	83.69
386.688	91.69
386.913	75.69
387.138	89.69
387.363	94.69
387.588	95.69
387.813	95.69
388.038	94.69
388.263	106.69
388.488	98.69
388.713	101.69
388.938	86.69
389.163	76.69
389.387	91.69
389.612	87.69
389.837	90.69
390.062	84.69
390.287	92.69
390.512	106.69
390.736	81.69
390.961	103.69
391.186	94.69
391.411	92.69
391.636	91.69
391.86	91.69
392.085	96.69
392.31	98.69
392.534	96.69
392.759	102.69
392.984	89.69
393.208	94.69
393.433	88.69
393.658	90.69
393.882	85.69
394.107	87.69
394.331	81.69
394.556	72.69
394.78	101.69
395.005	90.69
395.229	97.69
395.454	86.69
395.678	102.69
395.903	91.69
396.127	99.69
396.352	100.69
396.576	85.69
396.801	84.69
397.025	86.69
397.249	77.69
397.474	91.69
397.698	82.69
397.922	98.69
398.147	99.69
398.371	90.69
398.595	95.69
398.82	104.69
399.044	91.69
399.268	83.69
399.492	98.69
399.717	99.69
399.941	100.69
400.165	96.69
400.389	93.69
400.613	87.69
400.837	96.69
401.062	82.69
401.286	90.69
401.51	86.69
401.734	87.69
401.958	85.69
402.182	105.69
402.406	101.69
402.63	98.69
402.854	98.69
403.078	89.69
403.302	98.69
403.526	79.69
403.75	101.69
403.974	87.69
404.198	93.69
404.422	85.69
404.645	93.69
404.869	92.69
405.093	94.69
405.317	91.69
405.541	96.69
405.765	85.69
405.988	90.69
406.212	78.69
406.436	105.69
406.66	100.69
406.883	98.69
407.107	84.69
407.331	91.69
407.555	95.69
407.778	94.69
408.002	94.69
408.226	98.69
408.449	86.69
408.673	80.69
408.896	81.69
409.12	89.69
409.344	94.69
409.567	93.69
409.791	102.69
410.014	90.69
410.238	87.69
410.461	93.69
410.685	101.69
410.908	87.69
411.132	96.69
411.355	75.69
411.578	95.69
411.802	93.69
412.025	79.69
412.249	105.69
412.472	88.69
412.695	80.69
412.919	92.69
413.142	96.69
413.365	99.69
413.589	90.69
413.812	87.69
414.035	115.69
414.258	105.69
414.482	97.69
414.705	102.69
414.928	92.69
415.151	94.69
415.374	91.69
415.597	93.69
415.821	88.69
416.044	82.69
416.267	86.69
416.49	69.69
416.713	84.69
416.936	93.69
417.159	90.69
417.382	100.69
417.605	83.69
417.828	89.69
418.051	92.69
418.274	105.69
418.497	98.69
418.72	90.69
418.943	83.69
419.166	111.69
419.389	99.69
419.611	99.69
419.834	89.69
420.057	88.69
420.28	98.69
420.503	94.69
420.726	106.69
420.948	89.69
421.171	86.69
421.394	96.69
421.617	97.69
421.839	88.69
422.062	100.69
422.285	91.69
422.507	78.69
422.73	102.69
422.953	83.69
423.175	88.69
423.398	86.69
423.621	95.69
423.843	82.69
424.066	88.69
424.288	91.69
424.511	92.69
424.733	107.69
424.956	87.69
425.178	87.69
425.401	92.69
425.623	79.69
425.846	98.69
426.068	95.69
426.291	94.69
426.513	78.69
426.735	98.69
426.958	86.69
427.18	88.69
427.402	97.69
427.625	97.69
427.847	107.69
428.069	91.69
428.292	79.69
428.514	94.69
428.736	87.69
428.958	98.69
429.181	81.69
429.403	86.69
429.625	83.69
429.847	88.69
430.069	79.69
430.292	87.69
430.514	95.69
430.736	101.69
430.958	90.69
431.18	94.69
431.402	92.69
431.624	94.69
431.846	93.69
432.068	93.69
432.29	101.69
432.512	100.69
432.734	90.69
432.956	89.69
433.178	84.69
433.4	82.69
433.622	93.69
433.844	88.69
434.066	93.69
434.287	92.69
434.509	96.69
434.731	86.69
434.953	77.69
435.175	97.69
435.397	91.69
435.618	85.69
435.84	93.69
436.062	73.69
436.284	78.69
436.505	94.69
436.727	85.69
436.949	87.69
437.17	84.69
437.392	96.69
437.614	92.69
437.835	96.69
438.057	91.69
438.278	87.69
438.5	95.69
438.721	102.69
438.943	91.69
439.165	93.69
439.386	91.69
439.608	95.69
439.829	92.69
440.05	99.69
440.272	95.69
440.493	80.69
440.715	86.69
440.936	86.69
441.158	92.69
441.379	97.69
441.6	95.69
441.822	85.69
442.043	85.69
442.264	83.69
442.486	99.69
442.707	82.69
442.928	96.69
443.149	80.69
443.371	101.69
443.592	87.69
443.813	91.69
444.034	97.69
444.255	93.69
444.476	86.69
444.698	89.69
444.919	87.69
445.14	227.69
445.361	149.69
445.582	97.69
445.803	91.69
446.024	91.69
446.245	102.69
446.466	89.69
446.687	86.69
446.908	86.69
447.129	78.69
447.35	92.69
447.571	88.69
447.792	82.69
448.013	85.69
448.234	82.69
448.455	80.69
448.675	95.69
448.896	95.69
449.117	79.69
449.338	82.69
449.559	91.69
449.779	89.69
450	96.69
450.221	98.69
450.442	87.69
450.662	86.69
450.883	86.69
451.104	89.69
451.324	101.69
451.545	102.69
451.766	81.69
451.986	93.69
452.207	85.69
452.428	91.69
452.648	103.69
452.869	102.69
453.089	96.69
453.31	91.69
453.53	82.69
453.751	89.69
453.971	90.69
454.192	93.69
454.412	93.69
454.633	86.69
454.853	86.69
455.073	103.69
455.294	89.69
455.514	93.69
455.734	71.69
455.955	100.69
456.175	91.69
456.395	95.69
456.616	92.69
456.836	83.69
457.056	81.69
457.276	91.69
457.497	82.69
457.717	87.69
457.937	90.69
458.157	83.69
458.377	84.69
458.598	72.69
458.818	75.69
459.038	81.69
459.258	96.69
459.478	82.69
459.698	88.69
459.918	93.69
460.138	94.69
460.358	86.69
460.578	90.69
460.798	88.69
461.018	79.69
461.238	88.69
461.458	93.69
461.678	98.69
461.898	101.69
462.118	81.69
462.338	104.69
462.558	94.69
462.777	105.69
462.997	92.69
463.217	92.69
463.437	107.69
463.657	83.69
463.876	86.69
464.096	90.69
464.316	103.69
464.536	94.69
464.755	94.69
464.975	93.69
465.195	94.69
465.414	90.69
465.634	88.69
465.854	76.69
466.073	91.69
466.293	87.69
466.512	87.69
466.732	98.69
466.951	90.69
467.171	97.69
467.391	109.69
467.61	83.69
467.829	85.69
468.049	92.69
468.268	96.69
468.488	87.69
468.707	101.69
468.927	96.69
469.146	93.69
469.365	95.69
469.585	100.69
469.804	87.69
470.023	98.69
470.243	91.69
470.462	98.69
470.681	96.69
470.901	88.69
471.12	84.69
471.339	93.69
471.558	84.69
471.777	98.69
471.997	101.69
472.216	100.69
472.435	97.69
472.654	90.69
472.873	82.69
473.092	100.69
473.311	94.69
473.53	93.69
473.749	94.69
473.968	97.69
474.187	80.69
474.406	86.69
474.625	91.69
474.844	84.69
475.063	104.69
475.282	88.69
475.501	88.69
475.72	88.69
475.939	102.69
476.158	97.69
476.377	101.69
476.596	90.69
476.814	94.69
477.033	113.69
477.252	96.69
477.471	94.69
477.69	89.69
477.908	103.69
478.127	109.69
478.346	110.69
478.564	99.69
478.783	81.69
479.002	101.69
479.22	89.69
479.439	99.69
479.658	102.69
479.876	95.69
480.095	88.69
480.313	105.69
480.532	91.69
480.751	98.69
480.969	89.69
481.188	85.69
481.406	77.69
481.624	94.69
481.843	91.69
482.061	89.69
482.28	88.69
482.498	95.69
482.717	90.69
482.935	99.69
483.153	99.69
483.372	97.69
483.59	90.69
483.808	103.69
484.027	91.69
484.245	86.69
484.463	101.69
484.681	105.69
484.9	94.69
485.118	85.69
485.336	95.69
485.554	93.69
485.772	102.69
485.99	100.69
486.209	94.69
486.427	95.69
486.645	96.69
486.863	113.69
487.081	98.69
487.299	101.69
487.517	78.69
487.735	101.69
487.953	103.69
488.171	105.69
488.389	110.69
488.607	82.69
488.825	97.69
489.043	96.69
489.261	96.69
489.479	97.69
489.696	83.69
489.914	88.69
490.132	92.69
490.35	117.69
490.568	101.69
490.786	102.69
491.003	111.69
491.221	107.69
491.439	87.69
491.657	104.69
491.874	107.69
492.092	117.69
492.31	115.69
492.527	103.69
492.745	104.69
492.963	105.69
493.18	89.69
493.398	104.69
493.615	99.69
493.833	102.69
494.05	95.69
494.268	108.69
494.485	105.69
494.703	94.69
494.92	96.69
495.138	110.69
495.355	95.69
495.573	94.69
495.79	104.69
496.008	104.69
496.225	112.69
496.442	102.69
496.66	101.69
496.877	107.69
497.094	113.69
497.312	103.69
497.529	109.69
497.746	101.69
497.963	92.69
498.181	94.69
498.398	96.69
498.615	88.69
498.832	100.69
499.049	101.69
499.267	107.69
499.484	108.69
499.701	125.69
499.918	144.69
500.135	137.69
500.352	134.69
500.569	156.69
500.786	151.69
501.003	146.69
501.22	115.69
501.437	130.69
501.654	126.69
501.871	122.69
502.088	115.69
502.305	110.69
502.522	119.69
502.739	105.69
502.956	104.69
503.172	101.69
503.389	91.69
503.606	93.69
503.823	107.69
504.04	111.69
504.256	101.69
504.473	109.69
504.69	100.69
504.907	110.69
505.123	95.69
505.34	96.69
505.557	94.69
505.773	105.69
505.99	90.69
506.207	99.69
506.423	106.69
506.64	97.69
506.856	85.69
507.073	84.69
507.289	87.69
507.506	102.69
507.722	106.69
507.939	105.69
508.155	104.69
508.372	88.69
508.588	83.69
508.805	97.69
509.021	92.69
509.238	103.69
509.454	99.69
509.67	93.69
509.887	91.69
510.103	85.69
510.319	105.69
510.536	103.69
510.752	95.69
510.968	82.69
511.184	80.69
511.401	93.69
511.617	90.69
511.833	87.69
512.049	86.69
512.265	84.69
512.481	82.69
512.698	94.69
512.914	95.69
513.13	105.69
513.346	107.69
513.562	98.69
513.778	101.69
513.994	103.69
514.21	88.69
514.426	96.69
514.642	99.69
514.858	101.69
515.074	104.69
515.29	99.69
515.506	99.69
515.721	91.69
515.937	91.69
516.153	84.69
516.369	90.69
516.585	105.69
516.801	94.69
517.016	104.69
517.232	92.69
517.448	99.69
517.664	103.69
517.879	111.69
518.095	104.69
518.311	101.69
518.527	88.69
518.742	91.69
518.958	97.69
519.173	103.69
519.389	96.69
519.605	92.69
519.82	110.69
520.036	88.69
520.251	94.69
520.467	99.69
520.682	95.69
520.898	86.69
521.113	90.69
521.329	94.69
521.544	83.69
521.76	89.69
521.975	96.69
522.19	95.69
522.406	99.69
522.621	89.69
522.836	88.69
523.052	97.69
523.267	89.69
523.482	93.69
523.698	88.69
523.913	86.69
524.128	95.69
524.343	106.69
524.559	103.69
524.774	89.69
524.989	83.69
525.204	106.69
525.419	96.69
525.634	98.69
525.849	91.69
526.064	89.69
526.28	103.69
526.495	85.69
526.71	89.69
526.925	96.69
527.14	77.69
527.355	85.69
527.57	83.69
527.785	101.69
527.999	93.69
528.214	95.69
528.429	118.69
528.644	96.69
528.859	95.69
529.074	106.69
529.289	117.69
529.503	91.69
529.718	86.69
529.933	90.69
530.148	96.69
530.363	93.69
530.577	90.69
530.792	106.69
531.007	96.69
531.221	88.69
531.436	81.69
531.651	114.69
531.865	91.69
532.08	95.69
532.295	99.69
532.509	87.69
532.724	90.69
532.938	94.69
533.153	85.69
533.367	103.69
533.582	92.69
533.796	88.69
534.011	91.69
534.225	104.69
534.44	84.69
534.654	98.69
534.868	110.69
535.083	100.69
535.297	93.69
535.511	80.69
535.726	79.69
535.94	105.69
536.154	94.69
536.369	91.69
536.583	87.69
536.797	93.69
537.011	88.69
537.225	101.69
537.44	102.69
537.654	94.69
537.868	90.69
538.082	112.69
538.296	94.69
538.51	97.69
538.724	101.69
538.938	86.69
539.153	110.69
539.367	97.69
539.581	96.69
539.795	99.69
540.009	79.69
540.222	80.69
540.436	102.69
540.65	100.69
540.864	103.69
541.078	96.69
541.292	102.69
541.506	89.69
541.72	97.69
541.934	97.69
542.147	104.69
542.361	105.69
542.575	79.69
542.789	101.69
543.002	89.69
543.216	89.69
543.43	98.69
543.644	89.69
543.857	89.69
544.071	82.69
544.285	115.69
544.498	91.69
544.712	86.69
544.925	108.69
545.139	102.69
545.352	76.69
545.566	97.69
545.779	91.69
545.993	103.69
546.206	84.69
546.42	104.69
546.633	94.69
546.847	104.69
547.06	108.69
547.274	99.69
547.487	111.69
547.7	112.69
547.914	79.69
548.127	98.69
548.34	111.69
548.554	83.69
548.767	112.69
548.98	95.69
549.193	90.69
549.407	99.69
549.62	90.69
549.833	99.69
550.046	89.69
550.259	104.69
550.473	86.69
550.686	118.69
550.899	97.69
551.112	91.69
551.325	88.69
551.538	92.69
551.751	102.69
551.964	86.69
552.177	99.69
552.39	98.69
552.603	102.69
552.816	95.69
553.029	101.69
553.242	94.69
553.455	113.69
553.667	93.69
553.88	96.69
554.093	91.69
554.306	98.69
554.519	103.69
554.732	105.69
554.944	96.69
555.157	98.69
555.37	113.69
555.583	89.69
555.795	99.69
556.008	89.69
556.221	80.69
556.433	95.69
556.646	106.69
556.859	95.69
557.071	90.69
557.284	87.69
557.496	100.69
557.709	80.69
557.921	92.69
558.134	106.69
558.346	96.69
558.559	92.69
558.771	84.69
558.984	74.69
559.196	89.69
559.409	98.69
559.621	91.69
559.833	95.69
560.046	91.69
560.258	108.69
560.47	99.69
560.683	93.69
560.895	91.69
561.107	92.69
561.32	93.69
561.532	92.69
561.744	111.69
561.956	87.69
562.168	94.69
562.381	94.69
562.593	85.69
562.805	92.69
563.017	84.69
563.229	80.69
563.441	84.69
563.653	86.69
563.865	78.69
564.077	105.69
564.289	85.69
564.501	84.69
564.713	97.69
564.925	96.69
565.137	79.69
565.349	94.69
565.561	107.69
565.773	79.69
565.985	97.69
566.197	101.69
566.408	94.69
566.62	92.69
566.832	103.69
567.044	94.69
567.255	105.69
567.467	103.69
567.679	97.69
567.891	87.69
568.102	90.69
568.314	100.69
568.526	90.69
568.737	94.69
568.949	103.69
569.161	93.69
569.372	82.69
569.584	96.69
569.795	83.69
570.007	83.69
570.218	87.69
570.43	90.69
570.641	90.69
570.853	93.69
571.064	89.69
571.276	106.69
571.487	93.69
571.698	89.69
571.91	92.69
572.121	94.69
572.333	84.69
572.544	81.69
572.755	87.69
572.966	98.69
573.178	84.69
573.389	88.69
573.6	88.69
573.811	89.69
574.023	81.69
574.234	92.69
574.445	88.69
574.656	83.69
574.867	84.69
575.078	87.69
575.289	82.69
575.501	79.69
575.712	84.69
575.923	78.69
576.134	93.69
576.345	88.69
576.556	85.69
576.767	87.69
576.978	93.69
577.188	89.69
577.399	75.69
577.61	89.69
577.821	85.69
578.032	83.69
578.243	85.69
578.454	110.69
578.665	94.69
578.875	82.69
579.086	95.69
579.297	92.69
579.508	79.69
579.718	74.69
579.929	85.69
580.14	88.69
580.35	90.69
580.561	81.69
580.772	97.69
580.982	84.69
581.193	82.69
581.403	91.69
581.614	94.69
581.825	90.69
582.035	85.69
582.246	99.69
582.456	78.69
582.667	85.69
582.877	74.69
583.087	76.69
583.298	95.69
583.508	91.69
583.719	79.69
583.929	69.69
584.139	89.69
584.35	82.69
584.56	80.69
584.77	96.69
584.981	80.69
585.191	81.69
585.401	90.69
585.611	89.69
585.821	80.69
586.032	87.69
586.242	88.69
586.452	93.69
586.662	78.69
586.872	103.69
587.082	94.69
587.292	98.69
587.502	77.69
587.713	87.69
587.923	82.69
588.133	63.69
588.343	89.69
588.553	95.69
588.762	109.69
588.972	94.69
589.182	88.69
589.392	84.69
589.602	78.69
589.812	95.69
590.022	85.69
590.232	79.69
590.441	81.69
590.651	86.69
590.861	92.69
591.071	91.69
591.281	99.69
591.49	83.69
591.7	81.69
591.91	98.69
592.119	88.69
592.329	78.69
592.539	84.69
592.748	87.69
592.958	86.69
593.167	95.69
593.377	84.69
593.587	91.69
593.796	90.69
594.006	90.69
594.215	80.69
594.424	97.69
594.634	93.69
594.843	95.69
595.053	77.69
595.262	83.69
595.472	88.69
595.681	82.69
595.89	84.69
596.1	85.69
596.309	93.69
596.518	93.69
596.727	96.69
596.937	87.69
597.146	81.69
597.355	82.69
597.564	84.69
597.774	87.69
597.983	87.69
598.192	94.69
598.401	85.69
598.61	78.69
598.819	88.69
599.028	79.69
599.237	82.69
599.446	85.69
599.655	93.69
599.864	82.69
600.073	81.69
600.282	90.69
600.491	81.69
600.7	93.69
600.909	67.69
601.118	83.69
601.327	79.69
601.536	85.69
601.745	78.69
601.953	73.69
602.162	83.69
602.371	88.69
602.58	87.69
602.789	88.69
602.997	83.69
603.206	85.69
603.415	92.69
603.623	93.69
603.832	87.69
604.041	81.69
604.249	82.69
604.458	87.69
604.666	95.69
604.875	85.69
605.084	88.69
605.292	86.69
605.501	80.69
605.709	84.69
605.918	90.69
606.126	96.69
606.334	74.69
606.543	79.69
606.751	86.69
606.96	91.69
607.168	78.69
607.376	90.69
607.585	96.69
607.793	85.69
608.001	84.69
608.21	92.69
608.418	97.69
608.626	88.69
608.834	96.69
609.043	81.69
609.251	95.69
609.459	93.69
609.667	99.69
609.875	97.69
610.083	83.69
610.291	91.69
610.499	78.69
610.707	85.69
610.916	93.69
611.124	69.69
611.332	82.69
611.54	83.69
611.748	83.69
611.955	98.69
612.163	74.69
612.371	80.69
612.579	74.69
612.787	88.69
612.995	74.69
613.203	84.69
613.411	89.69
613.618	98.69
613.826	92.69
614.034	86.69
614.242	70.69
614.449	79.69
614.657	83.69
614.865	80.69
615.072	79.69
615.28	90.69
615.488	91.69
615.695	79.69
615.903	87.69
616.111	82.69
616.318	75.69
616.526	91.69
616.733	89.69
616.941	69.69
617.148	90.69
617.356	76.69
617.563	87.69
617.771	86.69
617.978	79.69
618.185	78.69
618.393	91.69
618.6	100.69
618.807	76.69
619.015	77.69
619.222	72.69
619.429	77.69
619.637	93.69
619.844	77.69
620.051	93.69
620.258	91.69
620.466	73.69
620.673	97.69
620.88	71.69
621.087	91.69
621.294	86.69
621.501	88.69
621.708	91.69
621.915	99.69
622.122	84.69
622.329	75.69
622.536	77.69
622.743	79.69
622.95	85.69
623.157	80.69
623.364	83.69
623.571	84.69
623.778	86.69
623.985	90.69
624.192	88.69
624.399	88.69
624.606	91.69
624.812	87.69
625.019	78.69
625.226	70.69
625.433	78.69
625.639	79.69
625.846	81.69
626.053	86.69
626.259	92.69
626.466	90.69
626.673	94.69
626.879	97.69
627.086	89.69
627.293	90.69
627.499	71.69
627.706	81.69
627.912	92.69
628.119	90.69
628.325	72.69
628.532	74.69
628.738	74.69
628.945	85.69
629.151	77.69
629.357	72.69
629.564	85.69
629.77	82.69
629.976	80.69
630.183	83.69
630.389	89.69
630.595	82.69
630.802	88.69
631.008	78.69
631.214	83.69
631.42	74.69
631.627	89.69
631.833	87.69
632.039	74.69
632.245	86.69
632.451	95.69
632.657	94.69
632.863	78.69
633.069	89.69
633.275	81.69
633.481	73.69
633.688	80.69
633.893	80.69
634.099	78.69
634.305	81.69
634.511	73.69
634.717	83.69
634.923	89.69
635.129	78.69
635.335	94.69
635.541	91.69
635.747	79.69
635.952	74.69
636.158	86.69
636.364	77.69
636.57	70.69
636.775	95.69
636.981	75.69
637.187	83.69
637.392	89.69
637.598	67.69
637.804	106.69
638.009	91.69
638.215	91.69
638.421	90.69
638.626	93.69
638.832	90.69
639.037	82.69
639.243	99.69
639.448	92.69
639.654	79.69
639.859	87.69
640.065	82.69
640.27	77.69
640.475	91.69
640.681	82.69
640.886	89.69
641.091	83.69
641.297	64.69
641.502	80.69
641.707	80.69
641.913	80.69
642.118	83.69
642.323	84.69
642.528	93.69
642.733	86.69
642.939	77.69
643.144	76.69
643.349	72.69
643.554	69.69
643.759	83.69
643.964	88.69
644.169	88.69
644.374	83.69
644.579	84.69
644.784	67.69
644.989	85.69
645.194	81.69
645.399	81.69
645.604	73.69
645.809	80.69
646.014	81.69
646.219	94.69
646.423	94.69
646.628	82.69
646.833	91.69
647.038	89.69
647.243	96.69
647.447	94.69
647.652	82.69
647.857	79.69
648.062	96.69
648.266	93.69
648.471	100.69
648.676	83.69
648.88	86.69
649.085	70.69
649.289	86.69
649.494	70.69
649.698	99.69
649.903	86.69
650.107	81.69
650.312	93.69
650.516	83.69
650.721	90.69
650.925	74.69
651.13	74.69
651.334	84.69
651.539	96.69
651.743	87.69
651.947	90.69
652.152	68.69
652.356	84.69
652.56	81.69
652.764	95.69
652.969	88.69
653.173	86.69
653.377	70.69
653.581	71.69
653.785	82.69
653.99	77.69
654.194	78.69
654.398	86.69
654.602	76.69
654.806	74.69
655.01	94.69
655.214	76.69
655.418	82.69
655.622	75.69
655.826	82.69
656.03	81.69
656.234	70.69
656.438	72.69
656.642	83.69
656.846	67.69
657.049	72.69
657.253	72.69
657.457	88.69
657.661	78.69
657.865	71.69
658.068	86.69
658.272	92.69
658.476	78.69
658.68	78.69
658.883	79.69
659.087	80.69
659.291	89.69
659.494	74.69
659.698	74.69
659.901	82.69
660.105	83.69
660.309	75.69
660.512	91.69
660.716	80.69
660.919	67.69
661.123	96.69
661.326	88.69
661.53	83.69
661.733	74.69
661.936	87.69
662.14	82.69
662.343	76.69
662.546	92.69
662.75	81.69
662.953	73.69
663.156	73.69
663.36	80.69
663.563	85.69
663.766	81.69
663.969	90.69
664.173	76.69
664.376	97.69
664.579	80.69
664.782	76.69
664.985	86.69
665.188	92.69
665.391	78.69
665.594	81.69
665.797	71.69
666	70.69
666.203	75.69
666.406	66.69
666.609	81.69
666.812	93.69
667.015	81.69
667.218	83.69
667.421	74.69
667.624	72.69
667.827	80.69
668.03	68.69
668.232	71.69
668.435	68.69
668.638	79.69
668.841	79.69
669.043	86.69
669.246	74.69
669.449	81.69
669.651	70.69
669.854	74.69
670.057	67.69
670.259	86.69
670.462	86.69
670.665	87.69
670.867	76.69
671.07	72.69
671.272	83.69
671.475	81.69
671.677	89.69
671.88	68.69
672.082	66.69
672.284	78.69
672.487	91.69
672.689	77.69
672.892	64.69
