Data from Location5.07152019.Energy5.Lamp.07192019.3%Agarose_HRD10591_16-04-27-630.txt Node
Date: Fri Jul 19 16:04:27 EDT 2019
User: cochatt
Spectrometer: HR+D1059
Trigger mode: 1
Integration Time (sec): 1.000000E-1
Scans to average: 1
Electric dark correction enabled: true
Nonlinearity correction enabled: false
Boxcar width: 0
XAxis mode: Wavelengths
Number of Pixels in Spectrum: 2048
>>>>>Begin Spectral Data<<<<<
223.165	-19.62
223.4	-19.62
223.635	-19.62
223.869	-17.62
224.104	-27.62
224.338	-24.62
224.573	-21.62
224.808	-19.62
225.042	-2.62
225.277	-3.62
225.511	-11.62
225.746	12.38
225.98	14.38
226.215	10.38
226.449	17.38
226.683	34.38
226.918	36.38
227.152	23.38
227.387	32.38
227.621	36.38
227.856	33.38
228.09	42.38
228.324	54.38
228.559	48.38
228.793	42.38
229.027	53.38
229.262	68.38
229.496	69.38
229.73	69.38
229.964	72.38
230.199	65.38
230.433	70.38
230.667	72.38
230.901	78.38
231.136	70.38
231.37	66.38
231.604	75.38
231.838	74.38
232.072	59.38
232.306	90.38
232.541	76.38
232.775	75.38
233.009	90.38
233.243	86.38
233.477	79.38
233.711	79.38
233.945	91.38
234.179	76.38
234.413	85.38
234.647	93.38
234.881	76.38
235.115	91.38
235.349	87.38
235.583	90.38
235.817	87.38
236.051	77.38
236.285	65.38
236.519	70.38
236.753	75.38
236.987	84.38
237.221	77.38
237.455	70.38
237.689	64.38
237.922	86.38
238.156	78.38
238.39	71.38
238.624	80.38
238.858	72.38
239.091	62.38
239.325	76.38
239.559	67.38
239.793	75.38
240.027	68.38
240.26	77.38
240.494	70.38
240.728	80.38
240.961	64.38
241.195	67.38
241.429	71.38
241.662	73.38
241.896	72.38
242.13	82.38
242.363	67.38
242.597	68.38
242.83	76.38
243.064	80.38
243.298	75.38
243.531	72.38
243.765	80.38
243.998	73.38
244.232	65.38
244.465	80.38
244.699	81.38
244.932	78.38
245.166	74.38
245.399	89.38
245.633	81.38
245.866	67.38
246.099	79.38
246.333	66.38
246.566	81.38
246.8	62.38
247.033	84.38
247.266	64.38
247.5	72.38
247.733	61.38
247.966	78.38
248.2	62.38
248.433	80.38
248.666	72.38
248.899	66.38
249.133	74.38
249.366	85.38
249.599	68.38
249.832	77.38
250.066	75.38
250.299	68.38
250.532	80.38
250.765	78.38
250.998	86.38
251.231	83.38
251.465	88.38
251.698	87.38
251.931	81.38
252.164	56.38
252.397	85.38
252.63	78.38
252.863	71.38
253.096	79.38
253.329	80.38
253.562	79.38
253.795	80.38
254.028	86.38
254.261	84.38
254.494	75.38
254.727	77.38
254.96	69.38
255.193	95.38
255.426	90.38
255.659	72.38
255.892	77.38
256.124	74.38
256.357	73.38
256.59	83.38
256.823	88.38
257.056	80.38
257.289	73.38
257.521	76.38
257.754	78.38
257.987	82.38
258.22	80.38
258.452	79.38
258.685	78.38
258.918	87.38
259.151	84.38
259.383	90.38
259.616	82.38
259.849	78.38
260.081	84.38
260.314	82.38
260.547	81.38
260.779	75.38
261.012	84.38
261.244	88.38
261.477	88.38
261.71	87.38
261.942	73.38
262.175	80.38
262.407	81.38
262.64	77.38
262.872	81.38
263.105	74.38
263.337	80.38
263.57	80.38
263.802	78.38
264.035	95.38
264.267	61.38
264.499	88.38
264.732	72.38
264.964	87.38
265.197	80.38
265.429	77.38
265.661	70.38
265.894	82.38
266.126	91.38
266.358	79.38
266.591	80.38
266.823	91.38
267.055	68.38
267.287	68.38
267.52	88.38
267.752	89.38
267.984	92.38
268.216	81.38
268.448	87.38
268.681	65.38
268.913	72.38
269.145	88.38
269.377	88.38
269.609	79.38
269.841	90.38
270.073	86.38
270.306	82.38
270.538	94.38
270.77	76.38
271.002	71.38
271.234	75.38
271.466	86.38
271.698	82.38
271.93	76.38
272.162	82.38
272.394	85.38
272.626	85.38
272.858	81.38
273.09	81.38
273.322	91.38
273.553	80.38
273.785	76.38
274.017	90.38
274.249	84.38
274.481	86.38
274.713	83.38
274.945	99.38
275.176	77.38
275.408	94.38
275.64	72.38
275.872	83.38
276.104	70.38
276.335	79.38
276.567	81.38
276.799	74.38
277.031	99.38
277.262	76.38
277.494	78.38
277.726	68.38
277.957	74.38
278.189	89.38
278.421	82.38
278.652	89.38
278.884	90.38
279.115	85.38
279.347	94.38
279.579	83.38
279.81	98.38
280.042	80.38
280.273	87.38
280.505	86.38
280.736	91.38
280.968	87.38
281.199	78.38
281.431	83.38
281.662	76.38
281.894	94.38
282.125	91.38
282.356	86.38
282.588	87.38
282.819	84.38
283.051	76.38
283.282	80.38
283.513	93.38
283.745	82.38
283.976	76.38
284.207	82.38
284.439	86.38
284.67	84.38
284.901	90.38
285.132	73.38
285.364	86.38
285.595	83.38
285.826	93.38
286.057	87.38
286.288	89.38
286.52	93.38
286.751	85.38
286.982	98.38
287.213	93.38
287.444	87.38
287.675	87.38
287.906	71.38
288.138	87.38
288.369	84.38
288.6	99.38
288.831	93.38
289.062	88.38
289.293	83.38
289.524	81.38
289.755	82.38
289.986	87.38
290.217	79.38
290.448	88.38
290.679	78.38
290.91	84.38
291.141	86.38
291.371	91.38
291.602	85.38
291.833	99.38
292.064	66.38
292.295	82.38
292.526	87.38
292.757	76.38
292.987	89.38
293.218	81.38
293.449	83.38
293.68	80.38
293.91	100.38
294.141	86.38
294.372	94.38
294.603	97.38
294.833	86.38
295.064	97.38
295.295	85.38
295.525	87.38
295.756	86.38
295.987	95.38
296.217	79.38
296.448	80.38
296.679	79.38
296.909	87.38
297.14	88.38
297.37	87.38
297.601	86.38
297.831	80.38
298.062	75.38
298.292	88.38
298.523	95.38
298.753	75.38
298.984	79.38
299.214	83.38
299.445	90.38
299.675	79.38
299.905	82.38
300.136	92.38
300.366	74.38
300.597	89.38
300.827	93.38
301.057	91.38
301.288	89.38
301.518	89.38
301.748	78.38
301.979	94.38
302.209	100.38
302.439	80.38
302.669	98.38
302.9	88.38
303.13	106.38
303.36	73.38
303.59	96.38
303.82	83.38
304.051	78.38
304.281	80.38
304.511	99.38
304.741	92.38
304.971	84.38
305.201	78.38
305.431	94.38
305.661	89.38
305.891	73.38
306.121	78.38
306.352	80.38
306.582	86.38
306.812	91.38
307.042	89.38
307.272	82.38
307.502	75.38
307.731	75.38
307.961	82.38
308.191	80.38
308.421	90.38
308.651	97.38
308.881	90.38
309.111	94.38
309.341	78.38
309.571	85.38
309.8	93.38
310.03	95.38
310.26	91.38
310.49	105.38
310.72	104.38
310.949	79.38
311.179	72.38
311.409	73.38
311.639	88.38
311.868	90.38
312.098	101.38
312.328	85.38
312.557	78.38
312.787	91.38
313.017	95.38
313.246	99.38
313.476	85.38
313.706	95.38
313.935	94.38
314.165	78.38
314.394	84.38
314.624	80.38
314.853	83.38
315.083	98.38
315.312	87.38
315.542	95.38
315.771	103.38
316.001	79.38
316.23	87.38
316.46	86.38
316.689	90.38
316.919	101.38
317.148	81.38
317.377	84.38
317.607	74.38
317.836	90.38
318.065	82.38
318.295	90.38
318.524	77.38
318.753	85.38
318.983	77.38
319.212	88.38
319.441	94.38
319.67	88.38
319.9	92.38
320.129	92.38
320.358	77.38
320.587	87.38
320.816	83.38
321.046	75.38
321.275	80.38
321.504	85.38
321.733	84.38
321.962	84.38
322.191	97.38
322.42	85.38
322.649	90.38
322.878	97.38
323.108	95.38
323.337	84.38
323.566	96.38
323.795	92.38
324.024	85.38
324.253	96.38
324.482	103.38
324.71	95.38
324.939	95.38
325.168	89.38
325.397	77.38
325.626	74.38
325.855	91.38
326.084	88.38
326.313	78.38
326.542	91.38
326.77	81.38
326.999	79.38
327.228	86.38
327.457	88.38
327.686	74.38
327.914	95.38
328.143	93.38
328.372	69.38
328.6	80.38
328.829	96.38
329.058	86.38
329.287	94.38
329.515	83.38
329.744	88.38
329.972	80.38
330.201	78.38
330.43	87.38
330.658	83.38
330.887	62.38
331.115	84.38
331.344	89.38
331.572	102.38
331.801	80.38
332.03	80.38
332.258	83.38
332.486	93.38
332.715	82.38
332.943	86.38
333.172	91.38
333.4	73.38
333.629	99.38
333.857	80.38
334.085	85.38
334.314	107.38
334.542	93.38
334.771	85.38
334.999	79.38
335.227	85.38
335.455	93.38
335.684	100.38
335.912	91.38
336.14	72.38
336.369	86.38
336.597	84.38
336.825	99.38
337.053	85.38
337.281	78.38
337.51	92.38
337.738	78.38
337.966	70.38
338.194	89.38
338.422	75.38
338.65	88.38
338.878	87.38
339.106	92.38
339.334	86.38
339.562	74.38
339.79	98.38
340.018	83.38
340.246	94.38
340.474	111.38
340.702	82.38
340.93	82.38
341.158	104.38
341.386	94.38
341.614	81.38
341.842	95.38
342.07	89.38
342.298	72.38
342.526	77.38
342.754	90.38
342.981	87.38
343.209	88.38
343.437	98.38
343.665	81.38
343.893	92.38
344.12	85.38
344.348	93.38
344.576	100.38
344.804	78.38
345.031	85.38
345.259	92.38
345.487	79.38
345.714	80.38
345.942	97.38
346.17	88.38
346.397	86.38
346.625	87.38
346.853	89.38
347.08	96.38
347.308	86.38
347.535	84.38
347.763	87.38
347.99	85.38
348.218	82.38
348.445	94.38
348.673	80.38
348.9	82.38
349.128	82.38
349.355	88.38
349.583	99.38
349.81	91.38
350.037	84.38
350.265	96.38
350.492	95.38
350.72	84.38
350.947	87.38
351.174	77.38
351.402	68.38
351.629	91.38
351.856	83.38
352.083	88.38
352.311	98.38
352.538	78.38
352.765	83.38
352.992	84.38
353.22	83.38
353.447	90.38
353.674	92.38
353.901	96.38
354.128	94.38
354.355	90.38
354.583	82.38
354.81	75.38
355.037	79.38
355.264	78.38
355.491	88.38
355.718	84.38
355.945	96.38
356.172	108.38
356.399	92.38
356.626	79.38
356.853	89.38
357.08	85.38
357.307	93.38
357.534	99.38
357.761	85.38
357.988	84.38
358.215	91.38
358.441	84.38
358.668	92.38
358.895	87.38
359.122	77.38
359.349	78.38
359.576	76.38
359.802	85.38
360.029	81.38
360.256	92.38
360.483	76.38
360.709	81.38
360.936	95.38
361.163	92.38
361.39	93.38
361.616	85.38
361.843	83.38
362.07	98.38
362.296	87.38
362.523	85.38
362.749	87.38
362.976	82.38
363.203	93.38
363.429	74.38
363.656	82.38
363.882	95.38
364.109	80.38
364.335	83.38
364.562	87.38
364.788	83.38
365.015	76.38
365.241	89.38
365.468	88.38
365.694	70.38
365.92	83.38
366.147	84.38
366.373	83.38
366.599	84.38
366.826	80.38
367.052	104.38
367.278	99.38
367.505	85.38
367.731	66.38
367.957	83.38
368.184	85.38
368.41	75.38
368.636	86.38
368.862	89.38
369.089	74.38
369.315	72.38
369.541	78.38
369.767	78.38
369.993	89.38
370.219	80.38
370.445	95.38
370.672	82.38
370.898	75.38
371.124	92.38
371.35	85.38
371.576	91.38
371.802	81.38
372.028	89.38
372.254	83.38
372.48	88.38
372.706	87.38
372.932	84.38
373.158	78.38
373.384	98.38
373.61	75.38
373.835	83.38
374.061	77.38
374.287	92.38
374.513	77.38
374.739	80.38
374.965	79.38
375.191	82.38
375.416	88.38
375.642	85.38
375.868	86.38
376.094	95.38
376.319	79.38
376.545	83.38
376.771	93.38
376.997	84.38
377.222	95.38
377.448	85.38
377.674	83.38
377.899	75.38
378.125	78.38
378.35	93.38
378.576	88.38
378.802	92.38
379.027	86.38
379.253	105.38
379.478	83.38
379.704	92.38
379.929	72.38
380.155	75.38
380.38	82.38
380.606	96.38
380.831	87.38
381.057	88.38
381.282	85.38
381.507	92.38
381.733	107.38
381.958	78.38
382.184	78.38
382.409	85.38
382.634	92.38
382.86	85.38
383.085	91.38
383.31	96.38
383.535	84.38
383.761	91.38
383.986	94.38
384.211	77.38
384.436	91.38
384.662	87.38
384.887	82.38
385.112	78.38
385.337	93.38
385.562	93.38
385.787	85.38
386.013	98.38
386.238	86.38
386.463	84.38
386.688	90.38
386.913	78.38
387.138	97.38
387.363	79.38
387.588	83.38
387.813	82.38
388.038	91.38
388.263	88.38
388.488	96.38
388.713	88.38
388.938	76.38
389.163	87.38
389.387	81.38
389.612	88.38
389.837	97.38
390.062	71.38
390.287	87.38
390.512	85.38
390.736	85.38
390.961	72.38
391.186	94.38
391.411	100.38
391.636	102.38
391.86	98.38
392.085	92.38
392.31	89.38
392.534	110.38
392.759	77.38
392.984	82.38
393.208	96.38
393.433	86.38
393.658	82.38
393.882	82.38
394.107	81.38
394.331	84.38
394.556	98.38
394.78	85.38
395.005	99.38
395.229	92.38
395.454	90.38
395.678	80.38
395.903	79.38
396.127	81.38
396.352	92.38
396.576	74.38
396.801	77.38
397.025	93.38
397.249	81.38
397.474	76.38
397.698	93.38
397.922	90.38
398.147	93.38
398.371	81.38
398.595	99.38
398.82	86.38
399.044	96.38
399.268	91.38
399.492	100.38
399.717	100.38
399.941	79.38
400.165	95.38
400.389	92.38
400.613	85.38
400.837	91.38
401.062	95.38
401.286	91.38
401.51	88.38
401.734	87.38
401.958	90.38
402.182	88.38
402.406	83.38
402.63	90.38
402.854	90.38
403.078	104.38
403.302	88.38
403.526	85.38
403.75	90.38
403.974	87.38
404.198	66.38
404.422	84.38
404.645	96.38
404.869	84.38
405.093	87.38
405.317	85.38
405.541	95.38
405.765	99.38
405.988	89.38
406.212	94.38
406.436	83.38
406.66	94.38
406.883	79.38
407.107	100.38
407.331	90.38
407.555	111.38
407.778	94.38
408.002	103.38
408.226	90.38
408.449	94.38
408.673	90.38
408.896	94.38
409.12	102.38
409.344	94.38
409.567	92.38
409.791	100.38
410.014	101.38
410.238	83.38
410.461	96.38
410.685	98.38
410.908	97.38
411.132	82.38
411.355	96.38
411.578	91.38
411.802	91.38
412.025	90.38
412.249	91.38
412.472	104.38
412.695	92.38
412.919	91.38
413.142	81.38
413.365	86.38
413.589	71.38
413.812	87.38
414.035	95.38
414.258	84.38
414.482	74.38
414.705	83.38
414.928	109.38
415.151	96.38
415.374	92.38
415.597	96.38
415.821	94.38
416.044	85.38
416.267	86.38
416.49	93.38
416.713	97.38
416.936	100.38
417.159	90.38
417.382	87.38
417.605	93.38
417.828	92.38
418.051	90.38
418.274	82.38
418.497	79.38
418.72	94.38
418.943	90.38
419.166	93.38
419.389	90.38
419.611	79.38
419.834	91.38
420.057	107.38
420.28	87.38
420.503	90.38
420.726	96.38
420.948	93.38
421.171	75.38
421.394	87.38
421.617	90.38
421.839	98.38
422.062	84.38
422.285	94.38
422.507	93.38
422.73	95.38
422.953	82.38
423.175	92.38
423.398	81.38
423.621	82.38
423.843	93.38
424.066	93.38
424.288	83.38
424.511	92.38
424.733	106.38
424.956	83.38
425.178	83.38
425.401	86.38
425.623	97.38
425.846	90.38
426.068	84.38
426.291	92.38
426.513	86.38
426.735	90.38
426.958	74.38
427.18	84.38
427.402	80.38
427.625	80.38
427.847	82.38
428.069	95.38
428.292	80.38
428.514	93.38
428.736	82.38
428.958	87.38
429.181	94.38
429.403	90.38
429.625	105.38
429.847	107.38
430.069	82.38
430.292	88.38
430.514	76.38
430.736	88.38
430.958	76.38
431.18	85.38
431.402	89.38
431.624	93.38
431.846	70.38
432.068	69.38
432.29	81.38
432.512	82.38
432.734	97.38
432.956	76.38
433.178	83.38
433.4	88.38
433.622	106.38
433.844	89.38
434.066	79.38
434.287	90.38
434.509	102.38
434.731	82.38
434.953	80.38
435.175	70.38
435.397	73.38
435.618	76.38
435.84	90.38
436.062	98.38
436.284	94.38
436.505	84.38
436.727	91.38
436.949	84.38
437.17	91.38
437.392	99.38
437.614	83.38
437.835	81.38
438.057	76.38
438.278	86.38
438.5	87.38
438.721	89.38
438.943	86.38
439.165	81.38
439.386	68.38
439.608	86.38
439.829	86.38
440.05	83.38
440.272	77.38
440.493	95.38
440.715	83.38
440.936	78.38
441.158	100.38
441.379	78.38
441.6	92.38
441.822	80.38
442.043	80.38
442.264	80.38
442.486	77.38
442.707	90.38
442.928	90.38
443.149	79.38
443.371	86.38
443.592	83.38
443.813	91.38
444.034	82.38
444.255	101.38
444.476	95.38
444.698	99.38
444.919	92.38
445.14	217.38
445.361	142.38
445.582	94.38
445.803	91.38
446.024	77.38
446.245	93.38
446.466	94.38
446.687	89.38
446.908	93.38
447.129	90.38
447.35	87.38
447.571	90.38
447.792	88.38
448.013	76.38
448.234	75.38
448.455	86.38
448.675	98.38
448.896	90.38
449.117	74.38
449.338	80.38
449.559	82.38
449.779	92.38
450	84.38
450.221	88.38
450.442	71.38
450.662	76.38
450.883	72.38
451.104	96.38
451.324	82.38
451.545	90.38
451.766	67.38
451.986	92.38
452.207	93.38
452.428	102.38
452.648	86.38
452.869	87.38
453.089	93.38
453.31	85.38
453.53	95.38
453.751	78.38
453.971	89.38
454.192	79.38
454.412	77.38
454.633	91.38
454.853	80.38
455.073	92.38
455.294	79.38
455.514	96.38
455.734	91.38
455.955	79.38
456.175	97.38
456.395	75.38
456.616	78.38
456.836	66.38
457.056	86.38
457.276	94.38
457.497	81.38
457.717	87.38
457.937	91.38
458.157	88.38
458.377	76.38
458.598	84.38
458.818	77.38
459.038	87.38
459.258	73.38
459.478	83.38
459.698	85.38
459.918	91.38
460.138	94.38
460.358	82.38
460.578	97.38
460.798	85.38
461.018	94.38
461.238	77.38
461.458	91.38
461.678	92.38
461.898	86.38
462.118	92.38
462.338	91.38
462.558	98.38
462.777	93.38
462.997	95.38
463.217	81.38
463.437	91.38
463.657	103.38
463.876	107.38
464.096	95.38
464.316	98.38
464.536	93.38
464.755	95.38
464.975	79.38
465.195	92.38
465.414	93.38
465.634	93.38
465.854	91.38
466.073	91.38
466.293	92.38
466.512	99.38
466.732	85.38
466.951	82.38
467.171	100.38
467.391	84.38
467.61	81.38
467.829	85.38
468.049	84.38
468.268	66.38
468.488	84.38
468.707	92.38
468.927	95.38
469.146	85.38
469.365	90.38
469.585	88.38
469.804	87.38
470.023	81.38
470.243	83.38
470.462	95.38
470.681	87.38
470.901	85.38
471.12	99.38
471.339	95.38
471.558	104.38
471.777	92.38
471.997	87.38
472.216	91.38
472.435	84.38
472.654	82.38
472.873	86.38
473.092	112.38
473.311	96.38
473.53	87.38
473.749	99.38
473.968	96.38
474.187	75.38
474.406	75.38
474.625	80.38
474.844	100.38
475.063	91.38
475.282	99.38
475.501	90.38
475.72	85.38
475.939	97.38
476.158	84.38
476.377	79.38
476.596	82.38
476.814	75.38
477.033	92.38
477.252	91.38
477.471	92.38
477.69	83.38
477.908	104.38
478.127	86.38
478.346	96.38
478.564	99.38
478.783	81.38
479.002	90.38
479.22	98.38
479.439	85.38
479.658	107.38
479.876	97.38
480.095	96.38
480.313	82.38
480.532	80.38
480.751	97.38
480.969	91.38
481.188	93.38
481.406	88.38
481.624	95.38
481.843	88.38
482.061	75.38
482.28	95.38
482.498	112.38
482.717	90.38
482.935	90.38
483.153	99.38
483.372	93.38
483.59	92.38
483.808	89.38
484.027	95.38
484.245	101.38
484.463	96.38
484.681	92.38
484.9	82.38
485.118	93.38
485.336	104.38
485.554	88.38
485.772	108.38
485.99	100.38
486.209	98.38
486.427	96.38
486.645	94.38
486.863	91.38
487.081	103.38
487.299	113.38
487.517	99.38
487.735	103.38
487.953	111.38
488.171	93.38
488.389	106.38
488.607	110.38
488.825	88.38
489.043	86.38
489.261	97.38
489.479	95.38
489.696	96.38
489.914	88.38
490.132	87.38
490.35	108.38
490.568	100.38
490.786	99.38
491.003	97.38
491.221	92.38
491.439	99.38
491.657	118.38
491.874	92.38
492.092	114.38
492.31	103.38
492.527	113.38
492.745	110.38
492.963	110.38
493.18	101.38
493.398	97.38
493.615	112.38
493.833	124.38
494.05	118.38
494.268	99.38
494.485	99.38
494.703	91.38
494.92	116.38
495.138	122.38
495.355	101.38
495.573	99.38
495.79	107.38
496.008	101.38
496.225	124.38
496.442	101.38
496.66	118.38
496.877	108.38
497.094	118.38
497.312	99.38
497.529	115.38
497.746	119.38
497.963	103.38
498.181	97.38
498.398	108.38
498.615	103.38
498.832	106.38
499.049	108.38
499.267	115.38
499.484	112.38
499.701	129.38
499.918	134.38
500.135	128.38
500.352	135.38
500.569	150.38
500.786	148.38
501.003	133.38
501.22	118.38
501.437	131.38
501.654	120.38
501.871	117.38
502.088	110.38
502.305	103.38
502.522	118.38
502.739	114.38
502.956	108.38
503.172	110.38
503.389	111.38
503.606	100.38
503.823	95.38
504.04	102.38
504.256	92.38
504.473	108.38
504.69	108.38
504.907	108.38
505.123	102.38
505.34	108.38
505.557	101.38
505.773	106.38
505.99	96.38
506.207	101.38
506.423	95.38
506.64	103.38
506.856	104.38
507.073	103.38
507.289	94.38
507.506	94.38
507.722	83.38
507.939	92.38
508.155	93.38
508.372	108.38
508.588	110.38
508.805	82.38
509.021	108.38
509.238	84.38
509.454	100.38
509.67	107.38
509.887	95.38
510.103	86.38
510.319	86.38
510.536	85.38
510.752	91.38
510.968	97.38
511.184	96.38
511.401	87.38
511.617	98.38
511.833	90.38
512.049	99.38
512.265	91.38
512.481	103.38
512.698	93.38
512.914	104.38
513.13	91.38
513.346	101.38
513.562	94.38
513.778	89.38
513.994	89.38
514.21	94.38
514.426	99.38
514.642	107.38
514.858	91.38
515.074	96.38
515.29	102.38
515.506	91.38
515.721	89.38
515.937	75.38
516.153	90.38
516.369	94.38
516.585	95.38
516.801	109.38
517.016	104.38
517.232	102.38
517.448	96.38
517.664	102.38
517.879	102.38
518.095	110.38
518.311	101.38
518.527	101.38
518.742	96.38
518.958	100.38
519.173	87.38
519.389	100.38
519.605	97.38
519.82	87.38
520.036	107.38
520.251	106.38
520.467	95.38
520.682	96.38
520.898	84.38
521.113	103.38
521.329	104.38
521.544	92.38
521.76	101.38
521.975	90.38
522.19	85.38
522.406	94.38
522.621	82.38
522.836	91.38
523.052	107.38
523.267	94.38
523.482	94.38
523.698	84.38
523.913	106.38
524.128	91.38
524.343	102.38
524.559	112.38
524.774	95.38
524.989	109.38
525.204	90.38
525.419	93.38
525.634	83.38
525.849	101.38
526.064	93.38
526.28	102.38
526.495	103.38
526.71	98.38
526.925	97.38
527.14	98.38
527.355	94.38
527.57	98.38
527.785	100.38
527.999	103.38
528.214	97.38
528.429	101.38
528.644	88.38
528.859	95.38
529.074	94.38
529.289	100.38
529.503	100.38
529.718	87.38
529.933	108.38
530.148	98.38
530.363	84.38
530.577	95.38
530.792	85.38
531.007	82.38
531.221	93.38
531.436	96.38
531.651	92.38
531.865	84.38
532.08	96.38
532.295	98.38
532.509	91.38
532.724	86.38
532.938	94.38
533.153	95.38
533.367	98.38
533.582	106.38
533.796	98.38
534.011	102.38
534.225	90.38
534.44	107.38
534.654	108.38
534.868	94.38
535.083	108.38
535.297	87.38
535.511	92.38
535.726	96.38
535.94	117.38
536.154	84.38
536.369	90.38
536.583	107.38
536.797	93.38
537.011	98.38
537.225	86.38
537.44	101.38
537.654	98.38
537.868	100.38
538.082	97.38
538.296	90.38
538.51	87.38
538.724	91.38
538.938	92.38
539.153	108.38
539.367	102.38
539.581	115.38
539.795	91.38
540.009	84.38
540.222	82.38
540.436	88.38
540.65	79.38
540.864	92.38
541.078	82.38
541.292	96.38
541.506	116.38
541.72	101.38
541.934	103.38
542.147	110.38
542.361	106.38
542.575	95.38
542.789	99.38
543.002	101.38
543.216	91.38
543.43	93.38
543.644	110.38
543.857	92.38
544.071	101.38
544.285	102.38
544.498	111.38
544.712	104.38
544.925	111.38
545.139	92.38
545.352	103.38
545.566	106.38
545.779	99.38
545.993	106.38
546.206	100.38
546.42	102.38
546.633	98.38
546.847	96.38
547.06	99.38
547.274	100.38
547.487	101.38
547.7	106.38
547.914	97.38
548.127	95.38
548.34	92.38
548.554	100.38
548.767	108.38
548.98	94.38
549.193	85.38
549.407	98.38
549.62	89.38
549.833	93.38
550.046	93.38
550.259	114.38
550.473	95.38
550.686	101.38
550.899	94.38
551.112	111.38
551.325	92.38
551.538	93.38
551.751	92.38
551.964	96.38
552.177	101.38
552.39	108.38
552.603	94.38
552.816	100.38
553.029	100.38
553.242	107.38
553.455	99.38
553.667	103.38
553.88	100.38
554.093	94.38
554.306	95.38
554.519	91.38
554.732	98.38
554.944	102.38
555.157	99.38
555.37	103.38
555.583	87.38
555.795	107.38
556.008	104.38
556.221	110.38
556.433	69.38
556.646	99.38
556.859	84.38
557.071	87.38
557.284	100.38
557.496	90.38
557.709	93.38
557.921	95.38
558.134	98.38
558.346	110.38
558.559	90.38
558.771	78.38
558.984	109.38
559.196	94.38
559.409	89.38
559.621	87.38
559.833	92.38
560.046	98.38
560.258	95.38
560.47	96.38
560.683	94.38
560.895	95.38
561.107	84.38
561.32	91.38
561.532	90.38
561.744	99.38
561.956	84.38
562.168	92.38
562.381	79.38
562.593	106.38
562.805	94.38
563.017	99.38
563.229	94.38
563.441	78.38
563.653	97.38
563.865	99.38
564.077	86.38
564.289	93.38
564.501	102.38
564.713	81.38
564.925	96.38
565.137	89.38
565.349	92.38
565.561	91.38
565.773	107.38
565.985	92.38
566.197	97.38
566.408	109.38
566.62	92.38
566.832	96.38
567.044	103.38
567.255	106.38
567.467	96.38
567.679	102.38
567.891	105.38
568.102	92.38
568.314	78.38
568.526	89.38
568.737	89.38
568.949	94.38
569.161	88.38
569.372	90.38
569.584	90.38
569.795	80.38
570.007	83.38
570.218	92.38
570.43	100.38
570.641	102.38
570.853	107.38
571.064	89.38
571.276	87.38
571.487	85.38
571.698	87.38
571.91	84.38
572.121	76.38
572.333	87.38
572.544	106.38
572.755	83.38
572.966	83.38
573.178	90.38
573.389	110.38
573.6	77.38
573.811	96.38
574.023	92.38
574.234	85.38
574.445	92.38
574.656	83.38
574.867	88.38
575.078	80.38
575.289	85.38
575.501	79.38
575.712	87.38
575.923	90.38
576.134	80.38
576.345	101.38
576.556	103.38
576.767	83.38
576.978	76.38
577.188	91.38
577.399	87.38
577.61	93.38
577.821	100.38
578.032	78.38
578.243	91.38
578.454	77.38
578.665	99.38
578.875	94.38
579.086	91.38
579.297	79.38
579.508	80.38
579.718	78.38
579.929	91.38
580.14	79.38
580.35	88.38
580.561	103.38
580.772	93.38
580.982	80.38
581.193	73.38
581.403	87.38
581.614	98.38
581.825	90.38
582.035	103.38
582.246	86.38
582.456	92.38
582.667	90.38
582.877	98.38
583.087	76.38
583.298	78.38
583.508	90.38
583.719	79.38
583.929	84.38
584.139	87.38
584.35	96.38
584.56	92.38
584.77	80.38
584.981	84.38
585.191	83.38
585.401	82.38
585.611	95.38
585.821	85.38
586.032	85.38
586.242	98.38
586.452	77.38
586.662	98.38
586.872	83.38
587.082	88.38
587.292	78.38
587.502	88.38
587.713	85.38
587.923	77.38
588.133	76.38
588.343	75.38
588.553	91.38
588.762	91.38
588.972	95.38
589.182	82.38
589.392	87.38
589.602	74.38
589.812	78.38
590.022	86.38
590.232	76.38
590.441	88.38
590.651	90.38
590.861	89.38
591.071	86.38
591.281	82.38
591.49	91.38
591.7	84.38
591.91	83.38
592.119	97.38
592.329	93.38
592.539	84.38
592.748	87.38
592.958	85.38
593.167	87.38
593.377	94.38
593.587	96.38
593.796	93.38
594.006	98.38
594.215	87.38
594.424	73.38
594.634	78.38
594.843	93.38
595.053	93.38
595.262	85.38
595.472	89.38
595.681	85.38
595.89	73.38
596.1	78.38
596.309	90.38
596.518	91.38
596.727	81.38
596.937	87.38
597.146	80.38
597.355	65.38
597.564	82.38
597.774	80.38
597.983	69.38
598.192	86.38
598.401	72.38
598.61	85.38
598.819	89.38
599.028	106.38
599.237	94.38
599.446	85.38
599.655	72.38
599.864	86.38
600.073	82.38
600.282	92.38
600.491	79.38
600.7	77.38
600.909	91.38
601.118	76.38
601.327	86.38
601.536	85.38
601.745	87.38
601.953	78.38
602.162	86.38
602.371	85.38
602.58	84.38
602.789	85.38
602.997	91.38
603.206	85.38
603.415	84.38
603.623	72.38
603.832	86.38
604.041	95.38
604.249	85.38
604.458	82.38
604.666	78.38
604.875	77.38
605.084	83.38
605.292	92.38
605.501	89.38
605.709	82.38
605.918	74.38
606.126	87.38
606.334	78.38
606.543	94.38
606.751	95.38
606.96	84.38
607.168	83.38
607.376	79.38
607.585	80.38
607.793	95.38
608.001	87.38
608.21	84.38
608.418	91.38
608.626	75.38
608.834	85.38
609.043	91.38
609.251	81.38
609.459	71.38
609.667	85.38
609.875	91.38
610.083	73.38
610.291	88.38
610.499	100.38
610.707	87.38
610.916	79.38
611.124	90.38
611.332	84.38
611.54	84.38
611.748	90.38
611.955	95.38
612.163	85.38
612.371	89.38
612.579	80.38
612.787	71.38
612.995	91.38
613.203	80.38
613.411	76.38
613.618	79.38
613.826	72.38
614.034	71.38
614.242	90.38
614.449	83.38
614.657	88.38
614.865	89.38
615.072	97.38
615.28	76.38
615.488	76.38
615.695	86.38
615.903	85.38
616.111	84.38
616.318	73.38
616.526	88.38
616.733	81.38
616.941	77.38
617.148	84.38
617.356	90.38
617.563	73.38
617.771	86.38
617.978	89.38
618.185	83.38
618.393	87.38
618.6	84.38
618.807	69.38
619.015	80.38
619.222	78.38
619.429	71.38
619.637	95.38
619.844	80.38
620.051	81.38
620.258	79.38
620.466	72.38
620.673	88.38
620.88	78.38
621.087	82.38
621.294	76.38
621.501	88.38
621.708	77.38
621.915	79.38
622.122	85.38
622.329	76.38
622.536	83.38
622.743	85.38
622.95	73.38
623.157	83.38
623.364	81.38
623.571	95.38
623.778	80.38
623.985	70.38
624.192	91.38
624.399	72.38
624.606	83.38
624.812	94.38
625.019	79.38
625.226	78.38
625.433	95.38
625.639	72.38
625.846	82.38
626.053	82.38
626.259	80.38
626.466	82.38
626.673	86.38
626.879	83.38
627.086	59.38
627.293	83.38
627.499	73.38
627.706	83.38
627.912	75.38
628.119	72.38
628.325	87.38
628.532	78.38
628.738	88.38
628.945	79.38
629.151	79.38
629.357	89.38
629.564	72.38
629.77	87.38
629.976	78.38
630.183	86.38
630.389	87.38
630.595	75.38
630.802	86.38
631.008	76.38
631.214	81.38
631.42	78.38
631.627	79.38
631.833	64.38
632.039	87.38
632.245	73.38
632.451	79.38
632.657	90.38
632.863	66.38
633.069	76.38
633.275	89.38
633.481	80.38
633.688	87.38
633.893	74.38
634.099	87.38
634.305	83.38
634.511	82.38
634.717	72.38
634.923	86.38
635.129	70.38
635.335	87.38
635.541	84.38
635.747	77.38
635.952	88.38
636.158	76.38
636.364	69.38
636.57	77.38
636.775	84.38
636.981	78.38
637.187	79.38
637.392	94.38
637.598	79.38
637.804	78.38
638.009	72.38
638.215	86.38
638.421	83.38
638.626	80.38
638.832	89.38
639.037	78.38
639.243	77.38
639.448	92.38
639.654	66.38
639.859	67.38
640.065	78.38
640.27	87.38
640.475	79.38
640.681	87.38
640.886	86.38
641.091	80.38
641.297	79.38
641.502	75.38
641.707	90.38
641.913	86.38
642.118	82.38
642.323	82.38
642.528	89.38
642.733	80.38
642.939	78.38
643.144	80.38
643.349	84.38
643.554	79.38
643.759	82.38
643.964	72.38
644.169	78.38
644.374	85.38
644.579	79.38
644.784	80.38
644.989	69.38
645.194	80.38
645.399	79.38
645.604	86.38
645.809	102.38
646.014	86.38
646.219	68.38
646.423	82.38
646.628	74.38
646.833	83.38
647.038	84.38
647.243	79.38
647.447	78.38
647.652	86.38
647.857	68.38
648.062	108.38
648.266	69.38
648.471	74.38
648.676	87.38
648.88	80.38
649.085	88.38
649.289	80.38
649.494	83.38
649.698	77.38
649.903	74.38
650.107	93.38
650.312	82.38
650.516	85.38
650.721	66.38
650.925	89.38
651.13	77.38
651.334	83.38
651.539	88.38
651.743	82.38
651.947	82.38
652.152	90.38
652.356	79.38
652.56	61.38
652.764	87.38
652.969	67.38
653.173	79.38
653.377	85.38
653.581	72.38
653.785	87.38
653.99	84.38
654.194	84.38
654.398	80.38
654.602	90.38
654.806	79.38
655.01	64.38
655.214	92.38
655.418	71.38
655.622	78.38
655.826	81.38
656.03	84.38
656.234	79.38
656.438	69.38
656.642	77.38
656.846	68.38
657.049	88.38
657.253	82.38
657.457	68.38
657.661	90.38
657.865	75.38
658.068	74.38
658.272	75.38
658.476	86.38
658.68	90.38
658.883	58.38
659.087	84.38
659.291	71.38
659.494	76.38
659.698	92.38
659.901	71.38
660.105	82.38
660.309	73.38
660.512	71.38
660.716	86.38
660.919	74.38
661.123	82.38
661.326	73.38
661.53	74.38
661.733	72.38
661.936	93.38
662.14	76.38
662.343	68.38
662.546	78.38
662.75	85.38
662.953	95.38
663.156	81.38
663.36	74.38
663.563	72.38
663.766	67.38
663.969	63.38
664.173	78.38
664.376	86.38
664.579	81.38
664.782	80.38
664.985	86.38
665.188	80.38
665.391	79.38
665.594	82.38
665.797	75.38
666	71.38
666.203	79.38
666.406	82.38
666.609	81.38
666.812	82.38
667.015	71.38
667.218	81.38
667.421	73.38
667.624	64.38
667.827	79.38
668.03	69.38
668.232	69.38
668.435	75.38
668.638	68.38
668.841	70.38
669.043	86.38
669.246	80.38
669.449	70.38
669.651	76.38
669.854	76.38
670.057	69.38
670.259	80.38
670.462	82.38
670.665	76.38
670.867	77.38
671.07	85.38
671.272	90.38
671.475	89.38
671.677	62.38
671.88	86.38
672.082	79.38
672.284	81.38
672.487	73.38
672.689	71.38
672.892	72.38
