Data from Location5.07152019.Energy5.Lamp.07192019.3%Agarose_HRD10591_15-39-18-387.txt Node
Date: Fri Jul 19 15:39:18 EDT 2019
User: cochatt
Spectrometer: HR+D1059
Trigger mode: 1
Integration Time (sec): 1.000000E-1
Scans to average: 1
Electric dark correction enabled: true
Nonlinearity correction enabled: false
Boxcar width: 0
XAxis mode: Wavelengths
Number of Pixels in Spectrum: 2048
>>>>>Begin Spectral Data<<<<<
223.165	-17.25
223.4	-17.25
223.635	-17.25
223.869	-20.25
224.104	-16.25
224.338	-14.25
224.573	-13.25
224.808	-13.25
225.042	-2.25
225.277	-6.25
225.511	-2.25
225.746	-3.25
225.98	-6.25
226.215	8.75
226.449	20.75
226.683	23.75
226.918	29.75
227.152	31.75
227.387	17.75
227.621	23.75
227.856	34.75
228.09	46.75
228.324	48.75
228.559	62.75
228.793	53.75
229.027	49.75
229.262	66.75
229.496	51.75
229.73	58.75
229.964	75.75
230.199	66.75
230.433	70.75
230.667	86.75
230.901	79.75
231.136	78.75
231.37	75.75
231.604	82.75
231.838	74.75
232.072	99.75
232.306	95.75
232.541	70.75
232.775	84.75
233.009	80.75
233.243	90.75
233.477	85.75
233.711	67.75
233.945	89.75
234.179	75.75
234.413	69.75
234.647	86.75
234.881	84.75
235.115	83.75
235.349	70.75
235.583	86.75
235.817	85.75
236.051	73.75
236.285	86.75
236.519	73.75
236.753	78.75
236.987	76.75
237.221	93.75
237.455	72.75
237.689	83.75
237.922	79.75
238.156	72.75
238.39	90.75
238.624	81.75
238.858	79.75
239.091	77.75
239.325	72.75
239.559	75.75
239.793	74.75
240.027	71.75
240.26	66.75
240.494	70.75
240.728	77.75
240.961	71.75
241.195	75.75
241.429	65.75
241.662	82.75
241.896	80.75
242.13	83.75
242.363	67.75
242.597	80.75
242.83	67.75
243.064	70.75
243.298	78.75
243.531	80.75
243.765	75.75
243.998	87.75
244.232	76.75
244.465	92.75
244.699	74.75
244.932	67.75
245.166	66.75
245.399	69.75
245.633	88.75
245.866	79.75
246.099	74.75
246.333	89.75
246.566	86.75
246.8	76.75
247.033	67.75
247.266	81.75
247.5	75.75
247.733	80.75
247.966	65.75
248.2	81.75
248.433	82.75
248.666	81.75
248.899	73.75
249.133	84.75
249.366	76.75
249.599	75.75
249.832	85.75
250.066	79.75
250.299	68.75
250.532	71.75
250.765	59.75
250.998	70.75
251.231	66.75
251.465	77.75
251.698	66.75
251.931	77.75
252.164	82.75
252.397	81.75
252.63	83.75
252.863	72.75
253.096	71.75
253.329	78.75
253.562	86.75
253.795	86.75
254.028	79.75
254.261	79.75
254.494	81.75
254.727	70.75
254.96	77.75
255.193	76.75
255.426	84.75
255.659	82.75
255.892	67.75
256.124	69.75
256.357	87.75
256.59	74.75
256.823	79.75
257.056	80.75
257.289	88.75
257.521	85.75
257.754	95.75
257.987	83.75
258.22	90.75
258.452	98.75
258.685	86.75
258.918	77.75
259.151	89.75
259.383	73.75
259.616	77.75
259.849	80.75
260.081	95.75
260.314	82.75
260.547	85.75
260.779	84.75
261.012	66.75
261.244	77.75
261.477	82.75
261.71	77.75
261.942	79.75
262.175	90.75
262.407	66.75
262.64	82.75
262.872	88.75
263.105	77.75
263.337	81.75
263.57	81.75
263.802	84.75
264.035	70.75
264.267	80.75
264.499	73.75
264.732	79.75
264.964	65.75
265.197	69.75
265.429	90.75
265.661	91.75
265.894	82.75
266.126	80.75
266.358	85.75
266.591	86.75
266.823	73.75
267.055	85.75
267.287	96.75
267.52	81.75
267.752	75.75
267.984	74.75
268.216	79.75
268.448	85.75
268.681	81.75
268.913	73.75
269.145	71.75
269.377	88.75
269.609	66.75
269.841	82.75
270.073	80.75
270.306	85.75
270.538	75.75
270.77	83.75
271.002	77.75
271.234	80.75
271.466	73.75
271.698	86.75
271.93	92.75
272.162	95.75
272.394	83.75
272.626	75.75
272.858	78.75
273.09	74.75
273.322	88.75
273.553	75.75
273.785	101.75
274.017	83.75
274.249	96.75
274.481	86.75
274.713	85.75
274.945	81.75
275.176	85.75
275.408	84.75
275.64	86.75
275.872	87.75
276.104	78.75
276.335	76.75
276.567	75.75
276.799	77.75
277.031	71.75
277.262	84.75
277.494	85.75
277.726	69.75
277.957	73.75
278.189	78.75
278.421	76.75
278.652	90.75
278.884	81.75
279.115	86.75
279.347	80.75
279.579	87.75
279.81	85.75
280.042	78.75
280.273	82.75
280.505	88.75
280.736	84.75
280.968	82.75
281.199	79.75
281.431	84.75
281.662	86.75
281.894	98.75
282.125	97.75
282.356	83.75
282.588	79.75
282.819	88.75
283.051	86.75
283.282	98.75
283.513	86.75
283.745	93.75
283.976	87.75
284.207	78.75
284.439	83.75
284.67	85.75
284.901	75.75
285.132	89.75
285.364	78.75
285.595	84.75
285.826	78.75
286.057	74.75
286.288	79.75
286.52	88.75
286.751	97.75
286.982	99.75
287.213	98.75
287.444	80.75
287.675	87.75
287.906	86.75
288.138	75.75
288.369	94.75
288.6	85.75
288.831	96.75
289.062	79.75
289.293	93.75
289.524	85.75
289.755	82.75
289.986	92.75
290.217	71.75
290.448	69.75
290.679	83.75
290.91	84.75
291.141	78.75
291.371	88.75
291.602	71.75
291.833	73.75
292.064	100.75
292.295	83.75
292.526	77.75
292.757	80.75
292.987	67.75
293.218	70.75
293.449	70.75
293.68	87.75
293.91	88.75
294.141	99.75
294.372	79.75
294.603	89.75
294.833	92.75
295.064	74.75
295.295	74.75
295.525	83.75
295.756	84.75
295.987	79.75
296.217	87.75
296.448	89.75
296.679	81.75
296.909	86.75
297.14	78.75
297.37	76.75
297.601	80.75
297.831	84.75
298.062	98.75
298.292	87.75
298.523	86.75
298.753	80.75
298.984	91.75
299.214	86.75
299.445	77.75
299.675	80.75
299.905	82.75
300.136	78.75
300.366	92.75
300.597	83.75
300.827	82.75
301.057	80.75
301.288	90.75
301.518	87.75
301.748	78.75
301.979	83.75
302.209	74.75
302.439	85.75
302.669	97.75
302.9	90.75
303.13	75.75
303.36	84.75
303.59	77.75
303.82	84.75
304.051	101.75
304.281	85.75
304.511	86.75
304.741	80.75
304.971	93.75
305.201	96.75
305.431	89.75
305.661	84.75
305.891	90.75
306.121	87.75
306.352	84.75
306.582	84.75
306.812	90.75
307.042	89.75
307.272	85.75
307.502	83.75
307.731	89.75
307.961	74.75
308.191	87.75
308.421	77.75
308.651	85.75
308.881	81.75
309.111	85.75
309.341	84.75
309.571	74.75
309.8	85.75
310.03	89.75
310.26	61.75
310.49	81.75
310.72	78.75
310.949	68.75
311.179	87.75
311.409	83.75
311.639	79.75
311.868	75.75
312.098	78.75
312.328	88.75
312.557	81.75
312.787	69.75
313.017	80.75
313.246	70.75
313.476	91.75
313.706	81.75
313.935	77.75
314.165	75.75
314.394	94.75
314.624	74.75
314.853	79.75
315.083	95.75
315.312	87.75
315.542	74.75
315.771	74.75
316.001	83.75
316.23	79.75
316.46	72.75
316.689	85.75
316.919	75.75
317.148	89.75
317.377	87.75
317.607	86.75
317.836	86.75
318.065	71.75
318.295	73.75
318.524	70.75
318.753	74.75
318.983	86.75
319.212	78.75
319.441	83.75
319.67	86.75
319.9	90.75
320.129	77.75
320.358	83.75
320.587	72.75
320.816	89.75
321.046	83.75
321.275	90.75
321.504	74.75
321.733	78.75
321.962	82.75
322.191	89.75
322.42	87.75
322.649	99.75
322.878	92.75
323.108	83.75
323.337	90.75
323.566	77.75
323.795	86.75
324.024	85.75
324.253	93.75
324.482	92.75
324.71	90.75
324.939	86.75
325.168	81.75
325.397	94.75
325.626	85.75
325.855	71.75
326.084	80.75
326.313	92.75
326.542	78.75
326.77	86.75
326.999	76.75
327.228	79.75
327.457	96.75
327.686	96.75
327.914	88.75
328.143	91.75
328.372	89.75
328.6	79.75
328.829	82.75
329.058	86.75
329.287	75.75
329.515	99.75
329.744	82.75
329.972	78.75
330.201	84.75
330.43	83.75
330.658	75.75
330.887	75.75
331.115	77.75
331.344	89.75
331.572	79.75
331.801	85.75
332.03	79.75
332.258	88.75
332.486	78.75
332.715	78.75
332.943	95.75
333.172	91.75
333.4	78.75
333.629	73.75
333.857	78.75
334.085	70.75
334.314	83.75
334.542	82.75
334.771	89.75
334.999	90.75
335.227	74.75
335.455	74.75
335.684	81.75
335.912	76.75
336.14	92.75
336.369	79.75
336.597	72.75
336.825	82.75
337.053	76.75
337.281	80.75
337.51	89.75
337.738	73.75
337.966	87.75
338.194	83.75
338.422	90.75
338.65	70.75
338.878	74.75
339.106	89.75
339.334	86.75
339.562	89.75
339.79	78.75
340.018	80.75
340.246	81.75
340.474	79.75
340.702	89.75
340.93	82.75
341.158	99.75
341.386	86.75
341.614	74.75
341.842	74.75
342.07	95.75
342.298	78.75
342.526	81.75
342.754	84.75
342.981	80.75
343.209	86.75
343.437	84.75
343.665	75.75
343.893	96.75
344.12	79.75
344.348	78.75
344.576	77.75
344.804	92.75
345.031	84.75
345.259	66.75
345.487	84.75
345.714	93.75
345.942	84.75
346.17	71.75
346.397	91.75
346.625	96.75
346.853	78.75
347.08	65.75
347.308	79.75
347.535	74.75
347.763	84.75
347.99	88.75
348.218	92.75
348.445	70.75
348.673	92.75
348.9	88.75
349.128	92.75
349.355	83.75
349.583	85.75
349.81	104.75
350.037	91.75
350.265	87.75
350.492	71.75
350.72	64.75
350.947	82.75
351.174	102.75
351.402	82.75
351.629	77.75
351.856	85.75
352.083	88.75
352.311	67.75
352.538	83.75
352.765	94.75
352.992	90.75
353.22	89.75
353.447	83.75
353.674	81.75
353.901	70.75
354.128	82.75
354.355	87.75
354.583	88.75
354.81	70.75
355.037	89.75
355.264	84.75
355.491	76.75
355.718	88.75
355.945	97.75
356.172	75.75
356.399	76.75
356.626	79.75
356.853	75.75
357.08	91.75
357.307	78.75
357.534	81.75
357.761	81.75
357.988	82.75
358.215	84.75
358.441	71.75
358.668	81.75
358.895	80.75
359.122	97.75
359.349	85.75
359.576	83.75
359.802	90.75
360.029	99.75
360.256	90.75
360.483	86.75
360.709	76.75
360.936	100.75
361.163	83.75
361.39	79.75
361.616	80.75
361.843	75.75
362.07	79.75
362.296	82.75
362.523	87.75
362.749	68.75
362.976	87.75
363.203	67.75
363.429	80.75
363.656	84.75
363.882	75.75
364.109	86.75
364.335	89.75
364.562	76.75
364.788	87.75
365.015	79.75
365.241	64.75
365.468	88.75
365.694	76.75
365.92	87.75
366.147	83.75
366.373	91.75
366.599	78.75
366.826	83.75
367.052	86.75
367.278	85.75
367.505	78.75
367.731	79.75
367.957	75.75
368.184	70.75
368.41	80.75
368.636	74.75
368.862	84.75
369.089	76.75
369.315	78.75
369.541	87.75
369.767	83.75
369.993	80.75
370.219	83.75
370.445	88.75
370.672	86.75
370.898	90.75
371.124	96.75
371.35	78.75
371.576	86.75
371.802	71.75
372.028	74.75
372.254	79.75
372.48	65.75
372.706	86.75
372.932	85.75
373.158	88.75
373.384	97.75
373.61	79.75
373.835	85.75
374.061	92.75
374.287	77.75
374.513	86.75
374.739	86.75
374.965	90.75
375.191	80.75
375.416	82.75
375.642	83.75
375.868	90.75
376.094	83.75
376.319	68.75
376.545	90.75
376.771	81.75
376.997	84.75
377.222	72.75
377.448	81.75
377.674	85.75
377.899	82.75
378.125	85.75
378.35	93.75
378.576	79.75
378.802	72.75
379.027	90.75
379.253	85.75
379.478	63.75
379.704	80.75
379.929	93.75
380.155	90.75
380.38	85.75
380.606	78.75
380.831	76.75
381.057	89.75
381.282	71.75
381.507	74.75
381.733	80.75
381.958	73.75
382.184	79.75
382.409	82.75
382.634	96.75
382.86	85.75
383.085	85.75
383.31	70.75
383.535	74.75
383.761	85.75
383.986	79.75
384.211	68.75
384.436	85.75
384.662	83.75
384.887	73.75
385.112	85.75
385.337	94.75
385.562	85.75
385.787	92.75
386.013	83.75
386.238	87.75
386.463	86.75
386.688	82.75
386.913	71.75
387.138	82.75
387.363	80.75
387.588	97.75
387.813	75.75
388.038	98.75
388.263	85.75
388.488	75.75
388.713	72.75
388.938	82.75
389.163	81.75
389.387	95.75
389.612	78.75
389.837	70.75
390.062	90.75
390.287	86.75
390.512	82.75
390.736	85.75
390.961	102.75
391.186	63.75
391.411	74.75
391.636	86.75
391.86	94.75
392.085	77.75
392.31	72.75
392.534	84.75
392.759	100.75
392.984	80.75
393.208	85.75
393.433	89.75
393.658	75.75
393.882	88.75
394.107	87.75
394.331	70.75
394.556	71.75
394.78	97.75
395.005	75.75
395.229	83.75
395.454	82.75
395.678	85.75
395.903	97.75
396.127	102.75
396.352	83.75
396.576	71.75
396.801	90.75
397.025	81.75
397.249	84.75
397.474	92.75
397.698	85.75
397.922	70.75
398.147	85.75
398.371	80.75
398.595	77.75
398.82	91.75
399.044	82.75
399.268	76.75
399.492	91.75
399.717	89.75
399.941	82.75
400.165	91.75
400.389	88.75
400.613	81.75
400.837	92.75
401.062	72.75
401.286	86.75
401.51	82.75
401.734	79.75
401.958	84.75
402.182	74.75
402.406	92.75
402.63	79.75
402.854	90.75
403.078	94.75
403.302	80.75
403.526	77.75
403.75	92.75
403.974	93.75
404.198	81.75
404.422	97.75
404.645	72.75
404.869	95.75
405.093	79.75
405.317	88.75
405.541	90.75
405.765	78.75
405.988	91.75
406.212	87.75
406.436	94.75
406.66	73.75
406.883	85.75
407.107	94.75
407.331	96.75
407.555	97.75
407.778	88.75
408.002	70.75
408.226	89.75
408.449	75.75
408.673	85.75
408.896	89.75
409.12	79.75
409.344	83.75
409.567	90.75
409.791	81.75
410.014	98.75
410.238	86.75
410.461	83.75
410.685	82.75
410.908	98.75
411.132	90.75
411.355	79.75
411.578	92.75
411.802	90.75
412.025	86.75
412.249	84.75
412.472	96.75
412.695	92.75
412.919	88.75
413.142	81.75
413.365	75.75
413.589	88.75
413.812	83.75
414.035	102.75
414.258	67.75
414.482	81.75
414.705	101.75
414.928	101.75
415.151	87.75
415.374	88.75
415.597	85.75
415.821	96.75
416.044	91.75
416.267	89.75
416.49	112.75
416.713	82.75
416.936	93.75
417.159	92.75
417.382	97.75
417.605	103.75
417.828	87.75
418.051	79.75
418.274	82.75
418.497	104.75
418.72	90.75
418.943	103.75
419.166	91.75
419.389	94.75
419.611	89.75
419.834	96.75
420.057	105.75
420.28	100.75
420.503	101.75
420.726	88.75
420.948	89.75
421.171	86.75
421.394	86.75
421.617	95.75
421.839	84.75
422.062	93.75
422.285	89.75
422.507	90.75
422.73	92.75
422.953	84.75
423.175	91.75
423.398	94.75
423.621	89.75
423.843	89.75
424.066	91.75
424.288	88.75
424.511	87.75
424.733	96.75
424.956	98.75
425.178	95.75
425.401	92.75
425.623	99.75
425.846	89.75
426.068	93.75
426.291	98.75
426.513	94.75
426.735	97.75
426.958	83.75
427.18	79.75
427.402	87.75
427.625	91.75
427.847	86.75
428.069	96.75
428.292	90.75
428.514	100.75
428.736	81.75
428.958	107.75
429.181	95.75
429.403	91.75
429.625	79.75
429.847	96.75
430.069	96.75
430.292	87.75
430.514	96.75
430.736	91.75
430.958	93.75
431.18	78.75
431.402	104.75
431.624	89.75
431.846	94.75
432.068	69.75
432.29	89.75
432.512	76.75
432.734	82.75
432.956	93.75
433.178	111.75
433.4	85.75
433.622	102.75
433.844	87.75
434.066	70.75
434.287	87.75
434.509	94.75
434.731	80.75
434.953	83.75
435.175	102.75
435.397	77.75
435.618	82.75
435.84	89.75
436.062	86.75
436.284	87.75
436.505	97.75
436.727	89.75
436.949	87.75
437.17	79.75
437.392	91.75
437.614	75.75
437.835	96.75
438.057	89.75
438.278	84.75
438.5	77.75
438.721	96.75
438.943	90.75
439.165	85.75
439.386	81.75
439.608	101.75
439.829	99.75
440.05	94.75
440.272	88.75
440.493	92.75
440.715	96.75
440.936	88.75
441.158	80.75
441.379	99.75
441.6	95.75
441.822	96.75
442.043	96.75
442.264	99.75
442.486	101.75
442.707	105.75
442.928	95.75
443.149	93.75
443.371	84.75
443.592	82.75
443.813	94.75
444.034	92.75
444.255	81.75
444.476	96.75
444.698	96.75
444.919	90.75
445.14	213.75
445.361	149.75
445.582	91.75
445.803	98.75
446.024	94.75
446.245	93.75
446.466	105.75
446.687	95.75
446.908	100.75
447.129	96.75
447.35	88.75
447.571	91.75
447.792	93.75
448.013	89.75
448.234	101.75
448.455	94.75
448.675	100.75
448.896	82.75
449.117	88.75
449.338	86.75
449.559	86.75
449.779	73.75
450	94.75
450.221	93.75
450.442	94.75
450.662	109.75
450.883	92.75
451.104	99.75
451.324	83.75
451.545	81.75
451.766	91.75
451.986	98.75
452.207	79.75
452.428	89.75
452.648	89.75
452.869	98.75
453.089	88.75
453.31	99.75
453.53	88.75
453.751	71.75
453.971	79.75
454.192	72.75
454.412	91.75
454.633	90.75
454.853	94.75
455.073	93.75
455.294	82.75
455.514	91.75
455.734	81.75
455.955	87.75
456.175	94.75
456.395	86.75
456.616	90.75
456.836	92.75
457.056	98.75
457.276	80.75
457.497	81.75
457.717	82.75
457.937	92.75
458.157	80.75
458.377	75.75
458.598	89.75
458.818	85.75
459.038	87.75
459.258	75.75
459.478	67.75
459.698	87.75
459.918	77.75
460.138	80.75
460.358	95.75
460.578	81.75
460.798	94.75
461.018	93.75
461.238	90.75
461.458	90.75
461.678	95.75
461.898	77.75
462.118	71.75
462.338	80.75
462.558	84.75
462.777	85.75
462.997	90.75
463.217	98.75
463.437	90.75
463.657	93.75
463.876	71.75
464.096	92.75
464.316	67.75
464.536	87.75
464.755	89.75
464.975	82.75
465.195	89.75
465.414	82.75
465.634	83.75
465.854	68.75
466.073	80.75
466.293	91.75
466.512	105.75
466.732	98.75
466.951	95.75
467.171	99.75
467.391	100.75
467.61	93.75
467.829	94.75
468.049	98.75
468.268	87.75
468.488	90.75
468.707	103.75
468.927	84.75
469.146	81.75
469.365	101.75
469.585	100.75
469.804	105.75
470.023	105.75
470.243	86.75
470.462	97.75
470.681	111.75
470.901	85.75
471.12	101.75
471.339	96.75
471.558	102.75
471.777	85.75
471.997	90.75
472.216	88.75
472.435	82.75
472.654	95.75
472.873	96.75
473.092	94.75
473.311	92.75
473.53	91.75
473.749	100.75
473.968	82.75
474.187	90.75
474.406	100.75
474.625	88.75
474.844	102.75
475.063	90.75
475.282	81.75
475.501	88.75
475.72	83.75
475.939	79.75
476.158	88.75
476.377	91.75
476.596	97.75
476.814	87.75
477.033	81.75
477.252	82.75
477.471	93.75
477.69	81.75
477.908	104.75
478.127	88.75
478.346	101.75
478.564	96.75
478.783	94.75
479.002	91.75
479.22	98.75
479.439	100.75
479.658	73.75
479.876	93.75
480.095	94.75
480.313	97.75
480.532	90.75
480.751	79.75
480.969	81.75
481.188	86.75
481.406	81.75
481.624	72.75
481.843	83.75
482.061	83.75
482.28	84.75
482.498	94.75
482.717	80.75
482.935	93.75
483.153	96.75
483.372	107.75
483.59	90.75
483.808	95.75
484.027	78.75
484.245	92.75
484.463	89.75
484.681	105.75
484.9	106.75
485.118	98.75
485.336	90.75
485.554	80.75
485.772	80.75
485.99	91.75
486.209	62.75
486.427	86.75
486.645	93.75
486.863	97.75
487.081	85.75
487.299	94.75
487.517	79.75
487.735	98.75
487.953	102.75
488.171	89.75
488.389	87.75
488.607	103.75
488.825	101.75
489.043	94.75
489.261	100.75
489.479	95.75
489.696	107.75
489.914	95.75
490.132	98.75
490.35	93.75
490.568	94.75
490.786	78.75
491.003	118.75
491.221	113.75
491.439	116.75
491.657	97.75
491.874	117.75
492.092	129.75
492.31	125.75
492.527	119.75
492.745	101.75
492.963	115.75
493.18	111.75
493.398	106.75
493.615	114.75
493.833	103.75
494.05	95.75
494.268	110.75
494.485	104.75
494.703	108.75
494.92	117.75
495.138	101.75
495.355	111.75
495.573	121.75
495.79	99.75
496.008	101.75
496.225	119.75
496.442	116.75
496.66	107.75
496.877	106.75
497.094	96.75
497.312	99.75
497.529	97.75
497.746	105.75
497.963	92.75
498.181	90.75
498.398	87.75
498.615	97.75
498.832	83.75
499.049	82.75
499.267	79.75
499.484	86.75
499.701	89.75
499.918	91.75
500.135	86.75
500.352	86.75
500.569	104.75
500.786	101.75
501.003	102.75
501.22	98.75
501.437	97.75
501.654	91.75
501.871	89.75
502.088	89.75
502.305	85.75
502.522	101.75
502.739	89.75
502.956	91.75
503.172	87.75
503.389	91.75
503.606	91.75
503.823	89.75
504.04	81.75
504.256	84.75
504.473	92.75
504.69	94.75
504.907	88.75
505.123	87.75
505.34	88.75
505.557	88.75
505.773	89.75
505.99	98.75
506.207	83.75
506.423	95.75
506.64	92.75
506.856	94.75
507.073	91.75
507.289	87.75
507.506	82.75
507.722	72.75
507.939	89.75
508.155	90.75
508.372	98.75
508.588	96.75
508.805	89.75
509.021	86.75
509.238	81.75
509.454	91.75
509.67	81.75
509.887	82.75
510.103	74.75
510.319	93.75
510.536	96.75
510.752	91.75
510.968	83.75
511.184	73.75
511.401	84.75
511.617	93.75
511.833	83.75
512.049	76.75
512.265	83.75
512.481	88.75
512.698	72.75
512.914	100.75
513.13	85.75
513.346	79.75
513.562	88.75
513.778	73.75
513.994	90.75
514.21	86.75
514.426	89.75
514.642	81.75
514.858	82.75
515.074	84.75
515.29	78.75
515.506	79.75
515.721	90.75
515.937	100.75
516.153	77.75
516.369	85.75
516.585	83.75
516.801	87.75
517.016	89.75
517.232	74.75
517.448	89.75
517.664	92.75
517.879	86.75
518.095	83.75
518.311	82.75
518.527	95.75
518.742	86.75
518.958	96.75
519.173	91.75
519.389	86.75
519.605	86.75
519.82	81.75
520.036	96.75
520.251	88.75
520.467	92.75
520.682	82.75
520.898	91.75
521.113	75.75
521.329	74.75
521.544	81.75
521.76	82.75
521.975	92.75
522.19	78.75
522.406	87.75
522.621	83.75
522.836	92.75
523.052	93.75
523.267	86.75
523.482	91.75
523.698	71.75
523.913	84.75
524.128	97.75
524.343	96.75
524.559	87.75
524.774	91.75
524.989	99.75
525.204	98.75
525.419	102.75
525.634	94.75
525.849	90.75
526.064	93.75
526.28	83.75
526.495	80.75
526.71	87.75
526.925	86.75
527.14	73.75
527.355	75.75
527.57	76.75
527.785	89.75
527.999	85.75
528.214	81.75
528.429	79.75
528.644	107.75
528.859	84.75
529.074	98.75
529.289	119.75
529.503	102.75
529.718	97.75
529.933	90.75
530.148	75.75
530.363	73.75
530.577	82.75
530.792	72.75
531.007	82.75
531.221	77.75
531.436	84.75
531.651	81.75
531.865	94.75
532.08	79.75
532.295	87.75
532.509	86.75
532.724	80.75
532.938	85.75
533.153	82.75
533.367	93.75
533.582	84.75
533.796	98.75
534.011	98.75
534.225	91.75
534.44	89.75
534.654	81.75
534.868	90.75
535.083	75.75
535.297	98.75
535.511	112.75
535.726	97.75
535.94	91.75
536.154	85.75
536.369	80.75
536.583	89.75
536.797	84.75
537.011	74.75
537.225	82.75
537.44	79.75
537.654	89.75
537.868	75.75
538.082	87.75
538.296	79.75
538.51	99.75
538.724	85.75
538.938	75.75
539.153	78.75
539.367	83.75
539.581	100.75
539.795	81.75
540.009	79.75
540.222	85.75
540.436	84.75
540.65	98.75
540.864	87.75
541.078	88.75
541.292	95.75
541.506	101.75
541.72	94.75
541.934	111.75
542.147	108.75
542.361	90.75
542.575	96.75
542.789	103.75
543.002	83.75
543.216	87.75
543.43	98.75
543.644	89.75
543.857	112.75
544.071	99.75
544.285	99.75
544.498	116.75
544.712	113.75
544.925	103.75
545.139	101.75
545.352	103.75
545.566	97.75
545.779	100.75
545.993	128.75
546.206	114.75
546.42	111.75
546.633	96.75
546.847	111.75
547.06	102.75
547.274	102.75
547.487	97.75
547.7	91.75
547.914	101.75
548.127	98.75
548.34	105.75
548.554	115.75
548.767	99.75
548.98	110.75
549.193	95.75
549.407	89.75
549.62	107.75
549.833	109.75
550.046	105.75
550.259	102.75
550.473	87.75
550.686	112.75
550.899	105.75
551.112	95.75
551.325	102.75
551.538	96.75
551.751	97.75
551.964	95.75
552.177	88.75
552.39	102.75
552.603	98.75
552.816	106.75
553.029	106.75
553.242	102.75
553.455	90.75
553.667	110.75
553.88	103.75
554.093	76.75
554.306	112.75
554.519	102.75
554.732	83.75
554.944	98.75
555.157	85.75
555.37	110.75
555.583	92.75
555.795	102.75
556.008	92.75
556.221	98.75
556.433	86.75
556.646	99.75
556.859	90.75
557.071	106.75
557.284	87.75
557.496	95.75
557.709	81.75
557.921	105.75
558.134	95.75
558.346	89.75
558.559	89.75
558.771	97.75
558.984	83.75
559.196	103.75
559.409	101.75
559.621	99.75
559.833	75.75
560.046	91.75
560.258	86.75
560.47	106.75
560.683	89.75
560.895	90.75
561.107	97.75
561.32	91.75
561.532	87.75
561.744	95.75
561.956	96.75
562.168	106.75
562.381	101.75
562.593	102.75
562.805	101.75
563.017	93.75
563.229	105.75
563.441	104.75
563.653	88.75
563.865	95.75
564.077	84.75
564.289	79.75
564.501	85.75
564.713	110.75
564.925	96.75
565.137	91.75
565.349	92.75
565.561	89.75
565.773	106.75
565.985	101.75
566.197	98.75
566.408	97.75
566.62	90.75
566.832	78.75
567.044	86.75
567.255	99.75
567.467	105.75
567.679	82.75
567.891	91.75
568.102	83.75
568.314	81.75
568.526	78.75
568.737	73.75
568.949	85.75
569.161	81.75
569.372	70.75
569.584	67.75
569.795	75.75
570.007	93.75
570.218	89.75
570.43	87.75
570.641	85.75
570.853	89.75
571.064	90.75
571.276	89.75
571.487	92.75
571.698	82.75
571.91	84.75
572.121	91.75
572.333	95.75
572.544	93.75
572.755	87.75
572.966	95.75
573.178	93.75
573.389	79.75
573.6	80.75
573.811	86.75
574.023	74.75
574.234	77.75
574.445	81.75
574.656	88.75
574.867	102.75
575.078	94.75
575.289	80.75
575.501	91.75
575.712	78.75
575.923	87.75
576.134	92.75
576.345	73.75
576.556	88.75
576.767	95.75
576.978	81.75
577.188	81.75
577.399	88.75
577.61	83.75
577.821	78.75
578.032	75.75
578.243	98.75
578.454	88.75
578.665	98.75
578.875	79.75
579.086	70.75
579.297	68.75
579.508	81.75
579.718	69.75
579.929	88.75
580.14	71.75
580.35	79.75
580.561	86.75
580.772	92.75
580.982	83.75
581.193	89.75
581.403	78.75
581.614	92.75
581.825	75.75
582.035	104.75
582.246	86.75
582.456	74.75
582.667	95.75
582.877	75.75
583.087	87.75
583.298	89.75
583.508	95.75
583.719	80.75
583.929	85.75
584.139	91.75
584.35	80.75
584.56	85.75
584.77	91.75
584.981	90.75
585.191	81.75
585.401	82.75
585.611	62.75
585.821	91.75
586.032	73.75
586.242	85.75
586.452	91.75
586.662	80.75
586.872	79.75
587.082	75.75
587.292	87.75
587.502	80.75
587.713	79.75
587.923	71.75
588.133	77.75
588.343	96.75
588.553	100.75
588.762	90.75
588.972	82.75
589.182	86.75
589.392	90.75
589.602	95.75
589.812	77.75
590.022	81.75
590.232	84.75
590.441	79.75
590.651	82.75
590.861	68.75
591.071	81.75
591.281	78.75
591.49	81.75
591.7	82.75
591.91	98.75
592.119	82.75
592.329	72.75
592.539	74.75
592.748	87.75
592.958	70.75
593.167	83.75
593.377	83.75
593.587	83.75
593.796	80.75
594.006	94.75
594.215	72.75
594.424	83.75
594.634	93.75
594.843	87.75
595.053	97.75
595.262	88.75
595.472	81.75
595.681	78.75
595.89	73.75
596.1	71.75
596.309	69.75
596.518	87.75
596.727	89.75
596.937	98.75
597.146	92.75
597.355	85.75
597.564	89.75
597.774	85.75
597.983	69.75
598.192	86.75
598.401	69.75
598.61	81.75
598.819	76.75
599.028	90.75
599.237	78.75
599.446	76.75
599.655	83.75
599.864	81.75
600.073	77.75
600.282	93.75
600.491	87.75
600.7	74.75
600.909	100.75
601.118	86.75
601.327	89.75
601.536	83.75
601.745	89.75
601.953	87.75
602.162	89.75
602.371	94.75
602.58	92.75
602.789	85.75
602.997	83.75
603.206	85.75
603.415	97.75
603.623	96.75
603.832	85.75
604.041	97.75
604.249	89.75
604.458	98.75
604.666	81.75
604.875	98.75
605.084	88.75
605.292	80.75
605.501	81.75
605.709	81.75
605.918	99.75
606.126	95.75
606.334	101.75
606.543	87.75
606.751	92.75
606.96	91.75
607.168	101.75
607.376	87.75
607.585	91.75
607.793	82.75
608.001	105.75
608.21	86.75
608.418	99.75
608.626	92.75
608.834	86.75
609.043	104.75
609.251	78.75
609.459	91.75
609.667	93.75
609.875	82.75
610.083	89.75
610.291	89.75
610.499	94.75
610.707	88.75
610.916	90.75
611.124	97.75
611.332	80.75
611.54	89.75
611.748	86.75
611.955	88.75
612.163	87.75
612.371	78.75
612.579	82.75
612.787	99.75
612.995	86.75
613.203	99.75
613.411	86.75
613.618	88.75
613.826	94.75
614.034	97.75
614.242	84.75
614.449	91.75
614.657	87.75
614.865	80.75
615.072	101.75
615.28	99.75
615.488	83.75
615.695	103.75
615.903	80.75
616.111	89.75
616.318	100.75
616.526	80.75
616.733	83.75
616.941	82.75
617.148	99.75
617.356	90.75
617.563	85.75
617.771	93.75
617.978	83.75
618.185	85.75
618.393	77.75
618.6	89.75
618.807	102.75
619.015	87.75
619.222	91.75
619.429	86.75
619.637	104.75
619.844	88.75
620.051	86.75
620.258	86.75
620.466	81.75
620.673	96.75
620.88	85.75
621.087	106.75
621.294	87.75
621.501	83.75
621.708	82.75
621.915	97.75
622.122	99.75
622.329	88.75
622.536	89.75
622.743	88.75
622.95	95.75
623.157	78.75
623.364	90.75
623.571	92.75
623.778	74.75
623.985	82.75
624.192	92.75
624.399	83.75
624.606	106.75
624.812	85.75
625.019	82.75
625.226	97.75
625.433	87.75
625.639	91.75
625.846	96.75
626.053	83.75
626.259	87.75
626.466	92.75
626.673	79.75
626.879	74.75
627.086	81.75
627.293	78.75
627.499	94.75
627.706	98.75
627.912	78.75
628.119	78.75
628.325	102.75
628.532	94.75
628.738	80.75
628.945	86.75
629.151	87.75
629.357	80.75
629.564	76.75
629.77	84.75
629.976	95.75
630.183	79.75
630.389	86.75
630.595	84.75
630.802	84.75
631.008	85.75
631.214	91.75
631.42	93.75
631.627	109.75
631.833	86.75
632.039	80.75
632.245	107.75
632.451	87.75
632.657	85.75
632.863	87.75
633.069	69.75
633.275	78.75
633.481	86.75
633.688	78.75
633.893	89.75
634.099	97.75
634.305	95.75
634.511	79.75
634.717	88.75
634.923	75.75
635.129	85.75
635.335	95.75
635.541	86.75
635.747	80.75
635.952	83.75
636.158	86.75
636.364	79.75
636.57	77.75
636.775	86.75
636.981	81.75
637.187	84.75
637.392	91.75
637.598	86.75
637.804	88.75
638.009	80.75
638.215	95.75
638.421	85.75
638.626	87.75
638.832	85.75
639.037	89.75
639.243	78.75
639.448	96.75
639.654	97.75
639.859	93.75
640.065	80.75
640.27	100.75
640.475	79.75
640.681	86.75
640.886	95.75
641.091	74.75
641.297	90.75
641.502	78.75
641.707	85.75
641.913	83.75
642.118	91.75
642.323	81.75
642.528	102.75
642.733	85.75
642.939	72.75
643.144	81.75
643.349	84.75
643.554	85.75
643.759	93.75
643.964	74.75
644.169	107.75
644.374	86.75
644.579	92.75
644.784	74.75
644.989	83.75
645.194	87.75
645.399	103.75
645.604	95.75
645.809	86.75
646.014	88.75
646.219	78.75
646.423	96.75
646.628	81.75
646.833	91.75
647.038	87.75
647.243	94.75
647.447	99.75
647.652	89.75
647.857	82.75
648.062	97.75
648.266	87.75
648.471	79.75
648.676	79.75
648.88	93.75
649.085	96.75
649.289	79.75
649.494	81.75
649.698	76.75
649.903	79.75
650.107	94.75
650.312	96.75
650.516	93.75
650.721	86.75
650.925	71.75
651.13	76.75
651.334	87.75
651.539	104.75
651.743	91.75
651.947	81.75
652.152	71.75
652.356	92.75
652.56	80.75
652.764	83.75
652.969	92.75
653.173	97.75
653.377	88.75
653.581	58.75
653.785	85.75
653.99	77.75
654.194	95.75
654.398	84.75
654.602	81.75
654.806	77.75
655.01	81.75
655.214	70.75
655.418	85.75
655.622	90.75
655.826	90.75
656.03	95.75
656.234	80.75
656.438	69.75
656.642	85.75
656.846	77.75
657.049	81.75
657.253	76.75
657.457	82.75
657.661	81.75
657.865	86.75
658.068	69.75
658.272	85.75
658.476	86.75
658.68	61.75
658.883	87.75
659.087	99.75
659.291	86.75
659.494	89.75
659.698	75.75
659.901	79.75
660.105	85.75
660.309	78.75
660.512	75.75
660.716	85.75
660.919	81.75
661.123	79.75
661.326	74.75
661.53	92.75
661.733	83.75
661.936	77.75
662.14	83.75
662.343	83.75
662.546	86.75
662.75	78.75
662.953	78.75
663.156	84.75
663.36	70.75
663.563	72.75
663.766	90.75
663.969	88.75
664.173	91.75
664.376	97.75
664.579	87.75
664.782	72.75
664.985	74.75
665.188	82.75
665.391	87.75
665.594	62.75
665.797	66.75
666	84.75
666.203	80.75
666.406	72.75
666.609	83.75
666.812	62.75
667.015	78.75
667.218	80.75
667.421	78.75
667.624	81.75
667.827	86.75
668.03	82.75
668.232	81.75
668.435	79.75
668.638	89.75
668.841	93.75
669.043	71.75
669.246	84.75
669.449	83.75
669.651	89.75
669.854	85.75
670.057	87.75
670.259	87.75
670.462	85.75
670.665	83.75
670.867	80.75
671.07	85.75
671.272	95.75
671.475	81.75
671.677	75.75
671.88	75.75
672.082	85.75
672.284	74.75
672.487	90.75
672.689	79.75
672.892	84.75
