Data from Location5.07152019.Energy5.Lamp.07192019.3%Agarose_HRD10591_15-36-46-386.txt Node
Date: Fri Jul 19 15:36:46 EDT 2019
User: cochatt
Spectrometer: HR+D1059
Trigger mode: 1
Integration Time (sec): 1.000000E-1
Scans to average: 1
Electric dark correction enabled: true
Nonlinearity correction enabled: false
Boxcar width: 0
XAxis mode: Wavelengths
Number of Pixels in Spectrum: 2048
>>>>>Begin Spectral Data<<<<<
223.165	-10.94
223.4	-10.94
223.635	-10.94
223.869	-5.94
224.104	-13.94
224.338	-6.94
224.573	-16.94
224.808	-16.94
225.042	-3.94
225.277	-14.94
225.511	-3.94
225.746	-2.94
225.98	5.06
226.215	5.06
226.449	20.06
226.683	18.06
226.918	21.06
227.152	28.06
227.387	37.06
227.621	34.06
227.856	52.06
228.09	47.06
228.324	48.06
228.559	47.06
228.793	44.06
229.027	66.06
229.262	70.06
229.496	55.06
229.73	70.06
229.964	62.06
230.199	85.06
230.433	82.06
230.667	68.06
230.901	81.06
231.136	85.06
231.37	85.06
231.604	63.06
231.838	79.06
232.072	71.06
232.306	92.06
232.541	85.06
232.775	89.06
233.009	81.06
233.243	86.06
233.477	82.06
233.711	74.06
233.945	93.06
234.179	84.06
234.413	90.06
234.647	90.06
234.881	97.06
235.115	77.06
235.349	80.06
235.583	78.06
235.817	83.06
236.051	74.06
236.285	77.06
236.519	83.06
236.753	77.06
236.987	78.06
237.221	85.06
237.455	87.06
237.689	70.06
237.922	77.06
238.156	87.06
238.39	81.06
238.624	69.06
238.858	74.06
239.091	68.06
239.325	62.06
239.559	78.06
239.793	79.06
240.027	84.06
240.26	72.06
240.494	91.06
240.728	83.06
240.961	71.06
241.195	80.06
241.429	78.06
241.662	86.06
241.896	79.06
242.13	70.06
242.363	75.06
242.597	71.06
242.83	79.06
243.064	82.06
243.298	65.06
243.531	75.06
243.765	69.06
243.998	83.06
244.232	80.06
244.465	90.06
244.699	76.06
244.932	81.06
245.166	88.06
245.399	80.06
245.633	76.06
245.866	70.06
246.099	79.06
246.333	71.06
246.566	76.06
246.8	75.06
247.033	70.06
247.266	80.06
247.5	93.06
247.733	78.06
247.966	57.06
248.2	76.06
248.433	86.06
248.666	91.06
248.899	80.06
249.133	69.06
249.366	91.06
249.599	71.06
249.832	87.06
250.066	90.06
250.299	97.06
250.532	89.06
250.765	79.06
250.998	67.06
251.231	82.06
251.465	72.06
251.698	72.06
251.931	86.06
252.164	95.06
252.397	76.06
252.63	76.06
252.863	75.06
253.096	81.06
253.329	74.06
253.562	76.06
253.795	81.06
254.028	75.06
254.261	79.06
254.494	61.06
254.727	79.06
254.96	63.06
255.193	71.06
255.426	62.06
255.659	89.06
255.892	78.06
256.124	88.06
256.357	73.06
256.59	95.06
256.823	76.06
257.056	71.06
257.289	82.06
257.521	81.06
257.754	88.06
257.987	81.06
258.22	74.06
258.452	90.06
258.685	88.06
258.918	87.06
259.151	72.06
259.383	68.06
259.616	77.06
259.849	68.06
260.081	78.06
260.314	77.06
260.547	65.06
260.779	80.06
261.012	89.06
261.244	91.06
261.477	80.06
261.71	86.06
261.942	65.06
262.175	86.06
262.407	73.06
262.64	78.06
262.872	76.06
263.105	70.06
263.337	90.06
263.57	79.06
263.802	91.06
264.035	94.06
264.267	71.06
264.499	80.06
264.732	79.06
264.964	75.06
265.197	73.06
265.429	91.06
265.661	72.06
265.894	84.06
266.126	79.06
266.358	88.06
266.591	89.06
266.823	63.06
267.055	66.06
267.287	82.06
267.52	87.06
267.752	79.06
267.984	93.06
268.216	83.06
268.448	84.06
268.681	88.06
268.913	78.06
269.145	83.06
269.377	70.06
269.609	69.06
269.841	81.06
270.073	79.06
270.306	101.06
270.538	101.06
270.77	93.06
271.002	83.06
271.234	88.06
271.466	88.06
271.698	74.06
271.93	83.06
272.162	85.06
272.394	81.06
272.626	79.06
272.858	74.06
273.09	70.06
273.322	83.06
273.553	81.06
273.785	88.06
274.017	83.06
274.249	96.06
274.481	86.06
274.713	75.06
274.945	77.06
275.176	84.06
275.408	87.06
275.64	83.06
275.872	82.06
276.104	85.06
276.335	90.06
276.567	93.06
276.799	93.06
277.031	85.06
277.262	85.06
277.494	74.06
277.726	90.06
277.957	89.06
278.189	78.06
278.421	95.06
278.652	76.06
278.884	85.06
279.115	86.06
279.347	86.06
279.579	75.06
279.81	91.06
280.042	75.06
280.273	73.06
280.505	79.06
280.736	80.06
280.968	90.06
281.199	78.06
281.431	85.06
281.662	95.06
281.894	74.06
282.125	83.06
282.356	81.06
282.588	73.06
282.819	96.06
283.051	92.06
283.282	93.06
283.513	88.06
283.745	82.06
283.976	90.06
284.207	82.06
284.439	80.06
284.67	96.06
284.901	77.06
285.132	89.06
285.364	86.06
285.595	71.06
285.826	78.06
286.057	81.06
286.288	86.06
286.52	86.06
286.751	93.06
286.982	89.06
287.213	88.06
287.444	81.06
287.675	80.06
287.906	95.06
288.138	84.06
288.369	103.06
288.6	101.06
288.831	82.06
289.062	83.06
289.293	76.06
289.524	77.06
289.755	90.06
289.986	88.06
290.217	81.06
290.448	90.06
290.679	95.06
290.91	88.06
291.141	77.06
291.371	79.06
291.602	105.06
291.833	76.06
292.064	78.06
292.295	85.06
292.526	90.06
292.757	89.06
292.987	82.06
293.218	93.06
293.449	88.06
293.68	84.06
293.91	80.06
294.141	74.06
294.372	71.06
294.603	89.06
294.833	88.06
295.064	90.06
295.295	74.06
295.525	81.06
295.756	99.06
295.987	81.06
296.217	79.06
296.448	88.06
296.679	83.06
296.909	86.06
297.14	87.06
297.37	94.06
297.601	87.06
297.831	80.06
298.062	96.06
298.292	76.06
298.523	90.06
298.753	89.06
298.984	92.06
299.214	83.06
299.445	93.06
299.675	87.06
299.905	82.06
300.136	76.06
300.366	83.06
300.597	83.06
300.827	84.06
301.057	83.06
301.288	81.06
301.518	75.06
301.748	82.06
301.979	101.06
302.209	89.06
302.439	89.06
302.669	98.06
302.9	85.06
303.13	79.06
303.36	89.06
303.59	97.06
303.82	80.06
304.051	89.06
304.281	80.06
304.511	78.06
304.741	77.06
304.971	81.06
305.201	92.06
305.431	83.06
305.661	87.06
305.891	93.06
306.121	82.06
306.352	74.06
306.582	96.06
306.812	83.06
307.042	86.06
307.272	86.06
307.502	81.06
307.731	87.06
307.961	92.06
308.191	89.06
308.421	100.06
308.651	90.06
308.881	92.06
309.111	89.06
309.341	73.06
309.571	79.06
309.8	74.06
310.03	83.06
310.26	87.06
310.49	86.06
310.72	74.06
310.949	73.06
311.179	87.06
311.409	76.06
311.639	69.06
311.868	87.06
312.098	81.06
312.328	81.06
312.557	88.06
312.787	97.06
313.017	72.06
313.246	77.06
313.476	81.06
313.706	83.06
313.935	97.06
314.165	91.06
314.394	77.06
314.624	77.06
314.853	68.06
315.083	70.06
315.312	97.06
315.542	82.06
315.771	80.06
316.001	81.06
316.23	85.06
316.46	86.06
316.689	98.06
316.919	81.06
317.148	101.06
317.377	91.06
317.607	92.06
317.836	90.06
318.065	83.06
318.295	97.06
318.524	88.06
318.753	79.06
318.983	87.06
319.212	76.06
319.441	83.06
319.67	79.06
319.9	85.06
320.129	86.06
320.358	74.06
320.587	73.06
320.816	87.06
321.046	81.06
321.275	73.06
321.504	83.06
321.733	88.06
321.962	86.06
322.191	76.06
322.42	77.06
322.649	87.06
322.878	80.06
323.108	83.06
323.337	88.06
323.566	88.06
323.795	78.06
324.024	77.06
324.253	80.06
324.482	81.06
324.71	82.06
324.939	84.06
325.168	84.06
325.397	89.06
325.626	87.06
325.855	97.06
326.084	79.06
326.313	92.06
326.542	79.06
326.77	101.06
326.999	91.06
327.228	100.06
327.457	78.06
327.686	84.06
327.914	80.06
328.143	81.06
328.372	98.06
328.6	80.06
328.829	80.06
329.058	101.06
329.287	80.06
329.515	77.06
329.744	76.06
329.972	75.06
330.201	79.06
330.43	70.06
330.658	83.06
330.887	72.06
331.115	84.06
331.344	79.06
331.572	84.06
331.801	81.06
332.03	83.06
332.258	87.06
332.486	87.06
332.715	96.06
332.943	97.06
333.172	83.06
333.4	92.06
333.629	94.06
333.857	88.06
334.085	86.06
334.314	80.06
334.542	87.06
334.771	76.06
334.999	83.06
335.227	83.06
335.455	79.06
335.684	81.06
335.912	92.06
336.14	75.06
336.369	78.06
336.597	77.06
336.825	88.06
337.053	81.06
337.281	92.06
337.51	88.06
337.738	83.06
337.966	84.06
338.194	80.06
338.422	82.06
338.65	89.06
338.878	93.06
339.106	69.06
339.334	83.06
339.562	81.06
339.79	82.06
340.018	85.06
340.246	96.06
340.474	87.06
340.702	100.06
340.93	87.06
341.158	88.06
341.386	77.06
341.614	69.06
341.842	90.06
342.07	79.06
342.298	81.06
342.526	76.06
342.754	78.06
342.981	74.06
343.209	86.06
343.437	73.06
343.665	97.06
343.893	76.06
344.12	79.06
344.348	77.06
344.576	90.06
344.804	92.06
345.031	78.06
345.259	79.06
345.487	89.06
345.714	88.06
345.942	68.06
346.17	90.06
346.397	77.06
346.625	77.06
346.853	86.06
347.08	83.06
347.308	87.06
347.535	81.06
347.763	76.06
347.99	72.06
348.218	77.06
348.445	75.06
348.673	96.06
348.9	89.06
349.128	82.06
349.355	75.06
349.583	78.06
349.81	75.06
350.037	76.06
350.265	84.06
350.492	76.06
350.72	83.06
350.947	85.06
351.174	79.06
351.402	77.06
351.629	74.06
351.856	85.06
352.083	97.06
352.311	93.06
352.538	91.06
352.765	64.06
352.992	79.06
353.22	75.06
353.447	85.06
353.674	104.06
353.901	81.06
354.128	72.06
354.355	80.06
354.583	77.06
354.81	83.06
355.037	86.06
355.264	71.06
355.491	85.06
355.718	81.06
355.945	73.06
356.172	78.06
356.399	75.06
356.626	83.06
356.853	95.06
357.08	84.06
357.307	75.06
357.534	83.06
357.761	75.06
357.988	81.06
358.215	83.06
358.441	85.06
358.668	84.06
358.895	76.06
359.122	89.06
359.349	82.06
359.576	71.06
359.802	71.06
360.029	75.06
360.256	101.06
360.483	85.06
360.709	83.06
360.936	85.06
361.163	77.06
361.39	92.06
361.616	105.06
361.843	72.06
362.07	76.06
362.296	73.06
362.523	78.06
362.749	75.06
362.976	96.06
363.203	84.06
363.429	95.06
363.656	84.06
363.882	71.06
364.109	77.06
364.335	86.06
364.562	75.06
364.788	88.06
365.015	81.06
365.241	89.06
365.468	83.06
365.694	85.06
365.92	79.06
366.147	80.06
366.373	71.06
366.599	89.06
366.826	94.06
367.052	90.06
367.278	84.06
367.505	82.06
367.731	84.06
367.957	92.06
368.184	88.06
368.41	68.06
368.636	93.06
368.862	88.06
369.089	75.06
369.315	75.06
369.541	81.06
369.767	99.06
369.993	87.06
370.219	90.06
370.445	74.06
370.672	75.06
370.898	72.06
371.124	67.06
371.35	73.06
371.576	77.06
371.802	83.06
372.028	83.06
372.254	86.06
372.48	89.06
372.706	81.06
372.932	80.06
373.158	87.06
373.384	87.06
373.61	100.06
373.835	86.06
374.061	86.06
374.287	85.06
374.513	87.06
374.739	78.06
374.965	74.06
375.191	72.06
375.416	83.06
375.642	89.06
375.868	96.06
376.094	91.06
376.319	71.06
376.545	95.06
376.771	82.06
376.997	83.06
377.222	83.06
377.448	84.06
377.674	87.06
377.899	90.06
378.125	80.06
378.35	87.06
378.576	70.06
378.802	88.06
379.027	82.06
379.253	91.06
379.478	90.06
379.704	84.06
379.929	71.06
380.155	72.06
380.38	75.06
380.606	83.06
380.831	88.06
381.057	91.06
381.282	76.06
381.507	98.06
381.733	85.06
381.958	89.06
382.184	89.06
382.409	92.06
382.634	87.06
382.86	79.06
383.085	89.06
383.31	96.06
383.535	91.06
383.761	81.06
383.986	93.06
384.211	81.06
384.436	92.06
384.662	81.06
384.887	85.06
385.112	83.06
385.337	90.06
385.562	92.06
385.787	81.06
386.013	81.06
386.238	83.06
386.463	76.06
386.688	89.06
386.913	78.06
387.138	75.06
387.363	86.06
387.588	82.06
387.813	82.06
388.038	81.06
388.263	81.06
388.488	83.06
388.713	89.06
388.938	85.06
389.163	77.06
389.387	97.06
389.612	88.06
389.837	94.06
390.062	84.06
390.287	86.06
390.512	99.06
390.736	82.06
390.961	83.06
391.186	79.06
391.411	89.06
391.636	81.06
391.86	99.06
392.085	77.06
392.31	85.06
392.534	79.06
392.759	94.06
392.984	62.06
393.208	72.06
393.433	76.06
393.658	88.06
393.882	86.06
394.107	93.06
394.331	87.06
394.556	88.06
394.78	86.06
395.005	88.06
395.229	79.06
395.454	79.06
395.678	89.06
395.903	80.06
396.127	88.06
396.352	67.06
396.576	78.06
396.801	81.06
397.025	92.06
397.249	89.06
397.474	102.06
397.698	77.06
397.922	88.06
398.147	88.06
398.371	75.06
398.595	81.06
398.82	71.06
399.044	83.06
399.268	75.06
399.492	89.06
399.717	89.06
399.941	81.06
400.165	81.06
400.389	77.06
400.613	101.06
400.837	97.06
401.062	104.06
401.286	95.06
401.51	91.06
401.734	82.06
401.958	86.06
402.182	79.06
402.406	95.06
402.63	76.06
402.854	89.06
403.078	89.06
403.302	80.06
403.526	81.06
403.75	101.06
403.974	96.06
404.198	93.06
404.422	88.06
404.645	93.06
404.869	98.06
405.093	75.06
405.317	86.06
405.541	81.06
405.765	90.06
405.988	86.06
406.212	92.06
406.436	76.06
406.66	90.06
406.883	101.06
407.107	90.06
407.331	90.06
407.555	90.06
407.778	95.06
408.002	98.06
408.226	98.06
408.449	91.06
408.673	69.06
408.896	87.06
409.12	79.06
409.344	86.06
409.567	83.06
409.791	92.06
410.014	95.06
410.238	79.06
410.461	89.06
410.685	86.06
410.908	89.06
411.132	90.06
411.355	98.06
411.578	83.06
411.802	95.06
412.025	89.06
412.249	94.06
412.472	81.06
412.695	92.06
412.919	91.06
413.142	87.06
413.365	87.06
413.589	88.06
413.812	84.06
414.035	90.06
414.258	98.06
414.482	109.06
414.705	83.06
414.928	84.06
415.151	75.06
415.374	91.06
415.597	88.06
415.821	100.06
416.044	101.06
416.267	91.06
416.49	91.06
416.713	81.06
416.936	87.06
417.159	96.06
417.382	93.06
417.605	97.06
417.828	85.06
418.051	101.06
418.274	80.06
418.497	84.06
418.72	115.06
418.943	97.06
419.166	103.06
419.389	102.06
419.611	83.06
419.834	100.06
420.057	95.06
420.28	95.06
420.503	84.06
420.726	82.06
420.948	98.06
421.171	92.06
421.394	80.06
421.617	79.06
421.839	93.06
422.062	88.06
422.285	83.06
422.507	81.06
422.73	88.06
422.953	84.06
423.175	95.06
423.398	96.06
423.621	98.06
423.843	98.06
424.066	97.06
424.288	93.06
424.511	96.06
424.733	98.06
424.956	79.06
425.178	95.06
425.401	104.06
425.623	103.06
425.846	104.06
426.068	83.06
426.291	81.06
426.513	87.06
426.735	96.06
426.958	81.06
427.18	87.06
427.402	110.06
427.625	103.06
427.847	83.06
428.069	92.06
428.292	90.06
428.514	96.06
428.736	109.06
428.958	83.06
429.181	93.06
429.403	90.06
429.625	101.06
429.847	89.06
430.069	92.06
430.292	95.06
430.514	100.06
430.736	97.06
430.958	87.06
431.18	97.06
431.402	92.06
431.624	100.06
431.846	72.06
432.068	86.06
432.29	73.06
432.512	85.06
432.734	95.06
432.956	93.06
433.178	100.06
433.4	90.06
433.622	95.06
433.844	100.06
434.066	93.06
434.287	77.06
434.509	93.06
434.731	87.06
434.953	84.06
435.175	85.06
435.397	86.06
435.618	97.06
435.84	91.06
436.062	88.06
436.284	100.06
436.505	97.06
436.727	99.06
436.949	96.06
437.17	97.06
437.392	103.06
437.614	111.06
437.835	88.06
438.057	93.06
438.278	87.06
438.5	98.06
438.721	99.06
438.943	98.06
439.165	87.06
439.386	97.06
439.608	106.06
439.829	100.06
440.05	100.06
440.272	85.06
440.493	92.06
440.715	95.06
440.936	91.06
441.158	105.06
441.379	99.06
441.6	103.06
441.822	95.06
442.043	90.06
442.264	106.06
442.486	104.06
442.707	98.06
442.928	99.06
443.149	112.06
443.371	101.06
443.592	99.06
443.813	95.06
444.034	79.06
444.255	97.06
444.476	93.06
444.698	101.06
444.919	98.06
445.14	233.06
445.361	154.06
445.582	99.06
445.803	95.06
446.024	82.06
446.245	112.06
446.466	109.06
446.687	112.06
446.908	98.06
447.129	97.06
447.35	95.06
447.571	102.06
447.792	89.06
448.013	112.06
448.234	101.06
448.455	89.06
448.675	89.06
448.896	102.06
449.117	92.06
449.338	98.06
449.559	88.06
449.779	99.06
450	99.06
450.221	93.06
450.442	93.06
450.662	87.06
450.883	95.06
451.104	103.06
451.324	96.06
451.545	94.06
451.766	95.06
451.986	86.06
452.207	95.06
452.428	99.06
452.648	93.06
452.869	76.06
453.089	85.06
453.31	88.06
453.53	82.06
453.751	83.06
453.971	95.06
454.192	89.06
454.412	66.06
454.633	91.06
454.853	104.06
455.073	85.06
455.294	90.06
455.514	108.06
455.734	78.06
455.955	86.06
456.175	94.06
456.395	93.06
456.616	92.06
456.836	104.06
457.056	101.06
457.276	92.06
457.497	82.06
457.717	105.06
457.937	81.06
458.157	91.06
458.377	80.06
458.598	86.06
458.818	75.06
459.038	82.06
459.258	77.06
459.478	85.06
459.698	89.06
459.918	85.06
460.138	95.06
460.358	93.06
460.578	94.06
460.798	92.06
461.018	88.06
461.238	81.06
461.458	90.06
461.678	93.06
461.898	107.06
462.118	97.06
462.338	95.06
462.558	98.06
462.777	87.06
462.997	88.06
463.217	72.06
463.437	87.06
463.657	86.06
463.876	91.06
464.096	85.06
464.316	77.06
464.536	86.06
464.755	102.06
464.975	89.06
465.195	105.06
465.414	103.06
465.634	84.06
465.854	104.06
466.073	85.06
466.293	85.06
466.512	104.06
466.732	92.06
466.951	82.06
467.171	91.06
467.391	78.06
467.61	96.06
467.829	74.06
468.049	99.06
468.268	93.06
468.488	84.06
468.707	92.06
468.927	103.06
469.146	96.06
469.365	96.06
469.585	93.06
469.804	97.06
470.023	88.06
470.243	91.06
470.462	92.06
470.681	94.06
470.901	96.06
471.12	100.06
471.339	90.06
471.558	95.06
471.777	92.06
471.997	99.06
472.216	91.06
472.435	86.06
472.654	87.06
472.873	99.06
473.092	90.06
473.311	91.06
473.53	88.06
473.749	103.06
473.968	87.06
474.187	81.06
474.406	82.06
474.625	87.06
474.844	100.06
475.063	81.06
475.282	82.06
475.501	93.06
475.72	101.06
475.939	83.06
476.158	102.06
476.377	88.06
476.596	82.06
476.814	98.06
477.033	102.06
477.252	89.06
477.471	107.06
477.69	106.06
477.908	95.06
478.127	113.06
478.346	80.06
478.564	98.06
478.783	103.06
479.002	101.06
479.22	103.06
479.439	97.06
479.658	93.06
479.876	99.06
480.095	96.06
480.313	100.06
480.532	92.06
480.751	91.06
480.969	94.06
481.188	82.06
481.406	86.06
481.624	81.06
481.843	98.06
482.061	78.06
482.28	85.06
482.498	89.06
482.717	95.06
482.935	92.06
483.153	95.06
483.372	103.06
483.59	104.06
483.808	93.06
484.027	93.06
484.245	88.06
484.463	90.06
484.681	107.06
484.9	99.06
485.118	84.06
485.336	92.06
485.554	88.06
485.772	99.06
485.99	83.06
486.209	102.06
486.427	79.06
486.645	89.06
486.863	103.06
487.081	83.06
487.299	88.06
487.517	121.06
487.735	117.06
487.953	114.06
488.171	108.06
488.389	106.06
488.607	97.06
488.825	100.06
489.043	98.06
489.261	93.06
489.479	95.06
489.696	101.06
489.914	113.06
490.132	103.06
490.35	105.06
490.568	106.06
490.786	100.06
491.003	102.06
491.221	109.06
491.439	116.06
491.657	116.06
491.874	114.06
492.092	104.06
492.31	108.06
492.527	111.06
492.745	117.06
492.963	112.06
493.18	106.06
493.398	85.06
493.615	92.06
493.833	108.06
494.05	117.06
494.268	102.06
494.485	122.06
494.703	96.06
494.92	107.06
495.138	122.06
495.355	97.06
495.573	119.06
495.79	98.06
496.008	103.06
496.225	91.06
496.442	116.06
496.66	116.06
496.877	117.06
497.094	104.06
497.312	100.06
497.529	102.06
497.746	108.06
497.963	103.06
498.181	111.06
498.398	99.06
498.615	95.06
498.832	84.06
499.049	99.06
499.267	95.06
499.484	90.06
499.701	100.06
499.918	104.06
500.135	95.06
500.352	95.06
500.569	104.06
500.786	93.06
501.003	87.06
501.22	104.06
501.437	108.06
501.654	89.06
501.871	93.06
502.088	96.06
502.305	87.06
502.522	97.06
502.739	105.06
502.956	85.06
503.172	93.06
503.389	101.06
503.606	92.06
503.823	95.06
504.04	95.06
504.256	98.06
504.473	85.06
504.69	101.06
504.907	103.06
505.123	110.06
505.34	96.06
505.557	102.06
505.773	103.06
505.99	89.06
506.207	88.06
506.423	75.06
506.64	107.06
506.856	99.06
507.073	84.06
507.289	93.06
507.506	106.06
507.722	98.06
507.939	104.06
508.155	104.06
508.372	91.06
508.588	88.06
508.805	90.06
509.021	88.06
509.238	87.06
509.454	86.06
509.67	88.06
509.887	96.06
510.103	89.06
510.319	98.06
510.536	88.06
510.752	66.06
510.968	71.06
511.184	83.06
511.401	77.06
511.617	79.06
511.833	87.06
512.049	84.06
512.265	82.06
512.481	78.06
512.698	79.06
512.914	82.06
513.13	96.06
513.346	87.06
513.562	75.06
513.778	87.06
513.994	87.06
514.21	88.06
514.426	93.06
514.642	83.06
514.858	76.06
515.074	93.06
515.29	81.06
515.506	83.06
515.721	81.06
515.937	92.06
516.153	82.06
516.369	95.06
516.585	102.06
516.801	85.06
517.016	69.06
517.232	83.06
517.448	81.06
517.664	78.06
517.879	81.06
518.095	88.06
518.311	91.06
518.527	91.06
518.742	86.06
518.958	94.06
519.173	90.06
519.389	88.06
519.605	85.06
519.82	91.06
520.036	77.06
520.251	72.06
520.467	90.06
520.682	86.06
520.898	75.06
521.113	79.06
521.329	82.06
521.544	95.06
521.76	86.06
521.975	80.06
522.19	90.06
522.406	85.06
522.621	79.06
522.836	87.06
523.052	87.06
523.267	94.06
523.482	99.06
523.698	90.06
523.913	90.06
524.128	89.06
524.343	86.06
524.559	90.06
524.774	81.06
524.989	101.06
525.204	105.06
525.419	102.06
525.634	90.06
525.849	96.06
526.064	84.06
526.28	96.06
526.495	91.06
526.71	93.06
526.925	70.06
527.14	83.06
527.355	81.06
527.57	72.06
527.785	84.06
527.999	72.06
528.214	93.06
528.429	93.06
528.644	76.06
528.859	86.06
529.074	110.06
529.289	107.06
529.503	104.06
529.718	96.06
529.933	107.06
530.148	99.06
530.363	100.06
530.577	80.06
530.792	84.06
531.007	82.06
531.221	90.06
531.436	93.06
531.651	79.06
531.865	97.06
532.08	90.06
532.295	78.06
532.509	90.06
532.724	77.06
532.938	91.06
533.153	80.06
533.367	81.06
533.582	94.06
533.796	93.06
534.011	94.06
534.225	99.06
534.44	78.06
534.654	88.06
534.868	83.06
535.083	86.06
535.297	85.06
535.511	81.06
535.726	95.06
535.94	104.06
536.154	85.06
536.369	80.06
536.583	82.06
536.797	83.06
537.011	81.06
537.225	87.06
537.44	82.06
537.654	79.06
537.868	98.06
538.082	65.06
538.296	80.06
538.51	101.06
538.724	100.06
538.938	105.06
539.153	93.06
539.367	99.06
539.581	85.06
539.795	95.06
540.009	80.06
540.222	87.06
540.436	83.06
540.65	102.06
540.864	96.06
541.078	90.06
541.292	105.06
541.506	102.06
541.72	121.06
541.934	115.06
542.147	105.06
542.361	115.06
542.575	107.06
542.789	119.06
543.002	98.06
543.216	95.06
543.43	100.06
543.644	107.06
543.857	112.06
544.071	99.06
544.285	116.06
544.498	116.06
544.712	106.06
544.925	112.06
545.139	103.06
545.352	100.06
545.566	94.06
545.779	122.06
545.993	99.06
546.206	93.06
546.42	111.06
546.633	113.06
546.847	92.06
547.06	107.06
547.274	118.06
547.487	130.06
547.7	118.06
547.914	115.06
548.127	118.06
548.34	106.06
548.554	95.06
548.767	111.06
548.98	109.06
549.193	109.06
549.407	106.06
549.62	98.06
549.833	108.06
550.046	109.06
550.259	113.06
550.473	95.06
550.686	102.06
550.899	108.06
551.112	111.06
551.325	119.06
551.538	99.06
551.751	96.06
551.964	90.06
552.177	94.06
552.39	107.06
552.603	98.06
552.816	105.06
553.029	100.06
553.242	104.06
553.455	97.06
553.667	112.06
553.88	86.06
554.093	94.06
554.306	125.06
554.519	100.06
554.732	105.06
554.944	94.06
555.157	84.06
555.37	92.06
555.583	103.06
555.795	108.06
556.008	107.06
556.221	95.06
556.433	115.06
556.646	106.06
556.859	100.06
557.071	98.06
557.284	99.06
557.496	95.06
557.709	95.06
557.921	103.06
558.134	115.06
558.346	85.06
558.559	102.06
558.771	93.06
558.984	83.06
559.196	99.06
559.409	109.06
559.621	106.06
559.833	110.06
560.046	95.06
560.258	81.06
560.47	91.06
560.683	95.06
560.895	103.06
561.107	96.06
561.32	95.06
561.532	94.06
561.744	101.06
561.956	101.06
562.168	92.06
562.381	96.06
562.593	88.06
562.805	98.06
563.017	104.06
563.229	95.06
563.441	96.06
563.653	99.06
563.865	93.06
564.077	94.06
564.289	99.06
564.501	105.06
564.713	104.06
564.925	87.06
565.137	96.06
565.349	104.06
565.561	95.06
565.773	95.06
565.985	89.06
566.197	99.06
566.408	98.06
566.62	95.06
566.832	94.06
567.044	96.06
567.255	100.06
567.467	83.06
567.679	113.06
567.891	86.06
568.102	103.06
568.314	97.06
568.526	100.06
568.737	93.06
568.949	102.06
569.161	78.06
569.372	93.06
569.584	82.06
569.795	91.06
570.007	84.06
570.218	89.06
570.43	83.06
570.641	87.06
570.853	95.06
571.064	93.06
571.276	86.06
571.487	85.06
571.698	91.06
571.91	86.06
572.121	92.06
572.333	74.06
572.544	81.06
572.755	87.06
572.966	97.06
573.178	86.06
573.389	93.06
573.6	94.06
573.811	85.06
574.023	82.06
574.234	96.06
574.445	86.06
574.656	90.06
574.867	95.06
575.078	108.06
575.289	104.06
575.501	89.06
575.712	92.06
575.923	82.06
576.134	86.06
576.345	77.06
576.556	103.06
576.767	94.06
576.978	87.06
577.188	96.06
577.399	85.06
577.61	95.06
577.821	67.06
578.032	71.06
578.243	91.06
578.454	75.06
578.665	81.06
578.875	100.06
579.086	78.06
579.297	101.06
579.508	97.06
579.718	67.06
579.929	93.06
580.14	84.06
580.35	91.06
580.561	88.06
580.772	69.06
580.982	92.06
581.193	88.06
581.403	89.06
581.614	87.06
581.825	87.06
582.035	81.06
582.246	92.06
582.456	84.06
582.667	95.06
582.877	76.06
583.087	86.06
583.298	87.06
583.508	85.06
583.719	74.06
583.929	91.06
584.139	88.06
584.35	80.06
584.56	88.06
584.77	98.06
584.981	80.06
585.191	83.06
585.401	87.06
585.611	98.06
585.821	88.06
586.032	92.06
586.242	73.06
586.452	93.06
586.662	83.06
586.872	73.06
587.082	83.06
587.292	88.06
587.502	90.06
587.713	83.06
587.923	89.06
588.133	69.06
588.343	74.06
588.553	83.06
588.762	83.06
588.972	93.06
589.182	94.06
589.392	83.06
589.602	85.06
589.812	80.06
590.022	83.06
590.232	89.06
590.441	77.06
590.651	77.06
590.861	74.06
591.071	82.06
591.281	94.06
591.49	85.06
591.7	86.06
591.91	97.06
592.119	89.06
592.329	80.06
592.539	84.06
592.748	89.06
592.958	88.06
593.167	77.06
593.377	78.06
593.587	86.06
593.796	82.06
594.006	82.06
594.215	76.06
594.424	76.06
594.634	66.06
594.843	94.06
595.053	90.06
595.262	83.06
595.472	87.06
595.681	86.06
595.89	83.06
596.1	83.06
596.309	98.06
596.518	74.06
596.727	89.06
596.937	72.06
597.146	94.06
597.355	91.06
597.564	82.06
597.774	92.06
597.983	80.06
598.192	80.06
598.401	82.06
598.61	76.06
598.819	85.06
599.028	76.06
599.237	89.06
599.446	80.06
599.655	81.06
599.864	93.06
600.073	84.06
600.282	89.06
600.491	104.06
600.7	95.06
600.909	87.06
601.118	84.06
601.327	75.06
601.536	86.06
601.745	80.06
601.953	96.06
602.162	88.06
602.371	85.06
602.58	80.06
602.789	81.06
602.997	75.06
603.206	92.06
603.415	87.06
603.623	78.06
603.832	89.06
604.041	95.06
604.249	95.06
604.458	90.06
604.666	91.06
604.875	80.06
605.084	99.06
605.292	86.06
605.501	92.06
605.709	95.06
605.918	80.06
606.126	95.06
606.334	101.06
606.543	95.06
606.751	97.06
606.96	97.06
607.168	77.06
607.376	80.06
607.585	90.06
607.793	100.06
608.001	88.06
608.21	85.06
608.418	85.06
608.626	83.06
608.834	87.06
609.043	92.06
609.251	88.06
609.459	77.06
609.667	93.06
609.875	97.06
610.083	100.06
610.291	79.06
610.499	95.06
610.707	103.06
610.916	75.06
611.124	96.06
611.332	101.06
611.54	93.06
611.748	94.06
611.955	85.06
612.163	94.06
612.371	95.06
612.579	88.06
612.787	88.06
612.995	88.06
613.203	96.06
613.411	92.06
613.618	94.06
613.826	95.06
614.034	103.06
614.242	95.06
614.449	94.06
614.657	73.06
614.865	83.06
615.072	90.06
615.28	106.06
615.488	95.06
615.695	84.06
615.903	100.06
616.111	88.06
616.318	95.06
616.526	88.06
616.733	84.06
616.941	95.06
617.148	102.06
617.356	77.06
617.563	93.06
617.771	81.06
617.978	92.06
618.185	79.06
618.393	91.06
618.6	86.06
618.807	92.06
619.015	87.06
619.222	85.06
619.429	91.06
619.637	82.06
619.844	88.06
620.051	88.06
620.258	99.06
620.466	92.06
620.673	94.06
620.88	102.06
621.087	84.06
621.294	94.06
621.501	94.06
621.708	92.06
621.915	85.06
622.122	92.06
622.329	90.06
622.536	96.06
622.743	84.06
622.95	90.06
623.157	93.06
623.364	92.06
623.571	91.06
623.778	91.06
623.985	90.06
624.192	96.06
624.399	100.06
624.606	72.06
624.812	76.06
625.019	108.06
625.226	94.06
625.433	83.06
625.639	88.06
625.846	106.06
626.053	93.06
626.259	85.06
626.466	90.06
626.673	80.06
626.879	82.06
627.086	83.06
627.293	86.06
627.499	74.06
627.706	100.06
627.912	79.06
628.119	91.06
628.325	76.06
628.532	83.06
628.738	77.06
628.945	97.06
629.151	80.06
629.357	95.06
629.564	77.06
629.77	92.06
629.976	88.06
630.183	94.06
630.389	91.06
630.595	84.06
630.802	96.06
631.008	83.06
631.214	83.06
631.42	83.06
631.627	88.06
631.833	84.06
632.039	89.06
632.245	77.06
632.451	89.06
632.657	80.06
632.863	83.06
633.069	81.06
633.275	82.06
633.481	78.06
633.688	96.06
633.893	86.06
634.099	95.06
634.305	86.06
634.511	85.06
634.717	82.06
634.923	89.06
635.129	85.06
635.335	82.06
635.541	89.06
635.747	92.06
635.952	87.06
636.158	94.06
636.364	87.06
636.57	90.06
636.775	94.06
636.981	78.06
637.187	89.06
637.392	85.06
637.598	95.06
637.804	90.06
638.009	86.06
638.215	96.06
638.421	91.06
638.626	86.06
638.832	83.06
639.037	91.06
639.243	86.06
639.448	77.06
639.654	94.06
639.859	89.06
640.065	80.06
640.27	103.06
640.475	69.06
640.681	101.06
640.886	83.06
641.091	85.06
641.297	84.06
641.502	79.06
641.707	93.06
641.913	88.06
642.118	77.06
642.323	87.06
642.528	86.06
642.733	94.06
642.939	93.06
643.144	94.06
643.349	84.06
643.554	71.06
643.759	86.06
643.964	87.06
644.169	81.06
644.374	103.06
644.579	91.06
644.784	90.06
644.989	83.06
645.194	81.06
645.399	81.06
645.604	92.06
645.809	82.06
646.014	77.06
646.219	88.06
646.423	86.06
646.628	78.06
646.833	83.06
647.038	85.06
647.243	103.06
647.447	74.06
647.652	81.06
647.857	85.06
648.062	98.06
648.266	100.06
648.471	79.06
648.676	90.06
648.88	73.06
649.085	77.06
649.289	90.06
649.494	91.06
649.698	81.06
649.903	89.06
650.107	83.06
650.312	90.06
650.516	86.06
650.721	87.06
650.925	87.06
651.13	96.06
651.334	76.06
651.539	66.06
651.743	89.06
651.947	84.06
652.152	87.06
652.356	89.06
652.56	83.06
652.764	76.06
652.969	90.06
653.173	85.06
653.377	83.06
653.581	90.06
653.785	90.06
653.99	79.06
654.194	89.06
654.398	84.06
654.602	68.06
654.806	90.06
655.01	81.06
655.214	77.06
655.418	102.06
655.622	72.06
655.826	82.06
656.03	79.06
656.234	85.06
656.438	77.06
656.642	82.06
656.846	86.06
657.049	80.06
657.253	96.06
657.457	89.06
657.661	78.06
657.865	79.06
658.068	83.06
658.272	85.06
658.476	96.06
658.68	87.06
658.883	65.06
659.087	79.06
659.291	78.06
659.494	81.06
659.698	85.06
659.901	77.06
660.105	86.06
660.309	80.06
660.512	84.06
660.716	83.06
660.919	69.06
661.123	95.06
661.326	78.06
661.53	76.06
661.733	70.06
661.936	74.06
662.14	63.06
662.343	86.06
662.546	69.06
662.75	83.06
662.953	70.06
663.156	87.06
663.36	84.06
663.563	93.06
663.766	75.06
663.969	77.06
664.173	70.06
664.376	79.06
664.579	99.06
664.782	90.06
664.985	98.06
665.188	85.06
665.391	78.06
665.594	75.06
665.797	84.06
666	79.06
666.203	73.06
666.406	84.06
666.609	77.06
666.812	80.06
667.015	93.06
667.218	74.06
667.421	81.06
667.624	91.06
667.827	89.06
668.03	82.06
668.232	76.06
668.435	92.06
668.638	86.06
668.841	79.06
669.043	92.06
669.246	85.06
669.449	81.06
669.651	88.06
669.854	94.06
670.057	73.06
670.259	66.06
670.462	73.06
670.665	91.06
670.867	75.06
671.07	71.06
671.272	87.06
671.475	79.06
671.677	74.06
671.88	83.06
672.082	79.06
672.284	78.06
672.487	85.06
672.689	80.06
672.892	87.06
