Data from Location5.07152019.Energy5.Lamp.07192019.3%Agarose_HRD10591_16-04-10-629.txt Node
Date: Fri Jul 19 16:04:10 EDT 2019
User: cochatt
Spectrometer: HR+D1059
Trigger mode: 1
Integration Time (sec): 1.000000E-1
Scans to average: 1
Electric dark correction enabled: true
Nonlinearity correction enabled: false
Boxcar width: 0
XAxis mode: Wavelengths
Number of Pixels in Spectrum: 2048
>>>>>Begin Spectral Data<<<<<
223.165	-2.31
223.4	-2.31
223.635	-2.31
223.869	-7.31
224.104	-25.31
224.338	-24.31
224.573	-5.31
224.808	-20.31
225.042	-8.31
225.277	-11.31
225.511	7.69
225.746	2.69
225.98	8.69
226.215	15.69
226.449	5.69
226.683	14.69
226.918	17.69
227.152	31.69
227.387	33.69
227.621	53.69
227.856	53.69
228.09	52.69
228.324	66.69
228.559	62.69
228.793	60.69
229.027	60.69
229.262	72.69
229.496	74.69
229.73	66.69
229.964	82.69
230.199	84.69
230.433	84.69
230.667	71.69
230.901	72.69
231.136	78.69
231.37	88.69
231.604	94.69
231.838	90.69
232.072	87.69
232.306	82.69
232.541	96.69
232.775	91.69
233.009	90.69
233.243	85.69
233.477	80.69
233.711	82.69
233.945	83.69
234.179	87.69
234.413	82.69
234.647	101.69
234.881	95.69
235.115	76.69
235.349	71.69
235.583	93.69
235.817	84.69
236.051	77.69
236.285	95.69
236.519	77.69
236.753	86.69
236.987	83.69
237.221	78.69
237.455	69.69
237.689	89.69
237.922	79.69
238.156	75.69
238.39	86.69
238.624	73.69
238.858	82.69
239.091	81.69
239.325	81.69
239.559	88.69
239.793	70.69
240.027	80.69
240.26	78.69
240.494	60.69
240.728	74.69
240.961	86.69
241.195	85.69
241.429	82.69
241.662	70.69
241.896	88.69
242.13	84.69
242.363	82.69
242.597	84.69
242.83	80.69
243.064	75.69
243.298	88.69
243.531	83.69
243.765	70.69
243.998	87.69
244.232	89.69
244.465	87.69
244.699	96.69
244.932	88.69
245.166	78.69
245.399	84.69
245.633	93.69
245.866	79.69
246.099	97.69
246.333	89.69
246.566	73.69
246.8	87.69
247.033	79.69
247.266	80.69
247.5	102.69
247.733	99.69
247.966	85.69
248.2	79.69
248.433	84.69
248.666	90.69
248.899	85.69
249.133	87.69
249.366	80.69
249.599	81.69
249.832	98.69
250.066	76.69
250.299	91.69
250.532	94.69
250.765	86.69
250.998	77.69
251.231	79.69
251.465	78.69
251.698	80.69
251.931	86.69
252.164	87.69
252.397	80.69
252.63	84.69
252.863	84.69
253.096	95.69
253.329	84.69
253.562	81.69
253.795	88.69
254.028	90.69
254.261	83.69
254.494	88.69
254.727	84.69
254.96	83.69
255.193	93.69
255.426	101.69
255.659	77.69
255.892	109.69
256.124	81.69
256.357	109.69
256.59	78.69
256.823	84.69
257.056	92.69
257.289	91.69
257.521	92.69
257.754	85.69
257.987	79.69
258.22	100.69
258.452	78.69
258.685	90.69
258.918	88.69
259.151	82.69
259.383	95.69
259.616	78.69
259.849	88.69
260.081	76.69
260.314	89.69
260.547	80.69
260.779	85.69
261.012	78.69
261.244	79.69
261.477	92.69
261.71	75.69
261.942	88.69
262.175	91.69
262.407	85.69
262.64	92.69
262.872	88.69
263.105	104.69
263.337	75.69
263.57	111.69
263.802	88.69
264.035	91.69
264.267	89.69
264.499	78.69
264.732	86.69
264.964	80.69
265.197	104.69
265.429	104.69
265.661	108.69
265.894	72.69
266.126	91.69
266.358	89.69
266.591	93.69
266.823	93.69
267.055	96.69
267.287	98.69
267.52	84.69
267.752	79.69
267.984	90.69
268.216	85.69
268.448	85.69
268.681	87.69
268.913	87.69
269.145	84.69
269.377	91.69
269.609	96.69
269.841	85.69
270.073	102.69
270.306	80.69
270.538	80.69
270.77	85.69
271.002	90.69
271.234	88.69
271.466	82.69
271.698	78.69
271.93	83.69
272.162	101.69
272.394	93.69
272.626	96.69
272.858	83.69
273.09	81.69
273.322	87.69
273.553	87.69
273.785	77.69
274.017	90.69
274.249	103.69
274.481	83.69
274.713	106.69
274.945	72.69
275.176	78.69
275.408	98.69
275.64	99.69
275.872	77.69
276.104	93.69
276.335	105.69
276.567	95.69
276.799	94.69
277.031	84.69
277.262	100.69
277.494	109.69
277.726	84.69
277.957	91.69
278.189	84.69
278.421	88.69
278.652	89.69
278.884	85.69
279.115	95.69
279.347	100.69
279.579	103.69
279.81	80.69
280.042	96.69
280.273	92.69
280.505	85.69
280.736	99.69
280.968	75.69
281.199	100.69
281.431	89.69
281.662	86.69
281.894	73.69
282.125	85.69
282.356	93.69
282.588	100.69
282.819	91.69
283.051	90.69
283.282	85.69
283.513	83.69
283.745	91.69
283.976	97.69
284.207	84.69
284.439	94.69
284.67	91.69
284.901	81.69
285.132	90.69
285.364	99.69
285.595	100.69
285.826	95.69
286.057	76.69
286.288	90.69
286.52	100.69
286.751	100.69
286.982	94.69
287.213	90.69
287.444	93.69
287.675	96.69
287.906	112.69
288.138	77.69
288.369	88.69
288.6	79.69
288.831	88.69
289.062	102.69
289.293	96.69
289.524	95.69
289.755	98.69
289.986	88.69
290.217	102.69
290.448	92.69
290.679	85.69
290.91	91.69
291.141	91.69
291.371	99.69
291.602	92.69
291.833	93.69
292.064	101.69
292.295	86.69
292.526	103.69
292.757	93.69
292.987	97.69
293.218	88.69
293.449	90.69
293.68	84.69
293.91	85.69
294.141	107.69
294.372	90.69
294.603	87.69
294.833	83.69
295.064	99.69
295.295	95.69
295.525	84.69
295.756	76.69
295.987	92.69
296.217	88.69
296.448	91.69
296.679	100.69
296.909	90.69
297.14	96.69
297.37	103.69
297.601	104.69
297.831	99.69
298.062	98.69
298.292	104.69
298.523	115.69
298.753	98.69
298.984	96.69
299.214	90.69
299.445	94.69
299.675	96.69
299.905	95.69
300.136	90.69
300.366	70.69
300.597	77.69
300.827	97.69
301.057	93.69
301.288	81.69
301.518	86.69
301.748	98.69
301.979	89.69
302.209	93.69
302.439	90.69
302.669	90.69
302.9	117.69
303.13	90.69
303.36	84.69
303.59	96.69
303.82	93.69
304.051	99.69
304.281	90.69
304.511	86.69
304.741	93.69
304.971	92.69
305.201	96.69
305.431	85.69
305.661	86.69
305.891	89.69
306.121	101.69
306.352	97.69
306.582	92.69
306.812	86.69
307.042	102.69
307.272	84.69
307.502	92.69
307.731	96.69
307.961	97.69
308.191	94.69
308.421	82.69
308.651	92.69
308.881	92.69
309.111	76.69
309.341	86.69
309.571	99.69
309.8	85.69
310.03	100.69
310.26	92.69
310.49	91.69
310.72	96.69
310.949	93.69
311.179	100.69
311.409	90.69
311.639	80.69
311.868	97.69
312.098	96.69
312.328	90.69
312.557	108.69
312.787	99.69
313.017	82.69
313.246	116.69
313.476	106.69
313.706	91.69
313.935	93.69
314.165	84.69
314.394	91.69
314.624	107.69
314.853	95.69
315.083	98.69
315.312	104.69
315.542	97.69
315.771	96.69
316.001	84.69
316.23	87.69
316.46	110.69
316.689	97.69
316.919	86.69
317.148	111.69
317.377	104.69
317.607	106.69
317.836	86.69
318.065	78.69
318.295	91.69
318.524	90.69
318.753	100.69
318.983	105.69
319.212	101.69
319.441	81.69
319.67	88.69
319.9	100.69
320.129	95.69
320.358	91.69
320.587	91.69
320.816	97.69
321.046	86.69
321.275	100.69
321.504	96.69
321.733	102.69
321.962	94.69
322.191	106.69
322.42	88.69
322.649	91.69
322.878	88.69
323.108	104.69
323.337	95.69
323.566	92.69
323.795	82.69
324.024	94.69
324.253	77.69
324.482	99.69
324.71	97.69
324.939	98.69
325.168	98.69
325.397	91.69
325.626	82.69
325.855	92.69
326.084	100.69
326.313	90.69
326.542	95.69
326.77	94.69
326.999	86.69
327.228	83.69
327.457	102.69
327.686	105.69
327.914	106.69
328.143	97.69
328.372	103.69
328.6	84.69
328.829	95.69
329.058	89.69
329.287	91.69
329.515	85.69
329.744	98.69
329.972	91.69
330.201	87.69
330.43	101.69
330.658	91.69
330.887	99.69
331.115	100.69
331.344	90.69
331.572	95.69
331.801	95.69
332.03	99.69
332.258	116.69
332.486	93.69
332.715	91.69
332.943	115.69
333.172	111.69
333.4	88.69
333.629	103.69
333.857	105.69
334.085	99.69
334.314	100.69
334.542	95.69
334.771	79.69
334.999	110.69
335.227	90.69
335.455	111.69
335.684	110.69
335.912	99.69
336.14	104.69
336.369	102.69
336.597	87.69
336.825	93.69
337.053	93.69
337.281	93.69
337.51	93.69
337.738	94.69
337.966	90.69
338.194	84.69
338.422	94.69
338.65	99.69
338.878	92.69
339.106	88.69
339.334	107.69
339.562	88.69
339.79	103.69
340.018	88.69
340.246	88.69
340.474	101.69
340.702	103.69
340.93	89.69
341.158	90.69
341.386	87.69
341.614	91.69
341.842	87.69
342.07	89.69
342.298	101.69
342.526	72.69
342.754	80.69
342.981	106.69
343.209	88.69
343.437	114.69
343.665	102.69
343.893	92.69
344.12	85.69
344.348	107.69
344.576	117.69
344.804	107.69
345.031	93.69
345.259	96.69
345.487	107.69
345.714	102.69
345.942	91.69
346.17	85.69
346.397	100.69
346.625	90.69
346.853	91.69
347.08	90.69
347.308	97.69
347.535	85.69
347.763	75.69
347.99	106.69
348.218	98.69
348.445	100.69
348.673	103.69
348.9	92.69
349.128	101.69
349.355	98.69
349.583	99.69
349.81	105.69
350.037	82.69
350.265	96.69
350.492	100.69
350.72	95.69
350.947	94.69
351.174	93.69
351.402	108.69
351.629	96.69
351.856	90.69
352.083	80.69
352.311	104.69
352.538	94.69
352.765	100.69
352.992	94.69
353.22	102.69
353.447	97.69
353.674	90.69
353.901	94.69
354.128	93.69
354.355	96.69
354.583	104.69
354.81	86.69
355.037	100.69
355.264	109.69
355.491	90.69
355.718	81.69
355.945	98.69
356.172	93.69
356.399	87.69
356.626	107.69
356.853	84.69
357.08	86.69
357.307	94.69
357.534	90.69
357.761	89.69
357.988	106.69
358.215	86.69
358.441	103.69
358.668	99.69
358.895	99.69
359.122	98.69
359.349	85.69
359.576	96.69
359.802	96.69
360.029	93.69
360.256	100.69
360.483	103.69
360.709	96.69
360.936	95.69
361.163	77.69
361.39	89.69
361.616	89.69
361.843	106.69
362.07	92.69
362.296	89.69
362.523	92.69
362.749	94.69
362.976	103.69
363.203	102.69
363.429	89.69
363.656	81.69
363.882	91.69
364.109	96.69
364.335	93.69
364.562	88.69
364.788	94.69
365.015	95.69
365.241	98.69
365.468	99.69
365.694	94.69
365.92	90.69
366.147	103.69
366.373	94.69
366.599	100.69
366.826	87.69
367.052	93.69
367.278	97.69
367.505	96.69
367.731	87.69
367.957	97.69
368.184	106.69
368.41	85.69
368.636	87.69
368.862	99.69
369.089	99.69
369.315	94.69
369.541	84.69
369.767	75.69
369.993	84.69
370.219	101.69
370.445	93.69
370.672	97.69
370.898	103.69
371.124	95.69
371.35	96.69
371.576	100.69
371.802	102.69
372.028	88.69
372.254	90.69
372.48	94.69
372.706	79.69
372.932	100.69
373.158	94.69
373.384	92.69
373.61	99.69
373.835	95.69
374.061	99.69
374.287	100.69
374.513	95.69
374.739	100.69
374.965	102.69
375.191	103.69
375.416	97.69
375.642	103.69
375.868	111.69
376.094	97.69
376.319	93.69
376.545	103.69
376.771	88.69
376.997	98.69
377.222	105.69
377.448	93.69
377.674	98.69
377.899	96.69
378.125	100.69
378.35	102.69
378.576	114.69
378.802	103.69
379.027	104.69
379.253	96.69
379.478	90.69
379.704	96.69
379.929	98.69
380.155	110.69
380.38	92.69
380.606	97.69
380.831	101.69
381.057	92.69
381.282	87.69
381.507	91.69
381.733	94.69
381.958	93.69
382.184	109.69
382.409	110.69
382.634	103.69
382.86	98.69
383.085	100.69
383.31	114.69
383.535	101.69
383.761	83.69
383.986	94.69
384.211	94.69
384.436	98.69
384.662	104.69
384.887	99.69
385.112	102.69
385.337	90.69
385.562	96.69
385.787	92.69
386.013	96.69
386.238	103.69
386.463	98.69
386.688	87.69
386.913	99.69
387.138	100.69
387.363	98.69
387.588	86.69
387.813	106.69
388.038	86.69
388.263	97.69
388.488	110.69
388.713	93.69
388.938	92.69
389.163	83.69
389.387	85.69
389.612	96.69
389.837	103.69
390.062	99.69
390.287	110.69
390.512	98.69
390.736	108.69
390.961	90.69
391.186	112.69
391.411	109.69
391.636	100.69
391.86	89.69
392.085	108.69
392.31	87.69
392.534	95.69
392.759	94.69
392.984	102.69
393.208	105.69
393.433	89.69
393.658	91.69
393.882	95.69
394.107	92.69
394.331	99.69
394.556	101.69
394.78	84.69
395.005	99.69
395.229	99.69
395.454	85.69
395.678	91.69
395.903	90.69
396.127	112.69
396.352	89.69
396.576	93.69
396.801	101.69
397.025	80.69
397.249	114.69
397.474	91.69
397.698	94.69
397.922	102.69
398.147	101.69
398.371	96.69
398.595	95.69
398.82	90.69
399.044	111.69
399.268	96.69
399.492	114.69
399.717	114.69
399.941	106.69
400.165	105.69
400.389	103.69
400.613	114.69
400.837	88.69
401.062	95.69
401.286	100.69
401.51	111.69
401.734	110.69
401.958	106.69
402.182	89.69
402.406	95.69
402.63	106.69
402.854	108.69
403.078	106.69
403.302	98.69
403.526	102.69
403.75	110.69
403.974	105.69
404.198	98.69
404.422	100.69
404.645	99.69
404.869	105.69
405.093	105.69
405.317	107.69
405.541	89.69
405.765	112.69
405.988	100.69
406.212	116.69
406.436	99.69
406.66	105.69
406.883	108.69
407.107	113.69
407.331	94.69
407.555	107.69
407.778	108.69
408.002	101.69
408.226	114.69
408.449	103.69
408.673	116.69
408.896	125.69
409.12	108.69
409.344	109.69
409.567	95.69
409.791	103.69
410.014	103.69
410.238	101.69
410.461	95.69
410.685	105.69
410.908	102.69
411.132	94.69
411.355	95.69
411.578	101.69
411.802	108.69
412.025	93.69
412.249	97.69
412.472	85.69
412.695	97.69
412.919	92.69
413.142	99.69
413.365	107.69
413.589	96.69
413.812	92.69
414.035	97.69
414.258	87.69
414.482	96.69
414.705	105.69
414.928	100.69
415.151	102.69
415.374	92.69
415.597	96.69
415.821	107.69
416.044	109.69
416.267	105.69
416.49	87.69
416.713	105.69
416.936	88.69
417.159	94.69
417.382	106.69
417.605	117.69
417.828	104.69
418.051	116.69
418.274	100.69
418.497	93.69
418.72	99.69
418.943	95.69
419.166	120.69
419.389	110.69
419.611	106.69
419.834	101.69
420.057	114.69
420.28	89.69
420.503	101.69
420.726	82.69
420.948	91.69
421.171	86.69
421.394	94.69
421.617	119.69
421.839	100.69
422.062	88.69
422.285	100.69
422.507	95.69
422.73	95.69
422.953	114.69
423.175	96.69
423.398	106.69
423.621	97.69
423.843	99.69
424.066	110.69
424.288	106.69
424.511	96.69
424.733	104.69
424.956	116.69
425.178	95.69
425.401	106.69
425.623	92.69
425.846	95.69
426.068	101.69
426.291	98.69
426.513	99.69
426.735	102.69
426.958	102.69
427.18	109.69
427.402	95.69
427.625	115.69
427.847	90.69
428.069	111.69
428.292	93.69
428.514	94.69
428.736	105.69
428.958	76.69
429.181	81.69
429.403	93.69
429.625	107.69
429.847	100.69
430.069	95.69
430.292	80.69
430.514	95.69
430.736	102.69
430.958	100.69
431.18	116.69
431.402	101.69
431.624	88.69
431.846	99.69
432.068	93.69
432.29	76.69
432.512	83.69
432.734	86.69
432.956	92.69
433.178	91.69
433.4	96.69
433.622	102.69
433.844	107.69
434.066	89.69
434.287	98.69
434.509	91.69
434.731	108.69
434.953	116.69
435.175	98.69
435.397	102.69
435.618	92.69
435.84	90.69
436.062	92.69
436.284	103.69
436.505	95.69
436.727	97.69
436.949	106.69
437.17	97.69
437.392	88.69
437.614	94.69
437.835	99.69
438.057	79.69
438.278	102.69
438.5	87.69
438.721	100.69
438.943	100.69
439.165	86.69
439.386	106.69
439.608	96.69
439.829	92.69
440.05	99.69
440.272	97.69
440.493	105.69
440.715	93.69
440.936	95.69
441.158	104.69
441.379	105.69
441.6	110.69
441.822	95.69
442.043	106.69
442.264	105.69
442.486	112.69
442.707	92.69
442.928	88.69
443.149	99.69
443.371	93.69
443.592	94.69
443.813	95.69
444.034	96.69
444.255	106.69
444.476	100.69
444.698	105.69
444.919	95.69
445.14	208.69
445.361	141.69
445.582	106.69
445.803	98.69
446.024	82.69
446.245	87.69
446.466	94.69
446.687	88.69
446.908	100.69
447.129	90.69
447.35	89.69
447.571	86.69
447.792	83.69
448.013	95.69
448.234	94.69
448.455	97.69
448.675	89.69
448.896	108.69
449.117	102.69
449.338	115.69
449.559	102.69
449.779	92.69
450	99.69
450.221	97.69
450.442	86.69
450.662	86.69
450.883	90.69
451.104	95.69
451.324	102.69
451.545	77.69
451.766	107.69
451.986	106.69
452.207	73.69
452.428	93.69
452.648	96.69
452.869	95.69
453.089	87.69
453.31	99.69
453.53	106.69
453.751	96.69
453.971	92.69
454.192	93.69
454.412	84.69
454.633	114.69
454.853	96.69
455.073	105.69
455.294	92.69
455.514	101.69
455.734	103.69
455.955	111.69
456.175	100.69
456.395	91.69
456.616	100.69
456.836	104.69
457.056	84.69
457.276	102.69
457.497	85.69
457.717	98.69
457.937	102.69
458.157	90.69
458.377	86.69
458.598	102.69
458.818	95.69
459.038	103.69
459.258	100.69
459.478	89.69
459.698	95.69
459.918	96.69
460.138	106.69
460.358	93.69
460.578	97.69
460.798	90.69
461.018	83.69
461.238	103.69
461.458	107.69
461.678	112.69
461.898	119.69
462.118	100.69
462.338	101.69
462.558	106.69
462.777	94.69
462.997	102.69
463.217	94.69
463.437	78.69
463.657	87.69
463.876	125.69
464.096	100.69
464.316	102.69
464.536	90.69
464.755	102.69
464.975	103.69
465.195	106.69
465.414	94.69
465.634	92.69
465.854	90.69
466.073	94.69
466.293	114.69
466.512	94.69
466.732	93.69
466.951	98.69
467.171	91.69
467.391	85.69
467.61	84.69
467.829	82.69
468.049	88.69
468.268	92.69
468.488	101.69
468.707	90.69
468.927	98.69
469.146	100.69
469.365	108.69
469.585	93.69
469.804	94.69
470.023	95.69
470.243	118.69
470.462	104.69
470.681	103.69
470.901	89.69
471.12	102.69
471.339	102.69
471.558	95.69
471.777	106.69
471.997	103.69
472.216	118.69
472.435	107.69
472.654	86.69
472.873	105.69
473.092	94.69
473.311	104.69
473.53	103.69
473.749	99.69
473.968	105.69
474.187	91.69
474.406	106.69
474.625	100.69
474.844	93.69
475.063	104.69
475.282	100.69
475.501	100.69
475.72	93.69
475.939	86.69
476.158	92.69
476.377	93.69
476.596	87.69
476.814	101.69
477.033	97.69
477.252	92.69
477.471	103.69
477.69	119.69
477.908	99.69
478.127	102.69
478.346	119.69
478.564	103.69
478.783	98.69
479.002	89.69
479.22	97.69
479.439	90.69
479.658	108.69
479.876	110.69
480.095	117.69
480.313	98.69
480.532	102.69
480.751	127.69
480.969	101.69
481.188	98.69
481.406	107.69
481.624	107.69
481.843	102.69
482.061	101.69
482.28	98.69
482.498	104.69
482.717	99.69
482.935	103.69
483.153	110.69
483.372	104.69
483.59	109.69
483.808	115.69
484.027	105.69
484.245	112.69
484.463	98.69
484.681	103.69
484.9	97.69
485.118	100.69
485.336	108.69
485.554	101.69
485.772	107.69
485.99	99.69
486.209	103.69
486.427	107.69
486.645	117.69
486.863	121.69
487.081	103.69
487.299	116.69
487.517	114.69
487.735	100.69
487.953	125.69
488.171	114.69
488.389	120.69
488.607	111.69
488.825	119.69
489.043	105.69
489.261	116.69
489.479	118.69
489.696	101.69
489.914	116.69
490.132	122.69
490.35	106.69
490.568	110.69
490.786	114.69
491.003	92.69
491.221	115.69
491.439	110.69
491.657	123.69
491.874	100.69
492.092	118.69
492.31	123.69
492.527	122.69
492.745	119.69
492.963	112.69
493.18	124.69
493.398	118.69
493.615	110.69
493.833	116.69
494.05	116.69
494.268	108.69
494.485	124.69
494.703	122.69
494.92	107.69
495.138	99.69
495.355	126.69
495.573	126.69
495.79	122.69
496.008	117.69
496.225	122.69
496.442	121.69
496.66	128.69
496.877	123.69
497.094	120.69
497.312	97.69
497.529	101.69
497.746	111.69
497.963	100.69
498.181	114.69
498.398	126.69
498.615	107.69
498.832	108.69
499.049	109.69
499.267	128.69
499.484	130.69
499.701	120.69
499.918	130.69
500.135	140.69
500.352	176.69
500.569	151.69
500.786	160.69
501.003	161.69
501.22	152.69
501.437	132.69
501.654	128.69
501.871	137.69
502.088	119.69
502.305	118.69
502.522	112.69
502.739	122.69
502.956	106.69
503.172	115.69
503.389	118.69
503.606	115.69
503.823	118.69
504.04	116.69
504.256	118.69
504.473	111.69
504.69	132.69
504.907	118.69
505.123	123.69
505.34	118.69
505.557	122.69
505.773	119.69
505.99	110.69
506.207	97.69
506.423	107.69
506.64	121.69
506.856	107.69
507.073	108.69
507.289	102.69
507.506	108.69
507.722	104.69
507.939	107.69
508.155	113.69
508.372	89.69
508.588	104.69
508.805	94.69
509.021	118.69
509.238	106.69
509.454	109.69
509.67	104.69
509.887	95.69
510.103	101.69
510.319	110.69
510.536	83.69
510.752	102.69
510.968	103.69
511.184	118.69
511.401	104.69
511.617	104.69
511.833	119.69
512.049	95.69
512.265	92.69
512.481	111.69
512.698	83.69
512.914	107.69
513.13	111.69
513.346	107.69
513.562	105.69
513.778	89.69
513.994	107.69
514.21	101.69
514.426	106.69
514.642	100.69
514.858	98.69
515.074	118.69
515.29	110.69
515.506	110.69
515.721	104.69
515.937	115.69
516.153	92.69
516.369	110.69
516.585	116.69
516.801	115.69
517.016	107.69
517.232	112.69
517.448	115.69
517.664	121.69
517.879	111.69
518.095	111.69
518.311	102.69
518.527	102.69
518.742	112.69
518.958	114.69
519.173	95.69
519.389	103.69
519.605	104.69
519.82	105.69
520.036	114.69
520.251	106.69
520.467	109.69
520.682	103.69
520.898	109.69
521.113	94.69
521.329	99.69
521.544	102.69
521.76	115.69
521.975	120.69
522.19	105.69
522.406	92.69
522.621	119.69
522.836	103.69
523.052	101.69
523.267	102.69
523.482	106.69
523.698	106.69
523.913	105.69
524.128	101.69
524.343	96.69
524.559	84.69
524.774	107.69
524.989	95.69
525.204	127.69
525.419	119.69
525.634	99.69
525.849	100.69
526.064	107.69
526.28	90.69
526.495	114.69
526.71	108.69
526.925	112.69
527.14	114.69
527.355	92.69
527.57	108.69
527.785	90.69
527.999	101.69
528.214	81.69
528.429	105.69
528.644	118.69
528.859	110.69
529.074	104.69
529.289	98.69
529.503	114.69
529.718	111.69
529.933	103.69
530.148	107.69
530.363	107.69
530.577	104.69
530.792	102.69
531.007	105.69
531.221	102.69
531.436	98.69
531.651	103.69
531.865	100.69
532.08	100.69
532.295	100.69
532.509	94.69
532.724	99.69
532.938	88.69
533.153	101.69
533.367	96.69
533.582	98.69
533.796	101.69
534.011	99.69
534.225	113.69
534.44	102.69
534.654	105.69
534.868	107.69
535.083	101.69
535.297	111.69
535.511	123.69
535.726	104.69
535.94	95.69
536.154	106.69
536.369	108.69
536.583	103.69
536.797	106.69
537.011	101.69
537.225	85.69
537.44	97.69
537.654	97.69
537.868	114.69
538.082	97.69
538.296	106.69
538.51	104.69
538.724	107.69
538.938	108.69
539.153	108.69
539.367	97.69
539.581	103.69
539.795	104.69
540.009	115.69
540.222	106.69
540.436	98.69
540.65	99.69
540.864	107.69
541.078	112.69
541.292	114.69
541.506	111.69
541.72	108.69
541.934	111.69
542.147	100.69
542.361	108.69
542.575	103.69
542.789	100.69
543.002	100.69
543.216	103.69
543.43	119.69
543.644	118.69
543.857	88.69
544.071	96.69
544.285	103.69
544.498	111.69
544.712	109.69
544.925	104.69
545.139	115.69
545.352	107.69
545.566	108.69
545.779	116.69
545.993	108.69
546.206	105.69
546.42	109.69
546.633	95.69
546.847	106.69
547.06	117.69
547.274	106.69
547.487	102.69
547.7	109.69
547.914	108.69
548.127	97.69
548.34	113.69
548.554	118.69
548.767	111.69
548.98	117.69
549.193	111.69
549.407	118.69
549.62	106.69
549.833	108.69
550.046	111.69
550.259	101.69
550.473	115.69
550.686	115.69
550.899	103.69
551.112	102.69
551.325	92.69
551.538	110.69
551.751	104.69
551.964	103.69
552.177	105.69
552.39	109.69
552.603	99.69
552.816	94.69
553.029	103.69
553.242	92.69
553.455	109.69
553.667	105.69
553.88	95.69
554.093	105.69
554.306	111.69
554.519	106.69
554.732	101.69
554.944	97.69
555.157	97.69
555.37	104.69
555.583	115.69
555.795	109.69
556.008	112.69
556.221	109.69
556.433	97.69
556.646	96.69
556.859	109.69
557.071	100.69
557.284	90.69
557.496	92.69
557.709	92.69
557.921	91.69
558.134	92.69
558.346	104.69
558.559	97.69
558.771	115.69
558.984	113.69
559.196	100.69
559.409	104.69
559.621	102.69
559.833	87.69
560.046	98.69
560.258	81.69
560.47	99.69
560.683	109.69
560.895	91.69
561.107	105.69
561.32	85.69
561.532	99.69
561.744	96.69
561.956	92.69
562.168	98.69
562.381	105.69
562.593	111.69
562.805	118.69
563.017	114.69
563.229	111.69
563.441	100.69
563.653	102.69
563.865	82.69
564.077	111.69
564.289	103.69
564.501	99.69
564.713	114.69
564.925	96.69
565.137	92.69
565.349	97.69
565.561	102.69
565.773	116.69
565.985	98.69
566.197	86.69
566.408	91.69
566.62	95.69
566.832	102.69
567.044	109.69
567.255	103.69
567.467	119.69
567.679	106.69
567.891	109.69
568.102	109.69
568.314	125.69
568.526	109.69
568.737	102.69
568.949	98.69
569.161	101.69
569.372	79.69
569.584	106.69
569.795	83.69
570.007	94.69
570.218	101.69
570.43	99.69
570.641	87.69
570.853	97.69
571.064	107.69
571.276	97.69
571.487	95.69
571.698	100.69
571.91	99.69
572.121	87.69
572.333	108.69
572.544	87.69
572.755	97.69
572.966	92.69
573.178	95.69
573.389	102.69
573.6	93.69
573.811	91.69
574.023	95.69
574.234	99.69
574.445	108.69
574.656	88.69
574.867	101.69
575.078	96.69
575.289	87.69
575.501	94.69
575.712	89.69
575.923	92.69
576.134	98.69
576.345	95.69
576.556	96.69
576.767	87.69
576.978	76.69
577.188	93.69
577.399	106.69
577.61	95.69
577.821	100.69
578.032	103.69
578.243	110.69
578.454	91.69
578.665	97.69
578.875	88.69
579.086	99.69
579.297	96.69
579.508	100.69
579.718	89.69
579.929	90.69
580.14	76.69
580.35	98.69
580.561	95.69
580.772	89.69
580.982	89.69
581.193	103.69
581.403	103.69
581.614	96.69
581.825	94.69
582.035	94.69
582.246	96.69
582.456	95.69
582.667	91.69
582.877	102.69
583.087	89.69
583.298	112.69
583.508	104.69
583.719	82.69
583.929	97.69
584.139	99.69
584.35	102.69
584.56	115.69
584.77	108.69
584.981	106.69
585.191	100.69
585.401	94.69
585.611	103.69
585.821	84.69
586.032	86.69
586.242	91.69
586.452	96.69
586.662	112.69
586.872	92.69
587.082	107.69
587.292	100.69
587.502	89.69
587.713	98.69
587.923	100.69
588.133	100.69
588.343	100.69
588.553	92.69
588.762	105.69
588.972	102.69
589.182	99.69
589.392	97.69
589.602	102.69
589.812	94.69
590.022	95.69
590.232	93.69
590.441	74.69
590.651	93.69
590.861	90.69
591.071	105.69
591.281	101.69
591.49	103.69
591.7	100.69
591.91	101.69
592.119	103.69
592.329	107.69
592.539	94.69
592.748	97.69
592.958	99.69
593.167	86.69
593.377	85.69
593.587	95.69
593.796	102.69
594.006	95.69
594.215	105.69
594.424	93.69
594.634	97.69
594.843	101.69
595.053	83.69
595.262	85.69
595.472	107.69
595.681	88.69
595.89	88.69
596.1	96.69
596.309	92.69
596.518	102.69
596.727	98.69
596.937	101.69
597.146	86.69
597.355	94.69
597.564	95.69
597.774	89.69
597.983	100.69
598.192	86.69
598.401	96.69
598.61	101.69
598.819	84.69
599.028	89.69
599.237	84.69
599.446	92.69
599.655	83.69
599.864	89.69
600.073	94.69
600.282	91.69
600.491	85.69
600.7	88.69
600.909	85.69
601.118	91.69
601.327	87.69
601.536	91.69
601.745	103.69
601.953	93.69
602.162	88.69
602.371	97.69
602.58	91.69
602.789	83.69
602.997	97.69
603.206	102.69
603.415	92.69
603.623	97.69
603.832	89.69
604.041	89.69
604.249	92.69
604.458	80.69
604.666	96.69
604.875	79.69
605.084	100.69
605.292	86.69
605.501	88.69
605.709	110.69
605.918	77.69
606.126	96.69
606.334	117.69
606.543	98.69
606.751	118.69
606.96	83.69
607.168	98.69
607.376	89.69
607.585	93.69
607.793	98.69
608.001	106.69
608.21	83.69
608.418	83.69
608.626	101.69
608.834	89.69
609.043	81.69
609.251	99.69
609.459	89.69
609.667	93.69
609.875	86.69
610.083	105.69
610.291	88.69
610.499	99.69
610.707	86.69
610.916	90.69
611.124	96.69
611.332	98.69
611.54	84.69
611.748	94.69
611.955	94.69
612.163	102.69
612.371	107.69
612.579	79.69
612.787	84.69
612.995	98.69
613.203	86.69
613.411	94.69
613.618	92.69
613.826	98.69
614.034	99.69
614.242	98.69
614.449	93.69
614.657	91.69
614.865	91.69
615.072	88.69
615.28	98.69
615.488	89.69
615.695	87.69
615.903	95.69
616.111	99.69
616.318	94.69
616.526	85.69
616.733	95.69
616.941	84.69
617.148	100.69
617.356	82.69
617.563	101.69
617.771	87.69
617.978	93.69
618.185	100.69
618.393	101.69
618.6	87.69
618.807	88.69
619.015	95.69
619.222	79.69
619.429	81.69
619.637	93.69
619.844	102.69
620.051	96.69
620.258	93.69
620.466	94.69
620.673	89.69
620.88	97.69
621.087	94.69
621.294	95.69
621.501	93.69
621.708	90.69
621.915	94.69
622.122	89.69
622.329	94.69
622.536	93.69
622.743	101.69
622.95	99.69
623.157	70.69
623.364	103.69
623.571	89.69
623.778	96.69
623.985	94.69
624.192	98.69
624.399	88.69
624.606	94.69
624.812	98.69
625.019	94.69
625.226	87.69
625.433	92.69
625.639	92.69
625.846	93.69
626.053	92.69
626.259	90.69
626.466	105.69
626.673	99.69
626.879	87.69
627.086	80.69
627.293	102.69
627.499	98.69
627.706	94.69
627.912	99.69
628.119	93.69
628.325	82.69
628.532	93.69
628.738	86.69
628.945	80.69
629.151	78.69
629.357	71.69
629.564	84.69
629.77	86.69
629.976	87.69
630.183	98.69
630.389	91.69
630.595	78.69
630.802	90.69
631.008	97.69
631.214	91.69
631.42	99.69
631.627	98.69
631.833	92.69
632.039	94.69
632.245	88.69
632.451	100.69
632.657	91.69
632.863	83.69
633.069	104.69
633.275	107.69
633.481	84.69
633.688	97.69
633.893	92.69
634.099	88.69
634.305	90.69
634.511	99.69
634.717	78.69
634.923	91.69
635.129	84.69
635.335	94.69
635.541	87.69
635.747	95.69
635.952	99.69
636.158	82.69
636.364	87.69
636.57	87.69
636.775	84.69
636.981	82.69
637.187	89.69
637.392	89.69
637.598	82.69
637.804	84.69
638.009	81.69
638.215	89.69
638.421	103.69
638.626	106.69
638.832	86.69
639.037	95.69
639.243	89.69
639.448	103.69
639.654	93.69
639.859	90.69
640.065	90.69
640.27	106.69
640.475	91.69
640.681	74.69
640.886	80.69
641.091	86.69
641.297	104.69
641.502	93.69
641.707	102.69
641.913	91.69
642.118	93.69
642.323	84.69
642.528	104.69
642.733	96.69
642.939	94.69
643.144	87.69
643.349	91.69
643.554	100.69
643.759	103.69
643.964	87.69
644.169	86.69
644.374	75.69
644.579	96.69
644.784	88.69
644.989	91.69
645.194	85.69
645.399	96.69
645.604	79.69
645.809	90.69
646.014	81.69
646.219	85.69
646.423	89.69
646.628	89.69
646.833	86.69
647.038	95.69
647.243	103.69
647.447	93.69
647.652	95.69
647.857	96.69
648.062	77.69
648.266	89.69
648.471	84.69
648.676	83.69
648.88	76.69
649.085	95.69
649.289	83.69
649.494	84.69
649.698	84.69
649.903	63.69
650.107	86.69
650.312	84.69
650.516	82.69
650.721	92.69
650.925	84.69
651.13	92.69
651.334	92.69
651.539	91.69
651.743	80.69
651.947	82.69
652.152	104.69
652.356	96.69
652.56	100.69
652.764	96.69
652.969	94.69
653.173	96.69
653.377	74.69
653.581	86.69
653.785	71.69
653.99	79.69
654.194	91.69
654.398	91.69
654.602	101.69
654.806	86.69
655.01	98.69
655.214	90.69
655.418	101.69
655.622	82.69
655.826	78.69
656.03	86.69
656.234	78.69
656.438	98.69
656.642	88.69
656.846	90.69
657.049	75.69
657.253	83.69
657.457	90.69
657.661	78.69
657.865	80.69
658.068	93.69
658.272	82.69
658.476	78.69
658.68	85.69
658.883	95.69
659.087	85.69
659.291	74.69
659.494	90.69
659.698	85.69
659.901	80.69
660.105	90.69
660.309	80.69
660.512	84.69
660.716	94.69
660.919	88.69
661.123	84.69
661.326	83.69
661.53	81.69
661.733	86.69
661.936	92.69
662.14	77.69
662.343	91.69
662.546	100.69
662.75	82.69
662.953	91.69
663.156	99.69
663.36	80.69
663.563	99.69
663.766	102.69
663.969	75.69
664.173	82.69
664.376	78.69
664.579	89.69
664.782	76.69
664.985	88.69
665.188	92.69
665.391	79.69
665.594	86.69
665.797	86.69
666	73.69
666.203	75.69
666.406	95.69
666.609	70.69
666.812	75.69
667.015	79.69
667.218	97.69
667.421	78.69
667.624	83.69
667.827	80.69
668.03	81.69
668.232	88.69
668.435	87.69
668.638	88.69
668.841	100.69
669.043	91.69
669.246	86.69
669.449	92.69
669.651	93.69
669.854	75.69
670.057	89.69
670.259	90.69
670.462	92.69
670.665	89.69
670.867	79.69
671.07	87.69
671.272	83.69
671.475	98.69
671.677	96.69
671.88	83.69
672.082	61.69
672.284	87.69
672.487	72.69
672.689	84.69
672.892	92.69
