Data from Location5.07152019.Energy5.Lamp.07192019.3%Agarose_HRD10591_16-05-30-629.txt Node
Date: Fri Jul 19 16:05:30 EDT 2019
User: cochatt
Spectrometer: HR+D1059
Trigger mode: 1
Integration Time (sec): 1.000000E-1
Scans to average: 1
Electric dark correction enabled: true
Nonlinearity correction enabled: false
Boxcar width: 0
XAxis mode: Wavelengths
Number of Pixels in Spectrum: 2048
>>>>>Begin Spectral Data<<<<<
223.165	-20.94
223.4	-20.94
223.635	-20.94
223.869	-20.94
224.104	-21.94
224.338	-17.94
224.573	-10.94
224.808	-9.94
225.042	-11.94
225.277	-8.94
225.511	-4.94
225.746	-6.94
225.98	16.06
226.215	11.06
226.449	9.06
226.683	11.06
226.918	41.06
227.152	47.06
227.387	35.06
227.621	41.06
227.856	48.06
228.09	43.06
228.324	36.06
228.559	50.06
228.793	52.06
229.027	63.06
229.262	51.06
229.496	65.06
229.73	48.06
229.964	59.06
230.199	59.06
230.433	70.06
230.667	72.06
230.901	70.06
231.136	71.06
231.37	74.06
231.604	79.06
231.838	70.06
232.072	69.06
232.306	81.06
232.541	94.06
232.775	71.06
233.009	85.06
233.243	92.06
233.477	75.06
233.711	75.06
233.945	73.06
234.179	67.06
234.413	67.06
234.647	87.06
234.881	86.06
235.115	83.06
235.349	83.06
235.583	69.06
235.817	74.06
236.051	76.06
236.285	75.06
236.519	88.06
236.753	79.06
236.987	76.06
237.221	76.06
237.455	81.06
237.689	78.06
237.922	73.06
238.156	78.06
238.39	83.06
238.624	92.06
238.858	65.06
239.091	85.06
239.325	71.06
239.559	87.06
239.793	76.06
240.027	90.06
240.26	68.06
240.494	87.06
240.728	81.06
240.961	85.06
241.195	74.06
241.429	84.06
241.662	77.06
241.896	60.06
242.13	65.06
242.363	75.06
242.597	78.06
242.83	72.06
243.064	70.06
243.298	81.06
243.531	85.06
243.765	65.06
243.998	79.06
244.232	75.06
244.465	83.06
244.699	84.06
244.932	82.06
245.166	73.06
245.399	85.06
245.633	76.06
245.866	69.06
246.099	73.06
246.333	72.06
246.566	71.06
246.8	75.06
247.033	102.06
247.266	70.06
247.5	75.06
247.733	82.06
247.966	74.06
248.2	70.06
248.433	93.06
248.666	82.06
248.899	86.06
249.133	75.06
249.366	81.06
249.599	86.06
249.832	75.06
250.066	72.06
250.299	79.06
250.532	81.06
250.765	79.06
250.998	70.06
251.231	87.06
251.465	82.06
251.698	83.06
251.931	81.06
252.164	89.06
252.397	91.06
252.63	87.06
252.863	80.06
253.096	86.06
253.329	81.06
253.562	77.06
253.795	80.06
254.028	66.06
254.261	90.06
254.494	73.06
254.727	93.06
254.96	85.06
255.193	70.06
255.426	75.06
255.659	89.06
255.892	77.06
256.124	83.06
256.357	78.06
256.59	80.06
256.823	86.06
257.056	77.06
257.289	75.06
257.521	85.06
257.754	88.06
257.987	84.06
258.22	80.06
258.452	87.06
258.685	86.06
258.918	73.06
259.151	64.06
259.383	86.06
259.616	72.06
259.849	79.06
260.081	75.06
260.314	78.06
260.547	87.06
260.779	85.06
261.012	90.06
261.244	74.06
261.477	87.06
261.71	83.06
261.942	80.06
262.175	90.06
262.407	89.06
262.64	103.06
262.872	92.06
263.105	94.06
263.337	86.06
263.57	77.06
263.802	77.06
264.035	103.06
264.267	87.06
264.499	75.06
264.732	83.06
264.964	81.06
265.197	91.06
265.429	69.06
265.661	83.06
265.894	76.06
266.126	80.06
266.358	87.06
266.591	78.06
266.823	70.06
267.055	86.06
267.287	72.06
267.52	74.06
267.752	80.06
267.984	75.06
268.216	76.06
268.448	102.06
268.681	91.06
268.913	78.06
269.145	74.06
269.377	85.06
269.609	78.06
269.841	75.06
270.073	85.06
270.306	82.06
270.538	94.06
270.77	74.06
271.002	77.06
271.234	73.06
271.466	77.06
271.698	96.06
271.93	88.06
272.162	96.06
272.394	95.06
272.626	83.06
272.858	105.06
273.09	98.06
273.322	81.06
273.553	96.06
273.785	99.06
274.017	87.06
274.249	88.06
274.481	76.06
274.713	83.06
274.945	83.06
275.176	87.06
275.408	78.06
275.64	95.06
275.872	92.06
276.104	84.06
276.335	86.06
276.567	80.06
276.799	93.06
277.031	87.06
277.262	73.06
277.494	91.06
277.726	101.06
277.957	82.06
278.189	89.06
278.421	82.06
278.652	87.06
278.884	88.06
279.115	97.06
279.347	87.06
279.579	90.06
279.81	97.06
280.042	82.06
280.273	83.06
280.505	88.06
280.736	72.06
280.968	85.06
281.199	81.06
281.431	89.06
281.662	79.06
281.894	80.06
282.125	74.06
282.356	78.06
282.588	76.06
282.819	92.06
283.051	85.06
283.282	91.06
283.513	91.06
283.745	103.06
283.976	80.06
284.207	89.06
284.439	88.06
284.67	94.06
284.901	81.06
285.132	85.06
285.364	80.06
285.595	76.06
285.826	70.06
286.057	98.06
286.288	88.06
286.52	81.06
286.751	83.06
286.982	95.06
287.213	77.06
287.444	75.06
287.675	77.06
287.906	80.06
288.138	90.06
288.369	89.06
288.6	80.06
288.831	102.06
289.062	85.06
289.293	108.06
289.524	81.06
289.755	91.06
289.986	89.06
290.217	76.06
290.448	84.06
290.679	84.06
290.91	98.06
291.141	79.06
291.371	87.06
291.602	94.06
291.833	95.06
292.064	92.06
292.295	94.06
292.526	90.06
292.757	87.06
292.987	89.06
293.218	87.06
293.449	87.06
293.68	78.06
293.91	89.06
294.141	83.06
294.372	89.06
294.603	86.06
294.833	83.06
295.064	87.06
295.295	113.06
295.525	98.06
295.756	88.06
295.987	89.06
296.217	90.06
296.448	90.06
296.679	96.06
296.909	85.06
297.14	94.06
297.37	82.06
297.601	100.06
297.831	81.06
298.062	79.06
298.292	98.06
298.523	95.06
298.753	86.06
298.984	91.06
299.214	82.06
299.445	99.06
299.675	86.06
299.905	101.06
300.136	73.06
300.366	90.06
300.597	90.06
300.827	75.06
301.057	78.06
301.288	90.06
301.518	72.06
301.748	87.06
301.979	81.06
302.209	92.06
302.439	84.06
302.669	82.06
302.9	97.06
303.13	86.06
303.36	90.06
303.59	85.06
303.82	79.06
304.051	83.06
304.281	84.06
304.511	113.06
304.741	86.06
304.971	92.06
305.201	81.06
305.431	78.06
305.661	97.06
305.891	94.06
306.121	97.06
306.352	96.06
306.582	95.06
306.812	84.06
307.042	93.06
307.272	79.06
307.502	89.06
307.731	78.06
307.961	95.06
308.191	85.06
308.421	79.06
308.651	82.06
308.881	88.06
309.111	86.06
309.341	78.06
309.571	78.06
309.8	81.06
310.03	68.06
310.26	88.06
310.49	83.06
310.72	75.06
310.949	85.06
311.179	86.06
311.409	89.06
311.639	90.06
311.868	99.06
312.098	102.06
312.328	90.06
312.557	94.06
312.787	84.06
313.017	84.06
313.246	87.06
313.476	76.06
313.706	91.06
313.935	96.06
314.165	94.06
314.394	83.06
314.624	91.06
314.853	82.06
315.083	90.06
315.312	94.06
315.542	90.06
315.771	98.06
316.001	98.06
316.23	92.06
316.46	79.06
316.689	85.06
316.919	93.06
317.148	89.06
317.377	82.06
317.607	91.06
317.836	81.06
318.065	79.06
318.295	83.06
318.524	80.06
318.753	73.06
318.983	79.06
319.212	79.06
319.441	92.06
319.67	71.06
319.9	87.06
320.129	101.06
320.358	90.06
320.587	89.06
320.816	100.06
321.046	87.06
321.275	96.06
321.504	85.06
321.733	97.06
321.962	72.06
322.191	80.06
322.42	84.06
322.649	86.06
322.878	78.06
323.108	85.06
323.337	87.06
323.566	92.06
323.795	78.06
324.024	84.06
324.253	84.06
324.482	82.06
324.71	99.06
324.939	96.06
325.168	86.06
325.397	96.06
325.626	97.06
325.855	93.06
326.084	91.06
326.313	87.06
326.542	85.06
326.77	85.06
326.999	93.06
327.228	84.06
327.457	83.06
327.686	79.06
327.914	80.06
328.143	86.06
328.372	79.06
328.6	92.06
328.829	80.06
329.058	95.06
329.287	95.06
329.515	81.06
329.744	90.06
329.972	83.06
330.201	79.06
330.43	80.06
330.658	101.06
330.887	99.06
331.115	100.06
331.344	104.06
331.572	101.06
331.801	91.06
332.03	99.06
332.258	99.06
332.486	91.06
332.715	94.06
332.943	89.06
333.172	77.06
333.4	92.06
333.629	90.06
333.857	91.06
334.085	89.06
334.314	80.06
334.542	89.06
334.771	99.06
334.999	87.06
335.227	98.06
335.455	106.06
335.684	83.06
335.912	92.06
336.14	94.06
336.369	92.06
336.597	93.06
336.825	96.06
337.053	89.06
337.281	91.06
337.51	84.06
337.738	88.06
337.966	78.06
338.194	88.06
338.422	86.06
338.65	89.06
338.878	79.06
339.106	79.06
339.334	82.06
339.562	87.06
339.79	85.06
340.018	81.06
340.246	86.06
340.474	92.06
340.702	87.06
340.93	91.06
341.158	78.06
341.386	87.06
341.614	88.06
341.842	83.06
342.07	85.06
342.298	88.06
342.526	88.06
342.754	85.06
342.981	82.06
343.209	88.06
343.437	89.06
343.665	93.06
343.893	94.06
344.12	101.06
344.348	82.06
344.576	88.06
344.804	83.06
345.031	93.06
345.259	94.06
345.487	80.06
345.714	88.06
345.942	85.06
346.17	93.06
346.397	98.06
346.625	100.06
346.853	103.06
347.08	96.06
347.308	98.06
347.535	94.06
347.763	76.06
347.99	92.06
348.218	85.06
348.445	81.06
348.673	102.06
348.9	97.06
349.128	86.06
349.355	77.06
349.583	86.06
349.81	95.06
350.037	81.06
350.265	93.06
350.492	85.06
350.72	81.06
350.947	90.06
351.174	88.06
351.402	81.06
351.629	97.06
351.856	90.06
352.083	89.06
352.311	75.06
352.538	84.06
352.765	86.06
352.992	88.06
353.22	99.06
353.447	78.06
353.674	83.06
353.901	80.06
354.128	89.06
354.355	96.06
354.583	89.06
354.81	94.06
355.037	91.06
355.264	91.06
355.491	73.06
355.718	85.06
355.945	95.06
356.172	94.06
356.399	97.06
356.626	76.06
356.853	94.06
357.08	76.06
357.307	85.06
357.534	92.06
357.761	87.06
357.988	84.06
358.215	88.06
358.441	94.06
358.668	86.06
358.895	85.06
359.122	96.06
359.349	87.06
359.576	95.06
359.802	99.06
360.029	86.06
360.256	103.06
360.483	88.06
360.709	88.06
360.936	87.06
361.163	88.06
361.39	84.06
361.616	79.06
361.843	87.06
362.07	95.06
362.296	82.06
362.523	83.06
362.749	88.06
362.976	97.06
363.203	89.06
363.429	81.06
363.656	74.06
363.882	71.06
364.109	94.06
364.335	83.06
364.562	78.06
364.788	91.06
365.015	78.06
365.241	75.06
365.468	84.06
365.694	77.06
365.92	98.06
366.147	78.06
366.373	77.06
366.599	91.06
366.826	94.06
367.052	91.06
367.278	96.06
367.505	77.06
367.731	73.06
367.957	93.06
368.184	79.06
368.41	85.06
368.636	83.06
368.862	81.06
369.089	88.06
369.315	77.06
369.541	86.06
369.767	79.06
369.993	88.06
370.219	83.06
370.445	77.06
370.672	101.06
370.898	94.06
371.124	88.06
371.35	100.06
371.576	76.06
371.802	83.06
372.028	78.06
372.254	91.06
372.48	79.06
372.706	81.06
372.932	77.06
373.158	84.06
373.384	96.06
373.61	87.06
373.835	89.06
374.061	88.06
374.287	94.06
374.513	81.06
374.739	89.06
374.965	75.06
375.191	86.06
375.416	77.06
375.642	92.06
375.868	91.06
376.094	75.06
376.319	82.06
376.545	82.06
376.771	97.06
376.997	91.06
377.222	91.06
377.448	95.06
377.674	81.06
377.899	81.06
378.125	90.06
378.35	79.06
378.576	86.06
378.802	85.06
379.027	78.06
379.253	80.06
379.478	94.06
379.704	97.06
379.929	79.06
380.155	93.06
380.38	99.06
380.606	92.06
380.831	80.06
381.057	91.06
381.282	105.06
381.507	79.06
381.733	89.06
381.958	95.06
382.184	93.06
382.409	85.06
382.634	81.06
382.86	94.06
383.085	85.06
383.31	87.06
383.535	73.06
383.761	91.06
383.986	83.06
384.211	75.06
384.436	100.06
384.662	87.06
384.887	93.06
385.112	100.06
385.337	93.06
385.562	87.06
385.787	94.06
386.013	96.06
386.238	90.06
386.463	80.06
386.688	83.06
386.913	79.06
387.138	86.06
387.363	87.06
387.588	92.06
387.813	82.06
388.038	89.06
388.263	92.06
388.488	80.06
388.713	87.06
388.938	86.06
389.163	83.06
389.387	86.06
389.612	90.06
389.837	83.06
390.062	89.06
390.287	77.06
390.512	87.06
390.736	81.06
390.961	95.06
391.186	86.06
391.411	79.06
391.636	79.06
391.86	105.06
392.085	99.06
392.31	74.06
392.534	97.06
392.759	85.06
392.984	86.06
393.208	97.06
393.433	97.06
393.658	86.06
393.882	89.06
394.107	101.06
394.331	96.06
394.556	83.06
394.78	83.06
395.005	88.06
395.229	83.06
395.454	84.06
395.678	72.06
395.903	78.06
396.127	91.06
396.352	79.06
396.576	89.06
396.801	86.06
397.025	90.06
397.249	87.06
397.474	96.06
397.698	97.06
397.922	93.06
398.147	89.06
398.371	76.06
398.595	83.06
398.82	87.06
399.044	85.06
399.268	98.06
399.492	98.06
399.717	99.06
399.941	94.06
400.165	106.06
400.389	90.06
400.613	79.06
400.837	88.06
401.062	96.06
401.286	93.06
401.51	93.06
401.734	80.06
401.958	84.06
402.182	101.06
402.406	94.06
402.63	84.06
402.854	78.06
403.078	78.06
403.302	94.06
403.526	86.06
403.75	82.06
403.974	102.06
404.198	95.06
404.422	90.06
404.645	100.06
404.869	97.06
405.093	82.06
405.317	86.06
405.541	84.06
405.765	89.06
405.988	102.06
406.212	89.06
406.436	85.06
406.66	73.06
406.883	96.06
407.107	89.06
407.331	89.06
407.555	95.06
407.778	81.06
408.002	86.06
408.226	93.06
408.449	73.06
408.673	104.06
408.896	103.06
409.12	93.06
409.344	112.06
409.567	107.06
409.791	95.06
410.014	95.06
410.238	96.06
410.461	80.06
410.685	98.06
410.908	78.06
411.132	89.06
411.355	80.06
411.578	92.06
411.802	95.06
412.025	86.06
412.249	93.06
412.472	98.06
412.695	84.06
412.919	93.06
413.142	88.06
413.365	85.06
413.589	86.06
413.812	95.06
414.035	81.06
414.258	101.06
414.482	84.06
414.705	94.06
414.928	82.06
415.151	85.06
415.374	98.06
415.597	91.06
415.821	102.06
416.044	80.06
416.267	85.06
416.49	86.06
416.713	97.06
416.936	84.06
417.159	89.06
417.382	85.06
417.605	94.06
417.828	86.06
418.051	101.06
418.274	109.06
418.497	99.06
418.72	99.06
418.943	99.06
419.166	93.06
419.389	95.06
419.611	98.06
419.834	94.06
420.057	87.06
420.28	80.06
420.503	91.06
420.726	85.06
420.948	88.06
421.171	80.06
421.394	96.06
421.617	101.06
421.839	99.06
422.062	84.06
422.285	82.06
422.507	98.06
422.73	81.06
422.953	78.06
423.175	99.06
423.398	73.06
423.621	105.06
423.843	85.06
424.066	89.06
424.288	102.06
424.511	99.06
424.733	105.06
424.956	88.06
425.178	94.06
425.401	75.06
425.623	97.06
425.846	103.06
426.068	105.06
426.291	97.06
426.513	80.06
426.735	87.06
426.958	99.06
427.18	98.06
427.402	83.06
427.625	87.06
427.847	89.06
428.069	71.06
428.292	89.06
428.514	83.06
428.736	99.06
428.958	84.06
429.181	92.06
429.403	90.06
429.625	79.06
429.847	98.06
430.069	94.06
430.292	96.06
430.514	99.06
430.736	82.06
430.958	93.06
431.18	89.06
431.402	77.06
431.624	94.06
431.846	95.06
432.068	78.06
432.29	81.06
432.512	90.06
432.734	83.06
432.956	95.06
433.178	96.06
433.4	99.06
433.622	91.06
433.844	95.06
434.066	91.06
434.287	90.06
434.509	89.06
434.731	99.06
434.953	81.06
435.175	66.06
435.397	100.06
435.618	104.06
435.84	99.06
436.062	81.06
436.284	88.06
436.505	70.06
436.727	92.06
436.949	78.06
437.17	87.06
437.392	95.06
437.614	87.06
437.835	88.06
438.057	99.06
438.278	95.06
438.5	94.06
438.721	86.06
438.943	90.06
439.165	82.06
439.386	81.06
439.608	73.06
439.829	101.06
440.05	88.06
440.272	81.06
440.493	93.06
440.715	88.06
440.936	86.06
441.158	102.06
441.379	87.06
441.6	93.06
441.822	96.06
442.043	101.06
442.264	83.06
442.486	97.06
442.707	75.06
442.928	89.06
443.149	86.06
443.371	89.06
443.592	83.06
443.813	96.06
444.034	95.06
444.255	82.06
444.476	87.06
444.698	85.06
444.919	85.06
445.14	221.06
445.361	154.06
445.582	105.06
445.803	102.06
446.024	95.06
446.245	117.06
446.466	86.06
446.687	84.06
446.908	93.06
447.129	95.06
447.35	87.06
447.571	82.06
447.792	97.06
448.013	92.06
448.234	92.06
448.455	97.06
448.675	91.06
448.896	102.06
449.117	97.06
449.338	83.06
449.559	88.06
449.779	79.06
450	77.06
450.221	85.06
450.442	85.06
450.662	84.06
450.883	87.06
451.104	82.06
451.324	79.06
451.545	90.06
451.766	68.06
451.986	81.06
452.207	79.06
452.428	81.06
452.648	87.06
452.869	90.06
453.089	84.06
453.31	99.06
453.53	92.06
453.751	91.06
453.971	90.06
454.192	79.06
454.412	80.06
454.633	82.06
454.853	90.06
455.073	94.06
455.294	81.06
455.514	85.06
455.734	82.06
455.955	98.06
456.175	83.06
456.395	93.06
456.616	94.06
456.836	83.06
457.056	98.06
457.276	76.06
457.497	89.06
457.717	89.06
457.937	89.06
458.157	93.06
458.377	75.06
458.598	90.06
458.818	82.06
459.038	79.06
459.258	92.06
459.478	86.06
459.698	93.06
459.918	85.06
460.138	98.06
460.358	90.06
460.578	78.06
460.798	100.06
461.018	86.06
461.238	92.06
461.458	112.06
461.678	92.06
461.898	86.06
462.118	101.06
462.338	102.06
462.558	86.06
462.777	89.06
462.997	112.06
463.217	98.06
463.437	95.06
463.657	88.06
463.876	92.06
464.096	95.06
464.316	81.06
464.536	90.06
464.755	85.06
464.975	95.06
465.195	100.06
465.414	99.06
465.634	105.06
465.854	109.06
466.073	95.06
466.293	96.06
466.512	97.06
466.732	81.06
466.951	90.06
467.171	96.06
467.391	92.06
467.61	77.06
467.829	97.06
468.049	77.06
468.268	87.06
468.488	96.06
468.707	86.06
468.927	92.06
469.146	89.06
469.365	84.06
469.585	98.06
469.804	99.06
470.023	95.06
470.243	106.06
470.462	102.06
470.681	97.06
470.901	83.06
471.12	102.06
471.339	102.06
471.558	91.06
471.777	89.06
471.997	94.06
472.216	97.06
472.435	92.06
472.654	91.06
472.873	109.06
473.092	94.06
473.311	85.06
473.53	89.06
473.749	87.06
473.968	97.06
474.187	82.06
474.406	91.06
474.625	97.06
474.844	97.06
475.063	96.06
475.282	101.06
475.501	89.06
475.72	89.06
475.939	91.06
476.158	65.06
476.377	100.06
476.596	88.06
476.814	85.06
477.033	100.06
477.252	100.06
477.471	96.06
477.69	90.06
477.908	97.06
478.127	89.06
478.346	90.06
478.564	115.06
478.783	103.06
479.002	96.06
479.22	104.06
479.439	84.06
479.658	106.06
479.876	95.06
480.095	86.06
480.313	84.06
480.532	91.06
480.751	104.06
480.969	105.06
481.188	98.06
481.406	87.06
481.624	86.06
481.843	84.06
482.061	95.06
482.28	98.06
482.498	97.06
482.717	93.06
482.935	97.06
483.153	94.06
483.372	93.06
483.59	102.06
483.808	96.06
484.027	88.06
484.245	105.06
484.463	89.06
484.681	103.06
484.9	111.06
485.118	93.06
485.336	99.06
485.554	101.06
485.772	96.06
485.99	106.06
486.209	98.06
486.427	102.06
486.645	91.06
486.863	91.06
487.081	98.06
487.299	92.06
487.517	89.06
487.735	103.06
487.953	105.06
488.171	100.06
488.389	96.06
488.607	93.06
488.825	105.06
489.043	97.06
489.261	106.06
489.479	97.06
489.696	88.06
489.914	86.06
490.132	90.06
490.35	110.06
490.568	103.06
490.786	102.06
491.003	104.06
491.221	93.06
491.439	93.06
491.657	115.06
491.874	127.06
492.092	99.06
492.31	113.06
492.527	106.06
492.745	97.06
492.963	95.06
493.18	103.06
493.398	98.06
493.615	111.06
493.833	101.06
494.05	105.06
494.268	115.06
494.485	102.06
494.703	111.06
494.92	111.06
495.138	111.06
495.355	95.06
495.573	102.06
495.79	93.06
496.008	118.06
496.225	100.06
496.442	102.06
496.66	102.06
496.877	107.06
497.094	107.06
497.312	117.06
497.529	108.06
497.746	110.06
497.963	104.06
498.181	115.06
498.398	106.06
498.615	104.06
498.832	107.06
499.049	114.06
499.267	99.06
499.484	110.06
499.701	119.06
499.918	133.06
500.135	140.06
500.352	135.06
500.569	139.06
500.786	140.06
501.003	117.06
501.22	137.06
501.437	121.06
501.654	115.06
501.871	109.06
502.088	114.06
502.305	97.06
502.522	111.06
502.739	116.06
502.956	109.06
503.172	114.06
503.389	96.06
503.606	109.06
503.823	95.06
504.04	111.06
504.256	95.06
504.473	87.06
504.69	106.06
504.907	107.06
505.123	98.06
505.34	98.06
505.557	101.06
505.773	103.06
505.99	104.06
506.207	96.06
506.423	101.06
506.64	95.06
506.856	101.06
507.073	102.06
507.289	109.06
507.506	105.06
507.722	101.06
507.939	109.06
508.155	97.06
508.372	91.06
508.588	102.06
508.805	94.06
509.021	106.06
509.238	116.06
509.454	87.06
509.67	80.06
509.887	100.06
510.103	91.06
510.319	100.06
510.536	95.06
510.752	96.06
510.968	103.06
511.184	100.06
511.401	95.06
511.617	105.06
511.833	92.06
512.049	100.06
512.265	92.06
512.481	100.06
512.698	99.06
512.914	88.06
513.13	91.06
513.346	110.06
513.562	99.06
513.778	93.06
513.994	82.06
514.21	91.06
514.426	106.06
514.642	92.06
514.858	110.06
515.074	85.06
515.29	103.06
515.506	93.06
515.721	94.06
515.937	94.06
516.153	112.06
516.369	96.06
516.585	91.06
516.801	90.06
517.016	90.06
517.232	98.06
517.448	101.06
517.664	110.06
517.879	103.06
518.095	93.06
518.311	95.06
518.527	88.06
518.742	100.06
518.958	101.06
519.173	103.06
519.389	111.06
519.605	94.06
519.82	103.06
520.036	86.06
520.251	98.06
520.467	87.06
520.682	101.06
520.898	92.06
521.113	88.06
521.329	92.06
521.544	84.06
521.76	110.06
521.975	99.06
522.19	90.06
522.406	109.06
522.621	102.06
522.836	83.06
523.052	96.06
523.267	89.06
523.482	89.06
523.698	83.06
523.913	109.06
524.128	102.06
524.343	108.06
524.559	101.06
524.774	95.06
524.989	92.06
525.204	117.06
525.419	90.06
525.634	94.06
525.849	91.06
526.064	113.06
526.28	86.06
526.495	93.06
526.71	83.06
526.925	92.06
527.14	94.06
527.355	93.06
527.57	98.06
527.785	88.06
527.999	93.06
528.214	89.06
528.429	95.06
528.644	94.06
528.859	93.06
529.074	96.06
529.289	83.06
529.503	101.06
529.718	103.06
529.933	88.06
530.148	97.06
530.363	98.06
530.577	105.06
530.792	105.06
531.007	93.06
531.221	92.06
531.436	109.06
531.651	97.06
531.865	91.06
532.08	92.06
532.295	102.06
532.509	99.06
532.724	95.06
532.938	90.06
533.153	108.06
533.367	98.06
533.582	102.06
533.796	96.06
534.011	93.06
534.225	89.06
534.44	91.06
534.654	106.06
534.868	100.06
535.083	75.06
535.297	83.06
535.511	87.06
535.726	75.06
535.94	94.06
536.154	94.06
536.369	85.06
536.583	81.06
536.797	97.06
537.011	92.06
537.225	93.06
537.44	88.06
537.654	84.06
537.868	87.06
538.082	85.06
538.296	94.06
538.51	94.06
538.724	111.06
538.938	88.06
539.153	92.06
539.367	94.06
539.581	111.06
539.795	91.06
540.009	99.06
540.222	89.06
540.436	91.06
540.65	98.06
540.864	97.06
541.078	91.06
541.292	105.06
541.506	84.06
541.72	91.06
541.934	97.06
542.147	105.06
542.361	105.06
542.575	99.06
542.789	99.06
543.002	93.06
543.216	116.06
543.43	93.06
543.644	94.06
543.857	87.06
544.071	92.06
544.285	102.06
544.498	101.06
544.712	97.06
544.925	96.06
545.139	100.06
545.352	88.06
545.566	97.06
545.779	93.06
545.993	99.06
546.206	100.06
546.42	102.06
546.633	106.06
546.847	105.06
547.06	105.06
547.274	105.06
547.487	114.06
547.7	93.06
547.914	116.06
548.127	89.06
548.34	87.06
548.554	103.06
548.767	104.06
548.98	104.06
549.193	123.06
549.407	101.06
549.62	111.06
549.833	93.06
550.046	98.06
550.259	106.06
550.473	94.06
550.686	94.06
550.899	116.06
551.112	88.06
551.325	94.06
551.538	88.06
551.751	86.06
551.964	97.06
552.177	92.06
552.39	99.06
552.603	96.06
552.816	98.06
553.029	104.06
553.242	97.06
553.455	106.06
553.667	102.06
553.88	80.06
554.093	91.06
554.306	92.06
554.519	93.06
554.732	108.06
554.944	84.06
555.157	104.06
555.37	113.06
555.583	92.06
555.795	85.06
556.008	95.06
556.221	93.06
556.433	93.06
556.646	109.06
556.859	93.06
557.071	87.06
557.284	101.06
557.496	92.06
557.709	95.06
557.921	98.06
558.134	97.06
558.346	94.06
558.559	100.06
558.771	96.06
558.984	98.06
559.196	98.06
559.409	102.06
559.621	103.06
559.833	100.06
560.046	98.06
560.258	87.06
560.47	102.06
560.683	104.06
560.895	90.06
561.107	85.06
561.32	89.06
561.532	94.06
561.744	102.06
561.956	89.06
562.168	78.06
562.381	95.06
562.593	97.06
562.805	100.06
563.017	88.06
563.229	102.06
563.441	106.06
563.653	96.06
563.865	77.06
564.077	108.06
564.289	99.06
564.501	90.06
564.713	86.06
564.925	81.06
565.137	96.06
565.349	96.06
565.561	96.06
565.773	91.06
565.985	106.06
566.197	93.06
566.408	86.06
566.62	105.06
566.832	118.06
567.044	113.06
567.255	98.06
567.467	96.06
567.679	87.06
567.891	95.06
568.102	105.06
568.314	107.06
568.526	102.06
568.737	104.06
568.949	91.06
569.161	86.06
569.372	83.06
569.584	87.06
569.795	91.06
570.007	101.06
570.218	83.06
570.43	86.06
570.641	90.06
570.853	98.06
571.064	91.06
571.276	94.06
571.487	84.06
571.698	82.06
571.91	90.06
572.121	96.06
572.333	80.06
572.544	99.06
572.755	87.06
572.966	91.06
573.178	94.06
573.389	83.06
573.6	82.06
573.811	77.06
574.023	80.06
574.234	99.06
574.445	75.06
574.656	84.06
574.867	95.06
575.078	93.06
575.289	81.06
575.501	77.06
575.712	80.06
575.923	105.06
576.134	89.06
576.345	99.06
576.556	95.06
576.767	82.06
576.978	70.06
577.188	76.06
577.399	91.06
577.61	66.06
577.821	85.06
578.032	88.06
578.243	93.06
578.454	83.06
578.665	81.06
578.875	104.06
579.086	92.06
579.297	83.06
579.508	85.06
579.718	84.06
579.929	92.06
580.14	98.06
580.35	91.06
580.561	94.06
580.772	95.06
580.982	95.06
581.193	81.06
581.403	88.06
581.614	92.06
581.825	87.06
582.035	104.06
582.246	85.06
582.456	105.06
582.667	93.06
582.877	71.06
583.087	88.06
583.298	89.06
583.508	97.06
583.719	86.06
583.929	87.06
584.139	87.06
584.35	84.06
584.56	71.06
584.77	97.06
584.981	81.06
585.191	98.06
585.401	87.06
585.611	87.06
585.821	89.06
586.032	95.06
586.242	114.06
586.452	94.06
586.662	88.06
586.872	82.06
587.082	85.06
587.292	90.06
587.502	104.06
587.713	94.06
587.923	81.06
588.133	105.06
588.343	80.06
588.553	86.06
588.762	97.06
588.972	98.06
589.182	97.06
589.392	101.06
589.602	89.06
589.812	84.06
590.022	87.06
590.232	88.06
590.441	83.06
590.651	94.06
590.861	82.06
591.071	84.06
591.281	100.06
591.49	93.06
591.7	80.06
591.91	95.06
592.119	80.06
592.329	95.06
592.539	96.06
592.748	92.06
592.958	83.06
593.167	79.06
593.377	85.06
593.587	96.06
593.796	85.06
594.006	93.06
594.215	96.06
594.424	85.06
594.634	85.06
594.843	83.06
595.053	99.06
595.262	77.06
595.472	80.06
595.681	87.06
595.89	102.06
596.1	91.06
596.309	79.06
596.518	90.06
596.727	76.06
596.937	78.06
597.146	88.06
597.355	93.06
597.564	79.06
597.774	83.06
597.983	98.06
598.192	89.06
598.401	83.06
598.61	85.06
598.819	84.06
599.028	78.06
599.237	85.06
599.446	100.06
599.655	96.06
599.864	81.06
600.073	91.06
600.282	86.06
600.491	80.06
600.7	89.06
600.909	72.06
601.118	99.06
601.327	102.06
601.536	79.06
601.745	91.06
601.953	90.06
602.162	88.06
602.371	86.06
602.58	77.06
602.789	75.06
602.997	73.06
603.206	86.06
603.415	85.06
603.623	86.06
603.832	83.06
604.041	84.06
604.249	99.06
604.458	85.06
604.666	87.06
604.875	88.06
605.084	79.06
605.292	95.06
605.501	83.06
605.709	80.06
605.918	88.06
606.126	90.06
606.334	95.06
606.543	97.06
606.751	100.06
606.96	97.06
607.168	77.06
607.376	84.06
607.585	103.06
607.793	95.06
608.001	86.06
608.21	82.06
608.418	79.06
608.626	85.06
608.834	85.06
609.043	93.06
609.251	99.06
609.459	101.06
609.667	97.06
609.875	98.06
610.083	92.06
610.291	65.06
610.499	72.06
610.707	87.06
610.916	86.06
611.124	86.06
611.332	91.06
611.54	96.06
611.748	97.06
611.955	90.06
612.163	84.06
612.371	85.06
612.579	93.06
612.787	85.06
612.995	85.06
613.203	86.06
613.411	85.06
613.618	93.06
613.826	92.06
614.034	94.06
614.242	80.06
614.449	77.06
614.657	98.06
614.865	88.06
615.072	74.06
615.28	85.06
615.488	84.06
615.695	82.06
615.903	90.06
616.111	75.06
616.318	81.06
616.526	85.06
616.733	100.06
616.941	91.06
617.148	86.06
617.356	91.06
617.563	93.06
617.771	69.06
617.978	82.06
618.185	86.06
618.393	80.06
618.6	86.06
618.807	86.06
619.015	85.06
619.222	83.06
619.429	88.06
619.637	85.06
619.844	82.06
620.051	92.06
620.258	73.06
620.466	83.06
620.673	85.06
620.88	97.06
621.087	92.06
621.294	72.06
621.501	85.06
621.708	81.06
621.915	81.06
622.122	88.06
622.329	85.06
622.536	102.06
622.743	87.06
622.95	94.06
623.157	82.06
623.364	85.06
623.571	78.06
623.778	74.06
623.985	106.06
624.192	88.06
624.399	91.06
624.606	93.06
624.812	90.06
625.019	76.06
625.226	81.06
625.433	87.06
625.639	70.06
625.846	91.06
626.053	79.06
626.259	97.06
626.466	93.06
626.673	81.06
626.879	83.06
627.086	82.06
627.293	78.06
627.499	79.06
627.706	95.06
627.912	84.06
628.119	78.06
628.325	86.06
628.532	82.06
628.738	95.06
628.945	88.06
629.151	81.06
629.357	86.06
629.564	78.06
629.77	73.06
629.976	87.06
630.183	86.06
630.389	72.06
630.595	82.06
630.802	84.06
631.008	70.06
631.214	90.06
631.42	79.06
631.627	99.06
631.833	86.06
632.039	86.06
632.245	79.06
632.451	84.06
632.657	83.06
632.863	96.06
633.069	99.06
633.275	98.06
633.481	85.06
633.688	100.06
633.893	99.06
634.099	74.06
634.305	84.06
634.511	89.06
634.717	85.06
634.923	71.06
635.129	84.06
635.335	75.06
635.541	89.06
635.747	75.06
635.952	80.06
636.158	84.06
636.364	78.06
636.57	101.06
636.775	103.06
636.981	81.06
637.187	84.06
637.392	79.06
637.598	89.06
637.804	83.06
638.009	81.06
638.215	85.06
638.421	84.06
638.626	89.06
638.832	94.06
639.037	96.06
639.243	85.06
639.448	79.06
639.654	78.06
639.859	90.06
640.065	80.06
640.27	89.06
640.475	89.06
640.681	90.06
640.886	86.06
641.091	94.06
641.297	103.06
641.502	99.06
641.707	80.06
641.913	91.06
642.118	88.06
642.323	79.06
642.528	95.06
642.733	83.06
642.939	98.06
643.144	87.06
643.349	80.06
643.554	97.06
643.759	85.06
643.964	87.06
644.169	84.06
644.374	75.06
644.579	86.06
644.784	91.06
644.989	79.06
645.194	70.06
645.399	83.06
645.604	73.06
645.809	85.06
646.014	95.06
646.219	77.06
646.423	96.06
646.628	78.06
646.833	86.06
647.038	89.06
647.243	85.06
647.447	81.06
647.652	90.06
647.857	82.06
648.062	82.06
648.266	102.06
648.471	80.06
648.676	81.06
648.88	87.06
649.085	75.06
649.289	90.06
649.494	81.06
649.698	92.06
649.903	89.06
650.107	86.06
650.312	98.06
650.516	102.06
650.721	93.06
650.925	74.06
651.13	70.06
651.334	66.06
651.539	85.06
651.743	91.06
651.947	81.06
652.152	74.06
652.356	89.06
652.56	73.06
652.764	78.06
652.969	80.06
653.173	81.06
653.377	88.06
653.581	83.06
653.785	86.06
653.99	93.06
654.194	80.06
654.398	87.06
654.602	89.06
654.806	75.06
655.01	90.06
655.214	81.06
655.418	82.06
655.622	79.06
655.826	86.06
656.03	88.06
656.234	89.06
656.438	80.06
656.642	61.06
656.846	89.06
657.049	84.06
657.253	71.06
657.457	89.06
657.661	97.06
657.865	63.06
658.068	86.06
658.272	81.06
658.476	79.06
658.68	78.06
658.883	90.06
659.087	66.06
659.291	86.06
659.494	83.06
659.698	80.06
659.901	79.06
660.105	72.06
660.309	73.06
660.512	90.06
660.716	88.06
660.919	85.06
661.123	106.06
661.326	82.06
661.53	86.06
661.733	76.06
661.936	68.06
662.14	88.06
662.343	79.06
662.546	79.06
662.75	94.06
662.953	88.06
663.156	84.06
663.36	90.06
663.563	71.06
663.766	71.06
663.969	74.06
664.173	80.06
664.376	97.06
664.579	78.06
664.782	82.06
664.985	81.06
665.188	91.06
665.391	92.06
665.594	93.06
665.797	96.06
666	81.06
666.203	75.06
666.406	81.06
666.609	71.06
666.812	87.06
667.015	89.06
667.218	82.06
667.421	72.06
667.624	75.06
667.827	75.06
668.03	77.06
668.232	78.06
668.435	82.06
668.638	91.06
668.841	88.06
669.043	91.06
669.246	86.06
669.449	63.06
669.651	69.06
669.854	79.06
670.057	74.06
670.259	72.06
670.462	74.06
670.665	75.06
670.867	93.06
671.07	93.06
671.272	84.06
671.475	83.06
671.677	93.06
671.88	75.06
672.082	85.06
672.284	84.06
672.487	86.06
672.689	102.06
672.892	88.06
