Data from Location5.07152019.Energy5.Lamp.07192019.3%Agarose_HRD10591_16-05-14-629.txt Node
Date: Fri Jul 19 16:05:14 EDT 2019
User: cochatt
Spectrometer: HR+D1059
Trigger mode: 1
Integration Time (sec): 1.000000E-1
Scans to average: 1
Electric dark correction enabled: true
Nonlinearity correction enabled: false
Boxcar width: 0
XAxis mode: Wavelengths
Number of Pixels in Spectrum: 2048
>>>>>Begin Spectral Data<<<<<
223.165	-14.94
223.4	-14.94
223.635	-14.94
223.869	-22.94
224.104	-21.94
224.338	-14.94
224.573	-24.94
224.808	-25.94
225.042	3.06
225.277	-8.94
225.511	-4.94
225.746	1.06
225.98	6.06
226.215	18.06
226.449	27.06
226.683	38.06
226.918	22.06
227.152	24.06
227.387	21.06
227.621	33.06
227.856	37.06
228.09	35.06
228.324	57.06
228.559	55.06
228.793	46.06
229.027	62.06
229.262	63.06
229.496	63.06
229.73	63.06
229.964	67.06
230.199	47.06
230.433	67.06
230.667	57.06
230.901	73.06
231.136	88.06
231.37	68.06
231.604	79.06
231.838	81.06
232.072	84.06
232.306	74.06
232.541	73.06
232.775	86.06
233.009	93.06
233.243	78.06
233.477	64.06
233.711	93.06
233.945	73.06
234.179	73.06
234.413	78.06
234.647	70.06
234.881	77.06
235.115	80.06
235.349	95.06
235.583	75.06
235.817	86.06
236.051	64.06
236.285	65.06
236.519	79.06
236.753	82.06
236.987	78.06
237.221	96.06
237.455	74.06
237.689	83.06
237.922	61.06
238.156	65.06
238.39	80.06
238.624	86.06
238.858	72.06
239.091	86.06
239.325	72.06
239.559	85.06
239.793	91.06
240.027	72.06
240.26	73.06
240.494	78.06
240.728	65.06
240.961	66.06
241.195	83.06
241.429	73.06
241.662	68.06
241.896	69.06
242.13	88.06
242.363	88.06
242.597	75.06
242.83	74.06
243.064	88.06
243.298	80.06
243.531	75.06
243.765	77.06
243.998	63.06
244.232	77.06
244.465	71.06
244.699	72.06
244.932	74.06
245.166	63.06
245.399	72.06
245.633	73.06
245.866	77.06
246.099	71.06
246.333	74.06
246.566	83.06
246.8	83.06
247.033	86.06
247.266	85.06
247.5	73.06
247.733	63.06
247.966	81.06
248.2	80.06
248.433	75.06
248.666	73.06
248.899	73.06
249.133	67.06
249.366	74.06
249.599	74.06
249.832	70.06
250.066	86.06
250.299	69.06
250.532	71.06
250.765	76.06
250.998	74.06
251.231	74.06
251.465	78.06
251.698	78.06
251.931	69.06
252.164	73.06
252.397	81.06
252.63	97.06
252.863	69.06
253.096	79.06
253.329	83.06
253.562	91.06
253.795	89.06
254.028	96.06
254.261	73.06
254.494	73.06
254.727	77.06
254.96	77.06
255.193	89.06
255.426	75.06
255.659	70.06
255.892	78.06
256.124	73.06
256.357	75.06
256.59	81.06
256.823	91.06
257.056	85.06
257.289	78.06
257.521	72.06
257.754	78.06
257.987	84.06
258.22	93.06
258.452	79.06
258.685	79.06
258.918	80.06
259.151	90.06
259.383	81.06
259.616	98.06
259.849	85.06
260.081	88.06
260.314	74.06
260.547	85.06
260.779	76.06
261.012	90.06
261.244	90.06
261.477	98.06
261.71	93.06
261.942	84.06
262.175	76.06
262.407	81.06
262.64	83.06
262.872	68.06
263.105	84.06
263.337	75.06
263.57	73.06
263.802	80.06
264.035	99.06
264.267	73.06
264.499	84.06
264.732	91.06
264.964	92.06
265.197	77.06
265.429	74.06
265.661	78.06
265.894	71.06
266.126	96.06
266.358	87.06
266.591	78.06
266.823	86.06
267.055	74.06
267.287	78.06
267.52	76.06
267.752	80.06
267.984	86.06
268.216	80.06
268.448	93.06
268.681	82.06
268.913	75.06
269.145	80.06
269.377	82.06
269.609	84.06
269.841	87.06
270.073	98.06
270.306	80.06
270.538	72.06
270.77	80.06
271.002	83.06
271.234	83.06
271.466	81.06
271.698	78.06
271.93	85.06
272.162	81.06
272.394	78.06
272.626	99.06
272.858	79.06
273.09	70.06
273.322	86.06
273.553	88.06
273.785	85.06
274.017	83.06
274.249	68.06
274.481	84.06
274.713	80.06
274.945	80.06
275.176	75.06
275.408	86.06
275.64	73.06
275.872	81.06
276.104	85.06
276.335	87.06
276.567	74.06
276.799	80.06
277.031	96.06
277.262	85.06
277.494	95.06
277.726	102.06
277.957	77.06
278.189	90.06
278.421	100.06
278.652	93.06
278.884	86.06
279.115	83.06
279.347	84.06
279.579	87.06
279.81	88.06
280.042	74.06
280.273	85.06
280.505	103.06
280.736	97.06
280.968	76.06
281.199	97.06
281.431	94.06
281.662	74.06
281.894	93.06
282.125	87.06
282.356	77.06
282.588	90.06
282.819	80.06
283.051	83.06
283.282	81.06
283.513	96.06
283.745	79.06
283.976	93.06
284.207	111.06
284.439	89.06
284.67	86.06
284.901	91.06
285.132	89.06
285.364	91.06
285.595	80.06
285.826	77.06
286.057	95.06
286.288	94.06
286.52	83.06
286.751	77.06
286.982	84.06
287.213	80.06
287.444	85.06
287.675	75.06
287.906	80.06
288.138	84.06
288.369	83.06
288.6	101.06
288.831	93.06
289.062	85.06
289.293	89.06
289.524	76.06
289.755	82.06
289.986	86.06
290.217	88.06
290.448	85.06
290.679	80.06
290.91	96.06
291.141	90.06
291.371	104.06
291.602	77.06
291.833	95.06
292.064	87.06
292.295	81.06
292.526	94.06
292.757	82.06
292.987	81.06
293.218	86.06
293.449	94.06
293.68	83.06
293.91	84.06
294.141	88.06
294.372	71.06
294.603	79.06
294.833	72.06
295.064	99.06
295.295	87.06
295.525	93.06
295.756	90.06
295.987	96.06
296.217	88.06
296.448	75.06
296.679	94.06
296.909	93.06
297.14	103.06
297.37	94.06
297.601	87.06
297.831	87.06
298.062	75.06
298.292	84.06
298.523	88.06
298.753	82.06
298.984	78.06
299.214	76.06
299.445	81.06
299.675	92.06
299.905	106.06
300.136	97.06
300.366	75.06
300.597	84.06
300.827	99.06
301.057	101.06
301.288	88.06
301.518	98.06
301.748	75.06
301.979	98.06
302.209	80.06
302.439	89.06
302.669	86.06
302.9	97.06
303.13	80.06
303.36	83.06
303.59	84.06
303.82	90.06
304.051	85.06
304.281	86.06
304.511	93.06
304.741	84.06
304.971	80.06
305.201	86.06
305.431	90.06
305.661	99.06
305.891	96.06
306.121	80.06
306.352	79.06
306.582	81.06
306.812	77.06
307.042	93.06
307.272	78.06
307.502	93.06
307.731	85.06
307.961	84.06
308.191	81.06
308.421	91.06
308.651	81.06
308.881	98.06
309.111	99.06
309.341	79.06
309.571	81.06
309.8	103.06
310.03	103.06
310.26	93.06
310.49	74.06
310.72	87.06
310.949	88.06
311.179	89.06
311.409	108.06
311.639	77.06
311.868	106.06
312.098	84.06
312.328	87.06
312.557	88.06
312.787	75.06
313.017	88.06
313.246	107.06
313.476	82.06
313.706	81.06
313.935	92.06
314.165	79.06
314.394	90.06
314.624	97.06
314.853	106.06
315.083	82.06
315.312	84.06
315.542	87.06
315.771	97.06
316.001	93.06
316.23	99.06
316.46	91.06
316.689	86.06
316.919	91.06
317.148	95.06
317.377	84.06
317.607	88.06
317.836	93.06
318.065	79.06
318.295	91.06
318.524	83.06
318.753	82.06
318.983	91.06
319.212	95.06
319.441	89.06
319.67	100.06
319.9	83.06
320.129	94.06
320.358	99.06
320.587	96.06
320.816	73.06
321.046	83.06
321.275	110.06
321.504	95.06
321.733	85.06
321.962	93.06
322.191	99.06
322.42	81.06
322.649	96.06
322.878	88.06
323.108	86.06
323.337	89.06
323.566	86.06
323.795	84.06
324.024	96.06
324.253	92.06
324.482	105.06
324.71	75.06
324.939	99.06
325.168	95.06
325.397	85.06
325.626	88.06
325.855	93.06
326.084	89.06
326.313	93.06
326.542	96.06
326.77	85.06
326.999	87.06
327.228	89.06
327.457	73.06
327.686	77.06
327.914	75.06
328.143	90.06
328.372	78.06
328.6	75.06
328.829	78.06
329.058	84.06
329.287	95.06
329.515	91.06
329.744	81.06
329.972	94.06
330.201	93.06
330.43	90.06
330.658	79.06
330.887	79.06
331.115	93.06
331.344	83.06
331.572	96.06
331.801	88.06
332.03	103.06
332.258	109.06
332.486	82.06
332.715	99.06
332.943	94.06
333.172	96.06
333.4	90.06
333.629	83.06
333.857	99.06
334.085	97.06
334.314	94.06
334.542	101.06
334.771	115.06
334.999	83.06
335.227	94.06
335.455	93.06
335.684	90.06
335.912	97.06
336.14	99.06
336.369	81.06
336.597	89.06
336.825	97.06
337.053	90.06
337.281	84.06
337.51	96.06
337.738	77.06
337.966	95.06
338.194	76.06
338.422	95.06
338.65	96.06
338.878	91.06
339.106	84.06
339.334	89.06
339.562	87.06
339.79	77.06
340.018	88.06
340.246	80.06
340.474	94.06
340.702	87.06
340.93	97.06
341.158	93.06
341.386	91.06
341.614	90.06
341.842	80.06
342.07	102.06
342.298	76.06
342.526	103.06
342.754	90.06
342.981	87.06
343.209	101.06
343.437	101.06
343.665	79.06
343.893	80.06
344.12	93.06
344.348	95.06
344.576	80.06
344.804	82.06
345.031	80.06
345.259	94.06
345.487	85.06
345.714	88.06
345.942	91.06
346.17	89.06
346.397	91.06
346.625	87.06
346.853	97.06
347.08	77.06
347.308	94.06
347.535	79.06
347.763	86.06
347.99	89.06
348.218	89.06
348.445	90.06
348.673	98.06
348.9	101.06
349.128	98.06
349.355	94.06
349.583	95.06
349.81	106.06
350.037	77.06
350.265	79.06
350.492	99.06
350.72	88.06
350.947	97.06
351.174	94.06
351.402	91.06
351.629	90.06
351.856	89.06
352.083	96.06
352.311	93.06
352.538	89.06
352.765	82.06
352.992	102.06
353.22	90.06
353.447	75.06
353.674	93.06
353.901	78.06
354.128	90.06
354.355	100.06
354.583	89.06
354.81	105.06
355.037	102.06
355.264	100.06
355.491	77.06
355.718	87.06
355.945	96.06
356.172	79.06
356.399	89.06
356.626	99.06
356.853	94.06
357.08	92.06
357.307	92.06
357.534	83.06
357.761	89.06
357.988	86.06
358.215	77.06
358.441	88.06
358.668	101.06
358.895	74.06
359.122	82.06
359.349	87.06
359.576	84.06
359.802	85.06
360.029	79.06
360.256	87.06
360.483	93.06
360.709	98.06
360.936	91.06
361.163	89.06
361.39	87.06
361.616	95.06
361.843	83.06
362.07	77.06
362.296	91.06
362.523	81.06
362.749	82.06
362.976	87.06
363.203	85.06
363.429	84.06
363.656	87.06
363.882	85.06
364.109	106.06
364.335	99.06
364.562	92.06
364.788	92.06
365.015	98.06
365.241	87.06
365.468	93.06
365.694	87.06
365.92	81.06
366.147	80.06
366.373	80.06
366.599	88.06
366.826	71.06
367.052	82.06
367.278	84.06
367.505	98.06
367.731	93.06
367.957	79.06
368.184	95.06
368.41	92.06
368.636	102.06
368.862	81.06
369.089	90.06
369.315	81.06
369.541	79.06
369.767	88.06
369.993	81.06
370.219	87.06
370.445	92.06
370.672	95.06
370.898	84.06
371.124	96.06
371.35	98.06
371.576	80.06
371.802	80.06
372.028	100.06
372.254	87.06
372.48	94.06
372.706	101.06
372.932	73.06
373.158	100.06
373.384	86.06
373.61	61.06
373.835	89.06
374.061	73.06
374.287	90.06
374.513	84.06
374.739	82.06
374.965	81.06
375.191	88.06
375.416	91.06
375.642	92.06
375.868	87.06
376.094	105.06
376.319	95.06
376.545	72.06
376.771	84.06
376.997	90.06
377.222	82.06
377.448	82.06
377.674	79.06
377.899	104.06
378.125	67.06
378.35	90.06
378.576	82.06
378.802	75.06
379.027	94.06
379.253	83.06
379.478	81.06
379.704	78.06
379.929	93.06
380.155	85.06
380.38	78.06
380.606	88.06
380.831	88.06
381.057	83.06
381.282	91.06
381.507	89.06
381.733	89.06
381.958	100.06
382.184	88.06
382.409	88.06
382.634	69.06
382.86	98.06
383.085	91.06
383.31	73.06
383.535	97.06
383.761	77.06
383.986	84.06
384.211	74.06
384.436	91.06
384.662	83.06
384.887	77.06
385.112	78.06
385.337	87.06
385.562	87.06
385.787	94.06
386.013	100.06
386.238	101.06
386.463	86.06
386.688	89.06
386.913	81.06
387.138	80.06
387.363	83.06
387.588	89.06
387.813	85.06
388.038	96.06
388.263	102.06
388.488	89.06
388.713	83.06
388.938	94.06
389.163	79.06
389.387	102.06
389.612	99.06
389.837	88.06
390.062	102.06
390.287	86.06
390.512	86.06
390.736	78.06
390.961	83.06
391.186	83.06
391.411	88.06
391.636	86.06
391.86	90.06
392.085	105.06
392.31	83.06
392.534	85.06
392.759	95.06
392.984	89.06
393.208	90.06
393.433	89.06
393.658	79.06
393.882	84.06
394.107	72.06
394.331	88.06
394.556	102.06
394.78	100.06
395.005	86.06
395.229	80.06
395.454	88.06
395.678	85.06
395.903	84.06
396.127	98.06
396.352	88.06
396.576	84.06
396.801	86.06
397.025	95.06
397.249	94.06
397.474	98.06
397.698	90.06
397.922	80.06
398.147	94.06
398.371	93.06
398.595	85.06
398.82	96.06
399.044	94.06
399.268	80.06
399.492	96.06
399.717	95.06
399.941	81.06
400.165	84.06
400.389	94.06
400.613	87.06
400.837	94.06
401.062	75.06
401.286	94.06
401.51	89.06
401.734	85.06
401.958	89.06
402.182	103.06
402.406	95.06
402.63	102.06
402.854	102.06
403.078	100.06
403.302	87.06
403.526	80.06
403.75	81.06
403.974	101.06
404.198	102.06
404.422	106.06
404.645	75.06
404.869	93.06
405.093	86.06
405.317	86.06
405.541	84.06
405.765	106.06
405.988	90.06
406.212	114.06
406.436	91.06
406.66	99.06
406.883	80.06
407.107	86.06
407.331	94.06
407.555	105.06
407.778	102.06
408.002	100.06
408.226	93.06
408.449	106.06
408.673	95.06
408.896	89.06
409.12	105.06
409.344	97.06
409.567	89.06
409.791	98.06
410.014	80.06
410.238	100.06
410.461	85.06
410.685	114.06
410.908	97.06
411.132	105.06
411.355	92.06
411.578	99.06
411.802	91.06
412.025	105.06
412.249	104.06
412.472	91.06
412.695	86.06
412.919	87.06
413.142	94.06
413.365	88.06
413.589	79.06
413.812	96.06
414.035	95.06
414.258	85.06
414.482	99.06
414.705	97.06
414.928	105.06
415.151	104.06
415.374	88.06
415.597	82.06
415.821	86.06
416.044	90.06
416.267	93.06
416.49	103.06
416.713	98.06
416.936	93.06
417.159	105.06
417.382	95.06
417.605	91.06
417.828	88.06
418.051	94.06
418.274	96.06
418.497	91.06
418.72	95.06
418.943	93.06
419.166	110.06
419.389	89.06
419.611	96.06
419.834	98.06
420.057	100.06
420.28	90.06
420.503	98.06
420.726	81.06
420.948	80.06
421.171	90.06
421.394	98.06
421.617	96.06
421.839	92.06
422.062	93.06
422.285	96.06
422.507	92.06
422.73	87.06
422.953	100.06
423.175	93.06
423.398	89.06
423.621	109.06
423.843	104.06
424.066	89.06
424.288	79.06
424.511	86.06
424.733	111.06
424.956	90.06
425.178	75.06
425.401	80.06
425.623	83.06
425.846	92.06
426.068	94.06
426.291	80.06
426.513	92.06
426.735	97.06
426.958	95.06
427.18	94.06
427.402	91.06
427.625	92.06
427.847	77.06
428.069	94.06
428.292	92.06
428.514	95.06
428.736	87.06
428.958	73.06
429.181	81.06
429.403	91.06
429.625	97.06
429.847	93.06
430.069	106.06
430.292	93.06
430.514	84.06
430.736	85.06
430.958	98.06
431.18	91.06
431.402	92.06
431.624	86.06
431.846	90.06
432.068	84.06
432.29	95.06
432.512	105.06
432.734	89.06
432.956	89.06
433.178	101.06
433.4	90.06
433.622	86.06
433.844	90.06
434.066	93.06
434.287	86.06
434.509	99.06
434.731	80.06
434.953	82.06
435.175	82.06
435.397	84.06
435.618	102.06
435.84	91.06
436.062	82.06
436.284	84.06
436.505	92.06
436.727	89.06
436.949	90.06
437.17	94.06
437.392	82.06
437.614	85.06
437.835	95.06
438.057	85.06
438.278	88.06
438.5	81.06
438.721	82.06
438.943	94.06
439.165	94.06
439.386	83.06
439.608	91.06
439.829	79.06
440.05	83.06
440.272	88.06
440.493	93.06
440.715	93.06
440.936	90.06
441.158	94.06
441.379	90.06
441.6	85.06
441.822	86.06
442.043	78.06
442.264	88.06
442.486	97.06
442.707	91.06
442.928	89.06
443.149	87.06
443.371	89.06
443.592	95.06
443.813	95.06
444.034	89.06
444.255	84.06
444.476	96.06
444.698	97.06
444.919	95.06
445.14	228.06
445.361	159.06
445.582	113.06
445.803	97.06
446.024	95.06
446.245	86.06
446.466	97.06
446.687	96.06
446.908	93.06
447.129	96.06
447.35	104.06
447.571	89.06
447.792	101.06
448.013	83.06
448.234	83.06
448.455	81.06
448.675	74.06
448.896	74.06
449.117	78.06
449.338	93.06
449.559	80.06
449.779	93.06
450	89.06
450.221	91.06
450.442	96.06
450.662	86.06
450.883	83.06
451.104	86.06
451.324	88.06
451.545	104.06
451.766	104.06
451.986	97.06
452.207	92.06
452.428	79.06
452.648	89.06
452.869	87.06
453.089	93.06
453.31	98.06
453.53	82.06
453.751	83.06
453.971	85.06
454.192	86.06
454.412	98.06
454.633	80.06
454.853	91.06
455.073	86.06
455.294	79.06
455.514	89.06
455.734	83.06
455.955	99.06
456.175	87.06
456.395	87.06
456.616	92.06
456.836	100.06
457.056	81.06
457.276	90.06
457.497	90.06
457.717	89.06
457.937	86.06
458.157	83.06
458.377	78.06
458.598	79.06
458.818	93.06
459.038	93.06
459.258	99.06
459.478	100.06
459.698	81.06
459.918	95.06
460.138	91.06
460.358	100.06
460.578	104.06
460.798	89.06
461.018	93.06
461.238	98.06
461.458	95.06
461.678	92.06
461.898	88.06
462.118	111.06
462.338	99.06
462.558	84.06
462.777	101.06
462.997	88.06
463.217	113.06
463.437	95.06
463.657	119.06
463.876	83.06
464.096	98.06
464.316	101.06
464.536	102.06
464.755	87.06
464.975	95.06
465.195	99.06
465.414	95.06
465.634	91.06
465.854	97.06
466.073	91.06
466.293	89.06
466.512	107.06
466.732	98.06
466.951	84.06
467.171	90.06
467.391	89.06
467.61	95.06
467.829	83.06
468.049	104.06
468.268	95.06
468.488	99.06
468.707	85.06
468.927	93.06
469.146	102.06
469.365	95.06
469.585	91.06
469.804	106.06
470.023	89.06
470.243	92.06
470.462	102.06
470.681	84.06
470.901	106.06
471.12	96.06
471.339	88.06
471.558	82.06
471.777	104.06
471.997	93.06
472.216	106.06
472.435	87.06
472.654	85.06
472.873	90.06
473.092	83.06
473.311	90.06
473.53	109.06
473.749	89.06
473.968	90.06
474.187	88.06
474.406	86.06
474.625	99.06
474.844	109.06
475.063	109.06
475.282	98.06
475.501	89.06
475.72	95.06
475.939	95.06
476.158	101.06
476.377	96.06
476.596	96.06
476.814	92.06
477.033	96.06
477.252	100.06
477.471	86.06
477.69	84.06
477.908	90.06
478.127	100.06
478.346	111.06
478.564	79.06
478.783	93.06
479.002	101.06
479.22	99.06
479.439	99.06
479.658	105.06
479.876	102.06
480.095	88.06
480.313	100.06
480.532	112.06
480.751	108.06
480.969	96.06
481.188	101.06
481.406	109.06
481.624	85.06
481.843	96.06
482.061	98.06
482.28	89.06
482.498	102.06
482.717	91.06
482.935	109.06
483.153	99.06
483.372	106.06
483.59	109.06
483.808	77.06
484.027	97.06
484.245	102.06
484.463	98.06
484.681	98.06
484.9	98.06
485.118	96.06
485.336	107.06
485.554	107.06
485.772	102.06
485.99	92.06
486.209	89.06
486.427	101.06
486.645	98.06
486.863	107.06
487.081	91.06
487.299	98.06
487.517	100.06
487.735	82.06
487.953	102.06
488.171	109.06
488.389	109.06
488.607	103.06
488.825	101.06
489.043	101.06
489.261	101.06
489.479	99.06
489.696	99.06
489.914	105.06
490.132	90.06
490.35	98.06
490.568	90.06
490.786	117.06
491.003	103.06
491.221	98.06
491.439	106.06
491.657	103.06
491.874	110.06
492.092	109.06
492.31	117.06
492.527	114.06
492.745	107.06
492.963	116.06
493.18	111.06
493.398	99.06
493.615	105.06
493.833	101.06
494.05	103.06
494.268	105.06
494.485	109.06
494.703	113.06
494.92	109.06
495.138	107.06
495.355	112.06
495.573	95.06
495.79	110.06
496.008	91.06
496.225	117.06
496.442	107.06
496.66	102.06
496.877	90.06
497.094	111.06
497.312	107.06
497.529	117.06
497.746	109.06
497.963	112.06
498.181	113.06
498.398	97.06
498.615	109.06
498.832	107.06
499.049	119.06
499.267	122.06
499.484	103.06
499.701	121.06
499.918	125.06
500.135	135.06
500.352	151.06
500.569	149.06
500.786	154.06
501.003	150.06
501.22	129.06
501.437	135.06
501.654	108.06
501.871	109.06
502.088	122.06
502.305	111.06
502.522	109.06
502.739	110.06
502.956	100.06
503.172	101.06
503.389	103.06
503.606	112.06
503.823	109.06
504.04	104.06
504.256	103.06
504.473	112.06
504.69	109.06
504.907	111.06
505.123	112.06
505.34	117.06
505.557	104.06
505.773	105.06
505.99	102.06
506.207	103.06
506.423	100.06
506.64	98.06
506.856	97.06
507.073	106.06
507.289	106.06
507.506	101.06
507.722	90.06
507.939	106.06
508.155	102.06
508.372	101.06
508.588	113.06
508.805	101.06
509.021	102.06
509.238	91.06
509.454	87.06
509.67	89.06
509.887	91.06
510.103	93.06
510.319	92.06
510.536	98.06
510.752	94.06
510.968	106.06
511.184	101.06
511.401	103.06
511.617	95.06
511.833	88.06
512.049	107.06
512.265	96.06
512.481	89.06
512.698	105.06
512.914	101.06
513.13	93.06
513.346	93.06
513.562	105.06
513.778	100.06
513.994	89.06
514.21	90.06
514.426	94.06
514.642	102.06
514.858	88.06
515.074	88.06
515.29	106.06
515.506	88.06
515.721	80.06
515.937	110.06
516.153	103.06
516.369	96.06
516.585	100.06
516.801	100.06
517.016	97.06
517.232	112.06
517.448	107.06
517.664	104.06
517.879	109.06
518.095	100.06
518.311	116.06
518.527	120.06
518.742	98.06
518.958	105.06
519.173	102.06
519.389	97.06
519.605	93.06
519.82	96.06
520.036	84.06
520.251	99.06
520.467	111.06
520.682	105.06
520.898	90.06
521.113	96.06
521.329	94.06
521.544	90.06
521.76	99.06
521.975	98.06
522.19	94.06
522.406	91.06
522.621	95.06
522.836	91.06
523.052	98.06
523.267	97.06
523.482	100.06
523.698	106.06
523.913	93.06
524.128	106.06
524.343	99.06
524.559	104.06
524.774	93.06
524.989	98.06
525.204	99.06
525.419	95.06
525.634	104.06
525.849	97.06
526.064	102.06
526.28	91.06
526.495	94.06
526.71	98.06
526.925	97.06
527.14	92.06
527.355	93.06
527.57	101.06
527.785	98.06
527.999	103.06
528.214	102.06
528.429	90.06
528.644	85.06
528.859	87.06
529.074	97.06
529.289	111.06
529.503	109.06
529.718	111.06
529.933	91.06
530.148	101.06
530.363	100.06
530.577	87.06
530.792	109.06
531.007	90.06
531.221	102.06
531.436	84.06
531.651	100.06
531.865	91.06
532.08	99.06
532.295	102.06
532.509	89.06
532.724	72.06
532.938	78.06
533.153	96.06
533.367	104.06
533.582	77.06
533.796	89.06
534.011	88.06
534.225	97.06
534.44	103.06
534.654	89.06
534.868	80.06
535.083	96.06
535.297	94.06
535.511	110.06
535.726	105.06
535.94	99.06
536.154	97.06
536.369	101.06
536.583	90.06
536.797	109.06
537.011	91.06
537.225	95.06
537.44	108.06
537.654	106.06
537.868	96.06
538.082	97.06
538.296	92.06
538.51	84.06
538.724	94.06
538.938	98.06
539.153	91.06
539.367	98.06
539.581	109.06
539.795	88.06
540.009	91.06
540.222	94.06
540.436	86.06
540.65	99.06
540.864	90.06
541.078	77.06
541.292	89.06
541.506	96.06
541.72	107.06
541.934	119.06
542.147	93.06
542.361	110.06
542.575	93.06
542.789	100.06
543.002	88.06
543.216	83.06
543.43	96.06
543.644	104.06
543.857	99.06
544.071	99.06
544.285	112.06
544.498	109.06
544.712	94.06
544.925	107.06
545.139	115.06
545.352	89.06
545.566	97.06
545.779	104.06
545.993	97.06
546.206	89.06
546.42	97.06
546.633	96.06
546.847	91.06
547.06	91.06
547.274	99.06
547.487	109.06
547.7	101.06
547.914	106.06
548.127	107.06
548.34	121.06
548.554	98.06
548.767	105.06
548.98	104.06
549.193	104.06
549.407	101.06
549.62	95.06
549.833	99.06
550.046	110.06
550.259	97.06
550.473	90.06
550.686	95.06
550.899	96.06
551.112	99.06
551.325	113.06
551.538	96.06
551.751	93.06
551.964	86.06
552.177	89.06
552.39	101.06
552.603	104.06
552.816	93.06
553.029	105.06
553.242	109.06
553.455	103.06
553.667	114.06
553.88	95.06
554.093	96.06
554.306	90.06
554.519	92.06
554.732	97.06
554.944	106.06
555.157	109.06
555.37	109.06
555.583	107.06
555.795	92.06
556.008	97.06
556.221	102.06
556.433	93.06
556.646	102.06
556.859	97.06
557.071	91.06
557.284	81.06
557.496	85.06
557.709	79.06
557.921	92.06
558.134	102.06
558.346	98.06
558.559	100.06
558.771	103.06
558.984	89.06
559.196	100.06
559.409	90.06
559.621	80.06
559.833	92.06
560.046	81.06
560.258	81.06
560.47	95.06
560.683	89.06
560.895	92.06
561.107	100.06
561.32	94.06
561.532	113.06
561.744	103.06
561.956	107.06
562.168	91.06
562.381	86.06
562.593	104.06
562.805	90.06
563.017	102.06
563.229	89.06
563.441	91.06
563.653	100.06
563.865	84.06
564.077	90.06
564.289	89.06
564.501	97.06
564.713	89.06
564.925	94.06
565.137	91.06
565.349	96.06
565.561	106.06
565.773	99.06
565.985	102.06
566.197	97.06
566.408	95.06
566.62	96.06
566.832	88.06
567.044	101.06
567.255	106.06
567.467	95.06
567.679	111.06
567.891	105.06
568.102	98.06
568.314	91.06
568.526	93.06
568.737	90.06
568.949	97.06
569.161	95.06
569.372	91.06
569.584	100.06
569.795	92.06
570.007	93.06
570.218	83.06
570.43	89.06
570.641	94.06
570.853	95.06
571.064	79.06
571.276	90.06
571.487	94.06
571.698	98.06
571.91	92.06
572.121	93.06
572.333	99.06
572.544	102.06
572.755	82.06
572.966	74.06
573.178	84.06
573.389	90.06
573.6	87.06
573.811	91.06
574.023	94.06
574.234	81.06
574.445	90.06
574.656	83.06
574.867	89.06
575.078	93.06
575.289	99.06
575.501	91.06
575.712	92.06
575.923	96.06
576.134	91.06
576.345	96.06
576.556	89.06
576.767	93.06
576.978	83.06
577.188	90.06
577.399	84.06
577.61	86.06
577.821	95.06
578.032	81.06
578.243	97.06
578.454	93.06
578.665	90.06
578.875	84.06
579.086	71.06
579.297	75.06
579.508	73.06
579.718	91.06
579.929	81.06
580.14	86.06
580.35	85.06
580.561	99.06
580.772	79.06
580.982	76.06
581.193	101.06
581.403	77.06
581.614	80.06
581.825	79.06
582.035	73.06
582.246	97.06
582.456	88.06
582.667	91.06
582.877	87.06
583.087	97.06
583.298	90.06
583.508	81.06
583.719	90.06
583.929	82.06
584.139	97.06
584.35	81.06
584.56	91.06
584.77	82.06
584.981	91.06
585.191	86.06
585.401	86.06
585.611	103.06
585.821	93.06
586.032	79.06
586.242	89.06
586.452	80.06
586.662	82.06
586.872	92.06
587.082	98.06
587.292	85.06
587.502	98.06
587.713	83.06
587.923	86.06
588.133	97.06
588.343	95.06
588.553	81.06
588.762	90.06
588.972	91.06
589.182	83.06
589.392	78.06
589.602	82.06
589.812	82.06
590.022	82.06
590.232	94.06
590.441	81.06
590.651	97.06
590.861	97.06
591.071	80.06
591.281	88.06
591.49	98.06
591.7	78.06
591.91	83.06
592.119	87.06
592.329	84.06
592.539	92.06
592.748	86.06
592.958	89.06
593.167	78.06
593.377	99.06
593.587	105.06
593.796	97.06
594.006	100.06
594.215	86.06
594.424	74.06
594.634	83.06
594.843	95.06
595.053	109.06
595.262	102.06
595.472	98.06
595.681	88.06
595.89	91.06
596.1	89.06
596.309	90.06
596.518	101.06
596.727	81.06
596.937	88.06
597.146	89.06
597.355	85.06
597.564	83.06
597.774	87.06
597.983	87.06
598.192	87.06
598.401	84.06
598.61	101.06
598.819	81.06
599.028	84.06
599.237	94.06
599.446	75.06
599.655	94.06
599.864	83.06
600.073	87.06
600.282	96.06
600.491	69.06
600.7	81.06
600.909	77.06
601.118	90.06
601.327	87.06
601.536	83.06
601.745	91.06
601.953	95.06
602.162	86.06
602.371	89.06
602.58	99.06
602.789	96.06
602.997	100.06
603.206	79.06
603.415	77.06
603.623	90.06
603.832	85.06
604.041	93.06
604.249	91.06
604.458	83.06
604.666	79.06
604.875	85.06
605.084	81.06
605.292	75.06
605.501	90.06
605.709	85.06
605.918	87.06
606.126	87.06
606.334	78.06
606.543	85.06
606.751	84.06
606.96	81.06
607.168	89.06
607.376	89.06
607.585	97.06
607.793	92.06
608.001	76.06
608.21	84.06
608.418	91.06
608.626	78.06
608.834	101.06
609.043	86.06
609.251	81.06
609.459	93.06
609.667	89.06
609.875	86.06
610.083	69.06
610.291	76.06
610.499	98.06
610.707	87.06
610.916	74.06
611.124	95.06
611.332	83.06
611.54	84.06
611.748	81.06
611.955	75.06
612.163	78.06
612.371	88.06
612.579	84.06
612.787	100.06
612.995	96.06
613.203	76.06
613.411	83.06
613.618	95.06
613.826	89.06
614.034	89.06
614.242	88.06
614.449	86.06
614.657	85.06
614.865	83.06
615.072	85.06
615.28	93.06
615.488	78.06
615.695	93.06
615.903	98.06
616.111	80.06
616.318	78.06
616.526	74.06
616.733	88.06
616.941	90.06
617.148	82.06
617.356	77.06
617.563	87.06
617.771	88.06
617.978	87.06
618.185	90.06
618.393	83.06
618.6	85.06
618.807	79.06
619.015	93.06
619.222	80.06
619.429	87.06
619.637	82.06
619.844	75.06
620.051	87.06
620.258	100.06
620.466	82.06
620.673	88.06
620.88	80.06
621.087	87.06
621.294	84.06
621.501	81.06
621.708	96.06
621.915	101.06
622.122	89.06
622.329	79.06
622.536	87.06
622.743	81.06
622.95	100.06
623.157	73.06
623.364	87.06
623.571	93.06
623.778	101.06
623.985	86.06
624.192	93.06
624.399	79.06
624.606	87.06
624.812	88.06
625.019	91.06
625.226	82.06
625.433	82.06
625.639	82.06
625.846	87.06
626.053	75.06
626.259	71.06
626.466	99.06
626.673	102.06
626.879	81.06
627.086	99.06
627.293	95.06
627.499	76.06
627.706	83.06
627.912	82.06
628.119	90.06
628.325	95.06
628.532	78.06
628.738	70.06
628.945	76.06
629.151	68.06
629.357	76.06
629.564	83.06
629.77	87.06
629.976	90.06
630.183	88.06
630.389	88.06
630.595	89.06
630.802	82.06
631.008	91.06
631.214	86.06
631.42	93.06
631.627	77.06
631.833	79.06
632.039	78.06
632.245	71.06
632.451	84.06
632.657	83.06
632.863	88.06
633.069	87.06
633.275	93.06
633.481	72.06
633.688	81.06
633.893	84.06
634.099	81.06
634.305	94.06
634.511	90.06
634.717	91.06
634.923	83.06
635.129	89.06
635.335	81.06
635.541	91.06
635.747	69.06
635.952	87.06
636.158	102.06
636.364	85.06
636.57	79.06
636.775	82.06
636.981	88.06
637.187	64.06
637.392	84.06
637.598	87.06
637.804	86.06
638.009	89.06
638.215	88.06
638.421	96.06
638.626	81.06
638.832	83.06
639.037	90.06
639.243	80.06
639.448	82.06
639.654	80.06
639.859	75.06
640.065	84.06
640.27	95.06
640.475	89.06
640.681	68.06
640.886	90.06
641.091	82.06
641.297	75.06
641.502	102.06
641.707	87.06
641.913	80.06
642.118	90.06
642.323	70.06
642.528	84.06
642.733	70.06
642.939	84.06
643.144	80.06
643.349	62.06
643.554	88.06
643.759	78.06
643.964	68.06
644.169	101.06
644.374	86.06
644.579	85.06
644.784	75.06
644.989	80.06
645.194	83.06
645.399	83.06
645.604	87.06
645.809	82.06
646.014	83.06
646.219	90.06
646.423	81.06
646.628	73.06
646.833	72.06
647.038	82.06
647.243	95.06
647.447	84.06
647.652	90.06
647.857	74.06
648.062	79.06
648.266	100.06
648.471	90.06
648.676	69.06
648.88	82.06
649.085	94.06
649.289	70.06
649.494	74.06
649.698	86.06
649.903	85.06
650.107	82.06
650.312	79.06
650.516	79.06
650.721	76.06
650.925	77.06
651.13	85.06
651.334	81.06
651.539	84.06
651.743	81.06
651.947	80.06
652.152	83.06
652.356	91.06
652.56	74.06
652.764	72.06
652.969	66.06
653.173	91.06
653.377	93.06
653.581	79.06
653.785	71.06
653.99	87.06
654.194	71.06
654.398	79.06
654.602	77.06
654.806	82.06
655.01	93.06
655.214	87.06
655.418	84.06
655.622	82.06
655.826	86.06
656.03	75.06
656.234	84.06
656.438	86.06
656.642	88.06
656.846	82.06
657.049	81.06
657.253	100.06
657.457	87.06
657.661	83.06
657.865	79.06
658.068	81.06
658.272	77.06
658.476	73.06
658.68	79.06
658.883	83.06
659.087	68.06
659.291	69.06
659.494	79.06
659.698	79.06
659.901	90.06
660.105	80.06
660.309	81.06
660.512	79.06
660.716	77.06
660.919	75.06
661.123	78.06
661.326	92.06
661.53	70.06
661.733	74.06
661.936	74.06
662.14	81.06
662.343	90.06
662.546	73.06
662.75	77.06
662.953	75.06
663.156	92.06
663.36	79.06
663.563	85.06
663.766	81.06
663.969	94.06
664.173	84.06
664.376	96.06
664.579	86.06
664.782	73.06
664.985	72.06
665.188	72.06
665.391	70.06
665.594	68.06
665.797	86.06
666	96.06
666.203	73.06
666.406	73.06
666.609	65.06
666.812	83.06
667.015	72.06
667.218	85.06
667.421	89.06
667.624	89.06
667.827	97.06
668.03	95.06
668.232	82.06
668.435	78.06
668.638	79.06
668.841	77.06
669.043	81.06
669.246	72.06
669.449	70.06
669.651	87.06
669.854	80.06
670.057	80.06
670.259	65.06
670.462	80.06
670.665	75.06
670.867	74.06
671.07	85.06
671.272	58.06
671.475	82.06
671.677	94.06
671.88	77.06
672.082	86.06
672.284	80.06
672.487	87.06
672.689	78.06
672.892	57.06
