Data from Location5.07152019.Energy5.Lamp.07192019.3%Agarose_HRD10591_16-02-32-629.txt Node
Date: Fri Jul 19 16:02:32 EDT 2019
User: cochatt
Spectrometer: HR+D1059
Trigger mode: 1
Integration Time (sec): 1.000000E-1
Scans to average: 1
Electric dark correction enabled: true
Nonlinearity correction enabled: false
Boxcar width: 0
XAxis mode: Wavelengths
Number of Pixels in Spectrum: 2048
>>>>>Begin Spectral Data<<<<<
223.165	-3.94
223.4	-3.94
223.635	-3.94
223.869	-1.94
224.104	-13.94
224.338	-21.94
224.573	2.06
224.808	-18.94
225.042	-2.94
225.277	-22.94
225.511	4.06
225.746	6.06
225.98	2.06
226.215	15.06
226.449	9.06
226.683	10.06
226.918	11.06
227.152	27.06
227.387	16.06
227.621	43.06
227.856	46.06
228.09	38.06
228.324	39.06
228.559	53.06
228.793	58.06
229.027	67.06
229.262	67.06
229.496	59.06
229.73	58.06
229.964	60.06
230.199	60.06
230.433	67.06
230.667	75.06
230.901	75.06
231.136	73.06
231.37	87.06
231.604	81.06
231.838	72.06
232.072	80.06
232.306	80.06
232.541	81.06
232.775	71.06
233.009	69.06
233.243	89.06
233.477	82.06
233.711	94.06
233.945	81.06
234.179	79.06
234.413	85.06
234.647	80.06
234.881	70.06
235.115	82.06
235.349	74.06
235.583	83.06
235.817	78.06
236.051	80.06
236.285	89.06
236.519	72.06
236.753	75.06
236.987	68.06
237.221	70.06
237.455	82.06
237.689	70.06
237.922	73.06
238.156	72.06
238.39	74.06
238.624	66.06
238.858	76.06
239.091	82.06
239.325	75.06
239.559	69.06
239.793	75.06
240.027	63.06
240.26	80.06
240.494	73.06
240.728	71.06
240.961	77.06
241.195	71.06
241.429	66.06
241.662	67.06
241.896	76.06
242.13	69.06
242.363	84.06
242.597	84.06
242.83	88.06
243.064	63.06
243.298	76.06
243.531	68.06
243.765	82.06
243.998	81.06
244.232	80.06
244.465	92.06
244.699	75.06
244.932	69.06
245.166	86.06
245.399	86.06
245.633	86.06
245.866	83.06
246.099	78.06
246.333	71.06
246.566	82.06
246.8	78.06
247.033	73.06
247.266	88.06
247.5	75.06
247.733	69.06
247.966	85.06
248.2	82.06
248.433	67.06
248.666	70.06
248.899	78.06
249.133	70.06
249.366	77.06
249.599	93.06
249.832	79.06
250.066	78.06
250.299	80.06
250.532	70.06
250.765	74.06
250.998	73.06
251.231	75.06
251.465	82.06
251.698	74.06
251.931	92.06
252.164	83.06
252.397	82.06
252.63	88.06
252.863	80.06
253.096	86.06
253.329	78.06
253.562	77.06
253.795	76.06
254.028	71.06
254.261	65.06
254.494	91.06
254.727	86.06
254.96	86.06
255.193	78.06
255.426	85.06
255.659	88.06
255.892	72.06
256.124	73.06
256.357	85.06
256.59	68.06
256.823	79.06
257.056	90.06
257.289	70.06
257.521	71.06
257.754	78.06
257.987	79.06
258.22	65.06
258.452	79.06
258.685	87.06
258.918	85.06
259.151	87.06
259.383	79.06
259.616	75.06
259.849	92.06
260.081	80.06
260.314	77.06
260.547	82.06
260.779	59.06
261.012	70.06
261.244	72.06
261.477	85.06
261.71	72.06
261.942	86.06
262.175	95.06
262.407	85.06
262.64	74.06
262.872	75.06
263.105	79.06
263.337	91.06
263.57	89.06
263.802	102.06
264.035	75.06
264.267	93.06
264.499	104.06
264.732	76.06
264.964	79.06
265.197	91.06
265.429	84.06
265.661	93.06
265.894	75.06
266.126	80.06
266.358	87.06
266.591	86.06
266.823	81.06
267.055	69.06
267.287	86.06
267.52	73.06
267.752	104.06
267.984	87.06
268.216	89.06
268.448	87.06
268.681	79.06
268.913	76.06
269.145	83.06
269.377	89.06
269.609	78.06
269.841	89.06
270.073	94.06
270.306	79.06
270.538	88.06
270.77	91.06
271.002	72.06
271.234	71.06
271.466	86.06
271.698	96.06
271.93	88.06
272.162	83.06
272.394	82.06
272.626	81.06
272.858	80.06
273.09	85.06
273.322	87.06
273.553	85.06
273.785	74.06
274.017	80.06
274.249	73.06
274.481	88.06
274.713	101.06
274.945	71.06
275.176	95.06
275.408	84.06
275.64	87.06
275.872	86.06
276.104	74.06
276.335	92.06
276.567	89.06
276.799	71.06
277.031	87.06
277.262	81.06
277.494	98.06
277.726	91.06
277.957	79.06
278.189	78.06
278.421	75.06
278.652	81.06
278.884	97.06
279.115	89.06
279.347	79.06
279.579	95.06
279.81	85.06
280.042	84.06
280.273	91.06
280.505	83.06
280.736	100.06
280.968	90.06
281.199	91.06
281.431	82.06
281.662	88.06
281.894	96.06
282.125	74.06
282.356	93.06
282.588	89.06
282.819	92.06
283.051	83.06
283.282	81.06
283.513	81.06
283.745	86.06
283.976	84.06
284.207	102.06
284.439	83.06
284.67	96.06
284.901	78.06
285.132	88.06
285.364	95.06
285.595	87.06
285.826	92.06
286.057	84.06
286.288	85.06
286.52	83.06
286.751	99.06
286.982	85.06
287.213	72.06
287.444	96.06
287.675	95.06
287.906	94.06
288.138	98.06
288.369	83.06
288.6	84.06
288.831	95.06
289.062	113.06
289.293	94.06
289.524	91.06
289.755	91.06
289.986	96.06
290.217	70.06
290.448	91.06
290.679	103.06
290.91	97.06
291.141	90.06
291.371	88.06
291.602	84.06
291.833	106.06
292.064	103.06
292.295	86.06
292.526	94.06
292.757	71.06
292.987	88.06
293.218	84.06
293.449	80.06
293.68	83.06
293.91	85.06
294.141	85.06
294.372	86.06
294.603	95.06
294.833	77.06
295.064	78.06
295.295	83.06
295.525	81.06
295.756	83.06
295.987	97.06
296.217	105.06
296.448	98.06
296.679	84.06
296.909	94.06
297.14	97.06
297.37	92.06
297.601	79.06
297.831	92.06
298.062	95.06
298.292	83.06
298.523	73.06
298.753	76.06
298.984	91.06
299.214	84.06
299.445	78.06
299.675	89.06
299.905	86.06
300.136	80.06
300.366	91.06
300.597	96.06
300.827	71.06
301.057	87.06
301.288	81.06
301.518	97.06
301.748	81.06
301.979	90.06
302.209	90.06
302.439	93.06
302.669	93.06
302.9	98.06
303.13	93.06
303.36	94.06
303.59	98.06
303.82	108.06
304.051	87.06
304.281	97.06
304.511	99.06
304.741	84.06
304.971	91.06
305.201	103.06
305.431	72.06
305.661	85.06
305.891	92.06
306.121	95.06
306.352	86.06
306.582	80.06
306.812	96.06
307.042	89.06
307.272	80.06
307.502	97.06
307.731	89.06
307.961	100.06
308.191	80.06
308.421	90.06
308.651	89.06
308.881	88.06
309.111	74.06
309.341	87.06
309.571	88.06
309.8	111.06
310.03	88.06
310.26	87.06
310.49	101.06
310.72	95.06
310.949	99.06
311.179	87.06
311.409	82.06
311.639	97.06
311.868	91.06
312.098	85.06
312.328	87.06
312.557	99.06
312.787	102.06
313.017	89.06
313.246	86.06
313.476	90.06
313.706	84.06
313.935	102.06
314.165	94.06
314.394	102.06
314.624	100.06
314.853	82.06
315.083	84.06
315.312	99.06
315.542	91.06
315.771	105.06
316.001	94.06
316.23	82.06
316.46	104.06
316.689	101.06
316.919	89.06
317.148	93.06
317.377	95.06
317.607	103.06
317.836	71.06
318.065	84.06
318.295	96.06
318.524	89.06
318.753	94.06
318.983	77.06
319.212	81.06
319.441	87.06
319.67	81.06
319.9	92.06
320.129	85.06
320.358	88.06
320.587	96.06
320.816	99.06
321.046	107.06
321.275	86.06
321.504	88.06
321.733	85.06
321.962	99.06
322.191	80.06
322.42	97.06
322.649	99.06
322.878	80.06
323.108	102.06
323.337	97.06
323.566	94.06
323.795	109.06
324.024	92.06
324.253	72.06
324.482	80.06
324.71	83.06
324.939	87.06
325.168	101.06
325.397	100.06
325.626	104.06
325.855	87.06
326.084	87.06
326.313	86.06
326.542	84.06
326.77	101.06
326.999	83.06
327.228	86.06
327.457	99.06
327.686	94.06
327.914	98.06
328.143	98.06
328.372	115.06
328.6	90.06
328.829	97.06
329.058	98.06
329.287	95.06
329.515	99.06
329.744	76.06
329.972	82.06
330.201	71.06
330.43	92.06
330.658	97.06
330.887	97.06
331.115	98.06
331.344	99.06
331.572	92.06
331.801	103.06
332.03	96.06
332.258	89.06
332.486	91.06
332.715	87.06
332.943	96.06
333.172	96.06
333.4	98.06
333.629	77.06
333.857	98.06
334.085	98.06
334.314	88.06
334.542	99.06
334.771	90.06
334.999	93.06
335.227	84.06
335.455	98.06
335.684	83.06
335.912	97.06
336.14	94.06
336.369	88.06
336.597	85.06
336.825	98.06
337.053	103.06
337.281	102.06
337.51	101.06
337.738	88.06
337.966	96.06
338.194	100.06
338.422	96.06
338.65	93.06
338.878	84.06
339.106	95.06
339.334	103.06
339.562	82.06
339.79	97.06
340.018	102.06
340.246	83.06
340.474	94.06
340.702	101.06
340.93	87.06
341.158	103.06
341.386	102.06
341.614	97.06
341.842	79.06
342.07	89.06
342.298	90.06
342.526	101.06
342.754	101.06
342.981	94.06
343.209	91.06
343.437	89.06
343.665	88.06
343.893	95.06
344.12	97.06
344.348	95.06
344.576	87.06
344.804	79.06
345.031	87.06
345.259	95.06
345.487	87.06
345.714	101.06
345.942	104.06
346.17	87.06
346.397	80.06
346.625	94.06
346.853	82.06
347.08	95.06
347.308	92.06
347.535	94.06
347.763	81.06
347.99	94.06
348.218	96.06
348.445	97.06
348.673	98.06
348.9	82.06
349.128	99.06
349.355	78.06
349.583	108.06
349.81	87.06
350.037	100.06
350.265	97.06
350.492	113.06
350.72	86.06
350.947	102.06
351.174	98.06
351.402	88.06
351.629	94.06
351.856	83.06
352.083	95.06
352.311	92.06
352.538	82.06
352.765	84.06
352.992	100.06
353.22	88.06
353.447	103.06
353.674	92.06
353.901	95.06
354.128	87.06
354.355	108.06
354.583	91.06
354.81	93.06
355.037	114.06
355.264	103.06
355.491	88.06
355.718	103.06
355.945	86.06
356.172	93.06
356.399	87.06
356.626	92.06
356.853	84.06
357.08	81.06
357.307	98.06
357.534	79.06
357.761	102.06
357.988	89.06
358.215	101.06
358.441	94.06
358.668	97.06
358.895	92.06
359.122	89.06
359.349	96.06
359.576	84.06
359.802	86.06
360.029	95.06
360.256	95.06
360.483	87.06
360.709	89.06
360.936	97.06
361.163	94.06
361.39	101.06
361.616	93.06
361.843	96.06
362.07	86.06
362.296	91.06
362.523	101.06
362.749	97.06
362.976	84.06
363.203	91.06
363.429	89.06
363.656	81.06
363.882	88.06
364.109	89.06
364.335	95.06
364.562	103.06
364.788	94.06
365.015	76.06
365.241	88.06
365.468	105.06
365.694	88.06
365.92	100.06
366.147	101.06
366.373	91.06
366.599	93.06
366.826	92.06
367.052	87.06
367.278	120.06
367.505	96.06
367.731	86.06
367.957	92.06
368.184	96.06
368.41	105.06
368.636	92.06
368.862	100.06
369.089	99.06
369.315	100.06
369.541	84.06
369.767	88.06
369.993	97.06
370.219	91.06
370.445	103.06
370.672	86.06
370.898	104.06
371.124	97.06
371.35	85.06
371.576	97.06
371.802	88.06
372.028	83.06
372.254	87.06
372.48	91.06
372.706	91.06
372.932	95.06
373.158	103.06
373.384	93.06
373.61	85.06
373.835	95.06
374.061	76.06
374.287	90.06
374.513	93.06
374.739	107.06
374.965	96.06
375.191	89.06
375.416	94.06
375.642	105.06
375.868	113.06
376.094	80.06
376.319	107.06
376.545	91.06
376.771	87.06
376.997	80.06
377.222	95.06
377.448	101.06
377.674	107.06
377.899	95.06
378.125	92.06
378.35	89.06
378.576	80.06
378.802	87.06
379.027	96.06
379.253	95.06
379.478	83.06
379.704	100.06
379.929	97.06
380.155	99.06
380.38	84.06
380.606	78.06
380.831	103.06
381.057	104.06
381.282	102.06
381.507	97.06
381.733	96.06
381.958	94.06
382.184	97.06
382.409	102.06
382.634	101.06
382.86	96.06
383.085	96.06
383.31	98.06
383.535	95.06
383.761	110.06
383.986	89.06
384.211	91.06
384.436	87.06
384.662	102.06
384.887	102.06
385.112	89.06
385.337	93.06
385.562	94.06
385.787	89.06
386.013	82.06
386.238	96.06
386.463	99.06
386.688	96.06
386.913	98.06
387.138	91.06
387.363	92.06
387.588	91.06
387.813	83.06
388.038	96.06
388.263	90.06
388.488	92.06
388.713	102.06
388.938	99.06
389.163	92.06
389.387	76.06
389.612	87.06
389.837	89.06
390.062	85.06
390.287	100.06
390.512	87.06
390.736	85.06
390.961	103.06
391.186	94.06
391.411	97.06
391.636	102.06
391.86	88.06
392.085	108.06
392.31	100.06
392.534	99.06
392.759	93.06
392.984	98.06
393.208	89.06
393.433	112.06
393.658	107.06
393.882	98.06
394.107	87.06
394.331	93.06
394.556	93.06
394.78	98.06
395.005	102.06
395.229	103.06
395.454	111.06
395.678	90.06
395.903	98.06
396.127	92.06
396.352	94.06
396.576	76.06
396.801	104.06
397.025	103.06
397.249	102.06
397.474	98.06
397.698	98.06
397.922	100.06
398.147	112.06
398.371	114.06
398.595	105.06
398.82	92.06
399.044	76.06
399.268	85.06
399.492	123.06
399.717	108.06
399.941	102.06
400.165	102.06
400.389	96.06
400.613	98.06
400.837	104.06
401.062	105.06
401.286	80.06
401.51	104.06
401.734	91.06
401.958	104.06
402.182	102.06
402.406	91.06
402.63	98.06
402.854	96.06
403.078	105.06
403.302	93.06
403.526	107.06
403.75	104.06
403.974	91.06
404.198	97.06
404.422	103.06
404.645	98.06
404.869	90.06
405.093	100.06
405.317	98.06
405.541	108.06
405.765	93.06
405.988	112.06
406.212	102.06
406.436	92.06
406.66	108.06
406.883	84.06
407.107	101.06
407.331	105.06
407.555	103.06
407.778	102.06
408.002	114.06
408.226	101.06
408.449	96.06
408.673	94.06
408.896	95.06
409.12	100.06
409.344	100.06
409.567	99.06
409.791	89.06
410.014	92.06
410.238	111.06
410.461	106.06
410.685	87.06
410.908	104.06
411.132	111.06
411.355	105.06
411.578	95.06
411.802	107.06
412.025	101.06
412.249	104.06
412.472	93.06
412.695	99.06
412.919	89.06
413.142	96.06
413.365	103.06
413.589	96.06
413.812	114.06
414.035	81.06
414.258	93.06
414.482	99.06
414.705	81.06
414.928	99.06
415.151	95.06
415.374	97.06
415.597	92.06
415.821	102.06
416.044	95.06
416.267	92.06
416.49	83.06
416.713	103.06
416.936	87.06
417.159	104.06
417.382	82.06
417.605	97.06
417.828	102.06
418.051	92.06
418.274	99.06
418.497	94.06
418.72	97.06
418.943	108.06
419.166	105.06
419.389	116.06
419.611	95.06
419.834	96.06
420.057	94.06
420.28	98.06
420.503	101.06
420.726	94.06
420.948	101.06
421.171	94.06
421.394	105.06
421.617	103.06
421.839	97.06
422.062	96.06
422.285	99.06
422.507	92.06
422.73	94.06
422.953	89.06
423.175	91.06
423.398	105.06
423.621	103.06
423.843	95.06
424.066	91.06
424.288	98.06
424.511	116.06
424.733	115.06
424.956	101.06
425.178	92.06
425.401	104.06
425.623	95.06
425.846	99.06
426.068	103.06
426.291	104.06
426.513	113.06
426.735	90.06
426.958	105.06
427.18	90.06
427.402	101.06
427.625	86.06
427.847	117.06
428.069	108.06
428.292	88.06
428.514	101.06
428.736	101.06
428.958	97.06
429.181	86.06
429.403	90.06
429.625	101.06
429.847	99.06
430.069	92.06
430.292	97.06
430.514	90.06
430.736	87.06
430.958	100.06
431.18	95.06
431.402	87.06
431.624	101.06
431.846	102.06
432.068	86.06
432.29	73.06
432.512	97.06
432.734	96.06
432.956	88.06
433.178	95.06
433.4	91.06
433.622	107.06
433.844	87.06
434.066	90.06
434.287	103.06
434.509	89.06
434.731	85.06
434.953	112.06
435.175	96.06
435.397	107.06
435.618	95.06
435.84	78.06
436.062	89.06
436.284	95.06
436.505	107.06
436.727	87.06
436.949	86.06
437.17	92.06
437.392	94.06
437.614	94.06
437.835	91.06
438.057	88.06
438.278	81.06
438.5	95.06
438.721	99.06
438.943	94.06
439.165	104.06
439.386	86.06
439.608	98.06
439.829	104.06
440.05	100.06
440.272	109.06
440.493	96.06
440.715	86.06
440.936	104.06
441.158	104.06
441.379	93.06
441.6	108.06
441.822	108.06
442.043	100.06
442.264	94.06
442.486	86.06
442.707	99.06
442.928	98.06
443.149	96.06
443.371	81.06
443.592	83.06
443.813	80.06
444.034	102.06
444.255	103.06
444.476	89.06
444.698	84.06
444.919	106.06
445.14	228.06
445.361	156.06
445.582	104.06
445.803	90.06
446.024	92.06
446.245	87.06
446.466	90.06
446.687	87.06
446.908	83.06
447.129	100.06
447.35	100.06
447.571	84.06
447.792	86.06
448.013	92.06
448.234	82.06
448.455	85.06
448.675	94.06
448.896	87.06
449.117	84.06
449.338	98.06
449.559	101.06
449.779	106.06
450	79.06
450.221	99.06
450.442	84.06
450.662	83.06
450.883	81.06
451.104	95.06
451.324	91.06
451.545	92.06
451.766	113.06
451.986	98.06
452.207	77.06
452.428	76.06
452.648	114.06
452.869	81.06
453.089	91.06
453.31	96.06
453.53	85.06
453.751	91.06
453.971	89.06
454.192	86.06
454.412	105.06
454.633	102.06
454.853	96.06
455.073	97.06
455.294	97.06
455.514	83.06
455.734	89.06
455.955	94.06
456.175	98.06
456.395	97.06
456.616	88.06
456.836	106.06
457.056	82.06
457.276	79.06
457.497	99.06
457.717	91.06
457.937	93.06
458.157	96.06
458.377	98.06
458.598	104.06
458.818	86.06
459.038	79.06
459.258	100.06
459.478	91.06
459.698	101.06
459.918	99.06
460.138	106.06
460.358	99.06
460.578	83.06
460.798	105.06
461.018	112.06
461.238	108.06
461.458	101.06
461.678	92.06
461.898	95.06
462.118	106.06
462.338	90.06
462.558	90.06
462.777	97.06
462.997	99.06
463.217	108.06
463.437	101.06
463.657	95.06
463.876	90.06
464.096	90.06
464.316	98.06
464.536	96.06
464.755	89.06
464.975	97.06
465.195	104.06
465.414	100.06
465.634	91.06
465.854	104.06
466.073	93.06
466.293	90.06
466.512	98.06
466.732	87.06
466.951	93.06
467.171	100.06
467.391	90.06
467.61	89.06
467.829	108.06
468.049	88.06
468.268	107.06
468.488	88.06
468.707	90.06
468.927	94.06
469.146	85.06
469.365	104.06
469.585	98.06
469.804	104.06
470.023	83.06
470.243	89.06
470.462	110.06
470.681	101.06
470.901	96.06
471.12	102.06
471.339	86.06
471.558	107.06
471.777	84.06
471.997	101.06
472.216	100.06
472.435	91.06
472.654	92.06
472.873	102.06
473.092	96.06
473.311	97.06
473.53	91.06
473.749	86.06
473.968	96.06
474.187	89.06
474.406	80.06
474.625	94.06
474.844	99.06
475.063	94.06
475.282	85.06
475.501	96.06
475.72	103.06
475.939	85.06
476.158	82.06
476.377	92.06
476.596	91.06
476.814	99.06
477.033	87.06
477.252	96.06
477.471	79.06
477.69	99.06
477.908	110.06
478.127	99.06
478.346	97.06
478.564	104.06
478.783	90.06
479.002	102.06
479.22	102.06
479.439	94.06
479.658	103.06
479.876	90.06
480.095	102.06
480.313	91.06
480.532	95.06
480.751	118.06
480.969	100.06
481.188	94.06
481.406	100.06
481.624	97.06
481.843	98.06
482.061	93.06
482.28	102.06
482.498	91.06
482.717	88.06
482.935	75.06
483.153	118.06
483.372	114.06
483.59	105.06
483.808	85.06
484.027	95.06
484.245	101.06
484.463	107.06
484.681	116.06
484.9	103.06
485.118	112.06
485.336	106.06
485.554	108.06
485.772	92.06
485.99	109.06
486.209	103.06
486.427	90.06
486.645	97.06
486.863	103.06
487.081	91.06
487.299	110.06
487.517	110.06
487.735	105.06
487.953	121.06
488.171	112.06
488.389	113.06
488.607	123.06
488.825	107.06
489.043	101.06
489.261	111.06
489.479	96.06
489.696	106.06
489.914	99.06
490.132	100.06
490.35	105.06
490.568	112.06
490.786	106.06
491.003	106.06
491.221	107.06
491.439	117.06
491.657	116.06
491.874	115.06
492.092	113.06
492.31	124.06
492.527	106.06
492.745	130.06
492.963	101.06
493.18	102.06
493.398	116.06
493.615	94.06
493.833	114.06
494.05	122.06
494.268	108.06
494.485	118.06
494.703	111.06
494.92	120.06
495.138	98.06
495.355	113.06
495.573	113.06
495.79	103.06
496.008	114.06
496.225	89.06
496.442	110.06
496.66	115.06
496.877	108.06
497.094	112.06
497.312	105.06
497.529	128.06
497.746	110.06
497.963	102.06
498.181	110.06
498.398	104.06
498.615	128.06
498.832	111.06
499.049	119.06
499.267	127.06
499.484	132.06
499.701	137.06
499.918	145.06
500.135	141.06
500.352	160.06
500.569	170.06
500.786	163.06
501.003	145.06
501.22	136.06
501.437	148.06
501.654	135.06
501.871	122.06
502.088	121.06
502.305	116.06
502.522	119.06
502.739	126.06
502.956	117.06
503.172	111.06
503.389	123.06
503.606	104.06
503.823	116.06
504.04	119.06
504.256	110.06
504.473	101.06
504.69	124.06
504.907	113.06
505.123	105.06
505.34	103.06
505.557	110.06
505.773	104.06
505.99	112.06
506.207	103.06
506.423	95.06
506.64	119.06
506.856	107.06
507.073	122.06
507.289	110.06
507.506	108.06
507.722	97.06
507.939	102.06
508.155	105.06
508.372	113.06
508.588	97.06
508.805	95.06
509.021	91.06
509.238	96.06
509.454	91.06
509.67	91.06
509.887	97.06
510.103	85.06
510.319	102.06
510.536	97.06
510.752	116.06
510.968	109.06
511.184	90.06
511.401	95.06
511.617	97.06
511.833	100.06
512.049	104.06
512.265	110.06
512.481	105.06
512.698	110.06
512.914	101.06
513.13	101.06
513.346	94.06
513.562	98.06
513.778	94.06
513.994	112.06
514.21	88.06
514.426	91.06
514.642	103.06
514.858	107.06
515.074	87.06
515.29	100.06
515.506	106.06
515.721	108.06
515.937	98.06
516.153	82.06
516.369	102.06
516.585	102.06
516.801	92.06
517.016	111.06
517.232	110.06
517.448	99.06
517.664	114.06
517.879	114.06
518.095	103.06
518.311	106.06
518.527	102.06
518.742	102.06
518.958	106.06
519.173	101.06
519.389	99.06
519.605	103.06
519.82	101.06
520.036	101.06
520.251	82.06
520.467	102.06
520.682	98.06
520.898	101.06
521.113	91.06
521.329	99.06
521.544	107.06
521.76	109.06
521.975	97.06
522.19	103.06
522.406	98.06
522.621	99.06
522.836	91.06
523.052	110.06
523.267	111.06
523.482	111.06
523.698	107.06
523.913	106.06
524.128	101.06
524.343	106.06
524.559	113.06
524.774	105.06
524.989	99.06
525.204	104.06
525.419	103.06
525.634	98.06
525.849	98.06
526.064	91.06
526.28	96.06
526.495	107.06
526.71	101.06
526.925	92.06
527.14	102.06
527.355	96.06
527.57	119.06
527.785	94.06
527.999	89.06
528.214	111.06
528.429	95.06
528.644	95.06
528.859	101.06
529.074	103.06
529.289	95.06
529.503	103.06
529.718	104.06
529.933	99.06
530.148	113.06
530.363	94.06
530.577	94.06
530.792	98.06
531.007	102.06
531.221	96.06
531.436	96.06
531.651	101.06
531.865	107.06
532.08	96.06
532.295	108.06
532.509	100.06
532.724	95.06
532.938	103.06
533.153	120.06
533.367	93.06
533.582	118.06
533.796	98.06
534.011	104.06
534.225	112.06
534.44	100.06
534.654	94.06
534.868	101.06
535.083	79.06
535.297	98.06
535.511	106.06
535.726	102.06
535.94	98.06
536.154	103.06
536.369	106.06
536.583	106.06
536.797	92.06
537.011	97.06
537.225	83.06
537.44	101.06
537.654	94.06
537.868	102.06
538.082	84.06
538.296	79.06
538.51	105.06
538.724	92.06
538.938	112.06
539.153	109.06
539.367	100.06
539.581	89.06
539.795	90.06
540.009	115.06
540.222	99.06
540.436	100.06
540.65	95.06
540.864	102.06
541.078	90.06
541.292	102.06
541.506	101.06
541.72	102.06
541.934	115.06
542.147	112.06
542.361	98.06
542.575	96.06
542.789	98.06
543.002	97.06
543.216	103.06
543.43	94.06
543.644	104.06
543.857	102.06
544.071	110.06
544.285	94.06
544.498	99.06
544.712	103.06
544.925	103.06
545.139	93.06
545.352	92.06
545.566	107.06
545.779	100.06
545.993	99.06
546.206	110.06
546.42	102.06
546.633	111.06
546.847	105.06
547.06	103.06
547.274	104.06
547.487	93.06
547.7	93.06
547.914	97.06
548.127	99.06
548.34	95.06
548.554	94.06
548.767	114.06
548.98	94.06
549.193	104.06
549.407	103.06
549.62	108.06
549.833	93.06
550.046	105.06
550.259	95.06
550.473	101.06
550.686	113.06
550.899	108.06
551.112	112.06
551.325	98.06
551.538	103.06
551.751	107.06
551.964	95.06
552.177	103.06
552.39	102.06
552.603	117.06
552.816	107.06
553.029	93.06
553.242	117.06
553.455	119.06
553.667	107.06
553.88	110.06
554.093	82.06
554.306	86.06
554.519	105.06
554.732	96.06
554.944	98.06
555.157	107.06
555.37	98.06
555.583	89.06
555.795	97.06
556.008	105.06
556.221	95.06
556.433	94.06
556.646	83.06
556.859	112.06
557.071	91.06
557.284	107.06
557.496	108.06
557.709	100.06
557.921	105.06
558.134	106.06
558.346	105.06
558.559	88.06
558.771	91.06
558.984	91.06
559.196	100.06
559.409	96.06
559.621	90.06
559.833	103.06
560.046	101.06
560.258	87.06
560.47	87.06
560.683	91.06
560.895	94.06
561.107	84.06
561.32	93.06
561.532	99.06
561.744	97.06
561.956	116.06
562.168	98.06
562.381	103.06
562.593	88.06
562.805	87.06
563.017	90.06
563.229	100.06
563.441	104.06
563.653	90.06
563.865	107.06
564.077	94.06
564.289	109.06
564.501	108.06
564.713	95.06
564.925	98.06
565.137	93.06
565.349	94.06
565.561	105.06
565.773	94.06
565.985	88.06
566.197	104.06
566.408	110.06
566.62	106.06
566.832	104.06
567.044	96.06
567.255	111.06
567.467	101.06
567.679	114.06
567.891	110.06
568.102	111.06
568.314	107.06
568.526	113.06
568.737	91.06
568.949	99.06
569.161	106.06
569.372	102.06
569.584	107.06
569.795	99.06
570.007	88.06
570.218	86.06
570.43	101.06
570.641	95.06
570.853	100.06
571.064	100.06
571.276	94.06
571.487	95.06
571.698	103.06
571.91	98.06
572.121	96.06
572.333	97.06
572.544	99.06
572.755	103.06
572.966	84.06
573.178	94.06
573.389	98.06
573.6	88.06
573.811	92.06
574.023	100.06
574.234	96.06
574.445	94.06
574.656	100.06
574.867	89.06
575.078	101.06
575.289	85.06
575.501	94.06
575.712	90.06
575.923	94.06
576.134	72.06
576.345	70.06
576.556	92.06
576.767	87.06
576.978	102.06
577.188	91.06
577.399	100.06
577.61	92.06
577.821	98.06
578.032	101.06
578.243	87.06
578.454	89.06
578.665	98.06
578.875	88.06
579.086	101.06
579.297	100.06
579.508	98.06
579.718	89.06
579.929	96.06
580.14	100.06
580.35	97.06
580.561	99.06
580.772	97.06
580.982	86.06
581.193	82.06
581.403	88.06
581.614	84.06
581.825	94.06
582.035	97.06
582.246	81.06
582.456	89.06
582.667	88.06
582.877	91.06
583.087	84.06
583.298	83.06
583.508	96.06
583.719	85.06
583.929	99.06
584.139	70.06
584.35	86.06
584.56	87.06
584.77	90.06
584.981	92.06
585.191	89.06
585.401	95.06
585.611	102.06
585.821	86.06
586.032	72.06
586.242	91.06
586.452	97.06
586.662	95.06
586.872	99.06
587.082	77.06
587.292	94.06
587.502	87.06
587.713	91.06
587.923	91.06
588.133	87.06
588.343	86.06
588.553	90.06
588.762	98.06
588.972	91.06
589.182	99.06
589.392	91.06
589.602	95.06
589.812	100.06
590.022	105.06
590.232	84.06
590.441	98.06
590.651	80.06
590.861	91.06
591.071	76.06
591.281	83.06
591.49	99.06
591.7	74.06
591.91	90.06
592.119	85.06
592.329	90.06
592.539	99.06
592.748	107.06
592.958	97.06
593.167	87.06
593.377	92.06
593.587	96.06
593.796	88.06
594.006	83.06
594.215	92.06
594.424	87.06
594.634	94.06
594.843	89.06
595.053	91.06
595.262	98.06
595.472	90.06
595.681	80.06
595.89	92.06
596.1	97.06
596.309	90.06
596.518	94.06
596.727	82.06
596.937	95.06
597.146	103.06
597.355	93.06
597.564	92.06
597.774	88.06
597.983	78.06
598.192	99.06
598.401	85.06
598.61	97.06
598.819	100.06
599.028	73.06
599.237	88.06
599.446	84.06
599.655	109.06
599.864	100.06
600.073	88.06
600.282	95.06
600.491	83.06
600.7	89.06
600.909	95.06
601.118	95.06
601.327	87.06
601.536	75.06
601.745	82.06
601.953	96.06
602.162	83.06
602.371	84.06
602.58	94.06
602.789	100.06
602.997	102.06
603.206	86.06
603.415	81.06
603.623	86.06
603.832	88.06
604.041	90.06
604.249	94.06
604.458	87.06
604.666	89.06
604.875	86.06
605.084	96.06
605.292	92.06
605.501	93.06
605.709	102.06
605.918	98.06
606.126	85.06
606.334	66.06
606.543	84.06
606.751	96.06
606.96	93.06
607.168	100.06
607.376	99.06
607.585	87.06
607.793	89.06
608.001	98.06
608.21	90.06
608.418	94.06
608.626	77.06
608.834	89.06
609.043	88.06
609.251	82.06
609.459	71.06
609.667	97.06
609.875	92.06
610.083	78.06
610.291	90.06
610.499	104.06
610.707	98.06
610.916	87.06
611.124	82.06
611.332	94.06
611.54	95.06
611.748	84.06
611.955	91.06
612.163	95.06
612.371	93.06
612.579	81.06
612.787	90.06
612.995	81.06
613.203	79.06
613.411	67.06
613.618	81.06
613.826	75.06
614.034	87.06
614.242	79.06
614.449	85.06
614.657	86.06
614.865	79.06
615.072	96.06
615.28	90.06
615.488	90.06
615.695	96.06
615.903	74.06
616.111	87.06
616.318	98.06
616.526	92.06
616.733	94.06
616.941	90.06
617.148	93.06
617.356	74.06
617.563	84.06
617.771	112.06
617.978	75.06
618.185	99.06
618.393	84.06
618.6	82.06
618.807	85.06
619.015	79.06
619.222	80.06
619.429	101.06
619.637	99.06
619.844	87.06
620.051	94.06
620.258	103.06
620.466	94.06
620.673	75.06
620.88	86.06
621.087	78.06
621.294	75.06
621.501	92.06
621.708	94.06
621.915	83.06
622.122	99.06
622.329	80.06
622.536	95.06
622.743	85.06
622.95	82.06
623.157	90.06
623.364	80.06
623.571	90.06
623.778	92.06
623.985	103.06
624.192	88.06
624.399	102.06
624.606	96.06
624.812	86.06
625.019	96.06
625.226	90.06
625.433	87.06
625.639	98.06
625.846	85.06
626.053	84.06
626.259	89.06
626.466	77.06
626.673	83.06
626.879	96.06
627.086	82.06
627.293	90.06
627.499	90.06
627.706	88.06
627.912	87.06
628.119	86.06
628.325	98.06
628.532	93.06
628.738	70.06
628.945	67.06
629.151	97.06
629.357	81.06
629.564	92.06
629.77	91.06
629.976	79.06
630.183	83.06
630.389	86.06
630.595	70.06
630.802	93.06
631.008	91.06
631.214	90.06
631.42	83.06
631.627	91.06
631.833	91.06
632.039	98.06
632.245	89.06
632.451	99.06
632.657	80.06
632.863	85.06
633.069	81.06
633.275	90.06
633.481	89.06
633.688	95.06
633.893	73.06
634.099	64.06
634.305	84.06
634.511	71.06
634.717	94.06
634.923	90.06
635.129	83.06
635.335	82.06
635.541	83.06
635.747	84.06
635.952	88.06
636.158	98.06
636.364	91.06
636.57	83.06
636.775	81.06
636.981	86.06
637.187	81.06
637.392	95.06
637.598	89.06
637.804	83.06
638.009	87.06
638.215	85.06
638.421	82.06
638.626	84.06
638.832	97.06
639.037	80.06
639.243	74.06
639.448	86.06
639.654	96.06
639.859	92.06
640.065	75.06
640.27	96.06
640.475	84.06
640.681	76.06
640.886	91.06
641.091	85.06
641.297	90.06
641.502	90.06
641.707	79.06
641.913	94.06
642.118	82.06
642.323	92.06
642.528	90.06
642.733	101.06
642.939	78.06
643.144	78.06
643.349	89.06
643.554	88.06
643.759	106.06
643.964	81.06
644.169	83.06
644.374	67.06
644.579	83.06
644.784	80.06
644.989	92.06
645.194	89.06
645.399	88.06
645.604	88.06
645.809	79.06
646.014	78.06
646.219	90.06
646.423	100.06
646.628	91.06
646.833	82.06
647.038	91.06
647.243	80.06
647.447	70.06
647.652	99.06
647.857	96.06
648.062	86.06
648.266	78.06
648.471	89.06
648.676	90.06
648.88	80.06
649.085	91.06
649.289	77.06
649.494	76.06
649.698	86.06
649.903	93.06
650.107	93.06
650.312	90.06
650.516	89.06
650.721	86.06
650.925	93.06
651.13	70.06
651.334	71.06
651.539	76.06
651.743	91.06
651.947	87.06
652.152	83.06
652.356	85.06
652.56	86.06
652.764	87.06
652.969	76.06
653.173	80.06
653.377	85.06
653.581	83.06
653.785	89.06
653.99	92.06
654.194	91.06
654.398	91.06
654.602	83.06
654.806	96.06
655.01	98.06
655.214	86.06
655.418	74.06
655.622	76.06
655.826	78.06
656.03	91.06
656.234	84.06
656.438	90.06
656.642	75.06
656.846	88.06
657.049	79.06
657.253	75.06
657.457	79.06
657.661	88.06
657.865	69.06
658.068	86.06
658.272	86.06
658.476	95.06
658.68	87.06
658.883	86.06
659.087	83.06
659.291	74.06
659.494	85.06
659.698	88.06
659.901	81.06
660.105	95.06
660.309	70.06
660.512	86.06
660.716	71.06
660.919	77.06
661.123	79.06
661.326	80.06
661.53	71.06
661.733	74.06
661.936	77.06
662.14	89.06
662.343	74.06
662.546	74.06
662.75	108.06
662.953	90.06
663.156	85.06
663.36	91.06
663.563	81.06
663.766	83.06
663.969	91.06
664.173	97.06
664.376	91.06
664.579	77.06
664.782	92.06
664.985	69.06
665.188	77.06
665.391	69.06
665.594	90.06
665.797	82.06
666	89.06
666.203	81.06
666.406	76.06
666.609	80.06
666.812	82.06
667.015	87.06
667.218	76.06
667.421	91.06
667.624	73.06
667.827	63.06
668.03	75.06
668.232	87.06
668.435	90.06
668.638	83.06
668.841	99.06
669.043	94.06
669.246	83.06
669.449	75.06
669.651	71.06
669.854	80.06
670.057	83.06
670.259	85.06
670.462	74.06
670.665	78.06
670.867	83.06
671.07	78.06
671.272	77.06
671.475	83.06
671.677	74.06
671.88	82.06
672.082	80.06
672.284	83.06
672.487	87.06
672.689	80.06
672.892	82.06
