Data from Location5.07152019.Energy5.Lamp.07192019.3%Agarose_HRD10591_15-39-26-389.txt Node
Date: Fri Jul 19 15:39:26 EDT 2019
User: cochatt
Spectrometer: HR+D1059
Trigger mode: 1
Integration Time (sec): 1.000000E-1
Scans to average: 1
Electric dark correction enabled: true
Nonlinearity correction enabled: false
Boxcar width: 0
XAxis mode: Wavelengths
Number of Pixels in Spectrum: 2048
>>>>>Begin Spectral Data<<<<<
223.165	-20.62
223.4	-20.62
223.635	-20.62
223.869	-15.62
224.104	-17.62
224.338	-2.62
224.573	-12.62
224.808	-25.62
225.042	-7.62
225.277	-14.62
225.511	13.38
225.746	-1.62
225.98	3.38
226.215	15.38
226.449	18.38
226.683	16.38
226.918	17.38
227.152	34.38
227.387	32.38
227.621	34.38
227.856	46.38
228.09	37.38
228.324	53.38
228.559	48.38
228.793	57.38
229.027	48.38
229.262	77.38
229.496	53.38
229.73	67.38
229.964	69.38
230.199	67.38
230.433	74.38
230.667	82.38
230.901	66.38
231.136	67.38
231.37	75.38
231.604	75.38
231.838	80.38
232.072	82.38
232.306	81.38
232.541	84.38
232.775	61.38
233.009	77.38
233.243	72.38
233.477	98.38
233.711	87.38
233.945	88.38
234.179	81.38
234.413	75.38
234.647	86.38
234.881	74.38
235.115	74.38
235.349	69.38
235.583	68.38
235.817	84.38
236.051	71.38
236.285	80.38
236.519	74.38
236.753	86.38
236.987	85.38
237.221	76.38
237.455	69.38
237.689	64.38
237.922	70.38
238.156	73.38
238.39	85.38
238.624	70.38
238.858	69.38
239.091	69.38
239.325	72.38
239.559	87.38
239.793	78.38
240.027	79.38
240.26	65.38
240.494	79.38
240.728	76.38
240.961	78.38
241.195	75.38
241.429	74.38
241.662	78.38
241.896	78.38
242.13	78.38
242.363	68.38
242.597	66.38
242.83	79.38
243.064	62.38
243.298	81.38
243.531	77.38
243.765	73.38
243.998	68.38
244.232	65.38
244.465	76.38
244.699	81.38
244.932	81.38
245.166	77.38
245.399	82.38
245.633	64.38
245.866	72.38
246.099	79.38
246.333	91.38
246.566	78.38
246.8	68.38
247.033	85.38
247.266	62.38
247.5	72.38
247.733	73.38
247.966	85.38
248.2	86.38
248.433	75.38
248.666	68.38
248.899	70.38
249.133	75.38
249.366	71.38
249.599	73.38
249.832	80.38
250.066	75.38
250.299	73.38
250.532	86.38
250.765	79.38
250.998	84.38
251.231	84.38
251.465	73.38
251.698	62.38
251.931	82.38
252.164	77.38
252.397	70.38
252.63	91.38
252.863	86.38
253.096	74.38
253.329	74.38
253.562	82.38
253.795	76.38
254.028	80.38
254.261	80.38
254.494	73.38
254.727	83.38
254.96	72.38
255.193	64.38
255.426	76.38
255.659	83.38
255.892	78.38
256.124	77.38
256.357	83.38
256.59	78.38
256.823	76.38
257.056	76.38
257.289	78.38
257.521	81.38
257.754	77.38
257.987	85.38
258.22	96.38
258.452	80.38
258.685	87.38
258.918	84.38
259.151	96.38
259.383	77.38
259.616	77.38
259.849	90.38
260.081	78.38
260.314	83.38
260.547	72.38
260.779	87.38
261.012	81.38
261.244	93.38
261.477	90.38
261.71	77.38
261.942	78.38
262.175	90.38
262.407	71.38
262.64	90.38
262.872	82.38
263.105	78.38
263.337	73.38
263.57	72.38
263.802	82.38
264.035	84.38
264.267	75.38
264.499	82.38
264.732	71.38
264.964	78.38
265.197	85.38
265.429	71.38
265.661	95.38
265.894	87.38
266.126	104.38
266.358	66.38
266.591	76.38
266.823	69.38
267.055	66.38
267.287	87.38
267.52	78.38
267.752	72.38
267.984	87.38
268.216	59.38
268.448	71.38
268.681	84.38
268.913	80.38
269.145	85.38
269.377	82.38
269.609	80.38
269.841	77.38
270.073	77.38
270.306	78.38
270.538	81.38
270.77	79.38
271.002	82.38
271.234	74.38
271.466	81.38
271.698	69.38
271.93	68.38
272.162	94.38
272.394	81.38
272.626	77.38
272.858	77.38
273.09	86.38
273.322	93.38
273.553	78.38
273.785	85.38
274.017	68.38
274.249	81.38
274.481	86.38
274.713	84.38
274.945	71.38
275.176	87.38
275.408	80.38
275.64	94.38
275.872	82.38
276.104	84.38
276.335	79.38
276.567	56.38
276.799	74.38
277.031	77.38
277.262	72.38
277.494	91.38
277.726	75.38
277.957	80.38
278.189	88.38
278.421	80.38
278.652	97.38
278.884	69.38
279.115	81.38
279.347	96.38
279.579	85.38
279.81	81.38
280.042	78.38
280.273	83.38
280.505	80.38
280.736	86.38
280.968	74.38
281.199	81.38
281.431	75.38
281.662	71.38
281.894	93.38
282.125	74.38
282.356	78.38
282.588	74.38
282.819	89.38
283.051	69.38
283.282	76.38
283.513	83.38
283.745	83.38
283.976	86.38
284.207	88.38
284.439	77.38
284.67	83.38
284.901	79.38
285.132	82.38
285.364	77.38
285.595	76.38
285.826	89.38
286.057	89.38
286.288	87.38
286.52	84.38
286.751	79.38
286.982	75.38
287.213	73.38
287.444	86.38
287.675	79.38
287.906	93.38
288.138	82.38
288.369	78.38
288.6	78.38
288.831	93.38
289.062	80.38
289.293	88.38
289.524	84.38
289.755	95.38
289.986	74.38
290.217	88.38
290.448	81.38
290.679	77.38
290.91	80.38
291.141	78.38
291.371	81.38
291.602	84.38
291.833	77.38
292.064	86.38
292.295	76.38
292.526	81.38
292.757	90.38
292.987	85.38
293.218	74.38
293.449	84.38
293.68	82.38
293.91	80.38
294.141	85.38
294.372	85.38
294.603	80.38
294.833	77.38
295.064	89.38
295.295	97.38
295.525	80.38
295.756	84.38
295.987	83.38
296.217	74.38
296.448	86.38
296.679	93.38
296.909	91.38
297.14	85.38
297.37	67.38
297.601	84.38
297.831	91.38
298.062	75.38
298.292	80.38
298.523	86.38
298.753	86.38
298.984	91.38
299.214	91.38
299.445	80.38
299.675	83.38
299.905	91.38
300.136	74.38
300.366	80.38
300.597	87.38
300.827	84.38
301.057	65.38
301.288	73.38
301.518	74.38
301.748	88.38
301.979	76.38
302.209	88.38
302.439	78.38
302.669	82.38
302.9	85.38
303.13	86.38
303.36	81.38
303.59	78.38
303.82	77.38
304.051	84.38
304.281	97.38
304.511	84.38
304.741	76.38
304.971	94.38
305.201	86.38
305.431	78.38
305.661	80.38
305.891	76.38
306.121	76.38
306.352	79.38
306.582	81.38
306.812	78.38
307.042	71.38
307.272	84.38
307.502	85.38
307.731	98.38
307.961	90.38
308.191	62.38
308.421	71.38
308.651	80.38
308.881	86.38
309.111	81.38
309.341	83.38
309.571	86.38
309.8	98.38
310.03	93.38
310.26	85.38
310.49	82.38
310.72	80.38
310.949	70.38
311.179	72.38
311.409	70.38
311.639	73.38
311.868	71.38
312.098	79.38
312.328	69.38
312.557	84.38
312.787	85.38
313.017	86.38
313.246	76.38
313.476	65.38
313.706	83.38
313.935	68.38
314.165	77.38
314.394	93.38
314.624	73.38
314.853	84.38
315.083	78.38
315.312	79.38
315.542	73.38
315.771	83.38
316.001	80.38
316.23	77.38
316.46	83.38
316.689	97.38
316.919	73.38
317.148	89.38
317.377	75.38
317.607	72.38
317.836	78.38
318.065	88.38
318.295	86.38
318.524	88.38
318.753	87.38
318.983	84.38
319.212	89.38
319.441	78.38
319.67	86.38
319.9	82.38
320.129	85.38
320.358	78.38
320.587	78.38
320.816	88.38
321.046	86.38
321.275	86.38
321.504	86.38
321.733	74.38
321.962	70.38
322.191	97.38
322.42	79.38
322.649	71.38
322.878	80.38
323.108	83.38
323.337	77.38
323.566	79.38
323.795	84.38
324.024	73.38
324.253	81.38
324.482	76.38
324.71	95.38
324.939	90.38
325.168	87.38
325.397	70.38
325.626	82.38
325.855	104.38
326.084	73.38
326.313	82.38
326.542	74.38
326.77	85.38
326.999	77.38
327.228	84.38
327.457	79.38
327.686	86.38
327.914	80.38
328.143	93.38
328.372	73.38
328.6	77.38
328.829	93.38
329.058	98.38
329.287	85.38
329.515	95.38
329.744	79.38
329.972	86.38
330.201	92.38
330.43	89.38
330.658	85.38
330.887	80.38
331.115	89.38
331.344	79.38
331.572	80.38
331.801	78.38
332.03	68.38
332.258	81.38
332.486	80.38
332.715	74.38
332.943	81.38
333.172	72.38
333.4	68.38
333.629	93.38
333.857	82.38
334.085	90.38
334.314	63.38
334.542	88.38
334.771	77.38
334.999	80.38
335.227	72.38
335.455	81.38
335.684	98.38
335.912	85.38
336.14	70.38
336.369	73.38
336.597	81.38
336.825	82.38
337.053	93.38
337.281	81.38
337.51	73.38
337.738	76.38
337.966	86.38
338.194	73.38
338.422	72.38
338.65	91.38
338.878	87.38
339.106	78.38
339.334	99.38
339.562	75.38
339.79	80.38
340.018	74.38
340.246	84.38
340.474	77.38
340.702	94.38
340.93	88.38
341.158	77.38
341.386	80.38
341.614	78.38
341.842	67.38
342.07	89.38
342.298	68.38
342.526	76.38
342.754	79.38
342.981	84.38
343.209	86.38
343.437	83.38
343.665	77.38
343.893	83.38
344.12	80.38
344.348	82.38
344.576	82.38
344.804	77.38
345.031	86.38
345.259	71.38
345.487	80.38
345.714	76.38
345.942	71.38
346.17	87.38
346.397	75.38
346.625	92.38
346.853	87.38
347.08	82.38
347.308	81.38
347.535	88.38
347.763	85.38
347.99	91.38
348.218	86.38
348.445	81.38
348.673	85.38
348.9	85.38
349.128	88.38
349.355	88.38
349.583	77.38
349.81	69.38
350.037	69.38
350.265	86.38
350.492	83.38
350.72	94.38
350.947	83.38
351.174	75.38
351.402	76.38
351.629	80.38
351.856	82.38
352.083	84.38
352.311	84.38
352.538	88.38
352.765	79.38
352.992	83.38
353.22	73.38
353.447	88.38
353.674	88.38
353.901	87.38
354.128	86.38
354.355	83.38
354.583	81.38
354.81	70.38
355.037	93.38
355.264	78.38
355.491	87.38
355.718	76.38
355.945	74.38
356.172	76.38
356.399	88.38
356.626	70.38
356.853	76.38
357.08	89.38
357.307	95.38
357.534	82.38
357.761	87.38
357.988	73.38
358.215	78.38
358.441	89.38
358.668	76.38
358.895	82.38
359.122	84.38
359.349	79.38
359.576	88.38
359.802	80.38
360.029	80.38
360.256	92.38
360.483	78.38
360.709	85.38
360.936	80.38
361.163	88.38
361.39	71.38
361.616	79.38
361.843	76.38
362.07	72.38
362.296	85.38
362.523	92.38
362.749	78.38
362.976	79.38
363.203	86.38
363.429	78.38
363.656	78.38
363.882	78.38
364.109	77.38
364.335	75.38
364.562	78.38
364.788	88.38
365.015	93.38
365.241	90.38
365.468	91.38
365.694	68.38
365.92	75.38
366.147	82.38
366.373	86.38
366.599	97.38
366.826	86.38
367.052	69.38
367.278	87.38
367.505	77.38
367.731	86.38
367.957	86.38
368.184	83.38
368.41	80.38
368.636	82.38
368.862	80.38
369.089	74.38
369.315	84.38
369.541	80.38
369.767	75.38
369.993	71.38
370.219	81.38
370.445	77.38
370.672	92.38
370.898	79.38
371.124	82.38
371.35	83.38
371.576	84.38
371.802	85.38
372.028	82.38
372.254	79.38
372.48	92.38
372.706	91.38
372.932	94.38
373.158	95.38
373.384	80.38
373.61	74.38
373.835	77.38
374.061	72.38
374.287	81.38
374.513	86.38
374.739	80.38
374.965	77.38
375.191	86.38
375.416	103.38
375.642	84.38
375.868	83.38
376.094	79.38
376.319	81.38
376.545	90.38
376.771	69.38
376.997	78.38
377.222	87.38
377.448	89.38
377.674	94.38
377.899	77.38
378.125	83.38
378.35	85.38
378.576	86.38
378.802	83.38
379.027	81.38
379.253	86.38
379.478	88.38
379.704	103.38
379.929	72.38
380.155	73.38
380.38	84.38
380.606	101.38
380.831	71.38
381.057	87.38
381.282	87.38
381.507	91.38
381.733	87.38
381.958	95.38
382.184	89.38
382.409	77.38
382.634	68.38
382.86	73.38
383.085	79.38
383.31	78.38
383.535	90.38
383.761	74.38
383.986	88.38
384.211	94.38
384.436	82.38
384.662	87.38
384.887	85.38
385.112	86.38
385.337	82.38
385.562	94.38
385.787	80.38
386.013	99.38
386.238	62.38
386.463	77.38
386.688	96.38
386.913	80.38
387.138	75.38
387.363	90.38
387.588	84.38
387.813	73.38
388.038	87.38
388.263	81.38
388.488	83.38
388.713	95.38
388.938	79.38
389.163	74.38
389.387	76.38
389.612	81.38
389.837	68.38
390.062	74.38
390.287	88.38
390.512	77.38
390.736	70.38
390.961	94.38
391.186	97.38
391.411	81.38
391.636	64.38
391.86	85.38
392.085	76.38
392.31	93.38
392.534	89.38
392.759	95.38
392.984	79.38
393.208	79.38
393.433	74.38
393.658	82.38
393.882	83.38
394.107	88.38
394.331	78.38
394.556	81.38
394.78	80.38
395.005	91.38
395.229	86.38
395.454	82.38
395.678	82.38
395.903	82.38
396.127	82.38
396.352	86.38
396.576	72.38
396.801	94.38
397.025	85.38
397.249	93.38
397.474	91.38
397.698	83.38
397.922	87.38
398.147	80.38
398.371	94.38
398.595	89.38
398.82	79.38
399.044	86.38
399.268	79.38
399.492	85.38
399.717	79.38
399.941	85.38
400.165	69.38
400.389	89.38
400.613	81.38
400.837	82.38
401.062	85.38
401.286	83.38
401.51	93.38
401.734	87.38
401.958	74.38
402.182	100.38
402.406	92.38
402.63	85.38
402.854	89.38
403.078	97.38
403.302	75.38
403.526	88.38
403.75	89.38
403.974	90.38
404.198	86.38
404.422	84.38
404.645	80.38
404.869	100.38
405.093	80.38
405.317	79.38
405.541	90.38
405.765	93.38
405.988	103.38
406.212	86.38
406.436	92.38
406.66	92.38
406.883	89.38
407.107	84.38
407.331	77.38
407.555	83.38
407.778	92.38
408.002	105.38
408.226	93.38
408.449	80.38
408.673	86.38
408.896	98.38
409.12	92.38
409.344	72.38
409.567	89.38
409.791	78.38
410.014	89.38
410.238	101.38
410.461	84.38
410.685	90.38
410.908	93.38
411.132	91.38
411.355	82.38
411.578	90.38
411.802	86.38
412.025	103.38
412.249	87.38
412.472	95.38
412.695	82.38
412.919	79.38
413.142	95.38
413.365	92.38
413.589	97.38
413.812	94.38
414.035	96.38
414.258	92.38
414.482	92.38
414.705	93.38
414.928	103.38
415.151	91.38
415.374	88.38
415.597	88.38
415.821	101.38
416.044	80.38
416.267	84.38
416.49	89.38
416.713	103.38
416.936	83.38
417.159	91.38
417.382	83.38
417.605	93.38
417.828	86.38
418.051	92.38
418.274	80.38
418.497	95.38
418.72	74.38
418.943	99.38
419.166	86.38
419.389	84.38
419.611	86.38
419.834	85.38
420.057	85.38
420.28	87.38
420.503	86.38
420.726	94.38
420.948	96.38
421.171	92.38
421.394	87.38
421.617	98.38
421.839	86.38
422.062	77.38
422.285	97.38
422.507	79.38
422.73	103.38
422.953	86.38
423.175	87.38
423.398	88.38
423.621	103.38
423.843	78.38
424.066	116.38
424.288	92.38
424.511	71.38
424.733	91.38
424.956	93.38
425.178	84.38
425.401	94.38
425.623	85.38
425.846	88.38
426.068	94.38
426.291	89.38
426.513	86.38
426.735	89.38
426.958	81.38
427.18	93.38
427.402	88.38
427.625	90.38
427.847	82.38
428.069	87.38
428.292	101.38
428.514	89.38
428.736	85.38
428.958	86.38
429.181	95.38
429.403	96.38
429.625	90.38
429.847	87.38
430.069	93.38
430.292	94.38
430.514	102.38
430.736	78.38
430.958	99.38
431.18	98.38
431.402	91.38
431.624	97.38
431.846	81.38
432.068	85.38
432.29	80.38
432.512	99.38
432.734	82.38
432.956	98.38
433.178	90.38
433.4	84.38
433.622	105.38
433.844	84.38
434.066	87.38
434.287	99.38
434.509	77.38
434.731	81.38
434.953	78.38
435.175	92.38
435.397	81.38
435.618	84.38
435.84	80.38
436.062	92.38
436.284	94.38
436.505	86.38
436.727	89.38
436.949	97.38
437.17	87.38
437.392	84.38
437.614	95.38
437.835	73.38
438.057	83.38
438.278	90.38
438.5	80.38
438.721	91.38
438.943	84.38
439.165	100.38
439.386	97.38
439.608	97.38
439.829	81.38
440.05	94.38
440.272	96.38
440.493	81.38
440.715	90.38
440.936	78.38
441.158	98.38
441.379	92.38
441.6	103.38
441.822	95.38
442.043	106.38
442.264	89.38
442.486	80.38
442.707	93.38
442.928	100.38
443.149	93.38
443.371	108.38
443.592	92.38
443.813	80.38
444.034	101.38
444.255	92.38
444.476	98.38
444.698	108.38
444.919	100.38
445.14	225.38
445.361	128.38
445.582	102.38
445.803	97.38
446.024	106.38
446.245	90.38
446.466	98.38
446.687	87.38
446.908	80.38
447.129	89.38
447.35	104.38
447.571	96.38
447.792	103.38
448.013	85.38
448.234	88.38
448.455	85.38
448.675	80.38
448.896	87.38
449.117	97.38
449.338	105.38
449.559	97.38
449.779	85.38
450	90.38
450.221	92.38
450.442	87.38
450.662	98.38
450.883	87.38
451.104	88.38
451.324	95.38
451.545	92.38
451.766	69.38
451.986	82.38
452.207	88.38
452.428	81.38
452.648	87.38
452.869	94.38
453.089	76.38
453.31	88.38
453.53	85.38
453.751	78.38
453.971	95.38
454.192	94.38
454.412	84.38
454.633	92.38
454.853	87.38
455.073	82.38
455.294	109.38
455.514	93.38
455.734	86.38
455.955	88.38
456.175	75.38
456.395	78.38
456.616	88.38
456.836	81.38
457.056	87.38
457.276	96.38
457.497	83.38
457.717	94.38
457.937	87.38
458.157	80.38
458.377	90.38
458.598	86.38
458.818	88.38
459.038	77.38
459.258	77.38
459.478	80.38
459.698	76.38
459.918	87.38
460.138	88.38
460.358	72.38
460.578	76.38
460.798	80.38
461.018	93.38
461.238	98.38
461.458	93.38
461.678	86.38
461.898	86.38
462.118	103.38
462.338	87.38
462.558	94.38
462.777	97.38
462.997	79.38
463.217	82.38
463.437	96.38
463.657	87.38
463.876	96.38
464.096	78.38
464.316	86.38
464.536	85.38
464.755	96.38
464.975	88.38
465.195	106.38
465.414	87.38
465.634	81.38
465.854	87.38
466.073	85.38
466.293	79.38
466.512	74.38
466.732	88.38
466.951	80.38
467.171	101.38
467.391	101.38
467.61	88.38
467.829	97.38
468.049	83.38
468.268	76.38
468.488	96.38
468.707	86.38
468.927	105.38
469.146	78.38
469.365	84.38
469.585	83.38
469.804	97.38
470.023	78.38
470.243	102.38
470.462	102.38
470.681	99.38
470.901	102.38
471.12	98.38
471.339	79.38
471.558	94.38
471.777	105.38
471.997	77.38
472.216	110.38
472.435	85.38
472.654	88.38
472.873	91.38
473.092	98.38
473.311	79.38
473.53	100.38
473.749	104.38
473.968	84.38
474.187	97.38
474.406	76.38
474.625	100.38
474.844	90.38
475.063	88.38
475.282	89.38
475.501	80.38
475.72	83.38
475.939	96.38
476.158	84.38
476.377	86.38
476.596	85.38
476.814	97.38
477.033	85.38
477.252	88.38
477.471	72.38
477.69	97.38
477.908	92.38
478.127	104.38
478.346	96.38
478.564	96.38
478.783	84.38
479.002	78.38
479.22	103.38
479.439	92.38
479.658	88.38
479.876	94.38
480.095	66.38
480.313	88.38
480.532	77.38
480.751	83.38
480.969	87.38
481.188	81.38
481.406	85.38
481.624	92.38
481.843	90.38
482.061	67.38
482.28	93.38
482.498	81.38
482.717	89.38
482.935	101.38
483.153	107.38
483.372	103.38
483.59	101.38
483.808	89.38
484.027	96.38
484.245	95.38
484.463	104.38
484.681	100.38
484.9	108.38
485.118	101.38
485.336	91.38
485.554	91.38
485.772	69.38
485.99	87.38
486.209	81.38
486.427	93.38
486.645	87.38
486.863	104.38
487.081	95.38
487.299	91.38
487.517	96.38
487.735	94.38
487.953	118.38
488.171	115.38
488.389	108.38
488.607	94.38
488.825	94.38
489.043	94.38
489.261	100.38
489.479	89.38
489.696	87.38
489.914	96.38
490.132	95.38
490.35	105.38
490.568	103.38
490.786	102.38
491.003	108.38
491.221	95.38
491.439	95.38
491.657	126.38
491.874	109.38
492.092	112.38
492.31	120.38
492.527	116.38
492.745	111.38
492.963	114.38
493.18	108.38
493.398	110.38
493.615	108.38
493.833	105.38
494.05	115.38
494.268	114.38
494.485	118.38
494.703	102.38
494.92	101.38
495.138	98.38
495.355	105.38
495.573	119.38
495.79	107.38
496.008	105.38
496.225	101.38
496.442	106.38
496.66	110.38
496.877	112.38
497.094	108.38
497.312	110.38
497.529	90.38
497.746	89.38
497.963	101.38
498.181	87.38
498.398	87.38
498.615	85.38
498.832	98.38
499.049	97.38
499.267	86.38
499.484	93.38
499.701	96.38
499.918	85.38
500.135	90.38
500.352	92.38
500.569	100.38
500.786	74.38
501.003	91.38
501.22	93.38
501.437	97.38
501.654	93.38
501.871	86.38
502.088	90.38
502.305	105.38
502.522	87.38
502.739	93.38
502.956	94.38
503.172	90.38
503.389	93.38
503.606	85.38
503.823	94.38
504.04	88.38
504.256	99.38
504.473	88.38
504.69	100.38
504.907	93.38
505.123	96.38
505.34	101.38
505.557	94.38
505.773	102.38
505.99	91.38
506.207	86.38
506.423	85.38
506.64	101.38
506.856	85.38
507.073	79.38
507.289	96.38
507.506	90.38
507.722	110.38
507.939	107.38
508.155	99.38
508.372	86.38
508.588	94.38
508.805	83.38
509.021	92.38
509.238	84.38
509.454	82.38
509.67	82.38
509.887	82.38
510.103	91.38
510.319	82.38
510.536	87.38
510.752	84.38
510.968	77.38
511.184	96.38
511.401	102.38
511.617	79.38
511.833	81.38
512.049	84.38
512.265	81.38
512.481	78.38
512.698	72.38
512.914	82.38
513.13	89.38
513.346	92.38
513.562	92.38
513.778	80.38
513.994	84.38
514.21	81.38
514.426	81.38
514.642	78.38
514.858	72.38
515.074	81.38
515.29	95.38
515.506	96.38
515.721	88.38
515.937	78.38
516.153	78.38
516.369	86.38
516.585	91.38
516.801	75.38
517.016	78.38
517.232	92.38
517.448	87.38
517.664	74.38
517.879	85.38
518.095	95.38
518.311	85.38
518.527	76.38
518.742	93.38
518.958	85.38
519.173	91.38
519.389	79.38
519.605	83.38
519.82	98.38
520.036	85.38
520.251	88.38
520.467	93.38
520.682	78.38
520.898	93.38
521.113	89.38
521.329	82.38
521.544	88.38
521.76	87.38
521.975	78.38
522.19	80.38
522.406	78.38
522.621	86.38
522.836	79.38
523.052	94.38
523.267	95.38
523.482	91.38
523.698	75.38
523.913	90.38
524.128	95.38
524.343	77.38
524.559	96.38
524.774	108.38
524.989	105.38
525.204	84.38
525.419	85.38
525.634	86.38
525.849	88.38
526.064	87.38
526.28	85.38
526.495	80.38
526.71	77.38
526.925	90.38
527.14	78.38
527.355	89.38
527.57	99.38
527.785	89.38
527.999	83.38
528.214	85.38
528.429	71.38
528.644	81.38
528.859	89.38
529.074	93.38
529.289	87.38
529.503	99.38
529.718	75.38
529.933	100.38
530.148	86.38
530.363	74.38
530.577	89.38
530.792	78.38
531.007	78.38
531.221	74.38
531.436	84.38
531.651	84.38
531.865	87.38
532.08	83.38
532.295	88.38
532.509	71.38
532.724	76.38
532.938	90.38
533.153	85.38
533.367	100.38
533.582	85.38
533.796	89.38
534.011	80.38
534.225	86.38
534.44	92.38
534.654	91.38
534.868	76.38
535.083	84.38
535.297	94.38
535.511	88.38
535.726	89.38
535.94	104.38
536.154	77.38
536.369	93.38
536.583	84.38
536.797	96.38
537.011	69.38
537.225	76.38
537.44	76.38
537.654	95.38
537.868	79.38
538.082	80.38
538.296	82.38
538.51	74.38
538.724	95.38
538.938	90.38
539.153	86.38
539.367	88.38
539.581	86.38
539.795	91.38
540.009	88.38
540.222	96.38
540.436	96.38
540.65	96.38
540.864	97.38
541.078	83.38
541.292	96.38
541.506	96.38
541.72	109.38
541.934	99.38
542.147	105.38
542.361	97.38
542.575	104.38
542.789	94.38
543.002	84.38
543.216	99.38
543.43	114.38
543.644	96.38
543.857	90.38
544.071	104.38
544.285	105.38
544.498	101.38
544.712	111.38
544.925	101.38
545.139	98.38
545.352	102.38
545.566	108.38
545.779	98.38
545.993	98.38
546.206	101.38
546.42	100.38
546.633	91.38
546.847	112.38
547.06	102.38
547.274	95.38
547.487	86.38
547.7	96.38
547.914	94.38
548.127	108.38
548.34	104.38
548.554	97.38
548.767	111.38
548.98	104.38
549.193	108.38
549.407	102.38
549.62	112.38
549.833	104.38
550.046	108.38
550.259	109.38
550.473	106.38
550.686	116.38
550.899	82.38
551.112	101.38
551.325	102.38
551.538	91.38
551.751	93.38
551.964	90.38
552.177	83.38
552.39	90.38
552.603	110.38
552.816	118.38
553.029	102.38
553.242	106.38
553.455	97.38
553.667	114.38
553.88	116.38
554.093	114.38
554.306	103.38
554.519	94.38
554.732	109.38
554.944	92.38
555.157	91.38
555.37	102.38
555.583	118.38
555.795	109.38
556.008	96.38
556.221	98.38
556.433	95.38
556.646	91.38
556.859	113.38
557.071	101.38
557.284	86.38
557.496	95.38
557.709	96.38
557.921	85.38
558.134	92.38
558.346	94.38
558.559	86.38
558.771	111.38
558.984	112.38
559.196	95.38
559.409	87.38
559.621	97.38
559.833	98.38
560.046	87.38
560.258	90.38
560.47	106.38
560.683	93.38
560.895	96.38
561.107	100.38
561.32	87.38
561.532	99.38
561.744	97.38
561.956	101.38
562.168	89.38
562.381	93.38
562.593	93.38
562.805	99.38
563.017	94.38
563.229	105.38
563.441	101.38
563.653	92.38
563.865	89.38
564.077	103.38
564.289	103.38
564.501	85.38
564.713	95.38
564.925	87.38
565.137	90.38
565.349	95.38
565.561	98.38
565.773	106.38
565.985	71.38
566.197	86.38
566.408	97.38
566.62	95.38
566.832	99.38
567.044	102.38
567.255	92.38
567.467	97.38
567.679	97.38
567.891	95.38
568.102	82.38
568.314	84.38
568.526	78.38
568.737	81.38
568.949	83.38
569.161	76.38
569.372	77.38
569.584	80.38
569.795	96.38
570.007	90.38
570.218	84.38
570.43	84.38
570.641	85.38
570.853	78.38
571.064	84.38
571.276	85.38
571.487	105.38
571.698	97.38
571.91	92.38
572.121	77.38
572.333	85.38
572.544	85.38
572.755	69.38
572.966	81.38
573.178	84.38
573.389	89.38
573.6	87.38
573.811	89.38
574.023	67.38
574.234	104.38
574.445	88.38
574.656	83.38
574.867	77.38
575.078	95.38
575.289	85.38
575.501	80.38
575.712	92.38
575.923	69.38
576.134	89.38
576.345	79.38
576.556	85.38
576.767	90.38
576.978	77.38
577.188	94.38
577.399	91.38
577.61	89.38
577.821	91.38
578.032	85.38
578.243	88.38
578.454	97.38
578.665	78.38
578.875	70.38
579.086	88.38
579.297	84.38
579.508	81.38
579.718	86.38
579.929	81.38
580.14	85.38
580.35	95.38
580.561	93.38
580.772	88.38
580.982	93.38
581.193	82.38
581.403	89.38
581.614	89.38
581.825	87.38
582.035	78.38
582.246	87.38
582.456	78.38
582.667	83.38
582.877	82.38
583.087	89.38
583.298	89.38
583.508	77.38
583.719	81.38
583.929	70.38
584.139	87.38
584.35	80.38
584.56	94.38
584.77	89.38
584.981	73.38
585.191	76.38
585.401	85.38
585.611	84.38
585.821	84.38
586.032	92.38
586.242	89.38
586.452	80.38
586.662	86.38
586.872	97.38
587.082	77.38
587.292	82.38
587.502	82.38
587.713	94.38
587.923	79.38
588.133	88.38
588.343	85.38
588.553	91.38
588.762	87.38
588.972	84.38
589.182	79.38
589.392	79.38
589.602	76.38
589.812	73.38
590.022	81.38
590.232	84.38
590.441	79.38
590.651	90.38
590.861	85.38
591.071	85.38
591.281	83.38
591.49	74.38
591.7	78.38
591.91	88.38
592.119	77.38
592.329	94.38
592.539	78.38
592.748	82.38
592.958	97.38
593.167	78.38
593.377	84.38
593.587	103.38
593.796	85.38
594.006	78.38
594.215	85.38
594.424	81.38
594.634	80.38
594.843	96.38
595.053	85.38
595.262	92.38
595.472	89.38
595.681	83.38
595.89	88.38
596.1	89.38
596.309	86.38
596.518	81.38
596.727	89.38
596.937	93.38
597.146	88.38
597.355	76.38
597.564	85.38
597.774	86.38
597.983	91.38
598.192	80.38
598.401	81.38
598.61	80.38
598.819	92.38
599.028	93.38
599.237	94.38
599.446	61.38
599.655	79.38
599.864	75.38
600.073	86.38
600.282	77.38
600.491	79.38
600.7	91.38
600.909	80.38
601.118	86.38
601.327	101.38
601.536	76.38
601.745	78.38
601.953	86.38
602.162	93.38
602.371	87.38
602.58	89.38
602.789	96.38
602.997	84.38
603.206	99.38
603.415	93.38
603.623	90.38
603.832	88.38
604.041	74.38
604.249	79.38
604.458	73.38
604.666	85.38
604.875	69.38
605.084	95.38
605.292	89.38
605.501	97.38
605.709	98.38
605.918	80.38
606.126	87.38
606.334	85.38
606.543	79.38
606.751	97.38
606.96	95.38
607.168	93.38
607.376	93.38
607.585	68.38
607.793	84.38
608.001	99.38
608.21	81.38
608.418	98.38
608.626	100.38
608.834	81.38
609.043	79.38
609.251	93.38
609.459	77.38
609.667	101.38
609.875	92.38
610.083	100.38
610.291	99.38
610.499	97.38
610.707	90.38
610.916	98.38
611.124	98.38
611.332	88.38
611.54	92.38
611.748	89.38
611.955	77.38
612.163	94.38
612.371	80.38
612.579	92.38
612.787	93.38
612.995	86.38
613.203	88.38
613.411	96.38
613.618	80.38
613.826	93.38
614.034	97.38
614.242	73.38
614.449	90.38
614.657	86.38
614.865	84.38
615.072	97.38
615.28	89.38
615.488	93.38
615.695	105.38
615.903	94.38
616.111	89.38
616.318	91.38
616.526	102.38
616.733	82.38
616.941	82.38
617.148	90.38
617.356	90.38
617.563	84.38
617.771	90.38
617.978	84.38
618.185	85.38
618.393	85.38
618.6	96.38
618.807	88.38
619.015	88.38
619.222	82.38
619.429	92.38
619.637	94.38
619.844	86.38
620.051	85.38
620.258	81.38
620.466	88.38
620.673	96.38
620.88	85.38
621.087	101.38
621.294	85.38
621.501	76.38
621.708	80.38
621.915	83.38
622.122	95.38
622.329	81.38
622.536	90.38
622.743	92.38
622.95	94.38
623.157	87.38
623.364	88.38
623.571	85.38
623.778	89.38
623.985	101.38
624.192	86.38
624.399	87.38
624.606	93.38
624.812	98.38
625.019	84.38
625.226	86.38
625.433	90.38
625.639	87.38
625.846	89.38
626.053	89.38
626.259	96.38
626.466	83.38
626.673	62.38
626.879	94.38
627.086	95.38
627.293	86.38
627.499	85.38
627.706	86.38
627.912	90.38
628.119	93.38
628.325	97.38
628.532	80.38
628.738	80.38
628.945	94.38
629.151	86.38
629.357	89.38
629.564	89.38
629.77	96.38
629.976	89.38
630.183	94.38
630.389	79.38
630.595	77.38
630.802	69.38
631.008	86.38
631.214	90.38
631.42	90.38
631.627	86.38
631.833	89.38
632.039	78.38
632.245	78.38
632.451	84.38
632.657	78.38
632.863	93.38
633.069	85.38
633.275	66.38
633.481	69.38
633.688	84.38
633.893	100.38
634.099	82.38
634.305	81.38
634.511	79.38
634.717	81.38
634.923	81.38
635.129	90.38
635.335	74.38
635.541	85.38
635.747	88.38
635.952	85.38
636.158	84.38
636.364	112.38
636.57	85.38
636.775	89.38
636.981	83.38
637.187	74.38
637.392	98.38
637.598	92.38
637.804	84.38
638.009	80.38
638.215	79.38
638.421	82.38
638.626	84.38
638.832	87.38
639.037	79.38
639.243	84.38
639.448	81.38
639.654	96.38
639.859	78.38
640.065	92.38
640.27	91.38
640.475	87.38
640.681	91.38
640.886	76.38
641.091	88.38
641.297	84.38
641.502	79.38
641.707	72.38
641.913	82.38
642.118	78.38
642.323	85.38
642.528	96.38
642.733	86.38
642.939	86.38
643.144	88.38
643.349	91.38
643.554	87.38
643.759	79.38
643.964	100.38
644.169	86.38
644.374	74.38
644.579	91.38
644.784	92.38
644.989	71.38
645.194	72.38
645.399	98.38
645.604	80.38
645.809	87.38
646.014	89.38
646.219	66.38
646.423	71.38
646.628	85.38
646.833	86.38
647.038	85.38
647.243	97.38
647.447	85.38
647.652	90.38
647.857	109.38
648.062	88.38
648.266	98.38
648.471	82.38
648.676	93.38
648.88	86.38
649.085	81.38
649.289	79.38
649.494	81.38
649.698	84.38
649.903	82.38
650.107	81.38
650.312	84.38
650.516	96.38
650.721	88.38
650.925	90.38
651.13	98.38
651.334	88.38
651.539	79.38
651.743	89.38
651.947	76.38
652.152	81.38
652.356	101.38
652.56	80.38
652.764	85.38
652.969	88.38
653.173	83.38
653.377	73.38
653.581	80.38
653.785	90.38
653.99	87.38
654.194	93.38
654.398	92.38
654.602	79.38
654.806	85.38
655.01	62.38
655.214	88.38
655.418	96.38
655.622	90.38
655.826	84.38
656.03	79.38
656.234	81.38
656.438	74.38
656.642	82.38
656.846	78.38
657.049	76.38
657.253	77.38
657.457	79.38
657.661	89.38
657.865	83.38
658.068	82.38
658.272	80.38
658.476	96.38
658.68	81.38
658.883	92.38
659.087	73.38
659.291	73.38
659.494	79.38
659.698	74.38
659.901	74.38
660.105	69.38
660.309	79.38
660.512	88.38
660.716	80.38
660.919	74.38
661.123	79.38
661.326	86.38
661.53	78.38
661.733	87.38
661.936	95.38
662.14	82.38
662.343	83.38
662.546	85.38
662.75	89.38
662.953	82.38
663.156	81.38
663.36	92.38
663.563	88.38
663.766	80.38
663.969	73.38
664.173	86.38
664.376	81.38
664.579	80.38
664.782	74.38
664.985	61.38
665.188	74.38
665.391	94.38
665.594	76.38
665.797	83.38
666	102.38
666.203	71.38
666.406	79.38
666.609	79.38
666.812	88.38
667.015	80.38
667.218	87.38
667.421	75.38
667.624	77.38
667.827	82.38
668.03	76.38
668.232	86.38
668.435	93.38
668.638	79.38
668.841	84.38
669.043	78.38
669.246	85.38
669.449	72.38
669.651	69.38
669.854	80.38
670.057	87.38
670.259	78.38
670.462	84.38
670.665	77.38
670.867	78.38
671.07	90.38
671.272	83.38
671.475	86.38
671.677	74.38
671.88	76.38
672.082	85.38
672.284	86.38
672.487	105.38
672.689	68.38
672.892	76.38
