Data from Location5.07152019.Energy5.Lamp.07192019.3%Agarose_HRD10591_16-04-23-628.txt Node
Date: Fri Jul 19 16:04:23 EDT 2019
User: cochatt
Spectrometer: HR+D1059
Trigger mode: 1
Integration Time (sec): 1.000000E-1
Scans to average: 1
Electric dark correction enabled: true
Nonlinearity correction enabled: false
Boxcar width: 0
XAxis mode: Wavelengths
Number of Pixels in Spectrum: 2048
>>>>>Begin Spectral Data<<<<<
223.165	-20.94
223.4	-20.94
223.635	-20.94
223.869	-6.94
224.104	-20.94
224.338	-22.94
224.573	-12.94
224.808	-5.94
225.042	-4.94
225.277	-10.94
225.511	-2.94
225.746	1.06
225.98	19.06
226.215	18.06
226.449	19.06
226.683	8.06
226.918	19.06
227.152	25.06
227.387	35.06
227.621	52.06
227.856	49.06
228.09	57.06
228.324	25.06
228.559	49.06
228.793	60.06
229.027	69.06
229.262	58.06
229.496	64.06
229.73	57.06
229.964	71.06
230.199	65.06
230.433	65.06
230.667	82.06
230.901	70.06
231.136	83.06
231.37	93.06
231.604	97.06
231.838	78.06
232.072	80.06
232.306	85.06
232.541	84.06
232.775	71.06
233.009	77.06
233.243	91.06
233.477	85.06
233.711	73.06
233.945	84.06
234.179	74.06
234.413	89.06
234.647	63.06
234.881	88.06
235.115	80.06
235.349	77.06
235.583	71.06
235.817	74.06
236.051	74.06
236.285	80.06
236.519	81.06
236.753	81.06
236.987	85.06
237.221	82.06
237.455	84.06
237.689	80.06
237.922	77.06
238.156	89.06
238.39	70.06
238.624	72.06
238.858	93.06
239.091	86.06
239.325	77.06
239.559	81.06
239.793	81.06
240.027	86.06
240.26	79.06
240.494	89.06
240.728	77.06
240.961	71.06
241.195	83.06
241.429	84.06
241.662	80.06
241.896	72.06
242.13	79.06
242.363	69.06
242.597	69.06
242.83	76.06
243.064	62.06
243.298	73.06
243.531	73.06
243.765	81.06
243.998	66.06
244.232	81.06
244.465	79.06
244.699	86.06
244.932	93.06
245.166	72.06
245.399	73.06
245.633	66.06
245.866	84.06
246.099	77.06
246.333	69.06
246.566	81.06
246.8	84.06
247.033	83.06
247.266	74.06
247.5	86.06
247.733	66.06
247.966	84.06
248.2	80.06
248.433	82.06
248.666	91.06
248.899	78.06
249.133	80.06
249.366	92.06
249.599	69.06
249.832	74.06
250.066	77.06
250.299	85.06
250.532	84.06
250.765	86.06
250.998	80.06
251.231	80.06
251.465	96.06
251.698	86.06
251.931	76.06
252.164	80.06
252.397	74.06
252.63	81.06
252.863	87.06
253.096	90.06
253.329	77.06
253.562	84.06
253.795	83.06
254.028	92.06
254.261	97.06
254.494	78.06
254.727	90.06
254.96	88.06
255.193	88.06
255.426	87.06
255.659	87.06
255.892	91.06
256.124	84.06
256.357	92.06
256.59	85.06
256.823	80.06
257.056	80.06
257.289	95.06
257.521	81.06
257.754	80.06
257.987	78.06
258.22	89.06
258.452	92.06
258.685	76.06
258.918	82.06
259.151	70.06
259.383	66.06
259.616	78.06
259.849	73.06
260.081	94.06
260.314	82.06
260.547	78.06
260.779	85.06
261.012	74.06
261.244	81.06
261.477	75.06
261.71	85.06
261.942	79.06
262.175	84.06
262.407	98.06
262.64	82.06
262.872	82.06
263.105	78.06
263.337	100.06
263.57	84.06
263.802	81.06
264.035	83.06
264.267	81.06
264.499	91.06
264.732	75.06
264.964	83.06
265.197	85.06
265.429	98.06
265.661	84.06
265.894	76.06
266.126	94.06
266.358	89.06
266.591	80.06
266.823	89.06
267.055	91.06
267.287	89.06
267.52	100.06
267.752	78.06
267.984	91.06
268.216	82.06
268.448	83.06
268.681	89.06
268.913	68.06
269.145	83.06
269.377	83.06
269.609	101.06
269.841	94.06
270.073	98.06
270.306	81.06
270.538	80.06
270.77	100.06
271.002	97.06
271.234	81.06
271.466	89.06
271.698	77.06
271.93	74.06
272.162	89.06
272.394	77.06
272.626	77.06
272.858	94.06
273.09	81.06
273.322	93.06
273.553	87.06
273.785	89.06
274.017	86.06
274.249	88.06
274.481	88.06
274.713	83.06
274.945	84.06
275.176	84.06
275.408	80.06
275.64	102.06
275.872	89.06
276.104	90.06
276.335	98.06
276.567	85.06
276.799	96.06
277.031	91.06
277.262	98.06
277.494	95.06
277.726	73.06
277.957	85.06
278.189	77.06
278.421	85.06
278.652	92.06
278.884	85.06
279.115	91.06
279.347	92.06
279.579	98.06
279.81	84.06
280.042	84.06
280.273	100.06
280.505	80.06
280.736	96.06
280.968	92.06
281.199	89.06
281.431	92.06
281.662	85.06
281.894	88.06
282.125	72.06
282.356	80.06
282.588	89.06
282.819	82.06
283.051	95.06
283.282	75.06
283.513	83.06
283.745	95.06
283.976	85.06
284.207	83.06
284.439	71.06
284.67	81.06
284.901	95.06
285.132	93.06
285.364	97.06
285.595	96.06
285.826	91.06
286.057	74.06
286.288	85.06
286.52	91.06
286.751	85.06
286.982	91.06
287.213	88.06
287.444	89.06
287.675	89.06
287.906	102.06
288.138	93.06
288.369	66.06
288.6	81.06
288.831	89.06
289.062	93.06
289.293	96.06
289.524	87.06
289.755	84.06
289.986	76.06
290.217	82.06
290.448	90.06
290.679	84.06
290.91	100.06
291.141	84.06
291.371	81.06
291.602	96.06
291.833	87.06
292.064	91.06
292.295	88.06
292.526	77.06
292.757	89.06
292.987	96.06
293.218	87.06
293.449	92.06
293.68	78.06
293.91	104.06
294.141	95.06
294.372	89.06
294.603	94.06
294.833	84.06
295.064	90.06
295.295	96.06
295.525	83.06
295.756	90.06
295.987	96.06
296.217	98.06
296.448	85.06
296.679	97.06
296.909	78.06
297.14	92.06
297.37	105.06
297.601	81.06
297.831	77.06
298.062	100.06
298.292	101.06
298.523	77.06
298.753	94.06
298.984	88.06
299.214	100.06
299.445	82.06
299.675	93.06
299.905	87.06
300.136	98.06
300.366	93.06
300.597	88.06
300.827	97.06
301.057	94.06
301.288	90.06
301.518	97.06
301.748	79.06
301.979	102.06
302.209	100.06
302.439	106.06
302.669	85.06
302.9	92.06
303.13	80.06
303.36	84.06
303.59	98.06
303.82	86.06
304.051	94.06
304.281	80.06
304.511	86.06
304.741	85.06
304.971	91.06
305.201	105.06
305.431	87.06
305.661	84.06
305.891	82.06
306.121	91.06
306.352	91.06
306.582	97.06
306.812	91.06
307.042	89.06
307.272	88.06
307.502	87.06
307.731	91.06
307.961	92.06
308.191	88.06
308.421	78.06
308.651	100.06
308.881	89.06
309.111	86.06
309.341	82.06
309.571	77.06
309.8	98.06
310.03	86.06
310.26	91.06
310.49	75.06
310.72	90.06
310.949	87.06
311.179	89.06
311.409	91.06
311.639	86.06
311.868	109.06
312.098	84.06
312.328	93.06
312.557	102.06
312.787	79.06
313.017	97.06
313.246	93.06
313.476	82.06
313.706	87.06
313.935	98.06
314.165	87.06
314.394	76.06
314.624	89.06
314.853	92.06
315.083	89.06
315.312	100.06
315.542	93.06
315.771	92.06
316.001	75.06
316.23	93.06
316.46	88.06
316.689	96.06
316.919	89.06
317.148	102.06
317.377	86.06
317.607	93.06
317.836	94.06
318.065	88.06
318.295	97.06
318.524	104.06
318.753	94.06
318.983	93.06
319.212	79.06
319.441	98.06
319.67	88.06
319.9	86.06
320.129	96.06
320.358	87.06
320.587	88.06
320.816	82.06
321.046	98.06
321.275	86.06
321.504	100.06
321.733	90.06
321.962	97.06
322.191	82.06
322.42	78.06
322.649	99.06
322.878	88.06
323.108	92.06
323.337	81.06
323.566	85.06
323.795	82.06
324.024	100.06
324.253	78.06
324.482	85.06
324.71	93.06
324.939	96.06
325.168	101.06
325.397	75.06
325.626	84.06
325.855	87.06
326.084	89.06
326.313	100.06
326.542	81.06
326.77	81.06
326.999	90.06
327.228	101.06
327.457	96.06
327.686	108.06
327.914	89.06
328.143	78.06
328.372	88.06
328.6	98.06
328.829	87.06
329.058	94.06
329.287	93.06
329.515	94.06
329.744	82.06
329.972	88.06
330.201	108.06
330.43	107.06
330.658	82.06
330.887	82.06
331.115	84.06
331.344	91.06
331.572	97.06
331.801	94.06
332.03	83.06
332.258	80.06
332.486	86.06
332.715	82.06
332.943	115.06
333.172	98.06
333.4	86.06
333.629	99.06
333.857	103.06
334.085	87.06
334.314	94.06
334.542	100.06
334.771	83.06
334.999	89.06
335.227	90.06
335.455	92.06
335.684	92.06
335.912	99.06
336.14	98.06
336.369	107.06
336.597	91.06
336.825	92.06
337.053	97.06
337.281	84.06
337.51	88.06
337.738	98.06
337.966	84.06
338.194	88.06
338.422	82.06
338.65	84.06
338.878	92.06
339.106	89.06
339.334	108.06
339.562	101.06
339.79	92.06
340.018	86.06
340.246	99.06
340.474	86.06
340.702	91.06
340.93	85.06
341.158	83.06
341.386	103.06
341.614	74.06
341.842	87.06
342.07	85.06
342.298	85.06
342.526	84.06
342.754	92.06
342.981	78.06
343.209	81.06
343.437	93.06
343.665	100.06
343.893	78.06
344.12	101.06
344.348	102.06
344.576	92.06
344.804	87.06
345.031	89.06
345.259	87.06
345.487	89.06
345.714	92.06
345.942	93.06
346.17	86.06
346.397	98.06
346.625	99.06
346.853	90.06
347.08	101.06
347.308	90.06
347.535	77.06
347.763	98.06
347.99	108.06
348.218	102.06
348.445	100.06
348.673	95.06
348.9	100.06
349.128	99.06
349.355	93.06
349.583	91.06
349.81	90.06
350.037	103.06
350.265	84.06
350.492	89.06
350.72	78.06
350.947	92.06
351.174	92.06
351.402	76.06
351.629	83.06
351.856	88.06
352.083	83.06
352.311	107.06
352.538	81.06
352.765	76.06
352.992	91.06
353.22	115.06
353.447	87.06
353.674	80.06
353.901	97.06
354.128	78.06
354.355	84.06
354.583	92.06
354.81	96.06
355.037	100.06
355.264	93.06
355.491	95.06
355.718	94.06
355.945	92.06
356.172	97.06
356.399	76.06
356.626	83.06
356.853	74.06
357.08	85.06
357.307	96.06
357.534	78.06
357.761	86.06
357.988	91.06
358.215	89.06
358.441	88.06
358.668	83.06
358.895	76.06
359.122	81.06
359.349	91.06
359.576	81.06
359.802	92.06
360.029	84.06
360.256	96.06
360.483	93.06
360.709	87.06
360.936	87.06
361.163	89.06
361.39	106.06
361.616	92.06
361.843	84.06
362.07	97.06
362.296	94.06
362.523	84.06
362.749	85.06
362.976	100.06
363.203	89.06
363.429	92.06
363.656	85.06
363.882	84.06
364.109	110.06
364.335	105.06
364.562	76.06
364.788	89.06
365.015	98.06
365.241	90.06
365.468	89.06
365.694	86.06
365.92	72.06
366.147	78.06
366.373	82.06
366.599	91.06
366.826	99.06
367.052	87.06
367.278	76.06
367.505	88.06
367.731	88.06
367.957	95.06
368.184	89.06
368.41	76.06
368.636	89.06
368.862	90.06
369.089	99.06
369.315	96.06
369.541	90.06
369.767	105.06
369.993	89.06
370.219	100.06
370.445	78.06
370.672	93.06
370.898	93.06
371.124	74.06
371.35	84.06
371.576	90.06
371.802	90.06
372.028	87.06
372.254	93.06
372.48	82.06
372.706	96.06
372.932	100.06
373.158	94.06
373.384	87.06
373.61	87.06
373.835	73.06
374.061	89.06
374.287	92.06
374.513	82.06
374.739	89.06
374.965	88.06
375.191	100.06
375.416	86.06
375.642	89.06
375.868	108.06
376.094	97.06
376.319	84.06
376.545	100.06
376.771	99.06
376.997	87.06
377.222	93.06
377.448	95.06
377.674	91.06
377.899	98.06
378.125	88.06
378.35	97.06
378.576	91.06
378.802	86.06
379.027	95.06
379.253	89.06
379.478	89.06
379.704	84.06
379.929	93.06
380.155	90.06
380.38	73.06
380.606	88.06
380.831	87.06
381.057	75.06
381.282	71.06
381.507	81.06
381.733	96.06
381.958	94.06
382.184	112.06
382.409	86.06
382.634	100.06
382.86	97.06
383.085	85.06
383.31	94.06
383.535	84.06
383.761	85.06
383.986	86.06
384.211	93.06
384.436	94.06
384.662	98.06
384.887	88.06
385.112	92.06
385.337	86.06
385.562	96.06
385.787	91.06
386.013	92.06
386.238	74.06
386.463	99.06
386.688	95.06
386.913	86.06
387.138	85.06
387.363	88.06
387.588	95.06
387.813	98.06
388.038	73.06
388.263	94.06
388.488	97.06
388.713	91.06
388.938	88.06
389.163	90.06
389.387	88.06
389.612	82.06
389.837	93.06
390.062	95.06
390.287	90.06
390.512	85.06
390.736	95.06
390.961	90.06
391.186	76.06
391.411	95.06
391.636	98.06
391.86	90.06
392.085	96.06
392.31	85.06
392.534	94.06
392.759	85.06
392.984	84.06
393.208	78.06
393.433	96.06
393.658	105.06
393.882	100.06
394.107	101.06
394.331	76.06
394.556	89.06
394.78	93.06
395.005	95.06
395.229	92.06
395.454	101.06
395.678	88.06
395.903	90.06
396.127	91.06
396.352	89.06
396.576	94.06
396.801	86.06
397.025	88.06
397.249	106.06
397.474	95.06
397.698	90.06
397.922	87.06
398.147	84.06
398.371	80.06
398.595	88.06
398.82	91.06
399.044	92.06
399.268	89.06
399.492	106.06
399.717	103.06
399.941	88.06
400.165	97.06
400.389	91.06
400.613	81.06
400.837	108.06
401.062	88.06
401.286	89.06
401.51	86.06
401.734	91.06
401.958	101.06
402.182	100.06
402.406	103.06
402.63	88.06
402.854	100.06
403.078	96.06
403.302	92.06
403.526	93.06
403.75	117.06
403.974	97.06
404.198	100.06
404.422	106.06
404.645	89.06
404.869	84.06
405.093	83.06
405.317	89.06
405.541	94.06
405.765	83.06
405.988	92.06
406.212	94.06
406.436	93.06
406.66	93.06
406.883	110.06
407.107	100.06
407.331	102.06
407.555	92.06
407.778	111.06
408.002	101.06
408.226	100.06
408.449	85.06
408.673	92.06
408.896	89.06
409.12	100.06
409.344	93.06
409.567	103.06
409.791	98.06
410.014	96.06
410.238	103.06
410.461	87.06
410.685	94.06
410.908	107.06
411.132	101.06
411.355	96.06
411.578	91.06
411.802	81.06
412.025	93.06
412.249	97.06
412.472	102.06
412.695	108.06
412.919	82.06
413.142	101.06
413.365	98.06
413.589	105.06
413.812	87.06
414.035	95.06
414.258	99.06
414.482	95.06
414.705	87.06
414.928	107.06
415.151	101.06
415.374	94.06
415.597	88.06
415.821	97.06
416.044	88.06
416.267	90.06
416.49	100.06
416.713	94.06
416.936	99.06
417.159	104.06
417.382	97.06
417.605	84.06
417.828	99.06
418.051	91.06
418.274	82.06
418.497	99.06
418.72	87.06
418.943	96.06
419.166	89.06
419.389	93.06
419.611	89.06
419.834	81.06
420.057	102.06
420.28	87.06
420.503	103.06
420.726	104.06
420.948	102.06
421.171	86.06
421.394	88.06
421.617	95.06
421.839	100.06
422.062	93.06
422.285	88.06
422.507	92.06
422.73	93.06
422.953	93.06
423.175	93.06
423.398	91.06
423.621	97.06
423.843	83.06
424.066	91.06
424.288	104.06
424.511	95.06
424.733	96.06
424.956	100.06
425.178	93.06
425.401	93.06
425.623	92.06
425.846	85.06
426.068	95.06
426.291	91.06
426.513	96.06
426.735	97.06
426.958	97.06
427.18	102.06
427.402	87.06
427.625	91.06
427.847	99.06
428.069	107.06
428.292	96.06
428.514	97.06
428.736	92.06
428.958	98.06
429.181	104.06
429.403	117.06
429.625	97.06
429.847	105.06
430.069	90.06
430.292	104.06
430.514	92.06
430.736	84.06
430.958	105.06
431.18	81.06
431.402	91.06
431.624	90.06
431.846	100.06
432.068	97.06
432.29	80.06
432.512	91.06
432.734	89.06
432.956	104.06
433.178	94.06
433.4	84.06
433.622	88.06
433.844	94.06
434.066	90.06
434.287	69.06
434.509	100.06
434.731	82.06
434.953	97.06
435.175	111.06
435.397	94.06
435.618	88.06
435.84	108.06
436.062	91.06
436.284	96.06
436.505	98.06
436.727	87.06
436.949	103.06
437.17	97.06
437.392	101.06
437.614	88.06
437.835	85.06
438.057	87.06
438.278	89.06
438.5	96.06
438.721	94.06
438.943	90.06
439.165	92.06
439.386	93.06
439.608	110.06
439.829	100.06
440.05	98.06
440.272	96.06
440.493	98.06
440.715	99.06
440.936	86.06
441.158	101.06
441.379	96.06
441.6	93.06
441.822	100.06
442.043	94.06
442.264	93.06
442.486	99.06
442.707	94.06
442.928	99.06
443.149	101.06
443.371	93.06
443.592	90.06
443.813	82.06
444.034	77.06
444.255	96.06
444.476	96.06
444.698	92.06
444.919	94.06
445.14	205.06
445.361	137.06
445.582	93.06
445.803	85.06
446.024	88.06
446.245	93.06
446.466	102.06
446.687	85.06
446.908	92.06
447.129	100.06
447.35	99.06
447.571	100.06
447.792	93.06
448.013	87.06
448.234	77.06
448.455	94.06
448.675	96.06
448.896	89.06
449.117	79.06
449.338	105.06
449.559	84.06
449.779	79.06
450	94.06
450.221	97.06
450.442	91.06
450.662	88.06
450.883	98.06
451.104	103.06
451.324	95.06
451.545	96.06
451.766	113.06
451.986	104.06
452.207	98.06
452.428	91.06
452.648	94.06
452.869	85.06
453.089	86.06
453.31	89.06
453.53	83.06
453.751	85.06
453.971	105.06
454.192	84.06
454.412	96.06
454.633	92.06
454.853	91.06
455.073	94.06
455.294	83.06
455.514	85.06
455.734	106.06
455.955	88.06
456.175	80.06
456.395	87.06
456.616	83.06
456.836	82.06
457.056	91.06
457.276	91.06
457.497	92.06
457.717	82.06
457.937	89.06
458.157	88.06
458.377	106.06
458.598	88.06
458.818	85.06
459.038	110.06
459.258	97.06
459.478	86.06
459.698	86.06
459.918	99.06
460.138	103.06
460.358	97.06
460.578	108.06
460.798	91.06
461.018	103.06
461.238	90.06
461.458	100.06
461.678	103.06
461.898	93.06
462.118	85.06
462.338	99.06
462.558	96.06
462.777	109.06
462.997	104.06
463.217	104.06
463.437	93.06
463.657	99.06
463.876	96.06
464.096	94.06
464.316	94.06
464.536	101.06
464.755	108.06
464.975	96.06
465.195	89.06
465.414	93.06
465.634	98.06
465.854	82.06
466.073	107.06
466.293	110.06
466.512	101.06
466.732	101.06
466.951	89.06
467.171	97.06
467.391	96.06
467.61	92.06
467.829	97.06
468.049	90.06
468.268	76.06
468.488	93.06
468.707	96.06
468.927	102.06
469.146	85.06
469.365	90.06
469.585	89.06
469.804	93.06
470.023	104.06
470.243	92.06
470.462	96.06
470.681	116.06
470.901	105.06
471.12	86.06
471.339	89.06
471.558	102.06
471.777	99.06
471.997	94.06
472.216	89.06
472.435	98.06
472.654	101.06
472.873	105.06
473.092	94.06
473.311	93.06
473.53	93.06
473.749	105.06
473.968	95.06
474.187	86.06
474.406	95.06
474.625	93.06
474.844	105.06
475.063	84.06
475.282	85.06
475.501	87.06
475.72	100.06
475.939	116.06
476.158	95.06
476.377	94.06
476.596	102.06
476.814	99.06
477.033	105.06
477.252	98.06
477.471	91.06
477.69	102.06
477.908	100.06
478.127	106.06
478.346	86.06
478.564	92.06
478.783	115.06
479.002	88.06
479.22	104.06
479.439	106.06
479.658	98.06
479.876	100.06
480.095	90.06
480.313	102.06
480.532	101.06
480.751	120.06
480.969	94.06
481.188	100.06
481.406	100.06
481.624	93.06
481.843	101.06
482.061	93.06
482.28	93.06
482.498	97.06
482.717	105.06
482.935	112.06
483.153	108.06
483.372	104.06
483.59	88.06
483.808	113.06
484.027	93.06
484.245	91.06
484.463	106.06
484.681	102.06
484.9	94.06
485.118	95.06
485.336	108.06
485.554	111.06
485.772	109.06
485.99	99.06
486.209	94.06
486.427	118.06
486.645	110.06
486.863	106.06
487.081	103.06
487.299	121.06
487.517	86.06
487.735	100.06
487.953	96.06
488.171	103.06
488.389	97.06
488.607	106.06
488.825	87.06
489.043	105.06
489.261	93.06
489.479	105.06
489.696	107.06
489.914	101.06
490.132	115.06
490.35	99.06
490.568	90.06
490.786	120.06
491.003	116.06
491.221	116.06
491.439	105.06
491.657	107.06
491.874	116.06
492.092	109.06
492.31	102.06
492.527	104.06
492.745	101.06
492.963	120.06
493.18	114.06
493.398	85.06
493.615	116.06
493.833	92.06
494.05	86.06
494.268	106.06
494.485	106.06
494.703	120.06
494.92	118.06
495.138	114.06
495.355	114.06
495.573	130.06
495.79	124.06
496.008	104.06
496.225	96.06
496.442	119.06
496.66	112.06
496.877	109.06
497.094	117.06
497.312	110.06
497.529	118.06
497.746	106.06
497.963	125.06
498.181	116.06
498.398	125.06
498.615	120.06
498.832	118.06
499.049	129.06
499.267	108.06
499.484	117.06
499.701	120.06
499.918	136.06
500.135	130.06
500.352	145.06
500.569	128.06
500.786	132.06
501.003	141.06
501.22	129.06
501.437	128.06
501.654	121.06
501.871	126.06
502.088	110.06
502.305	100.06
502.522	120.06
502.739	119.06
502.956	123.06
503.172	110.06
503.389	104.06
503.606	98.06
503.823	108.06
504.04	108.06
504.256	121.06
504.473	104.06
504.69	107.06
504.907	92.06
505.123	116.06
505.34	113.06
505.557	105.06
505.773	96.06
505.99	116.06
506.207	105.06
506.423	98.06
506.64	107.06
506.856	115.06
507.073	99.06
507.289	104.06
507.506	100.06
507.722	105.06
507.939	83.06
508.155	106.06
508.372	93.06
508.588	97.06
508.805	90.06
509.021	90.06
509.238	93.06
509.454	108.06
509.67	92.06
509.887	94.06
510.103	101.06
510.319	109.06
510.536	100.06
510.752	113.06
510.968	93.06
511.184	104.06
511.401	102.06
511.617	94.06
511.833	101.06
512.049	98.06
512.265	107.06
512.481	105.06
512.698	101.06
512.914	109.06
513.13	105.06
513.346	102.06
513.562	120.06
513.778	106.06
513.994	92.06
514.21	97.06
514.426	94.06
514.642	94.06
514.858	86.06
515.074	93.06
515.29	94.06
515.506	108.06
515.721	99.06
515.937	88.06
516.153	98.06
516.369	99.06
516.585	101.06
516.801	109.06
517.016	84.06
517.232	95.06
517.448	101.06
517.664	112.06
517.879	112.06
518.095	93.06
518.311	103.06
518.527	92.06
518.742	112.06
518.958	110.06
519.173	109.06
519.389	105.06
519.605	86.06
519.82	98.06
520.036	109.06
520.251	92.06
520.467	99.06
520.682	119.06
520.898	96.06
521.113	97.06
521.329	93.06
521.544	96.06
521.76	97.06
521.975	99.06
522.19	101.06
522.406	117.06
522.621	113.06
522.836	88.06
523.052	102.06
523.267	88.06
523.482	90.06
523.698	94.06
523.913	96.06
524.128	90.06
524.343	93.06
524.559	96.06
524.774	87.06
524.989	109.06
525.204	99.06
525.419	93.06
525.634	69.06
525.849	104.06
526.064	95.06
526.28	99.06
526.495	82.06
526.71	82.06
526.925	91.06
527.14	94.06
527.355	112.06
527.57	88.06
527.785	97.06
527.999	105.06
528.214	100.06
528.429	105.06
528.644	104.06
528.859	101.06
529.074	104.06
529.289	99.06
529.503	105.06
529.718	93.06
529.933	95.06
530.148	112.06
530.363	104.06
530.577	96.06
530.792	93.06
531.007	96.06
531.221	96.06
531.436	90.06
531.651	87.06
531.865	92.06
532.08	102.06
532.295	90.06
532.509	97.06
532.724	94.06
532.938	92.06
533.153	83.06
533.367	107.06
533.582	105.06
533.796	106.06
534.011	95.06
534.225	83.06
534.44	85.06
534.654	95.06
534.868	101.06
535.083	91.06
535.297	122.06
535.511	108.06
535.726	107.06
535.94	95.06
536.154	95.06
536.369	106.06
536.583	89.06
536.797	100.06
537.011	90.06
537.225	97.06
537.44	86.06
537.654	88.06
537.868	84.06
538.082	85.06
538.296	92.06
538.51	99.06
538.724	98.06
538.938	89.06
539.153	108.06
539.367	102.06
539.581	103.06
539.795	93.06
540.009	92.06
540.222	92.06
540.436	86.06
540.65	85.06
540.864	102.06
541.078	100.06
541.292	92.06
541.506	97.06
541.72	100.06
541.934	118.06
542.147	108.06
542.361	98.06
542.575	103.06
542.789	111.06
543.002	88.06
543.216	94.06
543.43	96.06
543.644	101.06
543.857	93.06
544.071	118.06
544.285	116.06
544.498	99.06
544.712	88.06
544.925	96.06
545.139	103.06
545.352	94.06
545.566	107.06
545.779	94.06
545.993	99.06
546.206	109.06
546.42	112.06
546.633	104.06
546.847	103.06
547.06	95.06
547.274	102.06
547.487	121.06
547.7	120.06
547.914	106.06
548.127	93.06
548.34	107.06
548.554	101.06
548.767	114.06
548.98	88.06
549.193	97.06
549.407	106.06
549.62	102.06
549.833	97.06
550.046	105.06
550.259	103.06
550.473	114.06
550.686	111.06
550.899	93.06
551.112	112.06
551.325	90.06
551.538	110.06
551.751	83.06
551.964	95.06
552.177	98.06
552.39	94.06
552.603	109.06
552.816	99.06
553.029	96.06
553.242	103.06
553.455	89.06
553.667	109.06
553.88	112.06
554.093	94.06
554.306	100.06
554.519	94.06
554.732	98.06
554.944	94.06
555.157	97.06
555.37	97.06
555.583	93.06
555.795	101.06
556.008	101.06
556.221	92.06
556.433	91.06
556.646	94.06
556.859	88.06
557.071	101.06
557.284	92.06
557.496	98.06
557.709	103.06
557.921	99.06
558.134	97.06
558.346	101.06
558.559	98.06
558.771	94.06
558.984	94.06
559.196	84.06
559.409	96.06
559.621	103.06
559.833	84.06
560.046	82.06
560.258	103.06
560.47	97.06
560.683	82.06
560.895	102.06
561.107	78.06
561.32	91.06
561.532	96.06
561.744	96.06
561.956	92.06
562.168	102.06
562.381	83.06
562.593	90.06
562.805	87.06
563.017	89.06
563.229	93.06
563.441	94.06
563.653	98.06
563.865	98.06
564.077	99.06
564.289	90.06
564.501	90.06
564.713	87.06
564.925	77.06
565.137	101.06
565.349	87.06
565.561	98.06
565.773	94.06
565.985	95.06
566.197	77.06
566.408	102.06
566.62	106.06
566.832	109.06
567.044	106.06
567.255	94.06
567.467	82.06
567.679	92.06
567.891	99.06
568.102	102.06
568.314	104.06
568.526	90.06
568.737	91.06
568.949	96.06
569.161	85.06
569.372	87.06
569.584	92.06
569.795	84.06
570.007	107.06
570.218	84.06
570.43	97.06
570.641	97.06
570.853	86.06
571.064	98.06
571.276	91.06
571.487	94.06
571.698	100.06
571.91	110.06
572.121	75.06
572.333	95.06
572.544	92.06
572.755	92.06
572.966	79.06
573.178	93.06
573.389	85.06
573.6	95.06
573.811	97.06
574.023	90.06
574.234	87.06
574.445	76.06
574.656	90.06
574.867	86.06
575.078	89.06
575.289	90.06
575.501	101.06
575.712	93.06
575.923	101.06
576.134	89.06
576.345	93.06
576.556	85.06
576.767	94.06
576.978	92.06
577.188	97.06
577.399	86.06
577.61	96.06
577.821	91.06
578.032	101.06
578.243	70.06
578.454	80.06
578.665	91.06
578.875	101.06
579.086	91.06
579.297	85.06
579.508	87.06
579.718	89.06
579.929	91.06
580.14	91.06
580.35	101.06
580.561	106.06
580.772	95.06
580.982	93.06
581.193	65.06
581.403	86.06
581.614	88.06
581.825	75.06
582.035	90.06
582.246	93.06
582.456	93.06
582.667	78.06
582.877	78.06
583.087	91.06
583.298	89.06
583.508	87.06
583.719	73.06
583.929	101.06
584.139	80.06
584.35	80.06
584.56	87.06
584.77	86.06
584.981	101.06
585.191	87.06
585.401	78.06
585.611	83.06
585.821	95.06
586.032	93.06
586.242	88.06
586.452	86.06
586.662	73.06
586.872	79.06
587.082	92.06
587.292	81.06
587.502	93.06
587.713	98.06
587.923	92.06
588.133	84.06
588.343	81.06
588.553	80.06
588.762	98.06
588.972	104.06
589.182	84.06
589.392	96.06
589.602	99.06
589.812	93.06
590.022	97.06
590.232	85.06
590.441	78.06
590.651	86.06
590.861	85.06
591.071	87.06
591.281	84.06
591.49	107.06
591.7	93.06
591.91	93.06
592.119	93.06
592.329	89.06
592.539	81.06
592.748	85.06
592.958	83.06
593.167	88.06
593.377	87.06
593.587	88.06
593.796	94.06
594.006	86.06
594.215	93.06
594.424	93.06
594.634	97.06
594.843	98.06
595.053	87.06
595.262	92.06
595.472	99.06
595.681	91.06
595.89	101.06
596.1	84.06
596.309	83.06
596.518	88.06
596.727	90.06
596.937	91.06
597.146	87.06
597.355	96.06
597.564	71.06
597.774	85.06
597.983	93.06
598.192	85.06
598.401	89.06
598.61	92.06
598.819	82.06
599.028	71.06
599.237	74.06
599.446	86.06
599.655	88.06
599.864	76.06
600.073	79.06
600.282	92.06
600.491	80.06
600.7	91.06
600.909	82.06
601.118	81.06
601.327	97.06
601.536	83.06
601.745	83.06
601.953	92.06
602.162	81.06
602.371	74.06
602.58	88.06
602.789	98.06
602.997	87.06
603.206	97.06
603.415	95.06
603.623	101.06
603.832	99.06
604.041	108.06
604.249	87.06
604.458	114.06
604.666	93.06
604.875	83.06
605.084	89.06
605.292	91.06
605.501	88.06
605.709	91.06
605.918	74.06
606.126	87.06
606.334	77.06
606.543	94.06
606.751	100.06
606.96	106.06
607.168	78.06
607.376	105.06
607.585	74.06
607.793	85.06
608.001	92.06
608.21	76.06
608.418	81.06
608.626	94.06
608.834	83.06
609.043	88.06
609.251	85.06
609.459	86.06
609.667	92.06
609.875	94.06
610.083	95.06
610.291	89.06
610.499	89.06
610.707	94.06
610.916	76.06
611.124	84.06
611.332	93.06
611.54	101.06
611.748	87.06
611.955	79.06
612.163	75.06
612.371	84.06
612.579	77.06
612.787	93.06
612.995	84.06
613.203	83.06
613.411	87.06
613.618	85.06
613.826	82.06
614.034	91.06
614.242	93.06
614.449	101.06
614.657	80.06
614.865	98.06
615.072	89.06
615.28	77.06
615.488	88.06
615.695	90.06
615.903	96.06
616.111	68.06
616.318	87.06
616.526	90.06
616.733	88.06
616.941	89.06
617.148	91.06
617.356	100.06
617.563	83.06
617.771	96.06
617.978	92.06
618.185	83.06
618.393	73.06
618.6	68.06
618.807	94.06
619.015	92.06
619.222	92.06
619.429	92.06
619.637	86.06
619.844	87.06
620.051	92.06
620.258	93.06
620.466	85.06
620.673	89.06
620.88	92.06
621.087	85.06
621.294	85.06
621.501	85.06
621.708	92.06
621.915	76.06
622.122	85.06
622.329	88.06
622.536	99.06
622.743	83.06
622.95	91.06
623.157	74.06
623.364	93.06
623.571	77.06
623.778	81.06
623.985	80.06
624.192	91.06
624.399	102.06
624.606	99.06
624.812	96.06
625.019	76.06
625.226	90.06
625.433	71.06
625.639	83.06
625.846	97.06
626.053	79.06
626.259	89.06
626.466	92.06
626.673	91.06
626.879	85.06
627.086	90.06
627.293	93.06
627.499	86.06
627.706	97.06
627.912	69.06
628.119	86.06
628.325	89.06
628.532	85.06
628.738	84.06
628.945	87.06
629.151	87.06
629.357	80.06
629.564	90.06
629.77	88.06
629.976	90.06
630.183	93.06
630.389	88.06
630.595	80.06
630.802	89.06
631.008	94.06
631.214	94.06
631.42	94.06
631.627	86.06
631.833	88.06
632.039	84.06
632.245	82.06
632.451	79.06
632.657	97.06
632.863	102.06
633.069	84.06
633.275	89.06
633.481	73.06
633.688	88.06
633.893	80.06
634.099	95.06
634.305	74.06
634.511	85.06
634.717	93.06
634.923	85.06
635.129	82.06
635.335	92.06
635.541	68.06
635.747	79.06
635.952	81.06
636.158	64.06
636.364	83.06
636.57	75.06
636.775	84.06
636.981	69.06
637.187	89.06
637.392	82.06
637.598	78.06
637.804	90.06
638.009	89.06
638.215	89.06
638.421	91.06
638.626	71.06
638.832	86.06
639.037	93.06
639.243	90.06
639.448	84.06
639.654	84.06
639.859	79.06
640.065	92.06
640.27	86.06
640.475	95.06
640.681	90.06
640.886	86.06
641.091	90.06
641.297	85.06
641.502	78.06
641.707	90.06
641.913	94.06
642.118	86.06
642.323	83.06
642.528	72.06
642.733	85.06
642.939	91.06
643.144	69.06
643.349	92.06
643.554	85.06
643.759	95.06
643.964	83.06
644.169	89.06
644.374	91.06
644.579	84.06
644.784	85.06
644.989	85.06
645.194	90.06
645.399	93.06
645.604	79.06
645.809	88.06
646.014	88.06
646.219	73.06
646.423	90.06
646.628	82.06
646.833	78.06
647.038	93.06
647.243	93.06
647.447	84.06
647.652	78.06
647.857	81.06
648.062	82.06
648.266	72.06
648.471	73.06
648.676	89.06
648.88	92.06
649.085	89.06
649.289	93.06
649.494	82.06
649.698	93.06
649.903	95.06
650.107	72.06
650.312	84.06
650.516	81.06
650.721	98.06
650.925	91.06
651.13	84.06
651.334	80.06
651.539	78.06
651.743	75.06
651.947	83.06
652.152	87.06
652.356	68.06
652.56	73.06
652.764	102.06
652.969	71.06
653.173	83.06
653.377	78.06
653.581	73.06
653.785	64.06
653.99	74.06
654.194	84.06
654.398	93.06
654.602	74.06
654.806	78.06
655.01	106.06
655.214	76.06
655.418	96.06
655.622	84.06
655.826	79.06
656.03	83.06
656.234	66.06
656.438	94.06
656.642	88.06
656.846	84.06
657.049	85.06
657.253	72.06
657.457	82.06
657.661	76.06
657.865	76.06
658.068	85.06
658.272	72.06
658.476	78.06
658.68	82.06
658.883	86.06
659.087	86.06
659.291	99.06
659.494	81.06
659.698	90.06
659.901	93.06
660.105	86.06
660.309	84.06
660.512	88.06
660.716	84.06
660.919	92.06
661.123	83.06
661.326	100.06
661.53	84.06
661.733	92.06
661.936	86.06
662.14	86.06
662.343	75.06
662.546	81.06
662.75	75.06
662.953	76.06
663.156	77.06
663.36	82.06
663.563	88.06
663.766	74.06
663.969	78.06
664.173	81.06
664.376	84.06
664.579	91.06
664.782	84.06
664.985	86.06
665.188	87.06
665.391	103.06
665.594	79.06
665.797	83.06
666	98.06
666.203	60.06
666.406	76.06
666.609	81.06
666.812	74.06
667.015	83.06
667.218	76.06
667.421	80.06
667.624	85.06
667.827	90.06
668.03	84.06
668.232	72.06
668.435	82.06
668.638	86.06
668.841	69.06
669.043	78.06
669.246	84.06
669.449	77.06
669.651	93.06
669.854	85.06
670.057	83.06
670.259	84.06
670.462	83.06
670.665	84.06
670.867	82.06
671.07	88.06
671.272	82.06
671.475	91.06
671.677	85.06
671.88	84.06
672.082	85.06
672.284	91.06
672.487	84.06
672.689	75.06
672.892	89.06
