Data from Location5.07152019.Energy5.Lamp.07192019.3%Agarose_HRD10591_15-39-16-395.txt Node
Date: Fri Jul 19 15:39:16 EDT 2019
User: cochatt
Spectrometer: HR+D1059
Trigger mode: 1
Integration Time (sec): 1.000000E-1
Scans to average: 1
Electric dark correction enabled: true
Nonlinearity correction enabled: false
Boxcar width: 0
XAxis mode: Wavelengths
Number of Pixels in Spectrum: 2048
>>>>>Begin Spectral Data<<<<<
223.165	-10.12
223.4	-10.12
223.635	-10.12
223.869	-23.12
224.104	-22.12
224.338	-13.12
224.573	-24.12
224.808	-22.12
225.042	-1.12
225.277	-9.12
225.511	-14.12
225.746	1.88
225.98	26.88
226.215	24.88
226.449	16.88
226.683	14.88
226.918	12.88
227.152	40.88
227.387	38.88
227.621	48.88
227.856	40.88
228.09	42.88
228.324	55.88
228.559	58.88
228.793	48.88
229.027	50.88
229.262	61.88
229.496	72.88
229.73	67.88
229.964	63.88
230.199	65.88
230.433	70.88
230.667	59.88
230.901	69.88
231.136	70.88
231.37	77.88
231.604	83.88
231.838	78.88
232.072	79.88
232.306	76.88
232.541	70.88
232.775	69.88
233.009	73.88
233.243	86.88
233.477	91.88
233.711	84.88
233.945	71.88
234.179	77.88
234.413	78.88
234.647	97.88
234.881	82.88
235.115	80.88
235.349	80.88
235.583	86.88
235.817	74.88
236.051	94.88
236.285	69.88
236.519	79.88
236.753	83.88
236.987	83.88
237.221	90.88
237.455	79.88
237.689	72.88
237.922	84.88
238.156	75.88
238.39	86.88
238.624	74.88
238.858	70.88
239.091	81.88
239.325	71.88
239.559	74.88
239.793	62.88
240.027	93.88
240.26	83.88
240.494	73.88
240.728	73.88
240.961	74.88
241.195	93.88
241.429	79.88
241.662	69.88
241.896	79.88
242.13	72.88
242.363	68.88
242.597	76.88
242.83	70.88
243.064	58.88
243.298	76.88
243.531	69.88
243.765	77.88
243.998	76.88
244.232	68.88
244.465	79.88
244.699	80.88
244.932	91.88
245.166	71.88
245.399	84.88
245.633	69.88
245.866	79.88
246.099	75.88
246.333	84.88
246.566	81.88
246.8	75.88
247.033	75.88
247.266	60.88
247.5	69.88
247.733	85.88
247.966	85.88
248.2	77.88
248.433	72.88
248.666	77.88
248.899	78.88
249.133	76.88
249.366	77.88
249.599	72.88
249.832	92.88
250.066	79.88
250.299	76.88
250.532	82.88
250.765	89.88
250.998	91.88
251.231	85.88
251.465	64.88
251.698	73.88
251.931	75.88
252.164	80.88
252.397	88.88
252.63	86.88
252.863	64.88
253.096	68.88
253.329	84.88
253.562	77.88
253.795	87.88
254.028	81.88
254.261	68.88
254.494	81.88
254.727	91.88
254.96	79.88
255.193	83.88
255.426	89.88
255.659	71.88
255.892	97.88
256.124	77.88
256.357	80.88
256.59	73.88
256.823	70.88
257.056	79.88
257.289	80.88
257.521	83.88
257.754	77.88
257.987	79.88
258.22	63.88
258.452	77.88
258.685	80.88
258.918	91.88
259.151	85.88
259.383	79.88
259.616	68.88
259.849	85.88
260.081	82.88
260.314	79.88
260.547	91.88
260.779	79.88
261.012	87.88
261.244	83.88
261.477	75.88
261.71	74.88
261.942	65.88
262.175	83.88
262.407	79.88
262.64	94.88
262.872	86.88
263.105	78.88
263.337	74.88
263.57	76.88
263.802	77.88
264.035	87.88
264.267	70.88
264.499	70.88
264.732	79.88
264.964	79.88
265.197	92.88
265.429	84.88
265.661	85.88
265.894	74.88
266.126	97.88
266.358	82.88
266.591	87.88
266.823	71.88
267.055	69.88
267.287	64.88
267.52	82.88
267.752	68.88
267.984	87.88
268.216	74.88
268.448	87.88
268.681	92.88
268.913	84.88
269.145	68.88
269.377	66.88
269.609	61.88
269.841	67.88
270.073	90.88
270.306	88.88
270.538	90.88
270.77	79.88
271.002	87.88
271.234	99.88
271.466	88.88
271.698	80.88
271.93	72.88
272.162	72.88
272.394	90.88
272.626	80.88
272.858	85.88
273.09	84.88
273.322	93.88
273.553	74.88
273.785	93.88
274.017	82.88
274.249	73.88
274.481	86.88
274.713	71.88
274.945	80.88
275.176	87.88
275.408	90.88
275.64	81.88
275.872	77.88
276.104	67.88
276.335	94.88
276.567	83.88
276.799	83.88
277.031	69.88
277.262	85.88
277.494	93.88
277.726	81.88
277.957	94.88
278.189	89.88
278.421	95.88
278.652	79.88
278.884	72.88
279.115	84.88
279.347	93.88
279.579	82.88
279.81	89.88
280.042	84.88
280.273	79.88
280.505	80.88
280.736	84.88
280.968	93.88
281.199	79.88
281.431	82.88
281.662	73.88
281.894	85.88
282.125	89.88
282.356	72.88
282.588	91.88
282.819	81.88
283.051	71.88
283.282	69.88
283.513	92.88
283.745	84.88
283.976	65.88
284.207	68.88
284.439	88.88
284.67	90.88
284.901	72.88
285.132	79.88
285.364	86.88
285.595	74.88
285.826	88.88
286.057	90.88
286.288	74.88
286.52	90.88
286.751	82.88
286.982	78.88
287.213	82.88
287.444	76.88
287.675	98.88
287.906	91.88
288.138	88.88
288.369	87.88
288.6	97.88
288.831	79.88
289.062	85.88
289.293	90.88
289.524	79.88
289.755	71.88
289.986	89.88
290.217	81.88
290.448	80.88
290.679	86.88
290.91	89.88
291.141	85.88
291.371	93.88
291.602	86.88
291.833	98.88
292.064	84.88
292.295	62.88
292.526	78.88
292.757	80.88
292.987	93.88
293.218	94.88
293.449	76.88
293.68	87.88
293.91	85.88
294.141	101.88
294.372	77.88
294.603	87.88
294.833	57.88
295.064	87.88
295.295	70.88
295.525	102.88
295.756	81.88
295.987	83.88
296.217	74.88
296.448	77.88
296.679	87.88
296.909	81.88
297.14	97.88
297.37	85.88
297.601	83.88
297.831	93.88
298.062	80.88
298.292	80.88
298.523	95.88
298.753	86.88
298.984	80.88
299.214	90.88
299.445	85.88
299.675	79.88
299.905	81.88
300.136	71.88
300.366	86.88
300.597	79.88
300.827	84.88
301.057	84.88
301.288	82.88
301.518	82.88
301.748	89.88
301.979	74.88
302.209	81.88
302.439	74.88
302.669	72.88
302.9	86.88
303.13	65.88
303.36	94.88
303.59	82.88
303.82	92.88
304.051	91.88
304.281	82.88
304.511	94.88
304.741	81.88
304.971	74.88
305.201	85.88
305.431	87.88
305.661	82.88
305.891	85.88
306.121	78.88
306.352	102.88
306.582	73.88
306.812	70.88
307.042	85.88
307.272	80.88
307.502	94.88
307.731	101.88
307.961	81.88
308.191	71.88
308.421	79.88
308.651	78.88
308.881	82.88
309.111	74.88
309.341	74.88
309.571	78.88
309.8	85.88
310.03	81.88
310.26	75.88
310.49	91.88
310.72	65.88
310.949	71.88
311.179	93.88
311.409	88.88
311.639	89.88
311.868	82.88
312.098	75.88
312.328	83.88
312.557	79.88
312.787	76.88
313.017	78.88
313.246	82.88
313.476	74.88
313.706	85.88
313.935	68.88
314.165	90.88
314.394	79.88
314.624	78.88
314.853	70.88
315.083	87.88
315.312	69.88
315.542	81.88
315.771	93.88
316.001	87.88
316.23	72.88
316.46	75.88
316.689	103.88
316.919	81.88
317.148	85.88
317.377	103.88
317.607	85.88
317.836	69.88
318.065	61.88
318.295	69.88
318.524	85.88
318.753	85.88
318.983	70.88
319.212	89.88
319.441	74.88
319.67	76.88
319.9	81.88
320.129	84.88
320.358	89.88
320.587	87.88
320.816	64.88
321.046	77.88
321.275	74.88
321.504	91.88
321.733	88.88
321.962	67.88
322.191	85.88
322.42	76.88
322.649	83.88
322.878	101.88
323.108	86.88
323.337	95.88
323.566	79.88
323.795	86.88
324.024	101.88
324.253	85.88
324.482	74.88
324.71	86.88
324.939	92.88
325.168	80.88
325.397	85.88
325.626	82.88
325.855	73.88
326.084	73.88
326.313	78.88
326.542	67.88
326.77	75.88
326.999	81.88
327.228	74.88
327.457	87.88
327.686	92.88
327.914	74.88
328.143	80.88
328.372	75.88
328.6	84.88
328.829	81.88
329.058	78.88
329.287	83.88
329.515	80.88
329.744	82.88
329.972	93.88
330.201	85.88
330.43	83.88
330.658	81.88
330.887	94.88
331.115	76.88
331.344	88.88
331.572	87.88
331.801	89.88
332.03	92.88
332.258	86.88
332.486	70.88
332.715	74.88
332.943	88.88
333.172	77.88
333.4	95.88
333.629	80.88
333.857	74.88
334.085	74.88
334.314	76.88
334.542	72.88
334.771	85.88
334.999	81.88
335.227	84.88
335.455	79.88
335.684	81.88
335.912	74.88
336.14	81.88
336.369	79.88
336.597	81.88
336.825	73.88
337.053	74.88
337.281	82.88
337.51	88.88
337.738	74.88
337.966	80.88
338.194	93.88
338.422	69.88
338.65	94.88
338.878	85.88
339.106	69.88
339.334	95.88
339.562	81.88
339.79	75.88
340.018	97.88
340.246	72.88
340.474	83.88
340.702	90.88
340.93	75.88
341.158	86.88
341.386	91.88
341.614	72.88
341.842	66.88
342.07	75.88
342.298	70.88
342.526	93.88
342.754	86.88
342.981	86.88
343.209	82.88
343.437	87.88
343.665	82.88
343.893	88.88
344.12	88.88
344.348	100.88
344.576	72.88
344.804	91.88
345.031	89.88
345.259	89.88
345.487	72.88
345.714	79.88
345.942	83.88
346.17	90.88
346.397	98.88
346.625	66.88
346.853	74.88
347.08	87.88
347.308	96.88
347.535	95.88
347.763	88.88
347.99	92.88
348.218	82.88
348.445	90.88
348.673	89.88
348.9	89.88
349.128	69.88
349.355	85.88
349.583	86.88
349.81	68.88
350.037	75.88
350.265	70.88
350.492	88.88
350.72	96.88
350.947	89.88
351.174	82.88
351.402	74.88
351.629	81.88
351.856	79.88
352.083	84.88
352.311	83.88
352.538	81.88
352.765	74.88
352.992	90.88
353.22	79.88
353.447	89.88
353.674	78.88
353.901	87.88
354.128	75.88
354.355	90.88
354.583	81.88
354.81	81.88
355.037	88.88
355.264	84.88
355.491	77.88
355.718	84.88
355.945	84.88
356.172	71.88
356.399	63.88
356.626	95.88
356.853	85.88
357.08	71.88
357.307	86.88
357.534	93.88
357.761	89.88
357.988	74.88
358.215	94.88
358.441	81.88
358.668	79.88
358.895	94.88
359.122	77.88
359.349	77.88
359.576	79.88
359.802	93.88
360.029	82.88
360.256	81.88
360.483	72.88
360.709	83.88
360.936	78.88
361.163	92.88
361.39	96.88
361.616	87.88
361.843	80.88
362.07	69.88
362.296	78.88
362.523	71.88
362.749	87.88
362.976	84.88
363.203	90.88
363.429	80.88
363.656	94.88
363.882	91.88
364.109	86.88
364.335	82.88
364.562	68.88
364.788	77.88
365.015	83.88
365.241	78.88
365.468	83.88
365.694	93.88
365.92	69.88
366.147	81.88
366.373	82.88
366.599	81.88
366.826	85.88
367.052	73.88
367.278	92.88
367.505	91.88
367.731	84.88
367.957	86.88
368.184	81.88
368.41	83.88
368.636	92.88
368.862	92.88
369.089	74.88
369.315	79.88
369.541	89.88
369.767	97.88
369.993	93.88
370.219	75.88
370.445	70.88
370.672	92.88
370.898	86.88
371.124	79.88
371.35	81.88
371.576	67.88
371.802	86.88
372.028	77.88
372.254	72.88
372.48	82.88
372.706	85.88
372.932	75.88
373.158	90.88
373.384	89.88
373.61	71.88
373.835	81.88
374.061	84.88
374.287	77.88
374.513	86.88
374.739	83.88
374.965	83.88
375.191	90.88
375.416	80.88
375.642	86.88
375.868	91.88
376.094	90.88
376.319	78.88
376.545	76.88
376.771	85.88
376.997	91.88
377.222	85.88
377.448	83.88
377.674	84.88
377.899	88.88
378.125	84.88
378.35	88.88
378.576	79.88
378.802	79.88
379.027	93.88
379.253	80.88
379.478	89.88
379.704	80.88
379.929	65.88
380.155	93.88
380.38	83.88
380.606	89.88
380.831	69.88
381.057	94.88
381.282	85.88
381.507	92.88
381.733	88.88
381.958	79.88
382.184	90.88
382.409	81.88
382.634	73.88
382.86	81.88
383.085	87.88
383.31	80.88
383.535	86.88
383.761	75.88
383.986	83.88
384.211	95.88
384.436	95.88
384.662	87.88
384.887	75.88
385.112	71.88
385.337	76.88
385.562	93.88
385.787	76.88
386.013	88.88
386.238	88.88
386.463	99.88
386.688	90.88
386.913	93.88
387.138	82.88
387.363	88.88
387.588	86.88
387.813	85.88
388.038	93.88
388.263	82.88
388.488	85.88
388.713	94.88
388.938	79.88
389.163	82.88
389.387	78.88
389.612	76.88
389.837	78.88
390.062	79.88
390.287	70.88
390.512	71.88
390.736	96.88
390.961	79.88
391.186	76.88
391.411	89.88
391.636	74.88
391.86	86.88
392.085	93.88
392.31	84.88
392.534	88.88
392.759	97.88
392.984	80.88
393.208	93.88
393.433	83.88
393.658	104.88
393.882	76.88
394.107	79.88
394.331	88.88
394.556	96.88
394.78	97.88
395.005	94.88
395.229	97.88
395.454	97.88
395.678	83.88
395.903	85.88
396.127	81.88
396.352	88.88
396.576	101.88
396.801	87.88
397.025	83.88
397.249	85.88
397.474	84.88
397.698	72.88
397.922	72.88
398.147	69.88
398.371	88.88
398.595	77.88
398.82	88.88
399.044	87.88
399.268	86.88
399.492	74.88
399.717	87.88
399.941	98.88
400.165	90.88
400.389	102.88
400.613	86.88
400.837	87.88
401.062	89.88
401.286	86.88
401.51	86.88
401.734	90.88
401.958	78.88
402.182	76.88
402.406	90.88
402.63	75.88
402.854	90.88
403.078	74.88
403.302	77.88
403.526	94.88
403.75	90.88
403.974	101.88
404.198	88.88
404.422	86.88
404.645	87.88
404.869	97.88
405.093	81.88
405.317	86.88
405.541	87.88
405.765	89.88
405.988	80.88
406.212	84.88
406.436	95.88
406.66	90.88
406.883	95.88
407.107	72.88
407.331	82.88
407.555	97.88
407.778	104.88
408.002	85.88
408.226	76.88
408.449	95.88
408.673	110.88
408.896	95.88
409.12	106.88
409.344	88.88
409.567	79.88
409.791	96.88
410.014	95.88
410.238	94.88
410.461	93.88
410.685	82.88
410.908	86.88
411.132	87.88
411.355	78.88
411.578	88.88
411.802	92.88
412.025	80.88
412.249	98.88
412.472	89.88
412.695	82.88
412.919	90.88
413.142	88.88
413.365	88.88
413.589	85.88
413.812	89.88
414.035	97.88
414.258	85.88
414.482	92.88
414.705	77.88
414.928	83.88
415.151	101.88
415.374	93.88
415.597	88.88
415.821	83.88
416.044	84.88
416.267	93.88
416.49	112.88
416.713	87.88
416.936	99.88
417.159	85.88
417.382	75.88
417.605	93.88
417.828	84.88
418.051	84.88
418.274	80.88
418.497	92.88
418.72	103.88
418.943	99.88
419.166	80.88
419.389	74.88
419.611	89.88
419.834	86.88
420.057	92.88
420.28	91.88
420.503	85.88
420.726	96.88
420.948	104.88
421.171	104.88
421.394	91.88
421.617	88.88
421.839	92.88
422.062	106.88
422.285	98.88
422.507	85.88
422.73	83.88
422.953	99.88
423.175	93.88
423.398	89.88
423.621	89.88
423.843	101.88
424.066	83.88
424.288	81.88
424.511	85.88
424.733	97.88
424.956	88.88
425.178	99.88
425.401	87.88
425.623	91.88
425.846	100.88
426.068	83.88
426.291	80.88
426.513	91.88
426.735	94.88
426.958	94.88
427.18	80.88
427.402	87.88
427.625	85.88
427.847	90.88
428.069	93.88
428.292	76.88
428.514	85.88
428.736	100.88
428.958	84.88
429.181	86.88
429.403	89.88
429.625	96.88
429.847	99.88
430.069	86.88
430.292	91.88
430.514	94.88
430.736	81.88
430.958	100.88
431.18	105.88
431.402	89.88
431.624	105.88
431.846	95.88
432.068	86.88
432.29	78.88
432.512	99.88
432.734	88.88
432.956	108.88
433.178	95.88
433.4	89.88
433.622	100.88
433.844	87.88
434.066	93.88
434.287	72.88
434.509	85.88
434.731	76.88
434.953	86.88
435.175	78.88
435.397	89.88
435.618	88.88
435.84	80.88
436.062	89.88
436.284	92.88
436.505	102.88
436.727	95.88
436.949	98.88
437.17	97.88
437.392	87.88
437.614	88.88
437.835	79.88
438.057	88.88
438.278	96.88
438.5	85.88
438.721	85.88
438.943	91.88
439.165	96.88
439.386	82.88
439.608	85.88
439.829	101.88
440.05	97.88
440.272	88.88
440.493	109.88
440.715	115.88
440.936	98.88
441.158	83.88
441.379	100.88
441.6	85.88
441.822	88.88
442.043	86.88
442.264	89.88
442.486	93.88
442.707	101.88
442.928	87.88
443.149	98.88
443.371	93.88
443.592	102.88
443.813	107.88
444.034	92.88
444.255	88.88
444.476	95.88
444.698	94.88
444.919	91.88
445.14	210.88
445.361	138.88
445.582	102.88
445.803	103.88
446.024	101.88
446.245	121.88
446.466	99.88
446.687	87.88
446.908	106.88
447.129	101.88
447.35	95.88
447.571	100.88
447.792	89.88
448.013	98.88
448.234	95.88
448.455	92.88
448.675	92.88
448.896	92.88
449.117	96.88
449.338	86.88
449.559	90.88
449.779	101.88
450	90.88
450.221	83.88
450.442	102.88
450.662	98.88
450.883	89.88
451.104	84.88
451.324	98.88
451.545	85.88
451.766	85.88
451.986	91.88
452.207	93.88
452.428	75.88
452.648	90.88
452.869	99.88
453.089	103.88
453.31	85.88
453.53	82.88
453.751	80.88
453.971	96.88
454.192	85.88
454.412	77.88
454.633	92.88
454.853	107.88
455.073	76.88
455.294	90.88
455.514	92.88
455.734	98.88
455.955	87.88
456.175	76.88
456.395	81.88
456.616	78.88
456.836	95.88
457.056	88.88
457.276	91.88
457.497	90.88
457.717	85.88
457.937	93.88
458.157	76.88
458.377	91.88
458.598	92.88
458.818	92.88
459.038	79.88
459.258	87.88
459.478	74.88
459.698	87.88
459.918	83.88
460.138	89.88
460.358	75.88
460.578	82.88
460.798	86.88
461.018	84.88
461.238	88.88
461.458	84.88
461.678	80.88
461.898	74.88
462.118	89.88
462.338	88.88
462.558	78.88
462.777	82.88
462.997	75.88
463.217	94.88
463.437	75.88
463.657	85.88
463.876	83.88
464.096	84.88
464.316	74.88
464.536	70.88
464.755	87.88
464.975	94.88
465.195	93.88
465.414	81.88
465.634	86.88
465.854	97.88
466.073	84.88
466.293	93.88
466.512	90.88
466.732	87.88
466.951	90.88
467.171	98.88
467.391	108.88
467.61	98.88
467.829	94.88
468.049	93.88
468.268	93.88
468.488	98.88
468.707	93.88
468.927	84.88
469.146	96.88
469.365	94.88
469.585	98.88
469.804	99.88
470.023	94.88
470.243	102.88
470.462	102.88
470.681	104.88
470.901	101.88
471.12	76.88
471.339	94.88
471.558	105.88
471.777	96.88
471.997	100.88
472.216	90.88
472.435	78.88
472.654	83.88
472.873	84.88
473.092	95.88
473.311	94.88
473.53	99.88
473.749	89.88
473.968	93.88
474.187	91.88
474.406	81.88
474.625	85.88
474.844	83.88
475.063	89.88
475.282	97.88
475.501	94.88
475.72	86.88
475.939	98.88
476.158	112.88
476.377	83.88
476.596	87.88
476.814	89.88
477.033	85.88
477.252	100.88
477.471	91.88
477.69	79.88
477.908	102.88
478.127	95.88
478.346	90.88
478.564	96.88
478.783	97.88
479.002	88.88
479.22	97.88
479.439	88.88
479.658	98.88
479.876	95.88
480.095	87.88
480.313	90.88
480.532	85.88
480.751	87.88
480.969	88.88
481.188	85.88
481.406	94.88
481.624	78.88
481.843	83.88
482.061	81.88
482.28	72.88
482.498	98.88
482.717	96.88
482.935	93.88
483.153	93.88
483.372	106.88
483.59	101.88
483.808	83.88
484.027	92.88
484.245	117.88
484.463	96.88
484.681	109.88
484.9	95.88
485.118	107.88
485.336	95.88
485.554	91.88
485.772	88.88
485.99	82.88
486.209	87.88
486.427	87.88
486.645	91.88
486.863	101.88
487.081	94.88
487.299	87.88
487.517	97.88
487.735	93.88
487.953	99.88
488.171	103.88
488.389	118.88
488.607	107.88
488.825	106.88
489.043	93.88
489.261	88.88
489.479	97.88
489.696	89.88
489.914	105.88
490.132	87.88
490.35	115.88
490.568	113.88
490.786	106.88
491.003	100.88
491.221	103.88
491.439	102.88
491.657	97.88
491.874	117.88
492.092	117.88
492.31	122.88
492.527	129.88
492.745	117.88
492.963	115.88
493.18	103.88
493.398	110.88
493.615	103.88
493.833	105.88
494.05	99.88
494.268	106.88
494.485	117.88
494.703	114.88
494.92	106.88
495.138	105.88
495.355	111.88
495.573	106.88
495.79	109.88
496.008	99.88
496.225	113.88
496.442	119.88
496.66	111.88
496.877	102.88
497.094	104.88
497.312	107.88
497.529	111.88
497.746	106.88
497.963	90.88
498.181	101.88
498.398	98.88
498.615	93.88
498.832	77.88
499.049	99.88
499.267	85.88
499.484	101.88
499.701	87.88
499.918	89.88
500.135	80.88
500.352	97.88
500.569	96.88
500.786	97.88
501.003	96.88
501.22	101.88
501.437	101.88
501.654	115.88
501.871	93.88
502.088	97.88
502.305	90.88
502.522	100.88
502.739	95.88
502.956	97.88
503.172	102.88
503.389	79.88
503.606	89.88
503.823	87.88
504.04	84.88
504.256	80.88
504.473	91.88
504.69	105.88
504.907	95.88
505.123	104.88
505.34	101.88
505.557	94.88
505.773	94.88
505.99	113.88
506.207	79.88
506.423	90.88
506.64	91.88
506.856	82.88
507.073	66.88
507.289	96.88
507.506	93.88
507.722	88.88
507.939	97.88
508.155	76.88
508.372	93.88
508.588	96.88
508.805	84.88
509.021	94.88
509.238	81.88
509.454	94.88
509.67	87.88
509.887	83.88
510.103	99.88
510.319	84.88
510.536	88.88
510.752	84.88
510.968	88.88
511.184	76.88
511.401	79.88
511.617	86.88
511.833	90.88
512.049	100.88
512.265	93.88
512.481	92.88
512.698	76.88
512.914	89.88
513.13	88.88
513.346	77.88
513.562	90.88
513.778	84.88
513.994	94.88
514.21	94.88
514.426	79.88
514.642	81.88
514.858	83.88
515.074	73.88
515.29	100.88
515.506	90.88
515.721	75.88
515.937	81.88
516.153	81.88
516.369	79.88
516.585	80.88
516.801	81.88
517.016	77.88
517.232	89.88
517.448	73.88
517.664	82.88
517.879	83.88
518.095	88.88
518.311	89.88
518.527	93.88
518.742	80.88
518.958	85.88
519.173	94.88
519.389	83.88
519.605	94.88
519.82	87.88
520.036	94.88
520.251	95.88
520.467	82.88
520.682	90.88
520.898	85.88
521.113	79.88
521.329	91.88
521.544	93.88
521.76	82.88
521.975	86.88
522.19	87.88
522.406	90.88
522.621	89.88
522.836	80.88
523.052	89.88
523.267	70.88
523.482	82.88
523.698	86.88
523.913	104.88
524.128	96.88
524.343	89.88
524.559	99.88
524.774	96.88
524.989	85.88
525.204	87.88
525.419	83.88
525.634	106.88
525.849	81.88
526.064	95.88
526.28	93.88
526.495	89.88
526.71	87.88
526.925	83.88
527.14	99.88
527.355	79.88
527.57	75.88
527.785	81.88
527.999	84.88
528.214	80.88
528.429	93.88
528.644	103.88
528.859	94.88
529.074	90.88
529.289	98.88
529.503	103.88
529.718	99.88
529.933	97.88
530.148	85.88
530.363	95.88
530.577	75.88
530.792	80.88
531.007	80.88
531.221	83.88
531.436	69.88
531.651	81.88
531.865	86.88
532.08	75.88
532.295	95.88
532.509	95.88
532.724	94.88
532.938	74.88
533.153	81.88
533.367	95.88
533.582	95.88
533.796	90.88
534.011	77.88
534.225	81.88
534.44	99.88
534.654	78.88
534.868	72.88
535.083	91.88
535.297	97.88
535.511	93.88
535.726	95.88
535.94	92.88
536.154	87.88
536.369	87.88
536.583	83.88
536.797	89.88
537.011	89.88
537.225	91.88
537.44	83.88
537.654	82.88
537.868	94.88
538.082	94.88
538.296	84.88
538.51	88.88
538.724	89.88
538.938	102.88
539.153	90.88
539.367	86.88
539.581	97.88
539.795	85.88
540.009	101.88
540.222	104.88
540.436	88.88
540.65	80.88
540.864	93.88
541.078	89.88
541.292	97.88
541.506	104.88
541.72	99.88
541.934	126.88
542.147	115.88
542.361	122.88
542.575	106.88
542.789	101.88
543.002	98.88
543.216	90.88
543.43	105.88
543.644	102.88
543.857	93.88
544.071	84.88
544.285	103.88
544.498	103.88
544.712	120.88
544.925	115.88
545.139	97.88
545.352	89.88
545.566	100.88
545.779	93.88
545.993	97.88
546.206	110.88
546.42	109.88
546.633	113.88
546.847	118.88
547.06	118.88
547.274	105.88
547.487	121.88
547.7	101.88
547.914	104.88
548.127	119.88
548.34	101.88
548.554	102.88
548.767	112.88
548.98	90.88
549.193	96.88
549.407	98.88
549.62	113.88
549.833	106.88
550.046	119.88
550.259	95.88
550.473	96.88
550.686	110.88
550.899	104.88
551.112	106.88
551.325	106.88
551.538	94.88
551.751	98.88
551.964	87.88
552.177	103.88
552.39	102.88
552.603	106.88
552.816	96.88
553.029	117.88
553.242	106.88
553.455	103.88
553.667	107.88
553.88	90.88
554.093	112.88
554.306	101.88
554.519	113.88
554.732	101.88
554.944	109.88
555.157	98.88
555.37	88.88
555.583	111.88
555.795	100.88
556.008	111.88
556.221	88.88
556.433	94.88
556.646	104.88
556.859	87.88
557.071	117.88
557.284	97.88
557.496	94.88
557.709	97.88
557.921	121.88
558.134	86.88
558.346	93.88
558.559	97.88
558.771	85.88
558.984	113.88
559.196	100.88
559.409	103.88
559.621	99.88
559.833	81.88
560.046	95.88
560.258	94.88
560.47	94.88
560.683	111.88
560.895	98.88
561.107	105.88
561.32	89.88
561.532	90.88
561.744	97.88
561.956	102.88
562.168	89.88
562.381	81.88
562.593	88.88
562.805	102.88
563.017	88.88
563.229	95.88
563.441	102.88
563.653	104.88
563.865	96.88
564.077	89.88
564.289	86.88
564.501	93.88
564.713	87.88
564.925	95.88
565.137	98.88
565.349	99.88
565.561	86.88
565.773	100.88
565.985	89.88
566.197	74.88
566.408	83.88
566.62	94.88
566.832	79.88
567.044	97.88
567.255	91.88
567.467	87.88
567.679	91.88
567.891	96.88
568.102	81.88
568.314	83.88
568.526	79.88
568.737	93.88
568.949	86.88
569.161	86.88
569.372	76.88
569.584	94.88
569.795	81.88
570.007	92.88
570.218	64.88
570.43	80.88
570.641	85.88
570.853	91.88
571.064	74.88
571.276	95.88
571.487	99.88
571.698	89.88
571.91	78.88
572.121	93.88
572.333	81.88
572.544	77.88
572.755	97.88
572.966	76.88
573.178	65.88
573.389	77.88
573.6	88.88
573.811	95.88
574.023	97.88
574.234	93.88
574.445	116.88
574.656	83.88
574.867	73.88
575.078	90.88
575.289	90.88
575.501	96.88
575.712	79.88
575.923	75.88
576.134	72.88
576.345	87.88
576.556	92.88
576.767	88.88
576.978	96.88
577.188	85.88
577.399	89.88
577.61	90.88
577.821	81.88
578.032	90.88
578.243	98.88
578.454	84.88
578.665	88.88
578.875	79.88
579.086	89.88
579.297	89.88
579.508	78.88
579.718	105.88
579.929	92.88
580.14	74.88
580.35	86.88
580.561	85.88
580.772	79.88
580.982	92.88
581.193	83.88
581.403	93.88
581.614	83.88
581.825	81.88
582.035	83.88
582.246	81.88
582.456	80.88
582.667	93.88
582.877	94.88
583.087	91.88
583.298	85.88
583.508	92.88
583.719	94.88
583.929	92.88
584.139	76.88
584.35	86.88
584.56	93.88
584.77	71.88
584.981	89.88
585.191	83.88
585.401	73.88
585.611	91.88
585.821	95.88
586.032	87.88
586.242	80.88
586.452	78.88
586.662	66.88
586.872	77.88
587.082	84.88
587.292	78.88
587.502	75.88
587.713	82.88
587.923	79.88
588.133	94.88
588.343	85.88
588.553	83.88
588.762	99.88
588.972	83.88
589.182	84.88
589.392	63.88
589.602	89.88
589.812	93.88
590.022	88.88
590.232	100.88
590.441	90.88
590.651	94.88
590.861	79.88
591.071	82.88
591.281	98.88
591.49	79.88
591.7	72.88
591.91	88.88
592.119	79.88
592.329	94.88
592.539	86.88
592.748	78.88
592.958	91.88
593.167	85.88
593.377	74.88
593.587	87.88
593.796	74.88
594.006	82.88
594.215	79.88
594.424	79.88
594.634	91.88
594.843	75.88
595.053	91.88
595.262	89.88
595.472	81.88
595.681	89.88
595.89	86.88
596.1	85.88
596.309	88.88
596.518	76.88
596.727	73.88
596.937	83.88
597.146	77.88
597.355	80.88
597.564	90.88
597.774	94.88
597.983	103.88
598.192	83.88
598.401	74.88
598.61	84.88
598.819	82.88
599.028	88.88
599.237	68.88
599.446	90.88
599.655	83.88
599.864	90.88
600.073	88.88
600.282	101.88
600.491	94.88
600.7	89.88
600.909	83.88
601.118	89.88
601.327	83.88
601.536	105.88
601.745	89.88
601.953	98.88
602.162	100.88
602.371	76.88
602.58	101.88
602.789	95.88
602.997	107.88
603.206	101.88
603.415	85.88
603.623	71.88
603.832	87.88
604.041	90.88
604.249	93.88
604.458	94.88
604.666	77.88
604.875	75.88
605.084	81.88
605.292	84.88
605.501	87.88
605.709	96.88
605.918	74.88
606.126	98.88
606.334	96.88
606.543	89.88
606.751	87.88
606.96	99.88
607.168	103.88
607.376	89.88
607.585	78.88
607.793	83.88
608.001	95.88
608.21	94.88
608.418	101.88
608.626	89.88
608.834	100.88
609.043	88.88
609.251	98.88
609.459	95.88
609.667	103.88
609.875	95.88
610.083	85.88
610.291	100.88
610.499	100.88
610.707	89.88
610.916	90.88
611.124	88.88
611.332	84.88
611.54	95.88
611.748	101.88
611.955	76.88
612.163	79.88
612.371	89.88
612.579	85.88
612.787	93.88
612.995	93.88
613.203	91.88
613.411	86.88
613.618	105.88
613.826	96.88
614.034	94.88
614.242	87.88
614.449	89.88
614.657	76.88
614.865	102.88
615.072	104.88
615.28	88.88
615.488	102.88
615.695	91.88
615.903	87.88
616.111	71.88
616.318	92.88
616.526	87.88
616.733	97.88
616.941	86.88
617.148	98.88
617.356	81.88
617.563	81.88
617.771	91.88
617.978	85.88
618.185	94.88
618.393	87.88
618.6	100.88
618.807	93.88
619.015	88.88
619.222	93.88
619.429	94.88
619.637	89.88
619.844	82.88
620.051	96.88
620.258	82.88
620.466	90.88
620.673	70.88
620.88	81.88
621.087	75.88
621.294	91.88
621.501	83.88
621.708	88.88
621.915	101.88
622.122	87.88
622.329	104.88
622.536	83.88
622.743	74.88
622.95	90.88
623.157	98.88
623.364	96.88
623.571	94.88
623.778	82.88
623.985	73.88
624.192	83.88
624.399	82.88
624.606	83.88
624.812	90.88
625.019	90.88
625.226	81.88
625.433	83.88
625.639	87.88
625.846	96.88
626.053	89.88
626.259	81.88
626.466	91.88
626.673	71.88
626.879	81.88
627.086	80.88
627.293	81.88
627.499	86.88
627.706	106.88
627.912	86.88
628.119	97.88
628.325	99.88
628.532	76.88
628.738	85.88
628.945	90.88
629.151	89.88
629.357	99.88
629.564	75.88
629.77	90.88
629.976	93.88
630.183	89.88
630.389	88.88
630.595	86.88
630.802	90.88
631.008	86.88
631.214	71.88
631.42	81.88
631.627	84.88
631.833	101.88
632.039	78.88
632.245	89.88
632.451	81.88
632.657	84.88
632.863	98.88
633.069	85.88
633.275	85.88
633.481	97.88
633.688	75.88
633.893	88.88
634.099	94.88
634.305	95.88
634.511	76.88
634.717	83.88
634.923	85.88
635.129	84.88
635.335	95.88
635.541	94.88
635.747	94.88
635.952	97.88
636.158	86.88
636.364	96.88
636.57	86.88
636.775	96.88
636.981	87.88
637.187	77.88
637.392	80.88
637.598	85.88
637.804	81.88
638.009	90.88
638.215	86.88
638.421	90.88
638.626	86.88
638.832	91.88
639.037	90.88
639.243	95.88
639.448	89.88
639.654	97.88
639.859	83.88
640.065	97.88
640.27	109.88
640.475	90.88
640.681	92.88
640.886	87.88
641.091	81.88
641.297	94.88
641.502	89.88
641.707	84.88
641.913	95.88
642.118	75.88
642.323	92.88
642.528	85.88
642.733	84.88
642.939	91.88
643.144	78.88
643.349	86.88
643.554	86.88
643.759	84.88
643.964	93.88
644.169	95.88
644.374	87.88
644.579	98.88
644.784	89.88
644.989	89.88
645.194	92.88
645.399	75.88
645.604	93.88
645.809	79.88
646.014	83.88
646.219	72.88
646.423	73.88
646.628	82.88
646.833	84.88
647.038	89.88
647.243	100.88
647.447	100.88
647.652	90.88
647.857	92.88
648.062	101.88
648.266	88.88
648.471	86.88
648.676	87.88
648.88	103.88
649.085	101.88
649.289	90.88
649.494	88.88
649.698	92.88
649.903	78.88
650.107	96.88
650.312	89.88
650.516	74.88
650.721	83.88
650.925	78.88
651.13	80.88
651.334	91.88
651.539	93.88
651.743	89.88
651.947	86.88
652.152	89.88
652.356	82.88
652.56	75.88
652.764	90.88
652.969	86.88
653.173	84.88
653.377	78.88
653.581	81.88
653.785	98.88
653.99	79.88
654.194	83.88
654.398	82.88
654.602	98.88
654.806	85.88
655.01	84.88
655.214	85.88
655.418	79.88
655.622	71.88
655.826	88.88
656.03	81.88
656.234	75.88
656.438	88.88
656.642	85.88
656.846	88.88
657.049	79.88
657.253	79.88
657.457	97.88
657.661	79.88
657.865	96.88
658.068	93.88
658.272	85.88
658.476	89.88
658.68	80.88
658.883	73.88
659.087	65.88
659.291	75.88
659.494	80.88
659.698	74.88
659.901	87.88
660.105	85.88
660.309	64.88
660.512	86.88
660.716	84.88
660.919	92.88
661.123	93.88
661.326	90.88
661.53	91.88
661.733	78.88
661.936	89.88
662.14	86.88
662.343	76.88
662.546	87.88
662.75	87.88
662.953	73.88
663.156	87.88
663.36	84.88
663.563	98.88
663.766	81.88
663.969	83.88
664.173	88.88
664.376	77.88
664.579	75.88
664.782	74.88
664.985	88.88
665.188	79.88
665.391	78.88
665.594	92.88
665.797	79.88
666	81.88
666.203	86.88
666.406	77.88
666.609	88.88
666.812	71.88
667.015	83.88
667.218	84.88
667.421	87.88
667.624	86.88
667.827	82.88
668.03	80.88
668.232	80.88
668.435	79.88
668.638	76.88
668.841	71.88
669.043	87.88
669.246	83.88
669.449	80.88
669.651	61.88
669.854	81.88
670.057	88.88
670.259	82.88
670.462	85.88
670.665	90.88
670.867	81.88
671.07	64.88
671.272	73.88
671.475	89.88
671.677	91.88
671.88	85.88
672.082	64.88
672.284	81.88
672.487	88.88
672.689	79.88
672.892	77.88
