Data from Location5.07152019.Energy5.Lamp.07192019.3%Agarose_HRD10591_16-02-33-628.txt Node
Date: Fri Jul 19 16:02:33 EDT 2019
User: cochatt
Spectrometer: HR+D1059
Trigger mode: 1
Integration Time (sec): 1.000000E-1
Scans to average: 1
Electric dark correction enabled: true
Nonlinearity correction enabled: false
Boxcar width: 0
XAxis mode: Wavelengths
Number of Pixels in Spectrum: 2048
>>>>>Begin Spectral Data<<<<<
223.165	-23.62
223.4	-23.62
223.635	-23.62
223.869	-16.62
224.104	-21.62
224.338	-0.62
224.573	-8.62
224.808	-20.62
225.042	-12.62
225.277	-1.62
225.511	3.38
225.746	-3.62
225.98	4.38
226.215	9.38
226.449	21.38
226.683	3.38
226.918	24.38
227.152	43.38
227.387	51.38
227.621	24.38
227.856	44.38
228.09	37.38
228.324	44.38
228.559	54.38
228.793	56.38
229.027	69.38
229.262	54.38
229.496	61.38
229.73	70.38
229.964	79.38
230.199	63.38
230.433	74.38
230.667	76.38
230.901	76.38
231.136	82.38
231.37	98.38
231.604	96.38
231.838	97.38
232.072	97.38
232.306	86.38
232.541	78.38
232.775	88.38
233.009	78.38
233.243	80.38
233.477	100.38
233.711	87.38
233.945	83.38
234.179	81.38
234.413	90.38
234.647	91.38
234.881	90.38
235.115	83.38
235.349	74.38
235.583	89.38
235.817	72.38
236.051	94.38
236.285	72.38
236.519	78.38
236.753	87.38
236.987	75.38
237.221	66.38
237.455	95.38
237.689	79.38
237.922	91.38
238.156	92.38
238.39	80.38
238.624	92.38
238.858	76.38
239.091	77.38
239.325	71.38
239.559	92.38
239.793	82.38
240.027	73.38
240.26	68.38
240.494	67.38
240.728	77.38
240.961	81.38
241.195	67.38
241.429	72.38
241.662	76.38
241.896	82.38
242.13	63.38
242.363	78.38
242.597	77.38
242.83	75.38
243.064	85.38
243.298	82.38
243.531	93.38
243.765	80.38
243.998	85.38
244.232	86.38
244.465	76.38
244.699	85.38
244.932	85.38
245.166	79.38
245.399	76.38
245.633	76.38
245.866	78.38
246.099	82.38
246.333	99.38
246.566	71.38
246.8	79.38
247.033	95.38
247.266	92.38
247.5	83.38
247.733	80.38
247.966	86.38
248.2	82.38
248.433	94.38
248.666	68.38
248.899	74.38
249.133	71.38
249.366	91.38
249.599	72.38
249.832	90.38
250.066	69.38
250.299	69.38
250.532	87.38
250.765	95.38
250.998	77.38
251.231	84.38
251.465	85.38
251.698	60.38
251.931	88.38
252.164	90.38
252.397	94.38
252.63	96.38
252.863	79.38
253.096	95.38
253.329	100.38
253.562	87.38
253.795	77.38
254.028	76.38
254.261	67.38
254.494	77.38
254.727	81.38
254.96	87.38
255.193	86.38
255.426	81.38
255.659	81.38
255.892	83.38
256.124	93.38
256.357	86.38
256.59	84.38
256.823	82.38
257.056	86.38
257.289	79.38
257.521	87.38
257.754	83.38
257.987	96.38
258.22	91.38
258.452	72.38
258.685	83.38
258.918	87.38
259.151	82.38
259.383	82.38
259.616	82.38
259.849	88.38
260.081	89.38
260.314	84.38
260.547	87.38
260.779	97.38
261.012	93.38
261.244	83.38
261.477	90.38
261.71	91.38
261.942	85.38
262.175	75.38
262.407	71.38
262.64	86.38
262.872	75.38
263.105	93.38
263.337	77.38
263.57	94.38
263.802	94.38
264.035	100.38
264.267	82.38
264.499	82.38
264.732	83.38
264.964	94.38
265.197	88.38
265.429	97.38
265.661	82.38
265.894	87.38
266.126	91.38
266.358	86.38
266.591	80.38
266.823	104.38
267.055	84.38
267.287	92.38
267.52	72.38
267.752	83.38
267.984	84.38
268.216	77.38
268.448	86.38
268.681	92.38
268.913	92.38
269.145	84.38
269.377	77.38
269.609	84.38
269.841	95.38
270.073	79.38
270.306	84.38
270.538	73.38
270.77	83.38
271.002	86.38
271.234	94.38
271.466	93.38
271.698	85.38
271.93	91.38
272.162	92.38
272.394	85.38
272.626	89.38
272.858	86.38
273.09	87.38
273.322	107.38
273.553	91.38
273.785	89.38
274.017	92.38
274.249	105.38
274.481	81.38
274.713	88.38
274.945	94.38
275.176	86.38
275.408	99.38
275.64	87.38
275.872	84.38
276.104	77.38
276.335	81.38
276.567	92.38
276.799	99.38
277.031	82.38
277.262	93.38
277.494	90.38
277.726	102.38
277.957	89.38
278.189	93.38
278.421	98.38
278.652	109.38
278.884	113.38
279.115	98.38
279.347	89.38
279.579	100.38
279.81	81.38
280.042	90.38
280.273	84.38
280.505	100.38
280.736	81.38
280.968	74.38
281.199	97.38
281.431	98.38
281.662	82.38
281.894	82.38
282.125	92.38
282.356	98.38
282.588	92.38
282.819	97.38
283.051	81.38
283.282	94.38
283.513	100.38
283.745	86.38
283.976	95.38
284.207	89.38
284.439	96.38
284.67	96.38
284.901	94.38
285.132	99.38
285.364	91.38
285.595	104.38
285.826	87.38
286.057	96.38
286.288	92.38
286.52	87.38
286.751	101.38
286.982	104.38
287.213	97.38
287.444	90.38
287.675	89.38
287.906	72.38
288.138	95.38
288.369	94.38
288.6	99.38
288.831	86.38
289.062	95.38
289.293	105.38
289.524	83.38
289.755	98.38
289.986	90.38
290.217	105.38
290.448	98.38
290.679	85.38
290.91	76.38
291.141	89.38
291.371	99.38
291.602	87.38
291.833	100.38
292.064	99.38
292.295	90.38
292.526	75.38
292.757	87.38
292.987	71.38
293.218	92.38
293.449	99.38
293.68	83.38
293.91	95.38
294.141	98.38
294.372	94.38
294.603	87.38
294.833	92.38
295.064	92.38
295.295	78.38
295.525	96.38
295.756	98.38
295.987	91.38
296.217	83.38
296.448	82.38
296.679	95.38
296.909	100.38
297.14	80.38
297.37	78.38
297.601	99.38
297.831	102.38
298.062	96.38
298.292	89.38
298.523	98.38
298.753	83.38
298.984	83.38
299.214	99.38
299.445	99.38
299.675	90.38
299.905	89.38
300.136	108.38
300.366	97.38
300.597	99.38
300.827	92.38
301.057	93.38
301.288	105.38
301.518	81.38
301.748	95.38
301.979	105.38
302.209	103.38
302.439	101.38
302.669	83.38
302.9	88.38
303.13	109.38
303.36	80.38
303.59	96.38
303.82	96.38
304.051	103.38
304.281	98.38
304.511	92.38
304.741	95.38
304.971	98.38
305.201	116.38
305.431	96.38
305.661	86.38
305.891	92.38
306.121	101.38
306.352	94.38
306.582	73.38
306.812	90.38
307.042	114.38
307.272	78.38
307.502	84.38
307.731	90.38
307.961	96.38
308.191	93.38
308.421	99.38
308.651	103.38
308.881	96.38
309.111	84.38
309.341	74.38
309.571	94.38
309.8	92.38
310.03	85.38
310.26	96.38
310.49	88.38
310.72	91.38
310.949	98.38
311.179	102.38
311.409	98.38
311.639	83.38
311.868	89.38
312.098	93.38
312.328	107.38
312.557	106.38
312.787	76.38
313.017	89.38
313.246	95.38
313.476	91.38
313.706	95.38
313.935	91.38
314.165	89.38
314.394	83.38
314.624	77.38
314.853	106.38
315.083	107.38
315.312	91.38
315.542	99.38
315.771	95.38
316.001	95.38
316.23	83.38
316.46	96.38
316.689	106.38
316.919	92.38
317.148	94.38
317.377	105.38
317.607	99.38
317.836	94.38
318.065	92.38
318.295	97.38
318.524	84.38
318.753	91.38
318.983	83.38
319.212	95.38
319.441	92.38
319.67	106.38
319.9	104.38
320.129	98.38
320.358	83.38
320.587	87.38
320.816	108.38
321.046	97.38
321.275	98.38
321.504	96.38
321.733	92.38
321.962	85.38
322.191	92.38
322.42	79.38
322.649	91.38
322.878	98.38
323.108	100.38
323.337	93.38
323.566	87.38
323.795	93.38
324.024	95.38
324.253	100.38
324.482	89.38
324.71	89.38
324.939	83.38
325.168	98.38
325.397	91.38
325.626	103.38
325.855	95.38
326.084	90.38
326.313	105.38
326.542	83.38
326.77	92.38
326.999	88.38
327.228	96.38
327.457	78.38
327.686	95.38
327.914	96.38
328.143	89.38
328.372	88.38
328.6	102.38
328.829	98.38
329.058	100.38
329.287	104.38
329.515	84.38
329.744	102.38
329.972	94.38
330.201	111.38
330.43	103.38
330.658	93.38
330.887	94.38
331.115	98.38
331.344	98.38
331.572	89.38
331.801	101.38
332.03	98.38
332.258	97.38
332.486	92.38
332.715	71.38
332.943	99.38
333.172	95.38
333.4	88.38
333.629	98.38
333.857	84.38
334.085	96.38
334.314	89.38
334.542	86.38
334.771	96.38
334.999	97.38
335.227	92.38
335.455	114.38
335.684	95.38
335.912	96.38
336.14	91.38
336.369	86.38
336.597	85.38
336.825	95.38
337.053	90.38
337.281	91.38
337.51	88.38
337.738	95.38
337.966	81.38
338.194	100.38
338.422	98.38
338.65	99.38
338.878	80.38
339.106	86.38
339.334	87.38
339.562	86.38
339.79	100.38
340.018	91.38
340.246	82.38
340.474	81.38
340.702	103.38
340.93	91.38
341.158	87.38
341.386	98.38
341.614	100.38
341.842	96.38
342.07	102.38
342.298	99.38
342.526	96.38
342.754	98.38
342.981	76.38
343.209	77.38
343.437	102.38
343.665	91.38
343.893	100.38
344.12	112.38
344.348	91.38
344.576	99.38
344.804	105.38
345.031	101.38
345.259	90.38
345.487	83.38
345.714	108.38
345.942	83.38
346.17	107.38
346.397	96.38
346.625	102.38
346.853	97.38
347.08	95.38
347.308	99.38
347.535	87.38
347.763	91.38
347.99	98.38
348.218	91.38
348.445	101.38
348.673	106.38
348.9	105.38
349.128	91.38
349.355	93.38
349.583	93.38
349.81	91.38
350.037	87.38
350.265	84.38
350.492	93.38
350.72	93.38
350.947	93.38
351.174	86.38
351.402	109.38
351.629	93.38
351.856	91.38
352.083	103.38
352.311	101.38
352.538	91.38
352.765	98.38
352.992	93.38
353.22	84.38
353.447	72.38
353.674	96.38
353.901	107.38
354.128	94.38
354.355	95.38
354.583	92.38
354.81	100.38
355.037	106.38
355.264	101.38
355.491	104.38
355.718	95.38
355.945	105.38
356.172	89.38
356.399	81.38
356.626	83.38
356.853	95.38
357.08	106.38
357.307	84.38
357.534	86.38
357.761	83.38
357.988	105.38
358.215	89.38
358.441	88.38
358.668	86.38
358.895	79.38
359.122	79.38
359.349	100.38
359.576	111.38
359.802	94.38
360.029	76.38
360.256	94.38
360.483	89.38
360.709	94.38
360.936	96.38
361.163	102.38
361.39	104.38
361.616	86.38
361.843	96.38
362.07	75.38
362.296	105.38
362.523	93.38
362.749	89.38
362.976	92.38
363.203	88.38
363.429	84.38
363.656	88.38
363.882	103.38
364.109	106.38
364.335	97.38
364.562	91.38
364.788	91.38
365.015	97.38
365.241	93.38
365.468	101.38
365.694	94.38
365.92	92.38
366.147	100.38
366.373	92.38
366.599	92.38
366.826	92.38
367.052	94.38
367.278	97.38
367.505	91.38
367.731	92.38
367.957	93.38
368.184	94.38
368.41	91.38
368.636	103.38
368.862	84.38
369.089	94.38
369.315	93.38
369.541	113.38
369.767	85.38
369.993	99.38
370.219	96.38
370.445	97.38
370.672	89.38
370.898	92.38
371.124	97.38
371.35	92.38
371.576	101.38
371.802	102.38
372.028	77.38
372.254	90.38
372.48	98.38
372.706	79.38
372.932	110.38
373.158	86.38
373.384	90.38
373.61	96.38
373.835	102.38
374.061	103.38
374.287	100.38
374.513	97.38
374.739	83.38
374.965	90.38
375.191	88.38
375.416	106.38
375.642	101.38
375.868	91.38
376.094	101.38
376.319	93.38
376.545	105.38
376.771	104.38
376.997	75.38
377.222	93.38
377.448	98.38
377.674	87.38
377.899	87.38
378.125	78.38
378.35	92.38
378.576	94.38
378.802	100.38
379.027	98.38
379.253	102.38
379.478	95.38
379.704	96.38
379.929	108.38
380.155	100.38
380.38	108.38
380.606	93.38
380.831	81.38
381.057	81.38
381.282	77.38
381.507	92.38
381.733	95.38
381.958	98.38
382.184	98.38
382.409	86.38
382.634	115.38
382.86	99.38
383.085	87.38
383.31	88.38
383.535	104.38
383.761	109.38
383.986	90.38
384.211	90.38
384.436	92.38
384.662	90.38
384.887	96.38
385.112	103.38
385.337	93.38
385.562	101.38
385.787	100.38
386.013	105.38
386.238	100.38
386.463	115.38
386.688	104.38
386.913	89.38
387.138	95.38
387.363	96.38
387.588	106.38
387.813	95.38
388.038	107.38
388.263	107.38
388.488	107.38
388.713	97.38
388.938	105.38
389.163	110.38
389.387	108.38
389.612	102.38
389.837	92.38
390.062	102.38
390.287	89.38
390.512	89.38
390.736	80.38
390.961	92.38
391.186	96.38
391.411	91.38
391.636	89.38
391.86	96.38
392.085	88.38
392.31	84.38
392.534	91.38
392.759	104.38
392.984	92.38
393.208	91.38
393.433	87.38
393.658	99.38
393.882	93.38
394.107	112.38
394.331	103.38
394.556	111.38
394.78	89.38
395.005	109.38
395.229	107.38
395.454	101.38
395.678	96.38
395.903	88.38
396.127	84.38
396.352	105.38
396.576	94.38
396.801	111.38
397.025	88.38
397.249	103.38
397.474	93.38
397.698	108.38
397.922	104.38
398.147	104.38
398.371	98.38
398.595	91.38
398.82	85.38
399.044	104.38
399.268	89.38
399.492	107.38
399.717	104.38
399.941	115.38
400.165	103.38
400.389	87.38
400.613	91.38
400.837	92.38
401.062	89.38
401.286	90.38
401.51	106.38
401.734	89.38
401.958	97.38
402.182	105.38
402.406	103.38
402.63	87.38
402.854	101.38
403.078	104.38
403.302	88.38
403.526	113.38
403.75	111.38
403.974	99.38
404.198	93.38
404.422	105.38
404.645	117.38
404.869	115.38
405.093	111.38
405.317	95.38
405.541	92.38
405.765	86.38
405.988	87.38
406.212	100.38
406.436	117.38
406.66	103.38
406.883	108.38
407.107	101.38
407.331	109.38
407.555	117.38
407.778	98.38
408.002	107.38
408.226	99.38
408.449	107.38
408.673	104.38
408.896	100.38
409.12	113.38
409.344	98.38
409.567	95.38
409.791	111.38
410.014	103.38
410.238	104.38
410.461	90.38
410.685	95.38
410.908	97.38
411.132	113.38
411.355	102.38
411.578	92.38
411.802	94.38
412.025	111.38
412.249	99.38
412.472	91.38
412.695	95.38
412.919	91.38
413.142	96.38
413.365	109.38
413.589	94.38
413.812	89.38
414.035	99.38
414.258	91.38
414.482	94.38
414.705	104.38
414.928	100.38
415.151	109.38
415.374	97.38
415.597	102.38
415.821	101.38
416.044	94.38
416.267	95.38
416.49	90.38
416.713	104.38
416.936	82.38
417.159	95.38
417.382	107.38
417.605	102.38
417.828	103.38
418.051	77.38
418.274	96.38
418.497	102.38
418.72	106.38
418.943	96.38
419.166	97.38
419.389	111.38
419.611	104.38
419.834	107.38
420.057	108.38
420.28	95.38
420.503	99.38
420.726	80.38
420.948	109.38
421.171	97.38
421.394	96.38
421.617	93.38
421.839	84.38
422.062	82.38
422.285	99.38
422.507	88.38
422.73	90.38
422.953	109.38
423.175	90.38
423.398	88.38
423.621	99.38
423.843	98.38
424.066	104.38
424.288	94.38
424.511	93.38
424.733	106.38
424.956	108.38
425.178	93.38
425.401	101.38
425.623	84.38
425.846	106.38
426.068	99.38
426.291	108.38
426.513	104.38
426.735	87.38
426.958	93.38
427.18	87.38
427.402	93.38
427.625	91.38
427.847	87.38
428.069	100.38
428.292	98.38
428.514	92.38
428.736	99.38
428.958	88.38
429.181	112.38
429.403	83.38
429.625	87.38
429.847	95.38
430.069	99.38
430.292	91.38
430.514	77.38
430.736	88.38
430.958	96.38
431.18	92.38
431.402	83.38
431.624	103.38
431.846	103.38
432.068	87.38
432.29	87.38
432.512	100.38
432.734	99.38
432.956	90.38
433.178	92.38
433.4	95.38
433.622	108.38
433.844	104.38
434.066	95.38
434.287	106.38
434.509	87.38
434.731	91.38
434.953	98.38
435.175	95.38
435.397	95.38
435.618	98.38
435.84	82.38
436.062	95.38
436.284	92.38
436.505	95.38
436.727	97.38
436.949	101.38
437.17	83.38
437.392	83.38
437.614	101.38
437.835	93.38
438.057	106.38
438.278	91.38
438.5	100.38
438.721	97.38
438.943	108.38
439.165	106.38
439.386	79.38
439.608	105.38
439.829	100.38
440.05	90.38
440.272	92.38
440.493	102.38
440.715	92.38
440.936	92.38
441.158	90.38
441.379	90.38
441.6	102.38
441.822	105.38
442.043	111.38
442.264	80.38
442.486	104.38
442.707	92.38
442.928	105.38
443.149	88.38
443.371	115.38
443.592	105.38
443.813	92.38
444.034	98.38
444.255	113.38
444.476	101.38
444.698	107.38
444.919	88.38
445.14	220.38
445.361	164.38
445.582	93.38
445.803	100.38
446.024	100.38
446.245	80.38
446.466	103.38
446.687	82.38
446.908	90.38
447.129	93.38
447.35	69.38
447.571	95.38
447.792	105.38
448.013	97.38
448.234	104.38
448.455	97.38
448.675	99.38
448.896	85.38
449.117	95.38
449.338	108.38
449.559	100.38
449.779	95.38
450	97.38
450.221	76.38
450.442	101.38
450.662	94.38
450.883	102.38
451.104	92.38
451.324	85.38
451.545	89.38
451.766	95.38
451.986	108.38
452.207	94.38
452.428	91.38
452.648	99.38
452.869	103.38
453.089	92.38
453.31	93.38
453.53	102.38
453.751	103.38
453.971	99.38
454.192	102.38
454.412	98.38
454.633	78.38
454.853	101.38
455.073	93.38
455.294	93.38
455.514	91.38
455.734	86.38
455.955	111.38
456.175	95.38
456.395	93.38
456.616	96.38
456.836	101.38
457.056	95.38
457.276	94.38
457.497	103.38
457.717	89.38
457.937	90.38
458.157	96.38
458.377	91.38
458.598	108.38
458.818	93.38
459.038	93.38
459.258	98.38
459.478	103.38
459.698	80.38
459.918	93.38
460.138	106.38
460.358	111.38
460.578	107.38
460.798	96.38
461.018	125.38
461.238	95.38
461.458	92.38
461.678	102.38
461.898	107.38
462.118	105.38
462.338	107.38
462.558	92.38
462.777	100.38
462.997	112.38
463.217	107.38
463.437	111.38
463.657	107.38
463.876	91.38
464.096	115.38
464.316	92.38
464.536	122.38
464.755	113.38
464.975	100.38
465.195	100.38
465.414	102.38
465.634	100.38
465.854	95.38
466.073	103.38
466.293	112.38
466.512	111.38
466.732	101.38
466.951	107.38
467.171	92.38
467.391	89.38
467.61	101.38
467.829	114.38
468.049	108.38
468.268	113.38
468.488	98.38
468.707	95.38
468.927	106.38
469.146	111.38
469.365	106.38
469.585	100.38
469.804	107.38
470.023	113.38
470.243	99.38
470.462	87.38
470.681	103.38
470.901	103.38
471.12	95.38
471.339	104.38
471.558	99.38
471.777	102.38
471.997	95.38
472.216	107.38
472.435	98.38
472.654	93.38
472.873	99.38
473.092	109.38
473.311	92.38
473.53	106.38
473.749	111.38
473.968	109.38
474.187	109.38
474.406	99.38
474.625	114.38
474.844	108.38
475.063	108.38
475.282	83.38
475.501	104.38
475.72	106.38
475.939	103.38
476.158	96.38
476.377	92.38
476.596	99.38
476.814	98.38
477.033	84.38
477.252	115.38
477.471	99.38
477.69	107.38
477.908	93.38
478.127	96.38
478.346	89.38
478.564	107.38
478.783	92.38
479.002	106.38
479.22	95.38
479.439	105.38
479.658	102.38
479.876	100.38
480.095	101.38
480.313	115.38
480.532	100.38
480.751	100.38
480.969	102.38
481.188	95.38
481.406	107.38
481.624	109.38
481.843	91.38
482.061	95.38
482.28	105.38
482.498	105.38
482.717	95.38
482.935	106.38
483.153	119.38
483.372	106.38
483.59	101.38
483.808	113.38
484.027	114.38
484.245	104.38
484.463	97.38
484.681	109.38
484.9	103.38
485.118	109.38
485.336	106.38
485.554	112.38
485.772	95.38
485.99	100.38
486.209	107.38
486.427	91.38
486.645	89.38
486.863	100.38
487.081	98.38
487.299	105.38
487.517	119.38
487.735	102.38
487.953	122.38
488.171	105.38
488.389	91.38
488.607	112.38
488.825	96.38
489.043	96.38
489.261	105.38
489.479	109.38
489.696	115.38
489.914	106.38
490.132	118.38
490.35	105.38
490.568	98.38
490.786	103.38
491.003	112.38
491.221	97.38
491.439	102.38
491.657	100.38
491.874	112.38
492.092	122.38
492.31	127.38
492.527	119.38
492.745	117.38
492.963	121.38
493.18	103.38
493.398	103.38
493.615	105.38
493.833	116.38
494.05	109.38
494.268	120.38
494.485	100.38
494.703	115.38
494.92	123.38
495.138	107.38
495.355	107.38
495.573	114.38
495.79	112.38
496.008	123.38
496.225	125.38
496.442	107.38
496.66	119.38
496.877	117.38
497.094	138.38
497.312	121.38
497.529	120.38
497.746	108.38
497.963	127.38
498.181	124.38
498.398	113.38
498.615	127.38
498.832	113.38
499.049	131.38
499.267	115.38
499.484	122.38
499.701	137.38
499.918	159.38
500.135	137.38
500.352	145.38
500.569	149.38
500.786	153.38
501.003	153.38
501.22	147.38
501.437	133.38
501.654	122.38
501.871	137.38
502.088	113.38
502.305	124.38
502.522	124.38
502.739	112.38
502.956	125.38
503.172	116.38
503.389	119.38
503.606	120.38
503.823	100.38
504.04	112.38
504.256	105.38
504.473	119.38
504.69	113.38
504.907	112.38
505.123	113.38
505.34	104.38
505.557	107.38
505.773	105.38
505.99	109.38
506.207	112.38
506.423	98.38
506.64	113.38
506.856	116.38
507.073	106.38
507.289	116.38
507.506	109.38
507.722	104.38
507.939	102.38
508.155	102.38
508.372	108.38
508.588	120.38
508.805	92.38
509.021	113.38
509.238	109.38
509.454	115.38
509.67	98.38
509.887	90.38
510.103	97.38
510.319	100.38
510.536	99.38
510.752	109.38
510.968	99.38
511.184	95.38
511.401	95.38
511.617	111.38
511.833	101.38
512.049	104.38
512.265	102.38
512.481	108.38
512.698	111.38
512.914	91.38
513.13	97.38
513.346	97.38
513.562	111.38
513.778	99.38
513.994	99.38
514.21	113.38
514.426	113.38
514.642	112.38
514.858	105.38
515.074	98.38
515.29	95.38
515.506	100.38
515.721	111.38
515.937	104.38
516.153	111.38
516.369	102.38
516.585	105.38
516.801	123.38
517.016	115.38
517.232	119.38
517.448	118.38
517.664	104.38
517.879	108.38
518.095	105.38
518.311	116.38
518.527	92.38
518.742	92.38
518.958	111.38
519.173	117.38
519.389	110.38
519.605	113.38
519.82	97.38
520.036	106.38
520.251	103.38
520.467	100.38
520.682	115.38
520.898	108.38
521.113	113.38
521.329	100.38
521.544	111.38
521.76	100.38
521.975	102.38
522.19	106.38
522.406	95.38
522.621	108.38
522.836	83.38
523.052	95.38
523.267	108.38
523.482	98.38
523.698	106.38
523.913	83.38
524.128	113.38
524.343	113.38
524.559	101.38
524.774	113.38
524.989	104.38
525.204	102.38
525.419	120.38
525.634	82.38
525.849	108.38
526.064	87.38
526.28	93.38
526.495	103.38
526.71	103.38
526.925	116.38
527.14	99.38
527.355	105.38
527.57	104.38
527.785	93.38
527.999	100.38
528.214	103.38
528.429	102.38
528.644	105.38
528.859	103.38
529.074	97.38
529.289	103.38
529.503	105.38
529.718	114.38
529.933	107.38
530.148	100.38
530.363	104.38
530.577	106.38
530.792	101.38
531.007	95.38
531.221	93.38
531.436	101.38
531.651	111.38
531.865	116.38
532.08	97.38
532.295	102.38
532.509	102.38
532.724	123.38
532.938	97.38
533.153	91.38
533.367	105.38
533.582	102.38
533.796	98.38
534.011	112.38
534.225	105.38
534.44	108.38
534.654	111.38
534.868	105.38
535.083	96.38
535.297	99.38
535.511	96.38
535.726	111.38
535.94	100.38
536.154	92.38
536.369	116.38
536.583	111.38
536.797	102.38
537.011	107.38
537.225	108.38
537.44	95.38
537.654	101.38
537.868	97.38
538.082	102.38
538.296	105.38
538.51	98.38
538.724	101.38
538.938	95.38
539.153	109.38
539.367	97.38
539.581	115.38
539.795	99.38
540.009	103.38
540.222	103.38
540.436	100.38
540.65	85.38
540.864	104.38
541.078	103.38
541.292	104.38
541.506	102.38
541.72	103.38
541.934	101.38
542.147	108.38
542.361	106.38
542.575	120.38
542.789	111.38
543.002	104.38
543.216	113.38
543.43	92.38
543.644	99.38
543.857	100.38
544.071	105.38
544.285	102.38
544.498	99.38
544.712	91.38
544.925	104.38
545.139	107.38
545.352	109.38
545.566	103.38
545.779	90.38
545.993	112.38
546.206	101.38
546.42	122.38
546.633	113.38
546.847	113.38
547.06	106.38
547.274	115.38
547.487	106.38
547.7	104.38
547.914	105.38
548.127	108.38
548.34	96.38
548.554	107.38
548.767	104.38
548.98	124.38
549.193	116.38
549.407	115.38
549.62	116.38
549.833	100.38
550.046	95.38
550.259	105.38
550.473	97.38
550.686	117.38
550.899	111.38
551.112	116.38
551.325	102.38
551.538	100.38
551.751	112.38
551.964	91.38
552.177	81.38
552.39	103.38
552.603	111.38
552.816	105.38
553.029	112.38
553.242	106.38
553.455	100.38
553.667	111.38
553.88	101.38
554.093	103.38
554.306	109.38
554.519	102.38
554.732	113.38
554.944	108.38
555.157	100.38
555.37	98.38
555.583	100.38
555.795	97.38
556.008	100.38
556.221	101.38
556.433	102.38
556.646	100.38
556.859	95.38
557.071	104.38
557.284	95.38
557.496	105.38
557.709	101.38
557.921	121.38
558.134	103.38
558.346	99.38
558.559	96.38
558.771	96.38
558.984	93.38
559.196	98.38
559.409	99.38
559.621	81.38
559.833	109.38
560.046	86.38
560.258	103.38
560.47	95.38
560.683	98.38
560.895	89.38
561.107	95.38
561.32	91.38
561.532	114.38
561.744	104.38
561.956	98.38
562.168	85.38
562.381	116.38
562.593	112.38
562.805	95.38
563.017	95.38
563.229	100.38
563.441	85.38
563.653	107.38
563.865	118.38
564.077	113.38
564.289	99.38
564.501	113.38
564.713	90.38
564.925	102.38
565.137	91.38
565.349	94.38
565.561	91.38
565.773	95.38
565.985	97.38
566.197	90.38
566.408	103.38
566.62	111.38
566.832	104.38
567.044	103.38
567.255	112.38
567.467	107.38
567.679	106.38
567.891	100.38
568.102	114.38
568.314	107.38
568.526	113.38
568.737	108.38
568.949	111.38
569.161	90.38
569.372	96.38
569.584	98.38
569.795	111.38
570.007	98.38
570.218	91.38
570.43	96.38
570.641	118.38
570.853	98.38
571.064	97.38
571.276	91.38
571.487	87.38
571.698	107.38
571.91	94.38
572.121	98.38
572.333	103.38
572.544	100.38
572.755	90.38
572.966	95.38
573.178	105.38
573.389	90.38
573.6	92.38
573.811	97.38
574.023	104.38
574.234	93.38
574.445	84.38
574.656	81.38
574.867	85.38
575.078	80.38
575.289	95.38
575.501	95.38
575.712	91.38
575.923	98.38
576.134	88.38
576.345	99.38
576.556	93.38
576.767	76.38
576.978	99.38
577.188	103.38
577.399	104.38
577.61	92.38
577.821	91.38
578.032	76.38
578.243	95.38
578.454	99.38
578.665	102.38
578.875	103.38
579.086	88.38
579.297	96.38
579.508	83.38
579.718	105.38
579.929	99.38
580.14	97.38
580.35	107.38
580.561	99.38
580.772	91.38
580.982	105.38
581.193	82.38
581.403	93.38
581.614	97.38
581.825	89.38
582.035	93.38
582.246	96.38
582.456	103.38
582.667	97.38
582.877	97.38
583.087	90.38
583.298	87.38
583.508	81.38
583.719	85.38
583.929	75.38
584.139	104.38
584.35	89.38
584.56	103.38
584.77	91.38
584.981	91.38
585.191	91.38
585.401	104.38
585.611	90.38
585.821	101.38
586.032	74.38
586.242	90.38
586.452	93.38
586.662	85.38
586.872	95.38
587.082	105.38
587.292	106.38
587.502	105.38
587.713	88.38
587.923	107.38
588.133	106.38
588.343	88.38
588.553	88.38
588.762	97.38
588.972	105.38
589.182	119.38
589.392	108.38
589.602	101.38
589.812	107.38
590.022	96.38
590.232	99.38
590.441	97.38
590.651	78.38
590.861	91.38
591.071	100.38
591.281	97.38
591.49	82.38
591.7	88.38
591.91	91.38
592.119	83.38
592.329	98.38
592.539	79.38
592.748	98.38
592.958	96.38
593.167	84.38
593.377	92.38
593.587	89.38
593.796	93.38
594.006	87.38
594.215	108.38
594.424	88.38
594.634	80.38
594.843	98.38
595.053	94.38
595.262	95.38
595.472	94.38
595.681	98.38
595.89	81.38
596.1	89.38
596.309	99.38
596.518	86.38
596.727	104.38
596.937	100.38
597.146	102.38
597.355	93.38
597.564	83.38
597.774	102.38
597.983	83.38
598.192	76.38
598.401	84.38
598.61	77.38
598.819	99.38
599.028	91.38
599.237	92.38
599.446	88.38
599.655	99.38
599.864	74.38
600.073	90.38
600.282	95.38
600.491	91.38
600.7	82.38
600.909	92.38
601.118	95.38
601.327	94.38
601.536	98.38
601.745	95.38
601.953	85.38
602.162	94.38
602.371	100.38
602.58	83.38
602.789	89.38
602.997	89.38
603.206	96.38
603.415	100.38
603.623	97.38
603.832	95.38
604.041	92.38
604.249	80.38
604.458	77.38
604.666	75.38
604.875	84.38
605.084	82.38
605.292	93.38
605.501	87.38
605.709	96.38
605.918	86.38
606.126	83.38
606.334	88.38
606.543	84.38
606.751	96.38
606.96	98.38
607.168	107.38
607.376	85.38
607.585	77.38
607.793	91.38
608.001	100.38
608.21	108.38
608.418	90.38
608.626	86.38
608.834	85.38
609.043	92.38
609.251	91.38
609.459	82.38
609.667	98.38
609.875	93.38
610.083	98.38
610.291	90.38
610.499	94.38
610.707	87.38
610.916	82.38
611.124	93.38
611.332	85.38
611.54	103.38
611.748	95.38
611.955	101.38
612.163	93.38
612.371	80.38
612.579	91.38
612.787	96.38
612.995	94.38
613.203	91.38
613.411	87.38
613.618	84.38
613.826	88.38
614.034	97.38
614.242	105.38
614.449	92.38
614.657	91.38
614.865	94.38
615.072	101.38
615.28	95.38
615.488	77.38
615.695	83.38
615.903	85.38
616.111	90.38
616.318	99.38
616.526	87.38
616.733	87.38
616.941	79.38
617.148	98.38
617.356	83.38
617.563	89.38
617.771	85.38
617.978	84.38
618.185	95.38
618.393	77.38
618.6	95.38
618.807	83.38
619.015	78.38
619.222	91.38
619.429	95.38
619.637	89.38
619.844	103.38
620.051	82.38
620.258	90.38
620.466	89.38
620.673	90.38
620.88	87.38
621.087	86.38
621.294	76.38
621.501	84.38
621.708	79.38
621.915	84.38
622.122	86.38
622.329	90.38
622.536	74.38
622.743	86.38
622.95	92.38
623.157	78.38
623.364	77.38
623.571	96.38
623.778	83.38
623.985	91.38
624.192	90.38
624.399	79.38
624.606	92.38
624.812	90.38
625.019	83.38
625.226	99.38
625.433	83.38
625.639	85.38
625.846	92.38
626.053	94.38
626.259	92.38
626.466	85.38
626.673	93.38
626.879	87.38
627.086	75.38
627.293	84.38
627.499	81.38
627.706	92.38
627.912	80.38
628.119	95.38
628.325	95.38
628.532	91.38
628.738	92.38
628.945	89.38
629.151	88.38
629.357	88.38
629.564	81.38
629.77	89.38
629.976	93.38
630.183	75.38
630.389	76.38
630.595	90.38
630.802	88.38
631.008	84.38
631.214	85.38
631.42	96.38
631.627	82.38
631.833	99.38
632.039	83.38
632.245	97.38
632.451	85.38
632.657	86.38
632.863	84.38
633.069	93.38
633.275	85.38
633.481	89.38
633.688	87.38
633.893	78.38
634.099	97.38
634.305	95.38
634.511	86.38
634.717	95.38
634.923	78.38
635.129	106.38
635.335	89.38
635.541	78.38
635.747	87.38
635.952	85.38
636.158	90.38
636.364	83.38
636.57	81.38
636.775	100.38
636.981	100.38
637.187	78.38
637.392	91.38
637.598	92.38
637.804	88.38
638.009	82.38
638.215	90.38
638.421	93.38
638.626	76.38
638.832	92.38
639.037	90.38
639.243	85.38
639.448	87.38
639.654	72.38
639.859	85.38
640.065	91.38
640.27	101.38
640.475	86.38
640.681	85.38
640.886	97.38
641.091	88.38
641.297	80.38
641.502	83.38
641.707	102.38
641.913	95.38
642.118	98.38
642.323	76.38
642.528	86.38
642.733	91.38
642.939	94.38
643.144	85.38
643.349	86.38
643.554	80.38
643.759	75.38
643.964	74.38
644.169	96.38
644.374	69.38
644.579	81.38
644.784	92.38
644.989	103.38
645.194	95.38
645.399	91.38
645.604	87.38
645.809	82.38
646.014	87.38
646.219	95.38
646.423	95.38
646.628	100.38
646.833	77.38
647.038	93.38
647.243	99.38
647.447	85.38
647.652	96.38
647.857	80.38
648.062	86.38
648.266	80.38
648.471	91.38
648.676	90.38
648.88	96.38
649.085	83.38
649.289	84.38
649.494	94.38
649.698	81.38
649.903	89.38
650.107	94.38
650.312	91.38
650.516	86.38
650.721	93.38
650.925	93.38
651.13	91.38
651.334	95.38
651.539	80.38
651.743	87.38
651.947	79.38
652.152	91.38
652.356	80.38
652.56	80.38
652.764	96.38
652.969	93.38
653.173	92.38
653.377	87.38
653.581	82.38
653.785	93.38
653.99	80.38
654.194	75.38
654.398	86.38
654.602	96.38
654.806	101.38
655.01	87.38
655.214	72.38
655.418	80.38
655.622	82.38
655.826	90.38
656.03	85.38
656.234	75.38
656.438	95.38
656.642	92.38
656.846	97.38
657.049	96.38
657.253	72.38
657.457	79.38
657.661	85.38
657.865	82.38
658.068	86.38
658.272	79.38
658.476	82.38
658.68	79.38
658.883	87.38
659.087	72.38
659.291	76.38
659.494	82.38
659.698	81.38
659.901	76.38
660.105	73.38
660.309	84.38
660.512	67.38
660.716	88.38
660.919	81.38
661.123	80.38
661.326	89.38
661.53	76.38
661.733	87.38
661.936	82.38
662.14	68.38
662.343	78.38
662.546	81.38
662.75	87.38
662.953	83.38
663.156	67.38
663.36	66.38
663.563	83.38
663.766	76.38
663.969	79.38
664.173	87.38
664.376	79.38
664.579	68.38
664.782	79.38
664.985	89.38
665.188	84.38
665.391	82.38
665.594	84.38
665.797	83.38
666	75.38
666.203	76.38
666.406	78.38
666.609	75.38
666.812	92.38
667.015	90.38
667.218	92.38
667.421	78.38
667.624	78.38
667.827	82.38
668.03	70.38
668.232	83.38
668.435	91.38
668.638	98.38
668.841	96.38
669.043	67.38
669.246	90.38
669.449	91.38
669.651	81.38
669.854	90.38
670.057	92.38
670.259	73.38
670.462	92.38
670.665	95.38
670.867	80.38
671.07	91.38
671.272	80.38
671.475	70.38
671.677	78.38
671.88	74.38
672.082	86.38
672.284	81.38
672.487	86.38
672.689	74.38
672.892	79.38
