Data from Location5.07152019.Energy5.Lamp.07192019.3%Agarose_HRD10591_16-03-26-628.txt Node
Date: Fri Jul 19 16:03:26 EDT 2019
User: cochatt
Spectrometer: HR+D1059
Trigger mode: 1
Integration Time (sec): 1.000000E-1
Scans to average: 1
Electric dark correction enabled: true
Nonlinearity correction enabled: false
Boxcar width: 0
XAxis mode: Wavelengths
Number of Pixels in Spectrum: 2048
>>>>>Begin Spectral Data<<<<<
223.165	-23.62
223.4	-23.62
223.635	-23.62
223.869	-14.62
224.104	-18.62
224.338	-12.62
224.573	-25.62
224.808	-4.62
225.042	-11.62
225.277	0.38
225.511	-10.62
225.746	10.38
225.98	16.38
226.215	11.38
226.449	7.38
226.683	33.38
226.918	21.38
227.152	21.38
227.387	37.38
227.621	26.38
227.856	47.38
228.09	53.38
228.324	44.38
228.559	47.38
228.793	53.38
229.027	48.38
229.262	63.38
229.496	82.38
229.73	62.38
229.964	81.38
230.199	87.38
230.433	60.38
230.667	80.38
230.901	74.38
231.136	75.38
231.37	74.38
231.604	74.38
231.838	77.38
232.072	74.38
232.306	84.38
232.541	90.38
232.775	81.38
233.009	77.38
233.243	86.38
233.477	79.38
233.711	72.38
233.945	96.38
234.179	83.38
234.413	81.38
234.647	66.38
234.881	77.38
235.115	66.38
235.349	95.38
235.583	83.38
235.817	72.38
236.051	80.38
236.285	89.38
236.519	68.38
236.753	91.38
236.987	75.38
237.221	73.38
237.455	64.38
237.689	76.38
237.922	75.38
238.156	82.38
238.39	74.38
238.624	68.38
238.858	95.38
239.091	72.38
239.325	80.38
239.559	84.38
239.793	84.38
240.027	65.38
240.26	80.38
240.494	67.38
240.728	69.38
240.961	79.38
241.195	78.38
241.429	88.38
241.662	74.38
241.896	72.38
242.13	73.38
242.363	75.38
242.597	91.38
242.83	87.38
243.064	74.38
243.298	81.38
243.531	81.38
243.765	73.38
243.998	74.38
244.232	81.38
244.465	77.38
244.699	84.38
244.932	91.38
245.166	84.38
245.399	71.38
245.633	77.38
245.866	95.38
246.099	88.38
246.333	90.38
246.566	76.38
246.8	77.38
247.033	91.38
247.266	76.38
247.5	72.38
247.733	83.38
247.966	66.38
248.2	71.38
248.433	85.38
248.666	78.38
248.899	76.38
249.133	78.38
249.366	85.38
249.599	91.38
249.832	78.38
250.066	94.38
250.299	77.38
250.532	81.38
250.765	68.38
250.998	83.38
251.231	83.38
251.465	88.38
251.698	72.38
251.931	85.38
252.164	87.38
252.397	75.38
252.63	88.38
252.863	76.38
253.096	76.38
253.329	84.38
253.562	81.38
253.795	83.38
254.028	76.38
254.261	88.38
254.494	75.38
254.727	73.38
254.96	75.38
255.193	66.38
255.426	68.38
255.659	82.38
255.892	93.38
256.124	93.38
256.357	75.38
256.59	72.38
256.823	66.38
257.056	90.38
257.289	84.38
257.521	80.38
257.754	81.38
257.987	87.38
258.22	85.38
258.452	83.38
258.685	91.38
258.918	75.38
259.151	77.38
259.383	83.38
259.616	88.38
259.849	91.38
260.081	83.38
260.314	72.38
260.547	83.38
260.779	77.38
261.012	91.38
261.244	76.38
261.477	89.38
261.71	81.38
261.942	84.38
262.175	88.38
262.407	85.38
262.64	72.38
262.872	77.38
263.105	84.38
263.337	85.38
263.57	83.38
263.802	74.38
264.035	72.38
264.267	79.38
264.499	75.38
264.732	89.38
264.964	74.38
265.197	74.38
265.429	87.38
265.661	93.38
265.894	83.38
266.126	92.38
266.358	101.38
266.591	82.38
266.823	87.38
267.055	85.38
267.287	87.38
267.52	84.38
267.752	84.38
267.984	84.38
268.216	83.38
268.448	73.38
268.681	95.38
268.913	73.38
269.145	83.38
269.377	86.38
269.609	86.38
269.841	90.38
270.073	88.38
270.306	98.38
270.538	90.38
270.77	98.38
271.002	83.38
271.234	72.38
271.466	83.38
271.698	88.38
271.93	78.38
272.162	89.38
272.394	86.38
272.626	74.38
272.858	94.38
273.09	92.38
273.322	87.38
273.553	75.38
273.785	97.38
274.017	93.38
274.249	83.38
274.481	83.38
274.713	94.38
274.945	79.38
275.176	70.38
275.408	92.38
275.64	88.38
275.872	76.38
276.104	88.38
276.335	96.38
276.567	86.38
276.799	81.38
277.031	92.38
277.262	90.38
277.494	91.38
277.726	81.38
277.957	87.38
278.189	77.38
278.421	89.38
278.652	84.38
278.884	85.38
279.115	76.38
279.347	92.38
279.579	77.38
279.81	84.38
280.042	81.38
280.273	79.38
280.505	86.38
280.736	92.38
280.968	93.38
281.199	88.38
281.431	74.38
281.662	87.38
281.894	103.38
282.125	95.38
282.356	84.38
282.588	80.38
282.819	90.38
283.051	89.38
283.282	88.38
283.513	88.38
283.745	85.38
283.976	89.38
284.207	83.38
284.439	95.38
284.67	86.38
284.901	93.38
285.132	88.38
285.364	95.38
285.595	83.38
285.826	81.38
286.057	85.38
286.288	86.38
286.52	102.38
286.751	95.38
286.982	96.38
287.213	78.38
287.444	97.38
287.675	88.38
287.906	77.38
288.138	95.38
288.369	73.38
288.6	89.38
288.831	89.38
289.062	98.38
289.293	85.38
289.524	96.38
289.755	88.38
289.986	89.38
290.217	96.38
290.448	98.38
290.679	83.38
290.91	89.38
291.141	85.38
291.371	92.38
291.602	87.38
291.833	88.38
292.064	97.38
292.295	87.38
292.526	103.38
292.757	90.38
292.987	95.38
293.218	96.38
293.449	90.38
293.68	91.38
293.91	92.38
294.141	102.38
294.372	77.38
294.603	90.38
294.833	87.38
295.064	84.38
295.295	94.38
295.525	103.38
295.756	90.38
295.987	93.38
296.217	100.38
296.448	92.38
296.679	84.38
296.909	105.38
297.14	88.38
297.37	88.38
297.601	91.38
297.831	86.38
298.062	85.38
298.292	104.38
298.523	90.38
298.753	86.38
298.984	101.38
299.214	95.38
299.445	84.38
299.675	102.38
299.905	111.38
300.136	87.38
300.366	89.38
300.597	103.38
300.827	87.38
301.057	88.38
301.288	93.38
301.518	90.38
301.748	98.38
301.979	86.38
302.209	98.38
302.439	99.38
302.669	103.38
302.9	79.38
303.13	92.38
303.36	83.38
303.59	105.38
303.82	88.38
304.051	94.38
304.281	89.38
304.511	98.38
304.741	99.38
304.971	88.38
305.201	96.38
305.431	96.38
305.661	80.38
305.891	84.38
306.121	94.38
306.352	100.38
306.582	99.38
306.812	103.38
307.042	89.38
307.272	97.38
307.502	82.38
307.731	91.38
307.961	86.38
308.191	81.38
308.421	99.38
308.651	72.38
308.881	87.38
309.111	99.38
309.341	91.38
309.571	96.38
309.8	84.38
310.03	90.38
310.26	86.38
310.49	83.38
310.72	109.38
310.949	94.38
311.179	85.38
311.409	88.38
311.639	85.38
311.868	98.38
312.098	88.38
312.328	111.38
312.557	92.38
312.787	93.38
313.017	96.38
313.246	91.38
313.476	103.38
313.706	78.38
313.935	114.38
314.165	107.38
314.394	100.38
314.624	93.38
314.853	98.38
315.083	98.38
315.312	95.38
315.542	99.38
315.771	99.38
316.001	92.38
316.23	94.38
316.46	92.38
316.689	88.38
316.919	95.38
317.148	85.38
317.377	107.38
317.607	90.38
317.836	97.38
318.065	98.38
318.295	87.38
318.524	103.38
318.753	97.38
318.983	106.38
319.212	99.38
319.441	103.38
319.67	90.38
319.9	96.38
320.129	89.38
320.358	98.38
320.587	88.38
320.816	90.38
321.046	98.38
321.275	103.38
321.504	102.38
321.733	100.38
321.962	91.38
322.191	81.38
322.42	98.38
322.649	106.38
322.878	87.38
323.108	95.38
323.337	97.38
323.566	103.38
323.795	96.38
324.024	89.38
324.253	98.38
324.482	91.38
324.71	89.38
324.939	96.38
325.168	98.38
325.397	96.38
325.626	89.38
325.855	90.38
326.084	88.38
326.313	87.38
326.542	96.38
326.77	83.38
326.999	85.38
327.228	97.38
327.457	101.38
327.686	93.38
327.914	89.38
328.143	86.38
328.372	98.38
328.6	105.38
328.829	95.38
329.058	92.38
329.287	92.38
329.515	95.38
329.744	87.38
329.972	101.38
330.201	95.38
330.43	90.38
330.658	81.38
330.887	98.38
331.115	85.38
331.344	99.38
331.572	104.38
331.801	91.38
332.03	107.38
332.258	99.38
332.486	101.38
332.715	99.38
332.943	82.38
333.172	82.38
333.4	80.38
333.629	91.38
333.857	96.38
334.085	107.38
334.314	105.38
334.542	79.38
334.771	92.38
334.999	96.38
335.227	101.38
335.455	85.38
335.684	99.38
335.912	101.38
336.14	87.38
336.369	108.38
336.597	105.38
336.825	95.38
337.053	85.38
337.281	80.38
337.51	93.38
337.738	103.38
337.966	100.38
338.194	87.38
338.422	93.38
338.65	91.38
338.878	89.38
339.106	89.38
339.334	103.38
339.562	103.38
339.79	100.38
340.018	90.38
340.246	86.38
340.474	90.38
340.702	91.38
340.93	87.38
341.158	94.38
341.386	91.38
341.614	91.38
341.842	107.38
342.07	89.38
342.298	107.38
342.526	88.38
342.754	103.38
342.981	99.38
343.209	92.38
343.437	101.38
343.665	97.38
343.893	101.38
344.12	108.38
344.348	103.38
344.576	98.38
344.804	92.38
345.031	92.38
345.259	92.38
345.487	116.38
345.714	99.38
345.942	83.38
346.17	81.38
346.397	87.38
346.625	94.38
346.853	93.38
347.08	98.38
347.308	86.38
347.535	86.38
347.763	85.38
347.99	95.38
348.218	107.38
348.445	92.38
348.673	90.38
348.9	86.38
349.128	96.38
349.355	87.38
349.583	93.38
349.81	98.38
350.037	103.38
350.265	96.38
350.492	78.38
350.72	103.38
350.947	82.38
351.174	98.38
351.402	96.38
351.629	73.38
351.856	99.38
352.083	91.38
352.311	82.38
352.538	87.38
352.765	81.38
352.992	96.38
353.22	97.38
353.447	88.38
353.674	84.38
353.901	101.38
354.128	91.38
354.355	87.38
354.583	93.38
354.81	99.38
355.037	99.38
355.264	89.38
355.491	104.38
355.718	96.38
355.945	92.38
356.172	103.38
356.399	84.38
356.626	85.38
356.853	82.38
357.08	93.38
357.307	101.38
357.534	88.38
357.761	109.38
357.988	103.38
358.215	91.38
358.441	105.38
358.668	100.38
358.895	102.38
359.122	91.38
359.349	87.38
359.576	102.38
359.802	87.38
360.029	86.38
360.256	99.38
360.483	88.38
360.709	83.38
360.936	95.38
361.163	95.38
361.39	90.38
361.616	97.38
361.843	92.38
362.07	70.38
362.296	81.38
362.523	103.38
362.749	101.38
362.976	89.38
363.203	95.38
363.429	89.38
363.656	114.38
363.882	94.38
364.109	99.38
364.335	97.38
364.562	94.38
364.788	95.38
365.015	89.38
365.241	90.38
365.468	102.38
365.694	99.38
365.92	84.38
366.147	95.38
366.373	92.38
366.599	95.38
366.826	97.38
367.052	96.38
367.278	93.38
367.505	109.38
367.731	77.38
367.957	85.38
368.184	113.38
368.41	105.38
368.636	85.38
368.862	102.38
369.089	85.38
369.315	101.38
369.541	104.38
369.767	95.38
369.993	85.38
370.219	96.38
370.445	96.38
370.672	87.38
370.898	90.38
371.124	97.38
371.35	101.38
371.576	104.38
371.802	84.38
372.028	88.38
372.254	93.38
372.48	90.38
372.706	97.38
372.932	100.38
373.158	95.38
373.384	95.38
373.61	97.38
373.835	86.38
374.061	92.38
374.287	104.38
374.513	95.38
374.739	77.38
374.965	106.38
375.191	94.38
375.416	90.38
375.642	98.38
375.868	89.38
376.094	93.38
376.319	81.38
376.545	88.38
376.771	103.38
376.997	91.38
377.222	95.38
377.448	102.38
377.674	97.38
377.899	93.38
378.125	88.38
378.35	102.38
378.576	92.38
378.802	99.38
379.027	100.38
379.253	97.38
379.478	84.38
379.704	85.38
379.929	96.38
380.155	84.38
380.38	95.38
380.606	83.38
380.831	82.38
381.057	100.38
381.282	95.38
381.507	90.38
381.733	90.38
381.958	87.38
382.184	84.38
382.409	92.38
382.634	93.38
382.86	93.38
383.085	102.38
383.31	97.38
383.535	111.38
383.761	88.38
383.986	93.38
384.211	104.38
384.436	92.38
384.662	93.38
384.887	98.38
385.112	104.38
385.337	91.38
385.562	95.38
385.787	104.38
386.013	100.38
386.238	98.38
386.463	105.38
386.688	103.38
386.913	101.38
387.138	86.38
387.363	81.38
387.588	91.38
387.813	96.38
388.038	79.38
388.263	89.38
388.488	91.38
388.713	93.38
388.938	92.38
389.163	99.38
389.387	91.38
389.612	90.38
389.837	92.38
390.062	97.38
390.287	103.38
390.512	91.38
390.736	93.38
390.961	83.38
391.186	102.38
391.411	107.38
391.636	106.38
391.86	98.38
392.085	101.38
392.31	104.38
392.534	98.38
392.759	95.38
392.984	88.38
393.208	114.38
393.433	106.38
393.658	99.38
393.882	89.38
394.107	101.38
394.331	108.38
394.556	101.38
394.78	96.38
395.005	99.38
395.229	93.38
395.454	101.38
395.678	90.38
395.903	94.38
396.127	105.38
396.352	93.38
396.576	98.38
396.801	85.38
397.025	103.38
397.249	100.38
397.474	105.38
397.698	100.38
397.922	97.38
398.147	99.38
398.371	112.38
398.595	97.38
398.82	95.38
399.044	90.38
399.268	104.38
399.492	115.38
399.717	112.38
399.941	109.38
400.165	103.38
400.389	115.38
400.613	102.38
400.837	105.38
401.062	103.38
401.286	98.38
401.51	105.38
401.734	98.38
401.958	105.38
402.182	105.38
402.406	90.38
402.63	100.38
402.854	104.38
403.078	105.38
403.302	101.38
403.526	101.38
403.75	100.38
403.974	114.38
404.198	104.38
404.422	111.38
404.645	104.38
404.869	118.38
405.093	100.38
405.317	94.38
405.541	88.38
405.765	101.38
405.988	104.38
406.212	109.38
406.436	91.38
406.66	99.38
406.883	112.38
407.107	91.38
407.331	100.38
407.555	112.38
407.778	109.38
408.002	107.38
408.226	113.38
408.449	111.38
408.673	92.38
408.896	91.38
409.12	84.38
409.344	113.38
409.567	100.38
409.791	105.38
410.014	98.38
410.238	104.38
410.461	103.38
410.685	89.38
410.908	106.38
411.132	97.38
411.355	116.38
411.578	103.38
411.802	84.38
412.025	106.38
412.249	104.38
412.472	103.38
412.695	101.38
412.919	106.38
413.142	89.38
413.365	103.38
413.589	104.38
413.812	85.38
414.035	96.38
414.258	82.38
414.482	102.38
414.705	100.38
414.928	96.38
415.151	113.38
415.374	89.38
415.597	106.38
415.821	97.38
416.044	115.38
416.267	108.38
416.49	93.38
416.713	90.38
416.936	107.38
417.159	88.38
417.382	101.38
417.605	90.38
417.828	105.38
418.051	85.38
418.274	93.38
418.497	113.38
418.72	102.38
418.943	97.38
419.166	112.38
419.389	111.38
419.611	101.38
419.834	97.38
420.057	91.38
420.28	100.38
420.503	91.38
420.726	95.38
420.948	106.38
421.171	99.38
421.394	92.38
421.617	110.38
421.839	103.38
422.062	96.38
422.285	92.38
422.507	93.38
422.73	105.38
422.953	100.38
423.175	95.38
423.398	87.38
423.621	104.38
423.843	100.38
424.066	101.38
424.288	91.38
424.511	91.38
424.733	89.38
424.956	92.38
425.178	98.38
425.401	112.38
425.623	107.38
425.846	94.38
426.068	85.38
426.291	104.38
426.513	77.38
426.735	108.38
426.958	102.38
427.18	94.38
427.402	98.38
427.625	100.38
427.847	103.38
428.069	100.38
428.292	94.38
428.514	77.38
428.736	97.38
428.958	86.38
429.181	98.38
429.403	102.38
429.625	93.38
429.847	100.38
430.069	91.38
430.292	101.38
430.514	91.38
430.736	94.38
430.958	87.38
431.18	90.38
431.402	96.38
431.624	92.38
431.846	103.38
432.068	100.38
432.29	97.38
432.512	103.38
432.734	92.38
432.956	93.38
433.178	91.38
433.4	100.38
433.622	86.38
433.844	97.38
434.066	96.38
434.287	87.38
434.509	96.38
434.731	92.38
434.953	95.38
435.175	110.38
435.397	92.38
435.618	108.38
435.84	97.38
436.062	104.38
436.284	88.38
436.505	83.38
436.727	91.38
436.949	104.38
437.17	99.38
437.392	96.38
437.614	94.38
437.835	102.38
438.057	101.38
438.278	86.38
438.5	92.38
438.721	105.38
438.943	98.38
439.165	96.38
439.386	85.38
439.608	89.38
439.829	93.38
440.05	93.38
440.272	103.38
440.493	91.38
440.715	108.38
440.936	96.38
441.158	88.38
441.379	105.38
441.6	104.38
441.822	94.38
442.043	96.38
442.264	85.38
442.486	97.38
442.707	93.38
442.928	102.38
443.149	101.38
443.371	98.38
443.592	98.38
443.813	95.38
444.034	100.38
444.255	91.38
444.476	98.38
444.698	104.38
444.919	98.38
445.14	220.38
445.361	149.38
445.582	97.38
445.803	104.38
446.024	98.38
446.245	97.38
446.466	97.38
446.687	97.38
446.908	92.38
447.129	101.38
447.35	89.38
447.571	83.38
447.792	94.38
448.013	91.38
448.234	93.38
448.455	91.38
448.675	88.38
448.896	76.38
449.117	101.38
449.338	90.38
449.559	86.38
449.779	102.38
450	107.38
450.221	89.38
450.442	100.38
450.662	98.38
450.883	91.38
451.104	100.38
451.324	104.38
451.545	110.38
451.766	99.38
451.986	93.38
452.207	101.38
452.428	91.38
452.648	95.38
452.869	106.38
453.089	86.38
453.31	86.38
453.53	91.38
453.751	92.38
453.971	88.38
454.192	82.38
454.412	93.38
454.633	91.38
454.853	86.38
455.073	91.38
455.294	95.38
455.514	94.38
455.734	103.38
455.955	100.38
456.175	92.38
456.395	107.38
456.616	89.38
456.836	107.38
457.056	85.38
457.276	79.38
457.497	83.38
457.717	93.38
457.937	102.38
458.157	89.38
458.377	91.38
458.598	98.38
458.818	87.38
459.038	104.38
459.258	110.38
459.478	81.38
459.698	86.38
459.918	95.38
460.138	99.38
460.358	98.38
460.578	106.38
460.798	81.38
461.018	108.38
461.238	104.38
461.458	117.38
461.678	90.38
461.898	106.38
462.118	88.38
462.338	89.38
462.558	111.38
462.777	99.38
462.997	101.38
463.217	106.38
463.437	98.38
463.657	111.38
463.876	96.38
464.096	111.38
464.316	108.38
464.536	88.38
464.755	113.38
464.975	97.38
465.195	105.38
465.414	108.38
465.634	100.38
465.854	83.38
466.073	92.38
466.293	105.38
466.512	114.38
466.732	110.38
466.951	107.38
467.171	118.38
467.391	109.38
467.61	95.38
467.829	98.38
468.049	93.38
468.268	111.38
468.488	82.38
468.707	83.38
468.927	90.38
469.146	93.38
469.365	112.38
469.585	95.38
469.804	117.38
470.023	101.38
470.243	88.38
470.462	106.38
470.681	106.38
470.901	103.38
471.12	111.38
471.339	94.38
471.558	110.38
471.777	92.38
471.997	101.38
472.216	96.38
472.435	100.38
472.654	88.38
472.873	104.38
473.092	106.38
473.311	105.38
473.53	98.38
473.749	85.38
473.968	99.38
474.187	88.38
474.406	89.38
474.625	85.38
474.844	103.38
475.063	96.38
475.282	103.38
475.501	93.38
475.72	100.38
475.939	118.38
476.158	109.38
476.377	102.38
476.596	84.38
476.814	109.38
477.033	111.38
477.252	96.38
477.471	103.38
477.69	107.38
477.908	108.38
478.127	112.38
478.346	109.38
478.564	115.38
478.783	91.38
479.002	97.38
479.22	101.38
479.439	106.38
479.658	122.38
479.876	98.38
480.095	104.38
480.313	113.38
480.532	111.38
480.751	115.38
480.969	103.38
481.188	105.38
481.406	99.38
481.624	100.38
481.843	99.38
482.061	100.38
482.28	100.38
482.498	96.38
482.717	122.38
482.935	95.38
483.153	114.38
483.372	96.38
483.59	109.38
483.808	101.38
484.027	98.38
484.245	114.38
484.463	106.38
484.681	115.38
484.9	103.38
485.118	112.38
485.336	121.38
485.554	112.38
485.772	108.38
485.99	101.38
486.209	105.38
486.427	96.38
486.645	96.38
486.863	114.38
487.081	106.38
487.299	111.38
487.517	112.38
487.735	107.38
487.953	101.38
488.171	118.38
488.389	104.38
488.607	107.38
488.825	94.38
489.043	92.38
489.261	116.38
489.479	104.38
489.696	93.38
489.914	117.38
490.132	115.38
490.35	105.38
490.568	126.38
490.786	115.38
491.003	115.38
491.221	104.38
491.439	115.38
491.657	105.38
491.874	111.38
492.092	111.38
492.31	116.38
492.527	131.38
492.745	126.38
492.963	116.38
493.18	123.38
493.398	127.38
493.615	105.38
493.833	111.38
494.05	113.38
494.268	109.38
494.485	115.38
494.703	132.38
494.92	115.38
495.138	105.38
495.355	112.38
495.573	128.38
495.79	114.38
496.008	105.38
496.225	115.38
496.442	112.38
496.66	125.38
496.877	123.38
497.094	128.38
497.312	117.38
497.529	119.38
497.746	119.38
497.963	101.38
498.181	117.38
498.398	117.38
498.615	136.38
498.832	131.38
499.049	113.38
499.267	125.38
499.484	123.38
499.701	148.38
499.918	139.38
500.135	161.38
500.352	155.38
500.569	157.38
500.786	171.38
501.003	161.38
501.22	137.38
501.437	138.38
501.654	139.38
501.871	122.38
502.088	129.38
502.305	115.38
502.522	117.38
502.739	113.38
502.956	122.38
503.172	111.38
503.389	127.38
503.606	106.38
503.823	117.38
504.04	121.38
504.256	112.38
504.473	109.38
504.69	113.38
504.907	127.38
505.123	97.38
505.34	98.38
505.557	117.38
505.773	128.38
505.99	100.38
506.207	102.38
506.423	98.38
506.64	100.38
506.856	106.38
507.073	108.38
507.289	108.38
507.506	111.38
507.722	97.38
507.939	104.38
508.155	111.38
508.372	100.38
508.588	113.38
508.805	110.38
509.021	103.38
509.238	103.38
509.454	111.38
509.67	108.38
509.887	91.38
510.103	111.38
510.319	103.38
510.536	99.38
510.752	98.38
510.968	106.38
511.184	98.38
511.401	98.38
511.617	109.38
511.833	112.38
512.049	117.38
512.265	97.38
512.481	105.38
512.698	109.38
512.914	96.38
513.13	108.38
513.346	85.38
513.562	110.38
513.778	106.38
513.994	94.38
514.21	105.38
514.426	94.38
514.642	96.38
514.858	116.38
515.074	106.38
515.29	104.38
515.506	104.38
515.721	92.38
515.937	106.38
516.153	89.38
516.369	102.38
516.585	112.38
516.801	115.38
517.016	105.38
517.232	115.38
517.448	103.38
517.664	126.38
517.879	112.38
518.095	123.38
518.311	104.38
518.527	98.38
518.742	115.38
518.958	113.38
519.173	108.38
519.389	114.38
519.605	114.38
519.82	99.38
520.036	111.38
520.251	108.38
520.467	97.38
520.682	101.38
520.898	108.38
521.113	94.38
521.329	109.38
521.544	117.38
521.76	118.38
521.975	95.38
522.19	103.38
522.406	101.38
522.621	99.38
522.836	96.38
523.052	118.38
523.267	105.38
523.482	102.38
523.698	95.38
523.913	110.38
524.128	103.38
524.343	104.38
524.559	103.38
524.774	112.38
524.989	91.38
525.204	111.38
525.419	102.38
525.634	104.38
525.849	113.38
526.064	113.38
526.28	108.38
526.495	96.38
526.71	108.38
526.925	105.38
527.14	108.38
527.355	103.38
527.57	105.38
527.785	107.38
527.999	88.38
528.214	101.38
528.429	103.38
528.644	88.38
528.859	113.38
529.074	108.38
529.289	107.38
529.503	100.38
529.718	90.38
529.933	97.38
530.148	124.38
530.363	99.38
530.577	97.38
530.792	124.38
531.007	111.38
531.221	108.38
531.436	92.38
531.651	91.38
531.865	102.38
532.08	101.38
532.295	95.38
532.509	105.38
532.724	93.38
532.938	123.38
533.153	103.38
533.367	112.38
533.582	111.38
533.796	97.38
534.011	98.38
534.225	88.38
534.44	109.38
534.654	114.38
534.868	105.38
535.083	105.38
535.297	117.38
535.511	108.38
535.726	89.38
535.94	87.38
536.154	89.38
536.369	90.38
536.583	92.38
536.797	77.38
537.011	111.38
537.225	107.38
537.44	105.38
537.654	95.38
537.868	101.38
538.082	107.38
538.296	88.38
538.51	105.38
538.724	113.38
538.938	115.38
539.153	99.38
539.367	108.38
539.581	103.38
539.795	96.38
540.009	112.38
540.222	111.38
540.436	104.38
540.65	103.38
540.864	111.38
541.078	110.38
541.292	105.38
541.506	94.38
541.72	108.38
541.934	105.38
542.147	119.38
542.361	119.38
542.575	107.38
542.789	92.38
543.002	99.38
543.216	107.38
543.43	89.38
543.644	112.38
543.857	115.38
544.071	113.38
544.285	95.38
544.498	104.38
544.712	108.38
544.925	96.38
545.139	109.38
545.352	105.38
545.566	109.38
545.779	98.38
545.993	108.38
546.206	118.38
546.42	91.38
546.633	103.38
546.847	102.38
547.06	104.38
547.274	105.38
547.487	121.38
547.7	118.38
547.914	85.38
548.127	101.38
548.34	119.38
548.554	105.38
548.767	102.38
548.98	94.38
549.193	96.38
549.407	103.38
549.62	105.38
549.833	104.38
550.046	93.38
550.259	90.38
550.473	109.38
550.686	97.38
550.899	96.38
551.112	100.38
551.325	114.38
551.538	98.38
551.751	99.38
551.964	101.38
552.177	103.38
552.39	91.38
552.603	93.38
552.816	119.38
553.029	113.38
553.242	122.38
553.455	94.38
553.667	103.38
553.88	113.38
554.093	108.38
554.306	97.38
554.519	108.38
554.732	110.38
554.944	102.38
555.157	98.38
555.37	89.38
555.583	106.38
555.795	106.38
556.008	104.38
556.221	95.38
556.433	106.38
556.646	112.38
556.859	115.38
557.071	104.38
557.284	107.38
557.496	108.38
557.709	104.38
557.921	111.38
558.134	110.38
558.346	103.38
558.559	89.38
558.771	101.38
558.984	106.38
559.196	104.38
559.409	97.38
559.621	115.38
559.833	113.38
560.046	88.38
560.258	105.38
560.47	97.38
560.683	102.38
560.895	85.38
561.107	92.38
561.32	112.38
561.532	103.38
561.744	107.38
561.956	119.38
562.168	120.38
562.381	113.38
562.593	97.38
562.805	97.38
563.017	87.38
563.229	98.38
563.441	103.38
563.653	99.38
563.865	113.38
564.077	102.38
564.289	91.38
564.501	109.38
564.713	110.38
564.925	107.38
565.137	96.38
565.349	100.38
565.561	107.38
565.773	105.38
565.985	93.38
566.197	98.38
566.408	94.38
566.62	103.38
566.832	95.38
567.044	99.38
567.255	125.38
567.467	106.38
567.679	113.38
567.891	117.38
568.102	102.38
568.314	114.38
568.526	112.38
568.737	120.38
568.949	91.38
569.161	102.38
569.372	93.38
569.584	90.38
569.795	91.38
570.007	106.38
570.218	96.38
570.43	90.38
570.641	98.38
570.853	82.38
571.064	80.38
571.276	108.38
571.487	95.38
571.698	109.38
571.91	92.38
572.121	91.38
572.333	92.38
572.544	114.38
572.755	113.38
572.966	89.38
573.178	103.38
573.389	86.38
573.6	113.38
573.811	84.38
574.023	95.38
574.234	97.38
574.445	104.38
574.656	88.38
574.867	82.38
575.078	95.38
575.289	107.38
575.501	98.38
575.712	91.38
575.923	90.38
576.134	97.38
576.345	89.38
576.556	95.38
576.767	103.38
576.978	92.38
577.188	79.38
577.399	89.38
577.61	88.38
577.821	105.38
578.032	82.38
578.243	98.38
578.454	85.38
578.665	93.38
578.875	93.38
579.086	101.38
579.297	95.38
579.508	85.38
579.718	92.38
579.929	99.38
580.14	91.38
580.35	98.38
580.561	95.38
580.772	96.38
580.982	97.38
581.193	85.38
581.403	100.38
581.614	95.38
581.825	91.38
582.035	94.38
582.246	97.38
582.456	94.38
582.667	104.38
582.877	92.38
583.087	86.38
583.298	71.38
583.508	96.38
583.719	88.38
583.929	85.38
584.139	76.38
584.35	95.38
584.56	93.38
584.77	100.38
584.981	97.38
585.191	94.38
585.401	96.38
585.611	95.38
585.821	76.38
586.032	103.38
586.242	86.38
586.452	87.38
586.662	80.38
586.872	94.38
587.082	102.38
587.292	95.38
587.502	92.38
587.713	83.38
587.923	104.38
588.133	79.38
588.343	83.38
588.553	85.38
588.762	92.38
588.972	93.38
589.182	96.38
589.392	100.38
589.602	95.38
589.812	102.38
590.022	98.38
590.232	92.38
590.441	89.38
590.651	100.38
590.861	96.38
591.071	100.38
591.281	101.38
591.49	84.38
591.7	77.38
591.91	103.38
592.119	97.38
592.329	97.38
592.539	93.38
592.748	99.38
592.958	97.38
593.167	90.38
593.377	90.38
593.587	96.38
593.796	98.38
594.006	99.38
594.215	94.38
594.424	106.38
594.634	96.38
594.843	86.38
595.053	97.38
595.262	106.38
595.472	90.38
595.681	92.38
595.89	97.38
596.1	100.38
596.309	96.38
596.518	81.38
596.727	94.38
596.937	101.38
597.146	84.38
597.355	85.38
597.564	80.38
597.774	99.38
597.983	84.38
598.192	96.38
598.401	101.38
598.61	97.38
598.819	99.38
599.028	80.38
599.237	99.38
599.446	92.38
599.655	85.38
599.864	106.38
600.073	100.38
600.282	105.38
600.491	100.38
600.7	83.38
600.909	99.38
601.118	82.38
601.327	96.38
601.536	83.38
601.745	94.38
601.953	108.38
602.162	93.38
602.371	94.38
602.58	81.38
602.789	92.38
602.997	91.38
603.206	104.38
603.415	81.38
603.623	100.38
603.832	84.38
604.041	72.38
604.249	104.38
604.458	90.38
604.666	92.38
604.875	95.38
605.084	96.38
605.292	92.38
605.501	92.38
605.709	100.38
605.918	91.38
606.126	95.38
606.334	86.38
606.543	101.38
606.751	88.38
606.96	88.38
607.168	95.38
607.376	88.38
607.585	89.38
607.793	89.38
608.001	92.38
608.21	93.38
608.418	78.38
608.626	105.38
608.834	99.38
609.043	90.38
609.251	91.38
609.459	76.38
609.667	96.38
609.875	85.38
610.083	90.38
610.291	87.38
610.499	90.38
610.707	99.38
610.916	91.38
611.124	72.38
611.332	90.38
611.54	97.38
611.748	83.38
611.955	77.38
612.163	77.38
612.371	94.38
612.579	83.38
612.787	106.38
612.995	88.38
613.203	91.38
613.411	83.38
613.618	96.38
613.826	77.38
614.034	97.38
614.242	101.38
614.449	90.38
614.657	88.38
614.865	88.38
615.072	93.38
615.28	87.38
615.488	86.38
615.695	104.38
615.903	91.38
616.111	87.38
616.318	95.38
616.526	93.38
616.733	97.38
616.941	87.38
617.148	100.38
617.356	86.38
617.563	91.38
617.771	92.38
617.978	90.38
618.185	92.38
618.393	93.38
618.6	93.38
618.807	85.38
619.015	113.38
619.222	79.38
619.429	93.38
619.637	87.38
619.844	96.38
620.051	95.38
620.258	84.38
620.466	76.38
620.673	82.38
620.88	91.38
621.087	95.38
621.294	78.38
621.501	97.38
621.708	85.38
621.915	91.38
622.122	84.38
622.329	89.38
622.536	89.38
622.743	77.38
622.95	91.38
623.157	87.38
623.364	83.38
623.571	84.38
623.778	87.38
623.985	75.38
624.192	92.38
624.399	96.38
624.606	84.38
624.812	77.38
625.019	81.38
625.226	78.38
625.433	96.38
625.639	116.38
625.846	95.38
626.053	82.38
626.259	73.38
626.466	81.38
626.673	83.38
626.879	85.38
627.086	89.38
627.293	89.38
627.499	91.38
627.706	95.38
627.912	70.38
628.119	84.38
628.325	87.38
628.532	86.38
628.738	91.38
628.945	97.38
629.151	100.38
629.357	87.38
629.564	86.38
629.77	79.38
629.976	94.38
630.183	97.38
630.389	69.38
630.595	70.38
630.802	87.38
631.008	72.38
631.214	91.38
631.42	76.38
631.627	92.38
631.833	95.38
632.039	88.38
632.245	94.38
632.451	76.38
632.657	97.38
632.863	92.38
633.069	98.38
633.275	100.38
633.481	79.38
633.688	72.38
633.893	93.38
634.099	86.38
634.305	94.38
634.511	70.38
634.717	87.38
634.923	80.38
635.129	76.38
635.335	83.38
635.541	92.38
635.747	78.38
635.952	94.38
636.158	97.38
636.364	74.38
636.57	85.38
636.775	104.38
636.981	77.38
637.187	85.38
637.392	91.38
637.598	76.38
637.804	88.38
638.009	77.38
638.215	97.38
638.421	90.38
638.626	81.38
638.832	95.38
639.037	87.38
639.243	89.38
639.448	89.38
639.654	90.38
639.859	75.38
640.065	79.38
640.27	97.38
640.475	76.38
640.681	89.38
640.886	89.38
641.091	94.38
641.297	81.38
641.502	96.38
641.707	91.38
641.913	98.38
642.118	78.38
642.323	83.38
642.528	102.38
642.733	84.38
642.939	86.38
643.144	92.38
643.349	101.38
643.554	84.38
643.759	90.38
643.964	85.38
644.169	90.38
644.374	85.38
644.579	93.38
644.784	93.38
644.989	91.38
645.194	82.38
645.399	90.38
645.604	83.38
645.809	76.38
646.014	82.38
646.219	71.38
646.423	67.38
646.628	88.38
646.833	90.38
647.038	87.38
647.243	99.38
647.447	93.38
647.652	88.38
647.857	79.38
648.062	94.38
648.266	89.38
648.471	77.38
648.676	84.38
648.88	95.38
649.085	87.38
649.289	81.38
649.494	81.38
649.698	106.38
649.903	85.38
650.107	85.38
650.312	86.38
650.516	88.38
650.721	79.38
650.925	93.38
651.13	88.38
651.334	87.38
651.539	71.38
651.743	83.38
651.947	87.38
652.152	92.38
652.356	84.38
652.56	86.38
652.764	82.38
652.969	82.38
653.173	92.38
653.377	75.38
653.581	83.38
653.785	89.38
653.99	95.38
654.194	82.38
654.398	93.38
654.602	90.38
654.806	85.38
655.01	91.38
655.214	88.38
655.418	79.38
655.622	74.38
655.826	83.38
656.03	79.38
656.234	85.38
656.438	94.38
656.642	95.38
656.846	81.38
657.049	82.38
657.253	91.38
657.457	81.38
657.661	81.38
657.865	89.38
658.068	66.38
658.272	75.38
658.476	75.38
658.68	89.38
658.883	87.38
659.087	95.38
659.291	83.38
659.494	84.38
659.698	92.38
659.901	90.38
660.105	83.38
660.309	77.38
660.512	81.38
660.716	84.38
660.919	74.38
661.123	86.38
661.326	92.38
661.53	91.38
661.733	87.38
661.936	85.38
662.14	99.38
662.343	83.38
662.546	84.38
662.75	88.38
662.953	87.38
663.156	76.38
663.36	83.38
663.563	87.38
663.766	85.38
663.969	80.38
664.173	78.38
664.376	83.38
664.579	89.38
664.782	95.38
664.985	84.38
665.188	87.38
665.391	75.38
665.594	75.38
665.797	73.38
666	77.38
666.203	91.38
666.406	79.38
666.609	75.38
666.812	95.38
667.015	92.38
667.218	83.38
667.421	82.38
667.624	85.38
667.827	84.38
668.03	87.38
668.232	85.38
668.435	76.38
668.638	81.38
668.841	79.38
669.043	72.38
669.246	74.38
669.449	79.38
669.651	83.38
669.854	83.38
670.057	86.38
670.259	90.38
670.462	85.38
670.665	73.38
670.867	74.38
671.07	69.38
671.272	83.38
671.475	85.38
671.677	68.38
671.88	94.38
672.082	76.38
672.284	71.38
672.487	87.38
672.689	80.38
672.892	93.38
