Data from Location5.07152019.Energy5.Lamp.07192019.3%Agarose_HRD10591_15-38-48-388.txt Node
Date: Fri Jul 19 15:38:48 EDT 2019
User: cochatt
Spectrometer: HR+D1059
Trigger mode: 1
Integration Time (sec): 1.000000E-1
Scans to average: 1
Electric dark correction enabled: true
Nonlinearity correction enabled: false
Boxcar width: 0
XAxis mode: Wavelengths
Number of Pixels in Spectrum: 2048
>>>>>Begin Spectral Data<<<<<
223.165	-20.62
223.4	-20.62
223.635	-20.62
223.869	-17.62
224.104	-26.62
224.338	-13.62
224.573	-27.62
224.808	-19.62
225.042	4.38
225.277	-10.62
225.511	-0.62
225.746	-5.62
225.98	8.38
226.215	18.38
226.449	23.38
226.683	27.38
226.918	30.38
227.152	30.38
227.387	37.38
227.621	33.38
227.856	46.38
228.09	52.38
228.324	42.38
228.559	57.38
228.793	51.38
229.027	56.38
229.262	60.38
229.496	65.38
229.73	64.38
229.964	68.38
230.199	60.38
230.433	66.38
230.667	70.38
230.901	62.38
231.136	81.38
231.37	70.38
231.604	65.38
231.838	94.38
232.072	71.38
232.306	77.38
232.541	93.38
232.775	78.38
233.009	67.38
233.243	73.38
233.477	81.38
233.711	72.38
233.945	84.38
234.179	78.38
234.413	85.38
234.647	87.38
234.881	80.38
235.115	75.38
235.349	81.38
235.583	80.38
235.817	80.38
236.051	87.38
236.285	78.38
236.519	81.38
236.753	70.38
236.987	68.38
237.221	70.38
237.455	74.38
237.689	64.38
237.922	72.38
238.156	77.38
238.39	64.38
238.624	76.38
238.858	76.38
239.091	69.38
239.325	77.38
239.559	74.38
239.793	57.38
240.027	79.38
240.26	69.38
240.494	82.38
240.728	76.38
240.961	76.38
241.195	82.38
241.429	70.38
241.662	62.38
241.896	74.38
242.13	70.38
242.363	70.38
242.597	69.38
242.83	79.38
243.064	84.38
243.298	86.38
243.531	79.38
243.765	76.38
243.998	66.38
244.232	75.38
244.465	74.38
244.699	82.38
244.932	76.38
245.166	90.38
245.399	87.38
245.633	80.38
245.866	69.38
246.099	58.38
246.333	79.38
246.566	74.38
246.8	82.38
247.033	65.38
247.266	74.38
247.5	71.38
247.733	71.38
247.966	76.38
248.2	69.38
248.433	66.38
248.666	71.38
248.899	83.38
249.133	79.38
249.366	93.38
249.599	76.38
249.832	80.38
250.066	87.38
250.299	85.38
250.532	69.38
250.765	78.38
250.998	71.38
251.231	84.38
251.465	79.38
251.698	80.38
251.931	68.38
252.164	74.38
252.397	88.38
252.63	83.38
252.863	73.38
253.096	82.38
253.329	76.38
253.562	75.38
253.795	65.38
254.028	64.38
254.261	87.38
254.494	79.38
254.727	75.38
254.96	77.38
255.193	75.38
255.426	73.38
255.659	84.38
255.892	82.38
256.124	76.38
256.357	85.38
256.59	84.38
256.823	77.38
257.056	82.38
257.289	80.38
257.521	93.38
257.754	75.38
257.987	85.38
258.22	79.38
258.452	83.38
258.685	91.38
258.918	74.38
259.151	73.38
259.383	95.38
259.616	74.38
259.849	83.38
260.081	71.38
260.314	71.38
260.547	74.38
260.779	100.38
261.012	74.38
261.244	71.38
261.477	87.38
261.71	92.38
261.942	80.38
262.175	76.38
262.407	69.38
262.64	81.38
262.872	72.38
263.105	74.38
263.337	63.38
263.57	86.38
263.802	77.38
264.035	81.38
264.267	73.38
264.499	67.38
264.732	76.38
264.964	85.38
265.197	74.38
265.429	77.38
265.661	73.38
265.894	80.38
266.126	77.38
266.358	81.38
266.591	93.38
266.823	80.38
267.055	77.38
267.287	69.38
267.52	81.38
267.752	81.38
267.984	67.38
268.216	93.38
268.448	79.38
268.681	72.38
268.913	73.38
269.145	88.38
269.377	80.38
269.609	77.38
269.841	82.38
270.073	75.38
270.306	84.38
270.538	81.38
270.77	80.38
271.002	75.38
271.234	96.38
271.466	93.38
271.698	78.38
271.93	77.38
272.162	84.38
272.394	81.38
272.626	73.38
272.858	78.38
273.09	85.38
273.322	76.38
273.553	83.38
273.785	84.38
274.017	74.38
274.249	89.38
274.481	76.38
274.713	87.38
274.945	84.38
275.176	72.38
275.408	105.38
275.64	74.38
275.872	62.38
276.104	89.38
276.335	72.38
276.567	80.38
276.799	66.38
277.031	69.38
277.262	71.38
277.494	83.38
277.726	87.38
277.957	83.38
278.189	87.38
278.421	88.38
278.652	77.38
278.884	82.38
279.115	94.38
279.347	92.38
279.579	94.38
279.81	88.38
280.042	89.38
280.273	89.38
280.505	73.38
280.736	91.38
280.968	84.38
281.199	86.38
281.431	90.38
281.662	82.38
281.894	69.38
282.125	91.38
282.356	72.38
282.588	95.38
282.819	80.38
283.051	64.38
283.282	88.38
283.513	90.38
283.745	88.38
283.976	82.38
284.207	72.38
284.439	84.38
284.67	82.38
284.901	79.38
285.132	87.38
285.364	85.38
285.595	76.38
285.826	88.38
286.057	95.38
286.288	84.38
286.52	79.38
286.751	95.38
286.982	73.38
287.213	77.38
287.444	77.38
287.675	85.38
287.906	90.38
288.138	85.38
288.369	69.38
288.6	66.38
288.831	74.38
289.062	78.38
289.293	81.38
289.524	86.38
289.755	76.38
289.986	71.38
290.217	80.38
290.448	71.38
290.679	86.38
290.91	91.38
291.141	83.38
291.371	95.38
291.602	85.38
291.833	74.38
292.064	73.38
292.295	73.38
292.526	87.38
292.757	89.38
292.987	79.38
293.218	70.38
293.449	80.38
293.68	85.38
293.91	84.38
294.141	77.38
294.372	86.38
294.603	74.38
294.833	82.38
295.064	65.38
295.295	76.38
295.525	91.38
295.756	99.38
295.987	87.38
296.217	97.38
296.448	95.38
296.679	87.38
296.909	92.38
297.14	78.38
297.37	82.38
297.601	84.38
297.831	84.38
298.062	82.38
298.292	81.38
298.523	73.38
298.753	67.38
298.984	80.38
299.214	85.38
299.445	74.38
299.675	87.38
299.905	83.38
300.136	75.38
300.366	85.38
300.597	81.38
300.827	76.38
301.057	85.38
301.288	80.38
301.518	89.38
301.748	74.38
301.979	85.38
302.209	91.38
302.439	96.38
302.669	91.38
302.9	84.38
303.13	80.38
303.36	95.38
303.59	79.38
303.82	83.38
304.051	77.38
304.281	71.38
304.511	72.38
304.741	94.38
304.971	79.38
305.201	84.38
305.431	78.38
305.661	75.38
305.891	88.38
306.121	86.38
306.352	75.38
306.582	84.38
306.812	71.38
307.042	90.38
307.272	77.38
307.502	85.38
307.731	95.38
307.961	89.38
308.191	88.38
308.421	74.38
308.651	84.38
308.881	82.38
309.111	79.38
309.341	93.38
309.571	75.38
309.8	87.38
310.03	87.38
310.26	87.38
310.49	102.38
310.72	94.38
310.949	68.38
311.179	91.38
311.409	79.38
311.639	79.38
311.868	97.38
312.098	89.38
312.328	81.38
312.557	88.38
312.787	75.38
313.017	69.38
313.246	80.38
313.476	82.38
313.706	71.38
313.935	85.38
314.165	92.38
314.394	80.38
314.624	93.38
314.853	80.38
315.083	93.38
315.312	76.38
315.542	76.38
315.771	83.38
316.001	77.38
316.23	68.38
316.46	81.38
316.689	82.38
316.919	95.38
317.148	82.38
317.377	84.38
317.607	74.38
317.836	79.38
318.065	84.38
318.295	90.38
318.524	79.38
318.753	85.38
318.983	100.38
319.212	89.38
319.441	84.38
319.67	76.38
319.9	87.38
320.129	57.38
320.358	66.38
320.587	74.38
320.816	71.38
321.046	79.38
321.275	81.38
321.504	74.38
321.733	78.38
321.962	80.38
322.191	86.38
322.42	83.38
322.649	70.38
322.878	74.38
323.108	79.38
323.337	90.38
323.566	93.38
323.795	75.38
324.024	84.38
324.253	72.38
324.482	79.38
324.71	85.38
324.939	90.38
325.168	75.38
325.397	76.38
325.626	75.38
325.855	74.38
326.084	85.38
326.313	84.38
326.542	78.38
326.77	70.38
326.999	78.38
327.228	95.38
327.457	86.38
327.686	80.38
327.914	82.38
328.143	91.38
328.372	75.38
328.6	85.38
328.829	80.38
329.058	86.38
329.287	80.38
329.515	76.38
329.744	77.38
329.972	75.38
330.201	68.38
330.43	81.38
330.658	82.38
330.887	80.38
331.115	85.38
331.344	77.38
331.572	93.38
331.801	72.38
332.03	77.38
332.258	90.38
332.486	84.38
332.715	81.38
332.943	97.38
333.172	81.38
333.4	82.38
333.629	86.38
333.857	79.38
334.085	81.38
334.314	85.38
334.542	70.38
334.771	83.38
334.999	85.38
335.227	99.38
335.455	81.38
335.684	83.38
335.912	92.38
336.14	85.38
336.369	77.38
336.597	79.38
336.825	75.38
337.053	98.38
337.281	85.38
337.51	81.38
337.738	94.38
337.966	84.38
338.194	92.38
338.422	73.38
338.65	74.38
338.878	86.38
339.106	89.38
339.334	81.38
339.562	79.38
339.79	73.38
340.018	77.38
340.246	79.38
340.474	92.38
340.702	88.38
340.93	83.38
341.158	83.38
341.386	83.38
341.614	76.38
341.842	88.38
342.07	83.38
342.298	92.38
342.526	80.38
342.754	84.38
342.981	84.38
343.209	88.38
343.437	74.38
343.665	97.38
343.893	84.38
344.12	85.38
344.348	81.38
344.576	85.38
344.804	89.38
345.031	81.38
345.259	80.38
345.487	82.38
345.714	73.38
345.942	82.38
346.17	80.38
346.397	78.38
346.625	71.38
346.853	68.38
347.08	81.38
347.308	82.38
347.535	80.38
347.763	76.38
347.99	79.38
348.218	80.38
348.445	75.38
348.673	73.38
348.9	84.38
349.128	84.38
349.355	70.38
349.583	71.38
349.81	90.38
350.037	70.38
350.265	81.38
350.492	87.38
350.72	77.38
350.947	87.38
351.174	83.38
351.402	90.38
351.629	80.38
351.856	78.38
352.083	82.38
352.311	85.38
352.538	72.38
352.765	74.38
352.992	85.38
353.22	96.38
353.447	90.38
353.674	74.38
353.901	83.38
354.128	73.38
354.355	78.38
354.583	72.38
354.81	72.38
355.037	95.38
355.264	72.38
355.491	78.38
355.718	86.38
355.945	84.38
356.172	83.38
356.399	69.38
356.626	82.38
356.853	90.38
357.08	81.38
357.307	91.38
357.534	74.38
357.761	73.38
357.988	92.38
358.215	86.38
358.441	94.38
358.668	79.38
358.895	86.38
359.122	90.38
359.349	74.38
359.576	65.38
359.802	76.38
360.029	83.38
360.256	96.38
360.483	81.38
360.709	73.38
360.936	82.38
361.163	92.38
361.39	86.38
361.616	84.38
361.843	70.38
362.07	75.38
362.296	93.38
362.523	87.38
362.749	88.38
362.976	79.38
363.203	65.38
363.429	74.38
363.656	92.38
363.882	77.38
364.109	85.38
364.335	82.38
364.562	82.38
364.788	73.38
365.015	95.38
365.241	85.38
365.468	86.38
365.694	77.38
365.92	77.38
366.147	78.38
366.373	78.38
366.599	70.38
366.826	91.38
367.052	88.38
367.278	93.38
367.505	85.38
367.731	78.38
367.957	93.38
368.184	82.38
368.41	82.38
368.636	82.38
368.862	80.38
369.089	61.38
369.315	73.38
369.541	89.38
369.767	87.38
369.993	91.38
370.219	69.38
370.445	85.38
370.672	78.38
370.898	89.38
371.124	72.38
371.35	78.38
371.576	81.38
371.802	91.38
372.028	68.38
372.254	66.38
372.48	84.38
372.706	72.38
372.932	72.38
373.158	82.38
373.384	90.38
373.61	80.38
373.835	73.38
374.061	83.38
374.287	95.38
374.513	89.38
374.739	68.38
374.965	77.38
375.191	84.38
375.416	87.38
375.642	82.38
375.868	86.38
376.094	93.38
376.319	77.38
376.545	60.38
376.771	89.38
376.997	85.38
377.222	81.38
377.448	80.38
377.674	73.38
377.899	89.38
378.125	86.38
378.35	92.38
378.576	82.38
378.802	77.38
379.027	84.38
379.253	74.38
379.478	85.38
379.704	82.38
379.929	81.38
380.155	85.38
380.38	85.38
380.606	82.38
380.831	75.38
381.057	73.38
381.282	75.38
381.507	69.38
381.733	82.38
381.958	89.38
382.184	92.38
382.409	89.38
382.634	93.38
382.86	89.38
383.085	71.38
383.31	82.38
383.535	96.38
383.761	73.38
383.986	80.38
384.211	88.38
384.436	75.38
384.662	92.38
384.887	93.38
385.112	73.38
385.337	78.38
385.562	74.38
385.787	81.38
386.013	90.38
386.238	79.38
386.463	91.38
386.688	81.38
386.913	76.38
387.138	83.38
387.363	86.38
387.588	85.38
387.813	81.38
388.038	70.38
388.263	78.38
388.488	82.38
388.713	81.38
388.938	85.38
389.163	89.38
389.387	68.38
389.612	96.38
389.837	76.38
390.062	81.38
390.287	97.38
390.512	73.38
390.736	80.38
390.961	80.38
391.186	86.38
391.411	84.38
391.636	83.38
391.86	70.38
392.085	85.38
392.31	81.38
392.534	87.38
392.759	87.38
392.984	74.38
393.208	87.38
393.433	79.38
393.658	85.38
393.882	84.38
394.107	111.38
394.331	85.38
394.556	77.38
394.78	85.38
395.005	66.38
395.229	83.38
395.454	87.38
395.678	67.38
395.903	67.38
396.127	90.38
396.352	74.38
396.576	81.38
396.801	84.38
397.025	76.38
397.249	101.38
397.474	80.38
397.698	82.38
397.922	90.38
398.147	84.38
398.371	79.38
398.595	80.38
398.82	74.38
399.044	80.38
399.268	76.38
399.492	80.38
399.717	74.38
399.941	84.38
400.165	92.38
400.389	82.38
400.613	86.38
400.837	72.38
401.062	69.38
401.286	77.38
401.51	98.38
401.734	82.38
401.958	90.38
402.182	91.38
402.406	93.38
402.63	68.38
402.854	84.38
403.078	104.38
403.302	88.38
403.526	85.38
403.75	88.38
403.974	84.38
404.198	82.38
404.422	78.38
404.645	80.38
404.869	79.38
405.093	89.38
405.317	98.38
405.541	96.38
405.765	97.38
405.988	87.38
406.212	91.38
406.436	94.38
406.66	76.38
406.883	97.38
407.107	86.38
407.331	88.38
407.555	93.38
407.778	75.38
408.002	100.38
408.226	97.38
408.449	86.38
408.673	70.38
408.896	89.38
409.12	92.38
409.344	86.38
409.567	89.38
409.791	79.38
410.014	94.38
410.238	102.38
410.461	77.38
410.685	95.38
410.908	85.38
411.132	90.38
411.355	92.38
411.578	85.38
411.802	80.38
412.025	77.38
412.249	81.38
412.472	76.38
412.695	93.38
412.919	79.38
413.142	82.38
413.365	79.38
413.589	78.38
413.812	78.38
414.035	85.38
414.258	81.38
414.482	94.38
414.705	98.38
414.928	80.38
415.151	82.38
415.374	92.38
415.597	91.38
415.821	89.38
416.044	80.38
416.267	96.38
416.49	85.38
416.713	84.38
416.936	89.38
417.159	75.38
417.382	90.38
417.605	92.38
417.828	105.38
418.051	103.38
418.274	100.38
418.497	78.38
418.72	82.38
418.943	88.38
419.166	85.38
419.389	87.38
419.611	92.38
419.834	98.38
420.057	90.38
420.28	89.38
420.503	96.38
420.726	93.38
420.948	90.38
421.171	100.38
421.394	98.38
421.617	89.38
421.839	89.38
422.062	89.38
422.285	112.38
422.507	82.38
422.73	86.38
422.953	85.38
423.175	100.38
423.398	93.38
423.621	86.38
423.843	87.38
424.066	78.38
424.288	82.38
424.511	98.38
424.733	93.38
424.956	89.38
425.178	74.38
425.401	102.38
425.623	84.38
425.846	95.38
426.068	98.38
426.291	90.38
426.513	88.38
426.735	97.38
426.958	82.38
427.18	76.38
427.402	86.38
427.625	93.38
427.847	89.38
428.069	98.38
428.292	89.38
428.514	85.38
428.736	88.38
428.958	76.38
429.181	82.38
429.403	95.38
429.625	80.38
429.847	90.38
430.069	89.38
430.292	82.38
430.514	84.38
430.736	89.38
430.958	84.38
431.18	81.38
431.402	88.38
431.624	85.38
431.846	85.38
432.068	76.38
432.29	84.38
432.512	86.38
432.734	85.38
432.956	93.38
433.178	90.38
433.4	82.38
433.622	100.38
433.844	90.38
434.066	89.38
434.287	74.38
434.509	84.38
434.731	90.38
434.953	96.38
435.175	78.38
435.397	95.38
435.618	75.38
435.84	82.38
436.062	102.38
436.284	93.38
436.505	68.38
436.727	82.38
436.949	74.38
437.17	79.38
437.392	92.38
437.614	83.38
437.835	86.38
438.057	93.38
438.278	76.38
438.5	86.38
438.721	97.38
438.943	92.38
439.165	92.38
439.386	102.38
439.608	79.38
439.829	102.38
440.05	95.38
440.272	79.38
440.493	106.38
440.715	93.38
440.936	90.38
441.158	103.38
441.379	94.38
441.6	109.38
441.822	109.38
442.043	86.38
442.264	91.38
442.486	87.38
442.707	74.38
442.928	97.38
443.149	80.38
443.371	93.38
443.592	102.38
443.813	102.38
444.034	90.38
444.255	77.38
444.476	99.38
444.698	83.38
444.919	103.38
445.14	215.38
445.361	140.38
445.582	104.38
445.803	99.38
446.024	82.38
446.245	96.38
446.466	96.38
446.687	89.38
446.908	100.38
447.129	84.38
447.35	101.38
447.571	96.38
447.792	76.38
448.013	100.38
448.234	94.38
448.455	89.38
448.675	103.38
448.896	103.38
449.117	98.38
449.338	90.38
449.559	90.38
449.779	84.38
450	94.38
450.221	88.38
450.442	89.38
450.662	90.38
450.883	83.38
451.104	82.38
451.324	89.38
451.545	101.38
451.766	91.38
451.986	82.38
452.207	94.38
452.428	84.38
452.648	98.38
452.869	92.38
453.089	94.38
453.31	79.38
453.53	72.38
453.751	74.38
453.971	86.38
454.192	85.38
454.412	74.38
454.633	87.38
454.853	82.38
455.073	99.38
455.294	93.38
455.514	96.38
455.734	86.38
455.955	75.38
456.175	80.38
456.395	93.38
456.616	83.38
456.836	89.38
457.056	85.38
457.276	81.38
457.497	90.38
457.717	86.38
457.937	86.38
458.157	77.38
458.377	78.38
458.598	90.38
458.818	87.38
459.038	75.38
459.258	88.38
459.478	78.38
459.698	72.38
459.918	53.38
460.138	73.38
460.358	81.38
460.578	73.38
460.798	86.38
461.018	85.38
461.238	87.38
461.458	81.38
461.678	91.38
461.898	80.38
462.118	83.38
462.338	94.38
462.558	82.38
462.777	78.38
462.997	72.38
463.217	74.38
463.437	80.38
463.657	95.38
463.876	84.38
464.096	83.38
464.316	95.38
464.536	87.38
464.755	100.38
464.975	83.38
465.195	108.38
465.414	98.38
465.634	84.38
465.854	86.38
466.073	89.38
466.293	84.38
466.512	69.38
466.732	85.38
466.951	95.38
467.171	92.38
467.391	96.38
467.61	98.38
467.829	92.38
468.049	98.38
468.268	88.38
468.488	90.38
468.707	98.38
468.927	97.38
469.146	90.38
469.365	90.38
469.585	93.38
469.804	82.38
470.023	103.38
470.243	99.38
470.462	105.38
470.681	94.38
470.901	87.38
471.12	76.38
471.339	92.38
471.558	95.38
471.777	95.38
471.997	86.38
472.216	96.38
472.435	100.38
472.654	79.38
472.873	89.38
473.092	86.38
473.311	82.38
473.53	96.38
473.749	89.38
473.968	100.38
474.187	89.38
474.406	96.38
474.625	87.38
474.844	90.38
475.063	86.38
475.282	83.38
475.501	82.38
475.72	106.38
475.939	88.38
476.158	103.38
476.377	78.38
476.596	101.38
476.814	84.38
477.033	81.38
477.252	91.38
477.471	98.38
477.69	91.38
477.908	106.38
478.127	85.38
478.346	84.38
478.564	94.38
478.783	72.38
479.002	92.38
479.22	93.38
479.439	104.38
479.658	103.38
479.876	88.38
480.095	86.38
480.313	86.38
480.532	89.38
480.751	95.38
480.969	77.38
481.188	77.38
481.406	77.38
481.624	87.38
481.843	89.38
482.061	75.38
482.28	95.38
482.498	106.38
482.717	98.38
482.935	96.38
483.153	88.38
483.372	101.38
483.59	84.38
483.808	99.38
484.027	108.38
484.245	90.38
484.463	81.38
484.681	99.38
484.9	97.38
485.118	96.38
485.336	82.38
485.554	82.38
485.772	88.38
485.99	91.38
486.209	86.38
486.427	92.38
486.645	99.38
486.863	111.38
487.081	92.38
487.299	94.38
487.517	95.38
487.735	98.38
487.953	112.38
488.171	105.38
488.389	97.38
488.607	99.38
488.825	86.38
489.043	87.38
489.261	98.38
489.479	84.38
489.696	85.38
489.914	89.38
490.132	86.38
490.35	102.38
490.568	90.38
490.786	104.38
491.003	103.38
491.221	98.38
491.439	104.38
491.657	98.38
491.874	101.38
492.092	120.38
492.31	124.38
492.527	118.38
492.745	97.38
492.963	110.38
493.18	106.38
493.398	95.38
493.615	103.38
493.833	103.38
494.05	111.38
494.268	108.38
494.485	98.38
494.703	96.38
494.92	95.38
495.138	89.38
495.355	102.38
495.573	100.38
495.79	93.38
496.008	102.38
496.225	108.38
496.442	96.38
496.66	110.38
496.877	89.38
497.094	81.38
497.312	106.38
497.529	112.38
497.746	101.38
497.963	97.38
498.181	102.38
498.398	90.38
498.615	85.38
498.832	83.38
499.049	99.38
499.267	87.38
499.484	81.38
499.701	83.38
499.918	108.38
500.135	93.38
500.352	105.38
500.569	87.38
500.786	108.38
501.003	110.38
501.22	93.38
501.437	102.38
501.654	97.38
501.871	84.38
502.088	111.38
502.305	97.38
502.522	96.38
502.739	99.38
502.956	83.38
503.172	102.38
503.389	90.38
503.606	93.38
503.823	83.38
504.04	82.38
504.256	96.38
504.473	89.38
504.69	80.38
504.907	100.38
505.123	88.38
505.34	80.38
505.557	93.38
505.773	106.38
505.99	93.38
506.207	100.38
506.423	83.38
506.64	80.38
506.856	95.38
507.073	82.38
507.289	88.38
507.506	88.38
507.722	82.38
507.939	101.38
508.155	110.38
508.372	86.38
508.588	90.38
508.805	89.38
509.021	84.38
509.238	90.38
509.454	84.38
509.67	86.38
509.887	90.38
510.103	78.38
510.319	86.38
510.536	86.38
510.752	81.38
510.968	87.38
511.184	72.38
511.401	78.38
511.617	75.38
511.833	71.38
512.049	78.38
512.265	78.38
512.481	79.38
512.698	85.38
512.914	64.38
513.13	73.38
513.346	85.38
513.562	88.38
513.778	75.38
513.994	94.38
514.21	84.38
514.426	104.38
514.642	94.38
514.858	93.38
515.074	92.38
515.29	82.38
515.506	79.38
515.721	70.38
515.937	76.38
516.153	78.38
516.369	72.38
516.585	74.38
516.801	75.38
517.016	87.38
517.232	72.38
517.448	75.38
517.664	82.38
517.879	72.38
518.095	86.38
518.311	81.38
518.527	79.38
518.742	80.38
518.958	92.38
519.173	92.38
519.389	87.38
519.605	97.38
519.82	82.38
520.036	65.38
520.251	75.38
520.467	85.38
520.682	87.38
520.898	79.38
521.113	74.38
521.329	86.38
521.544	84.38
521.76	93.38
521.975	93.38
522.19	83.38
522.406	80.38
522.621	81.38
522.836	86.38
523.052	96.38
523.267	94.38
523.482	88.38
523.698	82.38
523.913	96.38
524.128	79.38
524.343	104.38
524.559	88.38
524.774	94.38
524.989	92.38
525.204	86.38
525.419	81.38
525.634	93.38
525.849	85.38
526.064	87.38
526.28	95.38
526.495	79.38
526.71	82.38
526.925	70.38
527.14	71.38
527.355	70.38
527.57	80.38
527.785	85.38
527.999	85.38
528.214	90.38
528.429	94.38
528.644	100.38
528.859	90.38
529.074	84.38
529.289	111.38
529.503	90.38
529.718	94.38
529.933	98.38
530.148	84.38
530.363	86.38
530.577	66.38
530.792	80.38
531.007	94.38
531.221	94.38
531.436	73.38
531.651	84.38
531.865	76.38
532.08	74.38
532.295	77.38
532.509	80.38
532.724	88.38
532.938	96.38
533.153	88.38
533.367	92.38
533.582	93.38
533.796	95.38
534.011	75.38
534.225	94.38
534.44	82.38
534.654	88.38
534.868	72.38
535.083	82.38
535.297	81.38
535.511	96.38
535.726	86.38
535.94	83.38
536.154	87.38
536.369	95.38
536.583	96.38
536.797	93.38
537.011	80.38
537.225	86.38
537.44	84.38
537.654	89.38
537.868	84.38
538.082	71.38
538.296	89.38
538.51	104.38
538.724	92.38
538.938	94.38
539.153	87.38
539.367	97.38
539.581	96.38
539.795	71.38
540.009	92.38
540.222	88.38
540.436	98.38
540.65	74.38
540.864	81.38
541.078	94.38
541.292	99.38
541.506	100.38
541.72	93.38
541.934	111.38
542.147	113.38
542.361	111.38
542.575	105.38
542.789	101.38
543.002	93.38
543.216	95.38
543.43	93.38
543.644	110.38
543.857	97.38
544.071	100.38
544.285	101.38
544.498	97.38
544.712	97.38
544.925	85.38
545.139	97.38
545.352	106.38
545.566	102.38
545.779	96.38
545.993	108.38
546.206	95.38
546.42	102.38
546.633	101.38
546.847	105.38
547.06	101.38
547.274	107.38
547.487	116.38
547.7	95.38
547.914	103.38
548.127	93.38
548.34	105.38
548.554	101.38
548.767	109.38
548.98	91.38
549.193	90.38
549.407	99.38
549.62	95.38
549.833	94.38
550.046	114.38
550.259	97.38
550.473	94.38
550.686	115.38
550.899	106.38
551.112	108.38
551.325	90.38
551.538	80.38
551.751	89.38
551.964	87.38
552.177	92.38
552.39	100.38
552.603	98.38
552.816	90.38
553.029	109.38
553.242	106.38
553.455	115.38
553.667	88.38
553.88	106.38
554.093	94.38
554.306	91.38
554.519	113.38
554.732	93.38
554.944	101.38
555.157	89.38
555.37	80.38
555.583	103.38
555.795	95.38
556.008	100.38
556.221	87.38
556.433	94.38
556.646	93.38
556.859	101.38
557.071	99.38
557.284	104.38
557.496	96.38
557.709	93.38
557.921	86.38
558.134	100.38
558.346	105.38
558.559	92.38
558.771	102.38
558.984	85.38
559.196	97.38
559.409	105.38
559.621	101.38
559.833	84.38
560.046	94.38
560.258	95.38
560.47	92.38
560.683	86.38
560.895	93.38
561.107	89.38
561.32	96.38
561.532	82.38
561.744	94.38
561.956	94.38
562.168	96.38
562.381	93.38
562.593	88.38
562.805	91.38
563.017	85.38
563.229	88.38
563.441	113.38
563.653	98.38
563.865	93.38
564.077	97.38
564.289	89.38
564.501	94.38
564.713	95.38
564.925	100.38
565.137	89.38
565.349	118.38
565.561	92.38
565.773	78.38
565.985	87.38
566.197	81.38
566.408	93.38
566.62	85.38
566.832	78.38
567.044	105.38
567.255	98.38
567.467	89.38
567.679	93.38
567.891	86.38
568.102	80.38
568.314	84.38
568.526	76.38
568.737	81.38
568.949	74.38
569.161	88.38
569.372	68.38
569.584	72.38
569.795	70.38
570.007	65.38
570.218	97.38
570.43	74.38
570.641	94.38
570.853	78.38
571.064	64.38
571.276	82.38
571.487	96.38
571.698	82.38
571.91	85.38
572.121	81.38
572.333	87.38
572.544	80.38
572.755	82.38
572.966	90.38
573.178	97.38
573.389	89.38
573.6	82.38
573.811	90.38
574.023	75.38
574.234	90.38
574.445	82.38
574.656	85.38
574.867	70.38
575.078	84.38
575.289	84.38
575.501	85.38
575.712	87.38
575.923	75.38
576.134	84.38
576.345	62.38
576.556	92.38
576.767	94.38
576.978	77.38
577.188	89.38
577.399	92.38
577.61	85.38
577.821	90.38
578.032	81.38
578.243	86.38
578.454	91.38
578.665	65.38
578.875	85.38
579.086	92.38
579.297	73.38
579.508	72.38
579.718	71.38
579.929	70.38
580.14	86.38
580.35	85.38
580.561	90.38
580.772	82.38
580.982	98.38
581.193	71.38
581.403	81.38
581.614	79.38
581.825	80.38
582.035	81.38
582.246	79.38
582.456	84.38
582.667	102.38
582.877	92.38
583.087	83.38
583.298	98.38
583.508	79.38
583.719	81.38
583.929	94.38
584.139	89.38
584.35	76.38
584.56	82.38
584.77	77.38
584.981	80.38
585.191	86.38
585.401	94.38
585.611	88.38
585.821	91.38
586.032	80.38
586.242	97.38
586.452	73.38
586.662	83.38
586.872	92.38
587.082	85.38
587.292	74.38
587.502	70.38
587.713	83.38
587.923	86.38
588.133	82.38
588.343	77.38
588.553	92.38
588.762	88.38
588.972	91.38
589.182	85.38
589.392	84.38
589.602	81.38
589.812	78.38
590.022	78.38
590.232	90.38
590.441	84.38
590.651	75.38
590.861	82.38
591.071	74.38
591.281	86.38
591.49	80.38
591.7	96.38
591.91	90.38
592.119	94.38
592.329	98.38
592.539	91.38
592.748	86.38
592.958	79.38
593.167	81.38
593.377	71.38
593.587	90.38
593.796	77.38
594.006	80.38
594.215	81.38
594.424	84.38
594.634	78.38
594.843	78.38
595.053	95.38
595.262	81.38
595.472	82.38
595.681	82.38
595.89	86.38
596.1	95.38
596.309	99.38
596.518	85.38
596.727	82.38
596.937	92.38
597.146	79.38
597.355	84.38
597.564	83.38
597.774	83.38
597.983	87.38
598.192	76.38
598.401	80.38
598.61	82.38
598.819	82.38
599.028	74.38
599.237	69.38
599.446	81.38
599.655	82.38
599.864	85.38
600.073	73.38
600.282	86.38
600.491	93.38
600.7	94.38
600.909	70.38
601.118	94.38
601.327	91.38
601.536	96.38
601.745	80.38
601.953	78.38
602.162	102.38
602.371	95.38
602.58	91.38
602.789	91.38
602.997	92.38
603.206	94.38
603.415	90.38
603.623	74.38
603.832	76.38
604.041	72.38
604.249	100.38
604.458	80.38
604.666	81.38
604.875	86.38
605.084	83.38
605.292	86.38
605.501	89.38
605.709	81.38
605.918	71.38
606.126	91.38
606.334	84.38
606.543	85.38
606.751	101.38
606.96	84.38
607.168	95.38
607.376	94.38
607.585	92.38
607.793	83.38
608.001	100.38
608.21	79.38
608.418	77.38
608.626	85.38
608.834	89.38
609.043	92.38
609.251	87.38
609.459	88.38
609.667	92.38
609.875	88.38
610.083	84.38
610.291	96.38
610.499	83.38
610.707	94.38
610.916	90.38
611.124	98.38
611.332	94.38
611.54	90.38
611.748	101.38
611.955	80.38
612.163	89.38
612.371	96.38
612.579	86.38
612.787	95.38
612.995	95.38
613.203	98.38
613.411	112.38
613.618	92.38
613.826	104.38
614.034	96.38
614.242	87.38
614.449	91.38
614.657	104.38
614.865	90.38
615.072	98.38
615.28	94.38
615.488	92.38
615.695	93.38
615.903	97.38
616.111	92.38
616.318	101.38
616.526	101.38
616.733	92.38
616.941	83.38
617.148	96.38
617.356	99.38
617.563	82.38
617.771	88.38
617.978	75.38
618.185	79.38
618.393	81.38
618.6	85.38
618.807	86.38
619.015	87.38
619.222	81.38
619.429	83.38
619.637	74.38
619.844	96.38
620.051	96.38
620.258	97.38
620.466	101.38
620.673	91.38
620.88	86.38
621.087	91.38
621.294	92.38
621.501	79.38
621.708	92.38
621.915	95.38
622.122	86.38
622.329	85.38
622.536	90.38
622.743	78.38
622.95	87.38
623.157	87.38
623.364	93.38
623.571	95.38
623.778	87.38
623.985	78.38
624.192	92.38
624.399	91.38
624.606	85.38
624.812	81.38
625.019	103.38
625.226	98.38
625.433	80.38
625.639	76.38
625.846	94.38
626.053	90.38
626.259	82.38
626.466	87.38
626.673	83.38
626.879	82.38
627.086	79.38
627.293	90.38
627.499	88.38
627.706	91.38
627.912	91.38
628.119	82.38
628.325	101.38
628.532	100.38
628.738	66.38
628.945	87.38
629.151	80.38
629.357	97.38
629.564	94.38
629.77	90.38
629.976	91.38
630.183	94.38
630.389	85.38
630.595	80.38
630.802	83.38
631.008	74.38
631.214	96.38
631.42	86.38
631.627	90.38
631.833	86.38
632.039	70.38
632.245	76.38
632.451	86.38
632.657	87.38
632.863	89.38
633.069	81.38
633.275	87.38
633.481	83.38
633.688	89.38
633.893	70.38
634.099	80.38
634.305	87.38
634.511	93.38
634.717	83.38
634.923	89.38
635.129	87.38
635.335	78.38
635.541	74.38
635.747	91.38
635.952	96.38
636.158	77.38
636.364	90.38
636.57	81.38
636.775	82.38
636.981	83.38
637.187	77.38
637.392	80.38
637.598	99.38
637.804	84.38
638.009	76.38
638.215	85.38
638.421	90.38
638.626	89.38
638.832	85.38
639.037	82.38
639.243	88.38
639.448	84.38
639.654	100.38
639.859	100.38
640.065	94.38
640.27	94.38
640.475	73.38
640.681	94.38
640.886	84.38
641.091	95.38
641.297	92.38
641.502	87.38
641.707	88.38
641.913	98.38
642.118	80.38
642.323	86.38
642.528	88.38
642.733	86.38
642.939	87.38
643.144	69.38
643.349	82.38
643.554	78.38
643.759	96.38
643.964	88.38
644.169	74.38
644.374	90.38
644.579	85.38
644.784	104.38
644.989	85.38
645.194	84.38
645.399	92.38
645.604	90.38
645.809	89.38
646.014	81.38
646.219	76.38
646.423	93.38
646.628	75.38
646.833	84.38
647.038	79.38
647.243	81.38
647.447	68.38
647.652	78.38
647.857	85.38
648.062	85.38
648.266	62.38
648.471	98.38
648.676	78.38
648.88	72.38
649.085	80.38
649.289	95.38
649.494	82.38
649.698	88.38
649.903	91.38
650.107	83.38
650.312	92.38
650.516	81.38
650.721	88.38
650.925	79.38
651.13	89.38
651.334	80.38
651.539	77.38
651.743	73.38
651.947	85.38
652.152	67.38
652.356	82.38
652.56	79.38
652.764	76.38
652.969	76.38
653.173	84.38
653.377	74.38
653.581	72.38
653.785	68.38
653.99	90.38
654.194	78.38
654.398	89.38
654.602	87.38
654.806	77.38
655.01	86.38
655.214	69.38
655.418	88.38
655.622	80.38
655.826	85.38
656.03	80.38
656.234	70.38
656.438	81.38
656.642	92.38
656.846	83.38
657.049	94.38
657.253	78.38
657.457	71.38
657.661	94.38
657.865	97.38
658.068	80.38
658.272	66.38
658.476	63.38
658.68	73.38
658.883	82.38
659.087	86.38
659.291	74.38
659.494	85.38
659.698	68.38
659.901	86.38
660.105	93.38
660.309	74.38
660.512	73.38
660.716	85.38
660.919	70.38
661.123	77.38
661.326	65.38
661.53	84.38
661.733	98.38
661.936	86.38
662.14	81.38
662.343	90.38
662.546	78.38
662.75	71.38
662.953	72.38
663.156	81.38
663.36	86.38
663.563	96.38
663.766	73.38
663.969	96.38
664.173	72.38
664.376	81.38
664.579	80.38
664.782	84.38
664.985	75.38
665.188	83.38
665.391	86.38
665.594	83.38
665.797	61.38
666	82.38
666.203	81.38
666.406	64.38
666.609	81.38
666.812	89.38
667.015	81.38
667.218	101.38
667.421	73.38
667.624	89.38
667.827	77.38
668.03	84.38
668.232	91.38
668.435	88.38
668.638	77.38
668.841	81.38
669.043	87.38
669.246	76.38
669.449	74.38
669.651	89.38
669.854	86.38
670.057	78.38
670.259	90.38
670.462	86.38
670.665	80.38
670.867	76.38
671.07	84.38
671.272	72.38
671.475	83.38
671.677	86.38
671.88	86.38
672.082	88.38
672.284	81.38
672.487	72.38
672.689	69.38
672.892	70.38
