Data from Location5.07152019.Energy5.Lamp.07192019.3%Agarose_HRD10591_15-38-19-388.txt Node
Date: Fri Jul 19 15:38:19 EDT 2019
User: cochatt
Spectrometer: HR+D1059
Trigger mode: 1
Integration Time (sec): 1.000000E-1
Scans to average: 1
Electric dark correction enabled: true
Nonlinearity correction enabled: false
Boxcar width: 0
XAxis mode: Wavelengths
Number of Pixels in Spectrum: 2048
>>>>>Begin Spectral Data<<<<<
223.165	-10.62
223.4	-10.62
223.635	-10.62
223.869	-10.62
224.104	-17.62
224.338	-14.62
224.573	-30.62
224.808	-17.62
225.042	-11.62
225.277	0.38
225.511	-9.62
225.746	16.38
225.98	22.38
226.215	12.38
226.449	13.38
226.683	19.38
226.918	10.38
227.152	28.38
227.387	39.38
227.621	22.38
227.856	47.38
228.09	50.38
228.324	38.38
228.559	59.38
228.793	52.38
229.027	59.38
229.262	66.38
229.496	64.38
229.73	67.38
229.964	73.38
230.199	65.38
230.433	78.38
230.667	84.38
230.901	71.38
231.136	81.38
231.37	72.38
231.604	78.38
231.838	68.38
232.072	83.38
232.306	86.38
232.541	85.38
232.775	74.38
233.009	75.38
233.243	86.38
233.477	93.38
233.711	79.38
233.945	91.38
234.179	88.38
234.413	81.38
234.647	74.38
234.881	75.38
235.115	69.38
235.349	84.38
235.583	80.38
235.817	74.38
236.051	77.38
236.285	77.38
236.519	72.38
236.753	89.38
236.987	79.38
237.221	76.38
237.455	70.38
237.689	76.38
237.922	72.38
238.156	80.38
238.39	72.38
238.624	73.38
238.858	74.38
239.091	85.38
239.325	68.38
239.559	82.38
239.793	73.38
240.027	68.38
240.26	86.38
240.494	86.38
240.728	88.38
240.961	84.38
241.195	87.38
241.429	89.38
241.662	81.38
241.896	80.38
242.13	92.38
242.363	79.38
242.597	64.38
242.83	72.38
243.064	64.38
243.298	79.38
243.531	83.38
243.765	73.38
243.998	88.38
244.232	83.38
244.465	86.38
244.699	77.38
244.932	71.38
245.166	69.38
245.399	94.38
245.633	85.38
245.866	76.38
246.099	84.38
246.333	87.38
246.566	94.38
246.8	87.38
247.033	73.38
247.266	81.38
247.5	81.38
247.733	73.38
247.966	73.38
248.2	84.38
248.433	73.38
248.666	80.38
248.899	92.38
249.133	83.38
249.366	93.38
249.599	78.38
249.832	83.38
250.066	86.38
250.299	75.38
250.532	82.38
250.765	76.38
250.998	72.38
251.231	76.38
251.465	77.38
251.698	88.38
251.931	81.38
252.164	82.38
252.397	95.38
252.63	76.38
252.863	63.38
253.096	69.38
253.329	77.38
253.562	76.38
253.795	90.38
254.028	82.38
254.261	80.38
254.494	77.38
254.727	76.38
254.96	80.38
255.193	73.38
255.426	78.38
255.659	77.38
255.892	80.38
256.124	75.38
256.357	79.38
256.59	91.38
256.823	80.38
257.056	73.38
257.289	84.38
257.521	76.38
257.754	80.38
257.987	74.38
258.22	81.38
258.452	87.38
258.685	75.38
258.918	86.38
259.151	93.38
259.383	71.38
259.616	75.38
259.849	87.38
260.081	87.38
260.314	81.38
260.547	73.38
260.779	75.38
261.012	71.38
261.244	89.38
261.477	81.38
261.71	76.38
261.942	78.38
262.175	82.38
262.407	87.38
262.64	90.38
262.872	86.38
263.105	76.38
263.337	75.38
263.57	95.38
263.802	84.38
264.035	85.38
264.267	79.38
264.499	71.38
264.732	73.38
264.964	84.38
265.197	98.38
265.429	96.38
265.661	83.38
265.894	88.38
266.126	91.38
266.358	83.38
266.591	84.38
266.823	90.38
267.055	96.38
267.287	79.38
267.52	97.38
267.752	90.38
267.984	82.38
268.216	82.38
268.448	94.38
268.681	84.38
268.913	87.38
269.145	80.38
269.377	77.38
269.609	60.38
269.841	81.38
270.073	84.38
270.306	82.38
270.538	74.38
270.77	92.38
271.002	80.38
271.234	71.38
271.466	76.38
271.698	87.38
271.93	88.38
272.162	76.38
272.394	94.38
272.626	71.38
272.858	79.38
273.09	87.38
273.322	84.38
273.553	92.38
273.785	94.38
274.017	85.38
274.249	71.38
274.481	90.38
274.713	82.38
274.945	83.38
275.176	75.38
275.408	84.38
275.64	75.38
275.872	55.38
276.104	87.38
276.335	85.38
276.567	71.38
276.799	74.38
277.031	82.38
277.262	96.38
277.494	75.38
277.726	70.38
277.957	68.38
278.189	73.38
278.421	75.38
278.652	77.38
278.884	74.38
279.115	78.38
279.347	71.38
279.579	83.38
279.81	91.38
280.042	84.38
280.273	72.38
280.505	90.38
280.736	79.38
280.968	66.38
281.199	72.38
281.431	92.38
281.662	90.38
281.894	83.38
282.125	90.38
282.356	91.38
282.588	79.38
282.819	81.38
283.051	80.38
283.282	70.38
283.513	86.38
283.745	83.38
283.976	80.38
284.207	100.38
284.439	77.38
284.67	83.38
284.901	87.38
285.132	94.38
285.364	92.38
285.595	88.38
285.826	97.38
286.057	87.38
286.288	81.38
286.52	88.38
286.751	88.38
286.982	99.38
287.213	64.38
287.444	79.38
287.675	81.38
287.906	81.38
288.138	100.38
288.369	76.38
288.6	79.38
288.831	89.38
289.062	96.38
289.293	96.38
289.524	86.38
289.755	86.38
289.986	84.38
290.217	90.38
290.448	88.38
290.679	94.38
290.91	80.38
291.141	74.38
291.371	84.38
291.602	96.38
291.833	84.38
292.064	87.38
292.295	75.38
292.526	75.38
292.757	83.38
292.987	91.38
293.218	74.38
293.449	90.38
293.68	83.38
293.91	70.38
294.141	87.38
294.372	99.38
294.603	91.38
294.833	96.38
295.064	89.38
295.295	79.38
295.525	92.38
295.756	98.38
295.987	70.38
296.217	71.38
296.448	89.38
296.679	72.38
296.909	73.38
297.14	82.38
297.37	68.38
297.601	83.38
297.831	62.38
298.062	76.38
298.292	93.38
298.523	88.38
298.753	95.38
298.984	88.38
299.214	99.38
299.445	99.38
299.675	82.38
299.905	90.38
300.136	84.38
300.366	86.38
300.597	87.38
300.827	82.38
301.057	79.38
301.288	84.38
301.518	79.38
301.748	79.38
301.979	74.38
302.209	79.38
302.439	72.38
302.669	82.38
302.9	71.38
303.13	89.38
303.36	94.38
303.59	93.38
303.82	87.38
304.051	87.38
304.281	87.38
304.511	79.38
304.741	79.38
304.971	87.38
305.201	87.38
305.431	87.38
305.661	83.38
305.891	71.38
306.121	83.38
306.352	70.38
306.582	92.38
306.812	75.38
307.042	76.38
307.272	75.38
307.502	79.38
307.731	87.38
307.961	75.38
308.191	78.38
308.421	79.38
308.651	82.38
308.881	88.38
309.111	89.38
309.341	89.38
309.571	79.38
309.8	97.38
310.03	91.38
310.26	83.38
310.49	93.38
310.72	94.38
310.949	63.38
311.179	77.38
311.409	76.38
311.639	104.38
311.868	84.38
312.098	74.38
312.328	90.38
312.557	105.38
312.787	96.38
313.017	88.38
313.246	88.38
313.476	90.38
313.706	67.38
313.935	87.38
314.165	82.38
314.394	86.38
314.624	78.38
314.853	67.38
315.083	88.38
315.312	100.38
315.542	82.38
315.771	74.38
316.001	94.38
316.23	86.38
316.46	95.38
316.689	90.38
316.919	87.38
317.148	86.38
317.377	81.38
317.607	89.38
317.836	82.38
318.065	97.38
318.295	89.38
318.524	86.38
318.753	86.38
318.983	85.38
319.212	76.38
319.441	82.38
319.67	73.38
319.9	89.38
320.129	87.38
320.358	87.38
320.587	84.38
320.816	73.38
321.046	89.38
321.275	83.38
321.504	80.38
321.733	83.38
321.962	80.38
322.191	90.38
322.42	73.38
322.649	95.38
322.878	84.38
323.108	82.38
323.337	91.38
323.566	77.38
323.795	99.38
324.024	74.38
324.253	76.38
324.482	74.38
324.71	83.38
324.939	87.38
325.168	89.38
325.397	98.38
325.626	90.38
325.855	89.38
326.084	99.38
326.313	82.38
326.542	79.38
326.77	85.38
326.999	84.38
327.228	80.38
327.457	76.38
327.686	90.38
327.914	74.38
328.143	87.38
328.372	67.38
328.6	75.38
328.829	92.38
329.058	72.38
329.287	78.38
329.515	83.38
329.744	87.38
329.972	89.38
330.201	78.38
330.43	74.38
330.658	83.38
330.887	72.38
331.115	87.38
331.344	91.38
331.572	89.38
331.801	92.38
332.03	79.38
332.258	89.38
332.486	80.38
332.715	70.38
332.943	82.38
333.172	80.38
333.4	85.38
333.629	81.38
333.857	96.38
334.085	85.38
334.314	79.38
334.542	86.38
334.771	88.38
334.999	75.38
335.227	80.38
335.455	84.38
335.684	92.38
335.912	80.38
336.14	83.38
336.369	96.38
336.597	79.38
336.825	81.38
337.053	90.38
337.281	85.38
337.51	79.38
337.738	90.38
337.966	83.38
338.194	89.38
338.422	93.38
338.65	86.38
338.878	83.38
339.106	84.38
339.334	84.38
339.562	97.38
339.79	67.38
340.018	76.38
340.246	86.38
340.474	80.38
340.702	83.38
340.93	80.38
341.158	74.38
341.386	79.38
341.614	90.38
341.842	75.38
342.07	99.38
342.298	90.38
342.526	83.38
342.754	86.38
342.981	68.38
343.209	82.38
343.437	82.38
343.665	88.38
343.893	86.38
344.12	84.38
344.348	90.38
344.576	77.38
344.804	86.38
345.031	94.38
345.259	82.38
345.487	89.38
345.714	83.38
345.942	80.38
346.17	88.38
346.397	82.38
346.625	71.38
346.853	74.38
347.08	74.38
347.308	87.38
347.535	82.38
347.763	71.38
347.99	81.38
348.218	91.38
348.445	84.38
348.673	87.38
348.9	77.38
349.128	77.38
349.355	82.38
349.583	80.38
349.81	93.38
350.037	79.38
350.265	82.38
350.492	68.38
350.72	86.38
350.947	86.38
351.174	81.38
351.402	96.38
351.629	75.38
351.856	87.38
352.083	82.38
352.311	76.38
352.538	86.38
352.765	91.38
352.992	84.38
353.22	80.38
353.447	88.38
353.674	77.38
353.901	90.38
354.128	87.38
354.355	90.38
354.583	89.38
354.81	87.38
355.037	79.38
355.264	79.38
355.491	93.38
355.718	81.38
355.945	82.38
356.172	74.38
356.399	91.38
356.626	76.38
356.853	84.38
357.08	82.38
357.307	79.38
357.534	78.38
357.761	82.38
357.988	88.38
358.215	80.38
358.441	70.38
358.668	83.38
358.895	85.38
359.122	74.38
359.349	90.38
359.576	83.38
359.802	87.38
360.029	86.38
360.256	92.38
360.483	88.38
360.709	95.38
360.936	81.38
361.163	83.38
361.39	83.38
361.616	73.38
361.843	84.38
362.07	88.38
362.296	79.38
362.523	82.38
362.749	82.38
362.976	81.38
363.203	91.38
363.429	69.38
363.656	102.38
363.882	84.38
364.109	80.38
364.335	87.38
364.562	77.38
364.788	84.38
365.015	73.38
365.241	81.38
365.468	80.38
365.694	86.38
365.92	87.38
366.147	88.38
366.373	73.38
366.599	90.38
366.826	84.38
367.052	86.38
367.278	82.38
367.505	80.38
367.731	94.38
367.957	82.38
368.184	79.38
368.41	80.38
368.636	86.38
368.862	90.38
369.089	94.38
369.315	80.38
369.541	91.38
369.767	83.38
369.993	73.38
370.219	77.38
370.445	87.38
370.672	83.38
370.898	76.38
371.124	75.38
371.35	65.38
371.576	96.38
371.802	101.38
372.028	79.38
372.254	81.38
372.48	86.38
372.706	78.38
372.932	89.38
373.158	77.38
373.384	90.38
373.61	61.38
373.835	86.38
374.061	70.38
374.287	76.38
374.513	86.38
374.739	89.38
374.965	94.38
375.191	78.38
375.416	74.38
375.642	93.38
375.868	91.38
376.094	83.38
376.319	93.38
376.545	82.38
376.771	79.38
376.997	74.38
377.222	82.38
377.448	89.38
377.674	83.38
377.899	81.38
378.125	74.38
378.35	78.38
378.576	76.38
378.802	83.38
379.027	81.38
379.253	89.38
379.478	79.38
379.704	80.38
379.929	92.38
380.155	71.38
380.38	93.38
380.606	95.38
380.831	90.38
381.057	84.38
381.282	79.38
381.507	76.38
381.733	82.38
381.958	95.38
382.184	74.38
382.409	99.38
382.634	94.38
382.86	81.38
383.085	81.38
383.31	95.38
383.535	111.38
383.761	97.38
383.986	75.38
384.211	81.38
384.436	74.38
384.662	66.38
384.887	93.38
385.112	85.38
385.337	80.38
385.562	88.38
385.787	82.38
386.013	88.38
386.238	87.38
386.463	85.38
386.688	81.38
386.913	88.38
387.138	94.38
387.363	85.38
387.588	92.38
387.813	92.38
388.038	68.38
388.263	90.38
388.488	78.38
388.713	80.38
388.938	97.38
389.163	70.38
389.387	88.38
389.612	83.38
389.837	91.38
390.062	84.38
390.287	92.38
390.512	72.38
390.736	81.38
390.961	84.38
391.186	87.38
391.411	91.38
391.636	80.38
391.86	97.38
392.085	90.38
392.31	99.38
392.534	98.38
392.759	86.38
392.984	99.38
393.208	89.38
393.433	80.38
393.658	83.38
393.882	83.38
394.107	82.38
394.331	83.38
394.556	86.38
394.78	75.38
395.005	94.38
395.229	76.38
395.454	88.38
395.678	87.38
395.903	87.38
396.127	97.38
396.352	86.38
396.576	86.38
396.801	89.38
397.025	94.38
397.249	80.38
397.474	84.38
397.698	91.38
397.922	96.38
398.147	82.38
398.371	84.38
398.595	84.38
398.82	94.38
399.044	88.38
399.268	84.38
399.492	89.38
399.717	72.38
399.941	103.38
400.165	89.38
400.389	82.38
400.613	84.38
400.837	90.38
401.062	84.38
401.286	79.38
401.51	89.38
401.734	78.38
401.958	86.38
402.182	91.38
402.406	79.38
402.63	79.38
402.854	99.38
403.078	86.38
403.302	86.38
403.526	88.38
403.75	83.38
403.974	83.38
404.198	89.38
404.422	94.38
404.645	81.38
404.869	79.38
405.093	78.38
405.317	103.38
405.541	89.38
405.765	87.38
405.988	91.38
406.212	81.38
406.436	84.38
406.66	90.38
406.883	89.38
407.107	92.38
407.331	82.38
407.555	104.38
407.778	96.38
408.002	94.38
408.226	91.38
408.449	91.38
408.673	94.38
408.896	90.38
409.12	95.38
409.344	90.38
409.567	88.38
409.791	99.38
410.014	94.38
410.238	90.38
410.461	86.38
410.685	93.38
410.908	96.38
411.132	90.38
411.355	78.38
411.578	91.38
411.802	90.38
412.025	104.38
412.249	92.38
412.472	87.38
412.695	87.38
412.919	111.38
413.142	100.38
413.365	80.38
413.589	80.38
413.812	87.38
414.035	90.38
414.258	77.38
414.482	94.38
414.705	96.38
414.928	97.38
415.151	81.38
415.374	89.38
415.597	93.38
415.821	90.38
416.044	81.38
416.267	87.38
416.49	87.38
416.713	96.38
416.936	92.38
417.159	80.38
417.382	89.38
417.605	83.38
417.828	85.38
418.051	104.38
418.274	87.38
418.497	87.38
418.72	102.38
418.943	101.38
419.166	94.38
419.389	70.38
419.611	89.38
419.834	83.38
420.057	93.38
420.28	95.38
420.503	102.38
420.726	90.38
420.948	96.38
421.171	102.38
421.394	84.38
421.617	106.38
421.839	107.38
422.062	88.38
422.285	86.38
422.507	95.38
422.73	100.38
422.953	92.38
423.175	81.38
423.398	107.38
423.621	98.38
423.843	98.38
424.066	86.38
424.288	101.38
424.511	92.38
424.733	89.38
424.956	107.38
425.178	99.38
425.401	92.38
425.623	97.38
425.846	96.38
426.068	93.38
426.291	98.38
426.513	90.38
426.735	99.38
426.958	103.38
427.18	100.38
427.402	110.38
427.625	107.38
427.847	88.38
428.069	82.38
428.292	84.38
428.514	76.38
428.736	86.38
428.958	83.38
429.181	95.38
429.403	94.38
429.625	91.38
429.847	89.38
430.069	98.38
430.292	84.38
430.514	81.38
430.736	91.38
430.958	92.38
431.18	98.38
431.402	95.38
431.624	91.38
431.846	85.38
432.068	87.38
432.29	72.38
432.512	79.38
432.734	95.38
432.956	97.38
433.178	99.38
433.4	95.38
433.622	99.38
433.844	93.38
434.066	83.38
434.287	86.38
434.509	82.38
434.731	85.38
434.953	80.38
435.175	99.38
435.397	90.38
435.618	88.38
435.84	99.38
436.062	92.38
436.284	89.38
436.505	92.38
436.727	68.38
436.949	85.38
437.17	88.38
437.392	91.38
437.614	97.38
437.835	82.38
438.057	76.38
438.278	84.38
438.5	88.38
438.721	97.38
438.943	83.38
439.165	99.38
439.386	83.38
439.608	97.38
439.829	99.38
440.05	95.38
440.272	102.38
440.493	94.38
440.715	80.38
440.936	98.38
441.158	94.38
441.379	97.38
441.6	98.38
441.822	100.38
442.043	80.38
442.264	87.38
442.486	96.38
442.707	90.38
442.928	98.38
443.149	88.38
443.371	103.38
443.592	90.38
443.813	77.38
444.034	97.38
444.255	98.38
444.476	98.38
444.698	91.38
444.919	98.38
445.14	224.38
445.361	161.38
445.582	103.38
445.803	91.38
446.024	91.38
446.245	99.38
446.466	98.38
446.687	88.38
446.908	99.38
447.129	96.38
447.35	95.38
447.571	85.38
447.792	92.38
448.013	89.38
448.234	84.38
448.455	86.38
448.675	88.38
448.896	106.38
449.117	107.38
449.338	92.38
449.559	107.38
449.779	102.38
450	88.38
450.221	97.38
450.442	80.38
450.662	100.38
450.883	96.38
451.104	110.38
451.324	100.38
451.545	95.38
451.766	88.38
451.986	96.38
452.207	104.38
452.428	90.38
452.648	99.38
452.869	88.38
453.089	85.38
453.31	94.38
453.53	82.38
453.751	80.38
453.971	87.38
454.192	85.38
454.412	87.38
454.633	78.38
454.853	92.38
455.073	79.38
455.294	88.38
455.514	96.38
455.734	79.38
455.955	92.38
456.175	90.38
456.395	99.38
456.616	90.38
456.836	78.38
457.056	86.38
457.276	81.38
457.497	80.38
457.717	96.38
457.937	83.38
458.157	73.38
458.377	87.38
458.598	82.38
458.818	97.38
459.038	79.38
459.258	88.38
459.478	80.38
459.698	90.38
459.918	90.38
460.138	96.38
460.358	96.38
460.578	95.38
460.798	99.38
461.018	87.38
461.238	86.38
461.458	94.38
461.678	85.38
461.898	90.38
462.118	73.38
462.338	92.38
462.558	87.38
462.777	94.38
462.997	86.38
463.217	85.38
463.437	95.38
463.657	82.38
463.876	74.38
464.096	99.38
464.316	97.38
464.536	94.38
464.755	77.38
464.975	94.38
465.195	92.38
465.414	74.38
465.634	86.38
465.854	104.38
466.073	91.38
466.293	98.38
466.512	88.38
466.732	103.38
466.951	98.38
467.171	94.38
467.391	93.38
467.61	96.38
467.829	84.38
468.049	99.38
468.268	102.38
468.488	83.38
468.707	94.38
468.927	102.38
469.146	84.38
469.365	89.38
469.585	88.38
469.804	72.38
470.023	112.38
470.243	107.38
470.462	91.38
470.681	94.38
470.901	98.38
471.12	91.38
471.339	92.38
471.558	91.38
471.777	104.38
471.997	101.38
472.216	91.38
472.435	86.38
472.654	76.38
472.873	79.38
473.092	87.38
473.311	84.38
473.53	105.38
473.749	90.38
473.968	105.38
474.187	90.38
474.406	94.38
474.625	81.38
474.844	91.38
475.063	86.38
475.282	89.38
475.501	90.38
475.72	88.38
475.939	89.38
476.158	98.38
476.377	83.38
476.596	87.38
476.814	92.38
477.033	79.38
477.252	87.38
477.471	84.38
477.69	99.38
477.908	92.38
478.127	98.38
478.346	104.38
478.564	105.38
478.783	96.38
479.002	93.38
479.22	87.38
479.439	95.38
479.658	90.38
479.876	97.38
480.095	85.38
480.313	74.38
480.532	94.38
480.751	87.38
480.969	88.38
481.188	73.38
481.406	90.38
481.624	69.38
481.843	87.38
482.061	87.38
482.28	86.38
482.498	98.38
482.717	101.38
482.935	90.38
483.153	99.38
483.372	103.38
483.59	84.38
483.808	96.38
484.027	109.38
484.245	103.38
484.463	88.38
484.681	110.38
484.9	85.38
485.118	91.38
485.336	99.38
485.554	100.38
485.772	100.38
485.99	94.38
486.209	100.38
486.427	85.38
486.645	96.38
486.863	94.38
487.081	99.38
487.299	94.38
487.517	96.38
487.735	106.38
487.953	110.38
488.171	106.38
488.389	102.38
488.607	89.38
488.825	89.38
489.043	82.38
489.261	95.38
489.479	90.38
489.696	97.38
489.914	93.38
490.132	103.38
490.35	97.38
490.568	100.38
490.786	117.38
491.003	107.38
491.221	118.38
491.439	110.38
491.657	115.38
491.874	114.38
492.092	117.38
492.31	122.38
492.527	113.38
492.745	85.38
492.963	113.38
493.18	119.38
493.398	126.38
493.615	97.38
493.833	106.38
494.05	111.38
494.268	96.38
494.485	100.38
494.703	114.38
494.92	102.38
495.138	108.38
495.355	108.38
495.573	100.38
495.79	97.38
496.008	114.38
496.225	105.38
496.442	89.38
496.66	109.38
496.877	102.38
497.094	118.38
497.312	107.38
497.529	107.38
497.746	105.38
497.963	102.38
498.181	97.38
498.398	85.38
498.615	80.38
498.832	87.38
499.049	100.38
499.267	100.38
499.484	92.38
499.701	100.38
499.918	91.38
500.135	90.38
500.352	87.38
500.569	114.38
500.786	94.38
501.003	92.38
501.22	92.38
501.437	99.38
501.654	100.38
501.871	98.38
502.088	103.38
502.305	93.38
502.522	93.38
502.739	85.38
502.956	88.38
503.172	99.38
503.389	102.38
503.606	98.38
503.823	93.38
504.04	82.38
504.256	84.38
504.473	92.38
504.69	92.38
504.907	98.38
505.123	97.38
505.34	82.38
505.557	84.38
505.773	105.38
505.99	94.38
506.207	91.38
506.423	88.38
506.64	81.38
506.856	105.38
507.073	91.38
507.289	97.38
507.506	85.38
507.722	99.38
507.939	101.38
508.155	98.38
508.372	90.38
508.588	85.38
508.805	95.38
509.021	91.38
509.238	79.38
509.454	89.38
509.67	86.38
509.887	86.38
510.103	85.38
510.319	98.38
510.536	68.38
510.752	91.38
510.968	69.38
511.184	87.38
511.401	95.38
511.617	87.38
511.833	87.38
512.049	74.38
512.265	76.38
512.481	72.38
512.698	83.38
512.914	82.38
513.13	96.38
513.346	77.38
513.562	86.38
513.778	89.38
513.994	94.38
514.21	81.38
514.426	86.38
514.642	75.38
514.858	81.38
515.074	76.38
515.29	82.38
515.506	74.38
515.721	79.38
515.937	86.38
516.153	92.38
516.369	86.38
516.585	92.38
516.801	78.38
517.016	80.38
517.232	83.38
517.448	88.38
517.664	84.38
517.879	87.38
518.095	76.38
518.311	87.38
518.527	92.38
518.742	89.38
518.958	91.38
519.173	89.38
519.389	96.38
519.605	86.38
519.82	90.38
520.036	86.38
520.251	80.38
520.467	94.38
520.682	100.38
520.898	80.38
521.113	91.38
521.329	76.38
521.544	88.38
521.76	93.38
521.975	84.38
522.19	96.38
522.406	93.38
522.621	86.38
522.836	77.38
523.052	89.38
523.267	100.38
523.482	80.38
523.698	89.38
523.913	87.38
524.128	98.38
524.343	93.38
524.559	98.38
524.774	94.38
524.989	91.38
525.204	90.38
525.419	95.38
525.634	96.38
525.849	94.38
526.064	82.38
526.28	85.38
526.495	91.38
526.71	84.38
526.925	83.38
527.14	82.38
527.355	83.38
527.57	86.38
527.785	78.38
527.999	91.38
528.214	84.38
528.429	89.38
528.644	89.38
528.859	108.38
529.074	100.38
529.289	105.38
529.503	104.38
529.718	84.38
529.933	86.38
530.148	77.38
530.363	89.38
530.577	87.38
530.792	88.38
531.007	74.38
531.221	71.38
531.436	76.38
531.651	68.38
531.865	79.38
532.08	83.38
532.295	82.38
532.509	88.38
532.724	89.38
532.938	92.38
533.153	87.38
533.367	90.38
533.582	110.38
533.796	94.38
534.011	91.38
534.225	95.38
534.44	90.38
534.654	69.38
534.868	84.38
535.083	83.38
535.297	99.38
535.511	94.38
535.726	97.38
535.94	89.38
536.154	88.38
536.369	82.38
536.583	73.38
536.797	91.38
537.011	86.38
537.225	73.38
537.44	89.38
537.654	90.38
537.868	80.38
538.082	69.38
538.296	75.38
538.51	98.38
538.724	100.38
538.938	100.38
539.153	84.38
539.367	88.38
539.581	88.38
539.795	85.38
540.009	89.38
540.222	93.38
540.436	93.38
540.65	83.38
540.864	95.38
541.078	96.38
541.292	98.38
541.506	93.38
541.72	107.38
541.934	120.38
542.147	106.38
542.361	116.38
542.575	103.38
542.789	95.38
543.002	90.38
543.216	104.38
543.43	112.38
543.644	98.38
543.857	88.38
544.071	100.38
544.285	119.38
544.498	94.38
544.712	102.38
544.925	102.38
545.139	101.38
545.352	123.38
545.566	116.38
545.779	104.38
545.993	110.38
546.206	96.38
546.42	93.38
546.633	105.38
546.847	106.38
547.06	106.38
547.274	113.38
547.487	101.38
547.7	105.38
547.914	111.38
548.127	109.38
548.34	111.38
548.554	100.38
548.767	114.38
548.98	105.38
549.193	95.38
549.407	99.38
549.62	116.38
549.833	110.38
550.046	90.38
550.259	93.38
550.473	107.38
550.686	94.38
550.899	112.38
551.112	121.38
551.325	89.38
551.538	102.38
551.751	104.38
551.964	101.38
552.177	100.38
552.39	92.38
552.603	108.38
552.816	99.38
553.029	90.38
553.242	110.38
553.455	97.38
553.667	108.38
553.88	99.38
554.093	90.38
554.306	103.38
554.519	114.38
554.732	116.38
554.944	107.38
555.157	94.38
555.37	86.38
555.583	100.38
555.795	98.38
556.008	104.38
556.221	89.38
556.433	96.38
556.646	80.38
556.859	103.38
557.071	101.38
557.284	89.38
557.496	97.38
557.709	104.38
557.921	95.38
558.134	107.38
558.346	99.38
558.559	92.38
558.771	99.38
558.984	97.38
559.196	80.38
559.409	104.38
559.621	87.38
559.833	101.38
560.046	95.38
560.258	98.38
560.47	103.38
560.683	113.38
560.895	88.38
561.107	106.38
561.32	85.38
561.532	87.38
561.744	104.38
561.956	94.38
562.168	90.38
562.381	97.38
562.593	98.38
562.805	90.38
563.017	84.38
563.229	107.38
563.441	92.38
563.653	81.38
563.865	88.38
564.077	97.38
564.289	96.38
564.501	84.38
564.713	89.38
564.925	99.38
565.137	89.38
565.349	88.38
565.561	92.38
565.773	98.38
565.985	95.38
566.197	73.38
566.408	92.38
566.62	94.38
566.832	85.38
567.044	89.38
567.255	104.38
567.467	86.38
567.679	87.38
567.891	98.38
568.102	76.38
568.314	94.38
568.526	71.38
568.737	92.38
568.949	76.38
569.161	88.38
569.372	86.38
569.584	89.38
569.795	83.38
570.007	78.38
570.218	70.38
570.43	73.38
570.641	75.38
570.853	76.38
571.064	91.38
571.276	78.38
571.487	86.38
571.698	85.38
571.91	113.38
572.121	97.38
572.333	105.38
572.544	95.38
572.755	88.38
572.966	84.38
573.178	88.38
573.389	99.38
573.6	79.38
573.811	89.38
574.023	84.38
574.234	90.38
574.445	98.38
574.656	74.38
574.867	82.38
575.078	86.38
575.289	86.38
575.501	92.38
575.712	67.38
575.923	80.38
576.134	81.38
576.345	74.38
576.556	90.38
576.767	80.38
576.978	82.38
577.188	83.38
577.399	81.38
577.61	82.38
577.821	84.38
578.032	77.38
578.243	95.38
578.454	88.38
578.665	89.38
578.875	79.38
579.086	68.38
579.297	87.38
579.508	83.38
579.718	92.38
579.929	91.38
580.14	76.38
580.35	79.38
580.561	72.38
580.772	80.38
580.982	104.38
581.193	83.38
581.403	92.38
581.614	102.38
581.825	88.38
582.035	80.38
582.246	79.38
582.456	91.38
582.667	84.38
582.877	74.38
583.087	95.38
583.298	88.38
583.508	78.38
583.719	75.38
583.929	88.38
584.139	86.38
584.35	100.38
584.56	88.38
584.77	77.38
584.981	96.38
585.191	100.38
585.401	76.38
585.611	94.38
585.821	79.38
586.032	84.38
586.242	99.38
586.452	87.38
586.662	85.38
586.872	89.38
587.082	82.38
587.292	85.38
587.502	76.38
587.713	106.38
587.923	88.38
588.133	75.38
588.343	77.38
588.553	90.38
588.762	79.38
588.972	78.38
589.182	82.38
589.392	79.38
589.602	69.38
589.812	77.38
590.022	102.38
590.232	96.38
590.441	87.38
590.651	75.38
590.861	81.38
591.071	86.38
591.281	92.38
591.49	88.38
591.7	99.38
591.91	87.38
592.119	85.38
592.329	83.38
592.539	95.38
592.748	97.38
592.958	79.38
593.167	93.38
593.377	83.38
593.587	100.38
593.796	82.38
594.006	80.38
594.215	87.38
594.424	93.38
594.634	83.38
594.843	77.38
595.053	86.38
595.262	85.38
595.472	88.38
595.681	93.38
595.89	82.38
596.1	93.38
596.309	77.38
596.518	89.38
596.727	87.38
596.937	77.38
597.146	76.38
597.355	99.38
597.564	90.38
597.774	83.38
597.983	87.38
598.192	82.38
598.401	81.38
598.61	84.38
598.819	86.38
599.028	81.38
599.237	86.38
599.446	86.38
599.655	85.38
599.864	87.38
600.073	83.38
600.282	70.38
600.491	76.38
600.7	98.38
600.909	91.38
601.118	102.38
601.327	77.38
601.536	91.38
601.745	79.38
601.953	89.38
602.162	98.38
602.371	98.38
602.58	76.38
602.789	91.38
602.997	96.38
603.206	73.38
603.415	93.38
603.623	95.38
603.832	90.38
604.041	98.38
604.249	84.38
604.458	80.38
604.666	87.38
604.875	85.38
605.084	80.38
605.292	76.38
605.501	88.38
605.709	86.38
605.918	94.38
606.126	98.38
606.334	80.38
606.543	93.38
606.751	88.38
606.96	87.38
607.168	98.38
607.376	91.38
607.585	80.38
607.793	90.38
608.001	91.38
608.21	91.38
608.418	95.38
608.626	83.38
608.834	85.38
609.043	87.38
609.251	93.38
609.459	100.38
609.667	99.38
609.875	86.38
610.083	109.38
610.291	105.38
610.499	94.38
610.707	80.38
610.916	82.38
611.124	87.38
611.332	97.38
611.54	86.38
611.748	94.38
611.955	80.38
612.163	91.38
612.371	87.38
612.579	90.38
612.787	94.38
612.995	84.38
613.203	99.38
613.411	66.38
613.618	92.38
613.826	88.38
614.034	82.38
614.242	87.38
614.449	82.38
614.657	74.38
614.865	89.38
615.072	88.38
615.28	92.38
615.488	77.38
615.695	83.38
615.903	71.38
616.111	97.38
616.318	94.38
616.526	74.38
616.733	94.38
616.941	90.38
617.148	87.38
617.356	87.38
617.563	100.38
617.771	81.38
617.978	90.38
618.185	96.38
618.393	76.38
618.6	97.38
618.807	91.38
619.015	94.38
619.222	74.38
619.429	84.38
619.637	85.38
619.844	94.38
620.051	97.38
620.258	89.38
620.466	96.38
620.673	88.38
620.88	99.38
621.087	80.38
621.294	81.38
621.501	88.38
621.708	83.38
621.915	90.38
622.122	86.38
622.329	92.38
622.536	100.38
622.743	90.38
622.95	82.38
623.157	87.38
623.364	91.38
623.571	82.38
623.778	90.38
623.985	88.38
624.192	98.38
624.399	105.38
624.606	97.38
624.812	95.38
625.019	97.38
625.226	104.38
625.433	89.38
625.639	83.38
625.846	79.38
626.053	99.38
626.259	83.38
626.466	87.38
626.673	75.38
626.879	76.38
627.086	82.38
627.293	96.38
627.499	84.38
627.706	84.38
627.912	89.38
628.119	84.38
628.325	97.38
628.532	95.38
628.738	95.38
628.945	88.38
629.151	91.38
629.357	86.38
629.564	92.38
629.77	82.38
629.976	83.38
630.183	89.38
630.389	82.38
630.595	89.38
630.802	89.38
631.008	94.38
631.214	83.38
631.42	71.38
631.627	90.38
631.833	82.38
632.039	80.38
632.245	86.38
632.451	84.38
632.657	99.38
632.863	79.38
633.069	84.38
633.275	82.38
633.481	86.38
633.688	86.38
633.893	90.38
634.099	78.38
634.305	95.38
634.511	88.38
634.717	88.38
634.923	65.38
635.129	84.38
635.335	80.38
635.541	92.38
635.747	74.38
635.952	80.38
636.158	76.38
636.364	91.38
636.57	82.38
636.775	75.38
636.981	81.38
637.187	94.38
637.392	82.38
637.598	70.38
637.804	79.38
638.009	92.38
638.215	102.38
638.421	80.38
638.626	76.38
638.832	80.38
639.037	75.38
639.243	85.38
639.448	91.38
639.654	90.38
639.859	84.38
640.065	88.38
640.27	91.38
640.475	97.38
640.681	95.38
640.886	76.38
641.091	81.38
641.297	90.38
641.502	86.38
641.707	86.38
641.913	87.38
642.118	89.38
642.323	81.38
642.528	94.38
642.733	101.38
642.939	73.38
643.144	88.38
643.349	86.38
643.554	89.38
643.759	72.38
643.964	79.38
644.169	71.38
644.374	56.38
644.579	88.38
644.784	84.38
644.989	95.38
645.194	88.38
645.399	84.38
645.604	75.38
645.809	94.38
646.014	83.38
646.219	83.38
646.423	80.38
646.628	84.38
646.833	90.38
647.038	85.38
647.243	91.38
647.447	94.38
647.652	82.38
647.857	83.38
648.062	76.38
648.266	97.38
648.471	82.38
648.676	88.38
648.88	79.38
649.085	89.38
649.289	90.38
649.494	89.38
649.698	90.38
649.903	91.38
650.107	64.38
650.312	80.38
650.516	68.38
650.721	81.38
650.925	87.38
651.13	70.38
651.334	77.38
651.539	78.38
651.743	90.38
651.947	87.38
652.152	93.38
652.356	81.38
652.56	92.38
652.764	106.38
652.969	97.38
653.173	71.38
653.377	82.38
653.581	80.38
653.785	76.38
653.99	86.38
654.194	87.38
654.398	82.38
654.602	102.38
654.806	81.38
655.01	84.38
655.214	84.38
655.418	76.38
655.622	85.38
655.826	74.38
656.03	75.38
656.234	76.38
656.438	82.38
656.642	73.38
656.846	87.38
657.049	88.38
657.253	81.38
657.457	92.38
657.661	87.38
657.865	79.38
658.068	66.38
658.272	84.38
658.476	84.38
658.68	98.38
658.883	76.38
659.087	87.38
659.291	71.38
659.494	68.38
659.698	78.38
659.901	78.38
660.105	82.38
660.309	70.38
660.512	80.38
660.716	80.38
660.919	92.38
661.123	77.38
661.326	73.38
661.53	83.38
661.733	82.38
661.936	86.38
662.14	88.38
662.343	86.38
662.546	85.38
662.75	79.38
662.953	85.38
663.156	88.38
663.36	90.38
663.563	86.38
663.766	69.38
663.969	79.38
664.173	72.38
664.376	94.38
664.579	84.38
664.782	76.38
664.985	80.38
665.188	75.38
665.391	85.38
665.594	72.38
665.797	73.38
666	86.38
666.203	85.38
666.406	73.38
666.609	69.38
666.812	81.38
667.015	82.38
667.218	99.38
667.421	77.38
667.624	67.38
667.827	83.38
668.03	78.38
668.232	79.38
668.435	83.38
668.638	84.38
668.841	77.38
669.043	80.38
669.246	75.38
669.449	87.38
669.651	86.38
669.854	77.38
670.057	74.38
670.259	89.38
670.462	76.38
670.665	91.38
670.867	76.38
671.07	82.38
671.272	79.38
671.475	102.38
671.677	74.38
671.88	84.38
672.082	83.38
672.284	85.38
672.487	79.38
672.689	81.38
672.892	72.38
