Data from Location5.07152019.Energy5.Lamp.07192019.3%Agarose_HRD10591_16-04-31-629.txt Node
Date: Fri Jul 19 16:04:31 EDT 2019
User: cochatt
Spectrometer: HR+D1059
Trigger mode: 1
Integration Time (sec): 1.000000E-1
Scans to average: 1
Electric dark correction enabled: true
Nonlinearity correction enabled: false
Boxcar width: 0
XAxis mode: Wavelengths
Number of Pixels in Spectrum: 2048
>>>>>Begin Spectral Data<<<<<
223.165	-15.31
223.4	-15.31
223.635	-15.31
223.869	-20.31
224.104	-22.31
224.338	-3.31
224.573	-29.31
224.808	-14.31
225.042	-5.31
225.277	-2.31
225.511	-2.31
225.746	5.69
225.98	15.69
226.215	18.69
226.449	8.69
226.683	12.69
226.918	24.69
227.152	28.69
227.387	41.69
227.621	35.69
227.856	32.69
228.09	45.69
228.324	54.69
228.559	55.69
228.793	67.69
229.027	60.69
229.262	70.69
229.496	71.69
229.73	66.69
229.964	80.69
230.199	66.69
230.433	66.69
230.667	75.69
230.901	86.69
231.136	79.69
231.37	89.69
231.604	90.69
231.838	71.69
232.072	74.69
232.306	79.69
232.541	83.69
232.775	73.69
233.009	92.69
233.243	82.69
233.477	78.69
233.711	97.69
233.945	68.69
234.179	82.69
234.413	72.69
234.647	80.69
234.881	85.69
235.115	73.69
235.349	84.69
235.583	78.69
235.817	80.69
236.051	81.69
236.285	86.69
236.519	77.69
236.753	88.69
236.987	93.69
237.221	81.69
237.455	80.69
237.689	68.69
237.922	85.69
238.156	89.69
238.39	93.69
238.624	73.69
238.858	81.69
239.091	73.69
239.325	70.69
239.559	82.69
239.793	68.69
240.027	85.69
240.26	87.69
240.494	91.69
240.728	84.69
240.961	87.69
241.195	86.69
241.429	92.69
241.662	76.69
241.896	93.69
242.13	66.69
242.363	73.69
242.597	82.69
242.83	92.69
243.064	82.69
243.298	76.69
243.531	75.69
243.765	85.69
243.998	83.69
244.232	82.69
244.465	79.69
244.699	69.69
244.932	85.69
245.166	77.69
245.399	77.69
245.633	72.69
245.866	84.69
246.099	77.69
246.333	86.69
246.566	74.69
246.8	77.69
247.033	85.69
247.266	80.69
247.5	92.69
247.733	70.69
247.966	67.69
248.2	81.69
248.433	96.69
248.666	73.69
248.899	84.69
249.133	76.69
249.366	82.69
249.599	81.69
249.832	90.69
250.066	80.69
250.299	85.69
250.532	77.69
250.765	79.69
250.998	84.69
251.231	73.69
251.465	88.69
251.698	88.69
251.931	68.69
252.164	87.69
252.397	85.69
252.63	81.69
252.863	75.69
253.096	101.69
253.329	89.69
253.562	98.69
253.795	94.69
254.028	92.69
254.261	83.69
254.494	89.69
254.727	95.69
254.96	76.69
255.193	103.69
255.426	89.69
255.659	86.69
255.892	76.69
256.124	74.69
256.357	89.69
256.59	84.69
256.823	85.69
257.056	81.69
257.289	88.69
257.521	81.69
257.754	88.69
257.987	86.69
258.22	88.69
258.452	91.69
258.685	85.69
258.918	79.69
259.151	94.69
259.383	84.69
259.616	74.69
259.849	82.69
260.081	84.69
260.314	93.69
260.547	83.69
260.779	78.69
261.012	89.69
261.244	92.69
261.477	104.69
261.71	86.69
261.942	85.69
262.175	79.69
262.407	80.69
262.64	95.69
262.872	83.69
263.105	78.69
263.337	73.69
263.57	89.69
263.802	85.69
264.035	90.69
264.267	94.69
264.499	68.69
264.732	70.69
264.964	80.69
265.197	97.69
265.429	86.69
265.661	100.69
265.894	97.69
266.126	74.69
266.358	89.69
266.591	84.69
266.823	78.69
267.055	101.69
267.287	91.69
267.52	74.69
267.752	87.69
267.984	90.69
268.216	94.69
268.448	85.69
268.681	74.69
268.913	88.69
269.145	88.69
269.377	97.69
269.609	95.69
269.841	88.69
270.073	93.69
270.306	92.69
270.538	79.69
270.77	74.69
271.002	84.69
271.234	87.69
271.466	85.69
271.698	82.69
271.93	90.69
272.162	94.69
272.394	90.69
272.626	100.69
272.858	94.69
273.09	85.69
273.322	71.69
273.553	100.69
273.785	76.69
274.017	91.69
274.249	97.69
274.481	94.69
274.713	99.69
274.945	91.69
275.176	96.69
275.408	88.69
275.64	90.69
275.872	94.69
276.104	88.69
276.335	85.69
276.567	83.69
276.799	90.69
277.031	78.69
277.262	70.69
277.494	87.69
277.726	83.69
277.957	86.69
278.189	92.69
278.421	92.69
278.652	101.69
278.884	101.69
279.115	92.69
279.347	99.69
279.579	78.69
279.81	81.69
280.042	76.69
280.273	89.69
280.505	90.69
280.736	76.69
280.968	85.69
281.199	86.69
281.431	98.69
281.662	94.69
281.894	87.69
282.125	78.69
282.356	84.69
282.588	86.69
282.819	89.69
283.051	93.69
283.282	91.69
283.513	101.69
283.745	88.69
283.976	80.69
284.207	80.69
284.439	100.69
284.67	84.69
284.901	79.69
285.132	95.69
285.364	105.69
285.595	94.69
285.826	96.69
286.057	100.69
286.288	94.69
286.52	89.69
286.751	94.69
286.982	92.69
287.213	86.69
287.444	98.69
287.675	102.69
287.906	90.69
288.138	80.69
288.369	102.69
288.6	96.69
288.831	89.69
289.062	92.69
289.293	78.69
289.524	98.69
289.755	75.69
289.986	89.69
290.217	89.69
290.448	88.69
290.679	73.69
290.91	102.69
291.141	83.69
291.371	93.69
291.602	84.69
291.833	82.69
292.064	90.69
292.295	95.69
292.526	94.69
292.757	80.69
292.987	90.69
293.218	86.69
293.449	89.69
293.68	85.69
293.91	81.69
294.141	84.69
294.372	87.69
294.603	102.69
294.833	110.69
295.064	91.69
295.295	86.69
295.525	89.69
295.756	87.69
295.987	77.69
296.217	97.69
296.448	88.69
296.679	87.69
296.909	88.69
297.14	84.69
297.37	103.69
297.601	92.69
297.831	87.69
298.062	83.69
298.292	94.69
298.523	92.69
298.753	96.69
298.984	82.69
299.214	103.69
299.445	104.69
299.675	104.69
299.905	101.69
300.136	103.69
300.366	88.69
300.597	88.69
300.827	96.69
301.057	97.69
301.288	103.69
301.518	95.69
301.748	103.69
301.979	90.69
302.209	106.69
302.439	106.69
302.669	106.69
302.9	88.69
303.13	90.69
303.36	100.69
303.59	93.69
303.82	93.69
304.051	94.69
304.281	101.69
304.511	107.69
304.741	102.69
304.971	92.69
305.201	101.69
305.431	84.69
305.661	98.69
305.891	92.69
306.121	97.69
306.352	106.69
306.582	94.69
306.812	99.69
307.042	101.69
307.272	99.69
307.502	101.69
307.731	91.69
307.961	96.69
308.191	107.69
308.421	108.69
308.651	102.69
308.881	106.69
309.111	75.69
309.341	92.69
309.571	99.69
309.8	89.69
310.03	83.69
310.26	94.69
310.49	90.69
310.72	99.69
310.949	102.69
311.179	99.69
311.409	113.69
311.639	104.69
311.868	83.69
312.098	93.69
312.328	84.69
312.557	99.69
312.787	95.69
313.017	99.69
313.246	89.69
313.476	94.69
313.706	91.69
313.935	93.69
314.165	93.69
314.394	90.69
314.624	91.69
314.853	81.69
315.083	76.69
315.312	108.69
315.542	84.69
315.771	93.69
316.001	69.69
316.23	94.69
316.46	91.69
316.689	93.69
316.919	91.69
317.148	90.69
317.377	105.69
317.607	89.69
317.836	90.69
318.065	70.69
318.295	93.69
318.524	86.69
318.753	90.69
318.983	84.69
319.212	95.69
319.441	91.69
319.67	101.69
319.9	98.69
320.129	92.69
320.358	102.69
320.587	94.69
320.816	85.69
321.046	109.69
321.275	96.69
321.504	98.69
321.733	94.69
321.962	88.69
322.191	88.69
322.42	92.69
322.649	89.69
322.878	77.69
323.108	88.69
323.337	93.69
323.566	77.69
323.795	80.69
324.024	102.69
324.253	110.69
324.482	94.69
324.71	100.69
324.939	98.69
325.168	91.69
325.397	98.69
325.626	83.69
325.855	95.69
326.084	85.69
326.313	99.69
326.542	101.69
326.77	90.69
326.999	102.69
327.228	104.69
327.457	91.69
327.686	97.69
327.914	91.69
328.143	80.69
328.372	83.69
328.6	92.69
328.829	81.69
329.058	104.69
329.287	97.69
329.515	101.69
329.744	100.69
329.972	97.69
330.201	97.69
330.43	89.69
330.658	78.69
330.887	97.69
331.115	89.69
331.344	115.69
331.572	96.69
331.801	92.69
332.03	104.69
332.258	85.69
332.486	81.69
332.715	102.69
332.943	97.69
333.172	105.69
333.4	84.69
333.629	82.69
333.857	101.69
334.085	94.69
334.314	104.69
334.542	95.69
334.771	109.69
334.999	107.69
335.227	97.69
335.455	102.69
335.684	93.69
335.912	84.69
336.14	107.69
336.369	102.69
336.597	88.69
336.825	101.69
337.053	116.69
337.281	100.69
337.51	107.69
337.738	90.69
337.966	92.69
338.194	96.69
338.422	98.69
338.65	91.69
338.878	89.69
339.106	100.69
339.334	83.69
339.562	102.69
339.79	101.69
340.018	100.69
340.246	93.69
340.474	84.69
340.702	99.69
340.93	95.69
341.158	85.69
341.386	105.69
341.614	91.69
341.842	102.69
342.07	96.69
342.298	93.69
342.526	107.69
342.754	89.69
342.981	85.69
343.209	96.69
343.437	81.69
343.665	80.69
343.893	93.69
344.12	105.69
344.348	98.69
344.576	102.69
344.804	89.69
345.031	89.69
345.259	84.69
345.487	90.69
345.714	81.69
345.942	91.69
346.17	99.69
346.397	100.69
346.625	101.69
346.853	99.69
347.08	88.69
347.308	81.69
347.535	75.69
347.763	106.69
347.99	89.69
348.218	90.69
348.445	74.69
348.673	84.69
348.9	97.69
349.128	97.69
349.355	92.69
349.583	83.69
349.81	91.69
350.037	96.69
350.265	86.69
350.492	86.69
350.72	93.69
350.947	86.69
351.174	79.69
351.402	100.69
351.629	96.69
351.856	94.69
352.083	99.69
352.311	88.69
352.538	92.69
352.765	69.69
352.992	82.69
353.22	109.69
353.447	95.69
353.674	97.69
353.901	98.69
354.128	96.69
354.355	88.69
354.583	84.69
354.81	83.69
355.037	101.69
355.264	100.69
355.491	105.69
355.718	95.69
355.945	98.69
356.172	92.69
356.399	86.69
356.626	85.69
356.853	88.69
357.08	88.69
357.307	89.69
357.534	82.69
357.761	85.69
357.988	98.69
358.215	96.69
358.441	84.69
358.668	90.69
358.895	98.69
359.122	86.69
359.349	89.69
359.576	102.69
359.802	95.69
360.029	95.69
360.256	90.69
360.483	90.69
360.709	92.69
360.936	96.69
361.163	91.69
361.39	101.69
361.616	83.69
361.843	99.69
362.07	84.69
362.296	86.69
362.523	90.69
362.749	84.69
362.976	87.69
363.203	98.69
363.429	84.69
363.656	98.69
363.882	89.69
364.109	93.69
364.335	94.69
364.562	91.69
364.788	103.69
365.015	100.69
365.241	104.69
365.468	86.69
365.694	97.69
365.92	86.69
366.147	80.69
366.373	89.69
366.599	103.69
366.826	104.69
367.052	98.69
367.278	108.69
367.505	103.69
367.731	82.69
367.957	87.69
368.184	92.69
368.41	77.69
368.636	84.69
368.862	104.69
369.089	98.69
369.315	90.69
369.541	107.69
369.767	86.69
369.993	90.69
370.219	72.69
370.445	106.69
370.672	84.69
370.898	94.69
371.124	92.69
371.35	104.69
371.576	89.69
371.802	94.69
372.028	88.69
372.254	101.69
372.48	99.69
372.706	102.69
372.932	92.69
373.158	88.69
373.384	104.69
373.61	103.69
373.835	100.69
374.061	87.69
374.287	99.69
374.513	106.69
374.739	99.69
374.965	92.69
375.191	107.69
375.416	101.69
375.642	89.69
375.868	82.69
376.094	88.69
376.319	95.69
376.545	100.69
376.771	112.69
376.997	92.69
377.222	101.69
377.448	86.69
377.674	91.69
377.899	90.69
378.125	98.69
378.35	108.69
378.576	110.69
378.802	92.69
379.027	98.69
379.253	94.69
379.478	94.69
379.704	88.69
379.929	91.69
380.155	81.69
380.38	77.69
380.606	92.69
380.831	95.69
381.057	97.69
381.282	97.69
381.507	84.69
381.733	71.69
381.958	98.69
382.184	93.69
382.409	102.69
382.634	91.69
382.86	101.69
383.085	88.69
383.31	93.69
383.535	109.69
383.761	91.69
383.986	89.69
384.211	95.69
384.436	89.69
384.662	103.69
384.887	91.69
385.112	96.69
385.337	105.69
385.562	112.69
385.787	112.69
386.013	96.69
386.238	77.69
386.463	102.69
386.688	103.69
386.913	99.69
387.138	113.69
387.363	78.69
387.588	107.69
387.813	90.69
388.038	86.69
388.263	100.69
388.488	90.69
388.713	82.69
388.938	81.69
389.163	108.69
389.387	110.69
389.612	117.69
389.837	101.69
390.062	97.69
390.287	94.69
390.512	92.69
390.736	104.69
390.961	96.69
391.186	93.69
391.411	92.69
391.636	100.69
391.86	102.69
392.085	97.69
392.31	92.69
392.534	106.69
392.759	103.69
392.984	98.69
393.208	103.69
393.433	102.69
393.658	107.69
393.882	102.69
394.107	87.69
394.331	96.69
394.556	114.69
394.78	78.69
395.005	97.69
395.229	96.69
395.454	92.69
395.678	87.69
395.903	87.69
396.127	105.69
396.352	102.69
396.576	104.69
396.801	99.69
397.025	92.69
397.249	83.69
397.474	105.69
397.698	102.69
397.922	84.69
398.147	97.69
398.371	92.69
398.595	99.69
398.82	117.69
399.044	115.69
399.268	96.69
399.492	114.69
399.717	112.69
399.941	114.69
400.165	94.69
400.389	100.69
400.613	95.69
400.837	106.69
401.062	101.69
401.286	108.69
401.51	101.69
401.734	106.69
401.958	87.69
402.182	98.69
402.406	117.69
402.63	99.69
402.854	105.69
403.078	105.69
403.302	125.69
403.526	104.69
403.75	88.69
403.974	112.69
404.198	100.69
404.422	100.69
404.645	91.69
404.869	107.69
405.093	99.69
405.317	104.69
405.541	90.69
405.765	113.69
405.988	99.69
406.212	100.69
406.436	101.69
406.66	93.69
406.883	109.69
407.107	116.69
407.331	90.69
407.555	107.69
407.778	107.69
408.002	102.69
408.226	101.69
408.449	99.69
408.673	114.69
408.896	97.69
409.12	96.69
409.344	107.69
409.567	115.69
409.791	106.69
410.014	115.69
410.238	104.69
410.461	106.69
410.685	82.69
410.908	87.69
411.132	96.69
411.355	113.69
411.578	106.69
411.802	110.69
412.025	118.69
412.249	100.69
412.472	101.69
412.695	101.69
412.919	99.69
413.142	93.69
413.365	103.69
413.589	97.69
413.812	94.69
414.035	108.69
414.258	112.69
414.482	93.69
414.705	106.69
414.928	105.69
415.151	94.69
415.374	102.69
415.597	98.69
415.821	88.69
416.044	110.69
416.267	108.69
416.49	110.69
416.713	104.69
416.936	113.69
417.159	105.69
417.382	104.69
417.605	105.69
417.828	112.69
418.051	109.69
418.274	115.69
418.497	102.69
418.72	106.69
418.943	107.69
419.166	102.69
419.389	109.69
419.611	91.69
419.834	91.69
420.057	101.69
420.28	115.69
420.503	102.69
420.726	84.69
420.948	91.69
421.171	98.69
421.394	104.69
421.617	98.69
421.839	108.69
422.062	101.69
422.285	94.69
422.507	98.69
422.73	96.69
422.953	103.69
423.175	105.69
423.398	97.69
423.621	97.69
423.843	94.69
424.066	102.69
424.288	88.69
424.511	100.69
424.733	110.69
424.956	118.69
425.178	97.69
425.401	94.69
425.623	88.69
425.846	116.69
426.068	95.69
426.291	93.69
426.513	86.69
426.735	109.69
426.958	108.69
427.18	100.69
427.402	116.69
427.625	83.69
427.847	88.69
428.069	106.69
428.292	104.69
428.514	101.69
428.736	102.69
428.958	96.69
429.181	91.69
429.403	89.69
429.625	85.69
429.847	106.69
430.069	100.69
430.292	96.69
430.514	93.69
430.736	97.69
430.958	89.69
431.18	105.69
431.402	95.69
431.624	93.69
431.846	86.69
432.068	105.69
432.29	100.69
432.512	94.69
432.734	92.69
432.956	98.69
433.178	99.69
433.4	106.69
433.622	93.69
433.844	103.69
434.066	96.69
434.287	106.69
434.509	98.69
434.731	100.69
434.953	81.69
435.175	84.69
435.397	112.69
435.618	97.69
435.84	102.69
436.062	96.69
436.284	112.69
436.505	98.69
436.727	93.69
436.949	76.69
437.17	86.69
437.392	109.69
437.614	84.69
437.835	97.69
438.057	95.69
438.278	88.69
438.5	104.69
438.721	96.69
438.943	103.69
439.165	97.69
439.386	91.69
439.608	100.69
439.829	96.69
440.05	95.69
440.272	97.69
440.493	105.69
440.715	91.69
440.936	104.69
441.158	90.69
441.379	88.69
441.6	103.69
441.822	110.69
442.043	108.69
442.264	103.69
442.486	117.69
442.707	102.69
442.928	94.69
443.149	78.69
443.371	99.69
443.592	107.69
443.813	110.69
444.034	101.69
444.255	107.69
444.476	100.69
444.698	96.69
444.919	105.69
445.14	227.69
445.361	145.69
445.582	114.69
445.803	102.69
446.024	105.69
446.245	97.69
446.466	90.69
446.687	107.69
446.908	98.69
447.129	105.69
447.35	108.69
447.571	102.69
447.792	93.69
448.013	102.69
448.234	90.69
448.455	100.69
448.675	99.69
448.896	98.69
449.117	104.69
449.338	97.69
449.559	98.69
449.779	81.69
450	97.69
450.221	98.69
450.442	90.69
450.662	103.69
450.883	101.69
451.104	103.69
451.324	88.69
451.545	105.69
451.766	102.69
451.986	91.69
452.207	98.69
452.428	107.69
452.648	91.69
452.869	106.69
453.089	98.69
453.31	101.69
453.53	82.69
453.751	87.69
453.971	89.69
454.192	92.69
454.412	91.69
454.633	95.69
454.853	104.69
455.073	97.69
455.294	94.69
455.514	93.69
455.734	85.69
455.955	98.69
456.175	99.69
456.395	93.69
456.616	88.69
456.836	89.69
457.056	92.69
457.276	90.69
457.497	103.69
457.717	88.69
457.937	90.69
458.157	83.69
458.377	91.69
458.598	95.69
458.818	98.69
459.038	82.69
459.258	102.69
459.478	106.69
459.698	110.69
459.918	95.69
460.138	101.69
460.358	94.69
460.578	99.69
460.798	101.69
461.018	116.69
461.238	104.69
461.458	102.69
461.678	92.69
461.898	95.69
462.118	96.69
462.338	97.69
462.558	99.69
462.777	107.69
462.997	109.69
463.217	100.69
463.437	101.69
463.657	101.69
463.876	98.69
464.096	95.69
464.316	116.69
464.536	95.69
464.755	113.69
464.975	106.69
465.195	116.69
465.414	96.69
465.634	98.69
465.854	100.69
466.073	92.69
466.293	101.69
466.512	96.69
466.732	98.69
466.951	108.69
467.171	104.69
467.391	89.69
467.61	102.69
467.829	102.69
468.049	95.69
468.268	101.69
468.488	98.69
468.707	110.69
468.927	99.69
469.146	94.69
469.365	100.69
469.585	112.69
469.804	102.69
470.023	94.69
470.243	118.69
470.462	84.69
470.681	96.69
470.901	98.69
471.12	101.69
471.339	114.69
471.558	84.69
471.777	92.69
471.997	113.69
472.216	105.69
472.435	109.69
472.654	109.69
472.873	103.69
473.092	92.69
473.311	94.69
473.53	93.69
473.749	106.69
473.968	91.69
474.187	85.69
474.406	93.69
474.625	103.69
474.844	101.69
475.063	93.69
475.282	100.69
475.501	105.69
475.72	88.69
475.939	108.69
476.158	85.69
476.377	101.69
476.596	89.69
476.814	93.69
477.033	91.69
477.252	97.69
477.471	102.69
477.69	100.69
477.908	92.69
478.127	109.69
478.346	102.69
478.564	99.69
478.783	112.69
479.002	109.69
479.22	97.69
479.439	97.69
479.658	99.69
479.876	103.69
480.095	106.69
480.313	91.69
480.532	107.69
480.751	116.69
480.969	112.69
481.188	110.69
481.406	106.69
481.624	114.69
481.843	102.69
482.061	91.69
482.28	78.69
482.498	115.69
482.717	118.69
482.935	103.69
483.153	104.69
483.372	105.69
483.59	113.69
483.808	115.69
484.027	99.69
484.245	115.69
484.463	103.69
484.681	108.69
484.9	102.69
485.118	116.69
485.336	112.69
485.554	102.69
485.772	100.69
485.99	105.69
486.209	97.69
486.427	108.69
486.645	101.69
486.863	95.69
487.081	98.69
487.299	96.69
487.517	117.69
487.735	109.69
487.953	116.69
488.171	99.69
488.389	123.69
488.607	119.69
488.825	92.69
489.043	105.69
489.261	84.69
489.479	96.69
489.696	100.69
489.914	100.69
490.132	105.69
490.35	110.69
490.568	112.69
490.786	122.69
491.003	126.69
491.221	105.69
491.439	112.69
491.657	103.69
491.874	118.69
492.092	116.69
492.31	120.69
492.527	109.69
492.745	114.69
492.963	113.69
493.18	121.69
493.398	112.69
493.615	105.69
493.833	118.69
494.05	120.69
494.268	107.69
494.485	119.69
494.703	106.69
494.92	129.69
495.138	114.69
495.355	121.69
495.573	109.69
495.79	114.69
496.008	116.69
496.225	114.69
496.442	105.69
496.66	130.69
496.877	126.69
497.094	123.69
497.312	112.69
497.529	119.69
497.746	129.69
497.963	111.69
498.181	105.69
498.398	112.69
498.615	122.69
498.832	116.69
499.049	118.69
499.267	127.69
499.484	130.69
499.701	140.69
499.918	149.69
500.135	156.69
500.352	176.69
500.569	158.69
500.786	158.69
501.003	161.69
501.22	152.69
501.437	134.69
501.654	125.69
501.871	119.69
502.088	125.69
502.305	106.69
502.522	138.69
502.739	120.69
502.956	114.69
503.172	109.69
503.389	103.69
503.606	122.69
503.823	125.69
504.04	106.69
504.256	110.69
504.473	117.69
504.69	121.69
504.907	114.69
505.123	125.69
505.34	119.69
505.557	116.69
505.773	97.69
505.99	112.69
506.207	109.69
506.423	126.69
506.64	108.69
506.856	99.69
507.073	113.69
507.289	107.69
507.506	126.69
507.722	100.69
507.939	99.69
508.155	109.69
508.372	104.69
508.588	107.69
508.805	122.69
509.021	92.69
509.238	104.69
509.454	98.69
509.67	89.69
509.887	105.69
510.103	108.69
510.319	108.69
510.536	99.69
510.752	101.69
510.968	107.69
511.184	102.69
511.401	100.69
511.617	107.69
511.833	103.69
512.049	100.69
512.265	105.69
512.481	93.69
512.698	97.69
512.914	105.69
513.13	106.69
513.346	101.69
513.562	105.69
513.778	112.69
513.994	107.69
514.21	92.69
514.426	104.69
514.642	86.69
514.858	119.69
515.074	109.69
515.29	116.69
515.506	102.69
515.721	102.69
515.937	86.69
516.153	91.69
516.369	113.69
516.585	112.69
516.801	122.69
517.016	103.69
517.232	112.69
517.448	109.69
517.664	122.69
517.879	121.69
518.095	116.69
518.311	105.69
518.527	120.69
518.742	118.69
518.958	111.69
519.173	116.69
519.389	100.69
519.605	116.69
519.82	93.69
520.036	101.69
520.251	93.69
520.467	99.69
520.682	101.69
520.898	110.69
521.113	103.69
521.329	98.69
521.544	81.69
521.76	103.69
521.975	109.69
522.19	112.69
522.406	104.69
522.621	115.69
522.836	94.69
523.052	91.69
523.267	112.69
523.482	104.69
523.698	81.69
523.913	114.69
524.128	109.69
524.343	100.69
524.559	107.69
524.774	98.69
524.989	116.69
525.204	96.69
525.419	102.69
525.634	104.69
525.849	95.69
526.064	109.69
526.28	116.69
526.495	96.69
526.71	96.69
526.925	96.69
527.14	96.69
527.355	106.69
527.57	97.69
527.785	104.69
527.999	93.69
528.214	96.69
528.429	110.69
528.644	108.69
528.859	103.69
529.074	102.69
529.289	102.69
529.503	106.69
529.718	104.69
529.933	110.69
530.148	102.69
530.363	100.69
530.577	111.69
530.792	104.69
531.007	96.69
531.221	97.69
531.436	100.69
531.651	98.69
531.865	99.69
532.08	106.69
532.295	116.69
532.509	98.69
532.724	99.69
532.938	96.69
533.153	77.69
533.367	98.69
533.582	109.69
533.796	107.69
534.011	85.69
534.225	98.69
534.44	87.69
534.654	106.69
534.868	116.69
535.083	108.69
535.297	92.69
535.511	98.69
535.726	101.69
535.94	93.69
536.154	98.69
536.369	102.69
536.583	98.69
536.797	103.69
537.011	101.69
537.225	91.69
537.44	112.69
537.654	97.69
537.868	99.69
538.082	93.69
538.296	88.69
538.51	102.69
538.724	91.69
538.938	100.69
539.153	106.69
539.367	109.69
539.581	95.69
539.795	100.69
540.009	104.69
540.222	95.69
540.436	112.69
540.65	93.69
540.864	100.69
541.078	116.69
541.292	96.69
541.506	100.69
541.72	118.69
541.934	118.69
542.147	119.69
542.361	98.69
542.575	92.69
542.789	113.69
543.002	112.69
543.216	106.69
543.43	120.69
543.644	108.69
543.857	97.69
544.071	105.69
544.285	92.69
544.498	123.69
544.712	88.69
544.925	94.69
545.139	119.69
545.352	111.69
545.566	114.69
545.779	95.69
545.993	111.69
546.206	100.69
546.42	120.69
546.633	101.69
546.847	106.69
547.06	109.69
547.274	109.69
547.487	94.69
547.7	114.69
547.914	110.69
548.127	92.69
548.34	111.69
548.554	118.69
548.767	108.69
548.98	104.69
549.193	105.69
549.407	109.69
549.62	108.69
549.833	107.69
550.046	107.69
550.259	104.69
550.473	95.69
550.686	112.69
550.899	113.69
551.112	109.69
551.325	103.69
551.538	107.69
551.751	101.69
551.964	96.69
552.177	99.69
552.39	102.69
552.603	115.69
552.816	104.69
553.029	92.69
553.242	101.69
553.455	115.69
553.667	103.69
553.88	118.69
554.093	107.69
554.306	107.69
554.519	116.69
554.732	106.69
554.944	98.69
555.157	102.69
555.37	93.69
555.583	91.69
555.795	96.69
556.008	103.69
556.221	97.69
556.433	112.69
556.646	120.69
556.859	114.69
557.071	104.69
557.284	93.69
557.496	112.69
557.709	94.69
557.921	101.69
558.134	107.69
558.346	103.69
558.559	108.69
558.771	98.69
558.984	94.69
559.196	98.69
559.409	106.69
559.621	121.69
559.833	114.69
560.046	98.69
560.258	89.69
560.47	89.69
560.683	106.69
560.895	100.69
561.107	100.69
561.32	71.69
561.532	99.69
561.744	104.69
561.956	101.69
562.168	109.69
562.381	107.69
562.593	85.69
562.805	99.69
563.017	95.69
563.229	99.69
563.441	100.69
563.653	97.69
563.865	99.69
564.077	86.69
564.289	104.69
564.501	94.69
564.713	99.69
564.925	104.69
565.137	105.69
565.349	116.69
565.561	104.69
565.773	105.69
565.985	96.69
566.197	108.69
566.408	98.69
566.62	105.69
566.832	99.69
567.044	89.69
567.255	117.69
567.467	101.69
567.679	110.69
567.891	120.69
568.102	102.69
568.314	112.69
568.526	108.69
568.737	99.69
568.949	95.69
569.161	99.69
569.372	96.69
569.584	103.69
569.795	105.69
570.007	98.69
570.218	103.69
570.43	99.69
570.641	105.69
570.853	99.69
571.064	90.69
571.276	96.69
571.487	104.69
571.698	92.69
571.91	90.69
572.121	94.69
572.333	104.69
572.544	101.69
572.755	89.69
572.966	105.69
573.178	96.69
573.389	111.69
573.6	97.69
573.811	82.69
574.023	94.69
574.234	88.69
574.445	98.69
574.656	91.69
574.867	94.69
575.078	105.69
575.289	102.69
575.501	94.69
575.712	90.69
575.923	91.69
576.134	93.69
576.345	89.69
576.556	103.69
576.767	99.69
576.978	83.69
577.188	111.69
577.399	113.69
577.61	92.69
577.821	91.69
578.032	79.69
578.243	96.69
578.454	83.69
578.665	86.69
578.875	96.69
579.086	88.69
579.297	83.69
579.508	108.69
579.718	101.69
579.929	101.69
580.14	103.69
580.35	83.69
580.561	96.69
580.772	92.69
580.982	84.69
581.193	97.69
581.403	104.69
581.614	93.69
581.825	97.69
582.035	87.69
582.246	76.69
582.456	88.69
582.667	86.69
582.877	98.69
583.087	104.69
583.298	83.69
583.508	92.69
583.719	87.69
583.929	97.69
584.139	95.69
584.35	99.69
584.56	82.69
584.77	97.69
584.981	94.69
585.191	75.69
585.401	91.69
585.611	102.69
585.821	102.69
586.032	85.69
586.242	95.69
586.452	79.69
586.662	74.69
586.872	79.69
587.082	90.69
587.292	105.69
587.502	97.69
587.713	102.69
587.923	90.69
588.133	90.69
588.343	84.69
588.553	91.69
588.762	95.69
588.972	85.69
589.182	85.69
589.392	106.69
589.602	96.69
589.812	101.69
590.022	97.69
590.232	91.69
590.441	90.69
590.651	98.69
590.861	88.69
591.071	97.69
591.281	72.69
591.49	79.69
591.7	92.69
591.91	99.69
592.119	96.69
592.329	99.69
592.539	88.69
592.748	96.69
592.958	86.69
593.167	98.69
593.377	101.69
593.587	101.69
593.796	90.69
594.006	96.69
594.215	106.69
594.424	96.69
594.634	96.69
594.843	75.69
595.053	85.69
595.262	108.69
595.472	84.69
595.681	97.69
595.89	98.69
596.1	91.69
596.309	93.69
596.518	93.69
596.727	100.69
596.937	88.69
597.146	102.69
597.355	88.69
597.564	105.69
597.774	96.69
597.983	89.69
598.192	104.69
598.401	91.69
598.61	86.69
598.819	88.69
599.028	81.69
599.237	94.69
599.446	97.69
599.655	96.69
599.864	92.69
600.073	75.69
600.282	95.69
600.491	99.69
600.7	90.69
600.909	94.69
601.118	100.69
601.327	108.69
601.536	86.69
601.745	98.69
601.953	96.69
602.162	101.69
602.371	87.69
602.58	100.69
602.789	96.69
602.997	110.69
603.206	92.69
603.415	82.69
603.623	100.69
603.832	92.69
604.041	92.69
604.249	104.69
604.458	91.69
604.666	94.69
604.875	88.69
605.084	97.69
605.292	85.69
605.501	90.69
605.709	99.69
605.918	79.69
606.126	101.69
606.334	94.69
606.543	99.69
606.751	112.69
606.96	86.69
607.168	102.69
607.376	87.69
607.585	94.69
607.793	104.69
608.001	84.69
608.21	99.69
608.418	85.69
608.626	84.69
608.834	86.69
609.043	90.69
609.251	84.69
609.459	98.69
609.667	96.69
609.875	89.69
610.083	86.69
610.291	79.69
610.499	89.69
610.707	92.69
610.916	90.69
611.124	91.69
611.332	91.69
611.54	87.69
611.748	83.69
611.955	95.69
612.163	91.69
612.371	87.69
612.579	95.69
612.787	80.69
612.995	103.69
613.203	97.69
613.411	90.69
613.618	88.69
613.826	90.69
614.034	102.69
614.242	92.69
614.449	95.69
614.657	98.69
614.865	80.69
615.072	94.69
615.28	86.69
615.488	82.69
615.695	84.69
615.903	93.69
616.111	82.69
616.318	94.69
616.526	102.69
616.733	77.69
616.941	91.69
617.148	89.69
617.356	82.69
617.563	84.69
617.771	84.69
617.978	76.69
618.185	79.69
618.393	85.69
618.6	84.69
618.807	91.69
619.015	92.69
619.222	98.69
619.429	103.69
619.637	87.69
619.844	88.69
620.051	85.69
620.258	87.69
620.466	94.69
620.673	93.69
620.88	82.69
621.087	69.69
621.294	88.69
621.501	92.69
621.708	83.69
621.915	99.69
622.122	99.69
622.329	87.69
622.536	89.69
622.743	89.69
622.95	83.69
623.157	70.69
623.364	92.69
623.571	78.69
623.778	94.69
623.985	88.69
624.192	84.69
624.399	98.69
624.606	89.69
624.812	97.69
625.019	102.69
625.226	85.69
625.433	83.69
625.639	92.69
625.846	83.69
626.053	83.69
626.259	75.69
626.466	87.69
626.673	96.69
626.879	86.69
627.086	89.69
627.293	88.69
627.499	96.69
627.706	92.69
627.912	76.69
628.119	93.69
628.325	90.69
628.532	95.69
628.738	78.69
628.945	88.69
629.151	94.69
629.357	94.69
629.564	92.69
629.77	87.69
629.976	83.69
630.183	87.69
630.389	76.69
630.595	79.69
630.802	89.69
631.008	87.69
631.214	98.69
631.42	91.69
631.627	91.69
631.833	84.69
632.039	97.69
632.245	93.69
632.451	87.69
632.657	91.69
632.863	86.69
633.069	87.69
633.275	95.69
633.481	93.69
633.688	84.69
633.893	91.69
634.099	99.69
634.305	85.69
634.511	91.69
634.717	73.69
634.923	84.69
635.129	84.69
635.335	97.69
635.541	94.69
635.747	86.69
635.952	88.69
636.158	86.69
636.364	76.69
636.57	70.69
636.775	96.69
636.981	76.69
637.187	92.69
637.392	77.69
637.598	87.69
637.804	98.69
638.009	83.69
638.215	93.69
638.421	92.69
638.626	89.69
638.832	89.69
639.037	77.69
639.243	89.69
639.448	91.69
639.654	90.69
639.859	95.69
640.065	86.69
640.27	101.69
640.475	86.69
640.681	93.69
640.886	93.69
641.091	89.69
641.297	91.69
641.502	90.69
641.707	78.69
641.913	82.69
642.118	89.69
642.323	90.69
642.528	76.69
642.733	101.69
642.939	105.69
643.144	85.69
643.349	84.69
643.554	93.69
643.759	70.69
643.964	89.69
644.169	95.69
644.374	101.69
644.579	107.69
644.784	76.69
644.989	95.69
645.194	92.69
645.399	96.69
645.604	77.69
645.809	88.69
646.014	85.69
646.219	89.69
646.423	91.69
646.628	84.69
646.833	79.69
647.038	88.69
647.243	88.69
647.447	92.69
647.652	101.69
647.857	87.69
648.062	94.69
648.266	94.69
648.471	97.69
648.676	86.69
648.88	84.69
649.085	82.69
649.289	84.69
649.494	85.69
649.698	80.69
649.903	91.69
650.107	89.69
650.312	85.69
650.516	81.69
650.721	105.69
650.925	86.69
651.13	82.69
651.334	76.69
651.539	94.69
651.743	92.69
651.947	90.69
652.152	97.69
652.356	69.69
652.56	89.69
652.764	70.69
652.969	77.69
653.173	94.69
653.377	84.69
653.581	82.69
653.785	76.69
653.99	88.69
654.194	87.69
654.398	82.69
654.602	96.69
654.806	91.69
655.01	78.69
655.214	88.69
655.418	85.69
655.622	93.69
655.826	80.69
656.03	92.69
656.234	90.69
656.438	76.69
656.642	76.69
656.846	91.69
657.049	87.69
657.253	81.69
657.457	109.69
657.661	95.69
657.865	87.69
658.068	78.69
658.272	73.69
658.476	83.69
658.68	82.69
658.883	88.69
659.087	77.69
659.291	72.69
659.494	71.69
659.698	77.69
659.901	84.69
660.105	76.69
660.309	100.69
660.512	82.69
660.716	100.69
660.919	101.69
661.123	84.69
661.326	92.69
661.53	88.69
661.733	102.69
661.936	90.69
662.14	75.69
662.343	88.69
662.546	82.69
662.75	97.69
662.953	97.69
663.156	86.69
663.36	90.69
663.563	88.69
663.766	81.69
663.969	74.69
664.173	91.69
664.376	105.69
664.579	86.69
664.782	77.69
664.985	85.69
665.188	76.69
665.391	87.69
665.594	90.69
665.797	89.69
666	80.69
666.203	92.69
666.406	82.69
666.609	75.69
666.812	84.69
667.015	80.69
667.218	78.69
667.421	89.69
667.624	84.69
667.827	87.69
668.03	83.69
668.232	89.69
668.435	77.69
668.638	80.69
668.841	88.69
669.043	88.69
669.246	86.69
669.449	93.69
669.651	96.69
669.854	92.69
670.057	93.69
670.259	87.69
670.462	93.69
670.665	94.69
670.867	78.69
671.07	81.69
671.272	94.69
671.475	84.69
671.677	87.69
671.88	89.69
672.082	82.69
672.284	87.69
672.487	105.69
672.689	91.69
672.892	76.69
