Data from Location5.07152019.Energy5.Lamp.07192019.3%Agarose_HRD10591_16-04-17-629.txt Node
Date: Fri Jul 19 16:04:17 EDT 2019
User: cochatt
Spectrometer: HR+D1059
Trigger mode: 1
Integration Time (sec): 1.000000E-1
Scans to average: 1
Electric dark correction enabled: true
Nonlinearity correction enabled: false
Boxcar width: 0
XAxis mode: Wavelengths
Number of Pixels in Spectrum: 2048
>>>>>Begin Spectral Data<<<<<
223.165	-13.62
223.4	-13.62
223.635	-13.62
223.869	-9.62
224.104	-14.62
224.338	-8.62
224.573	-22.62
224.808	-10.62
225.042	-5.62
225.277	-15.62
225.511	-0.62
225.746	10.38
225.98	21.38
226.215	6.38
226.449	1.38
226.683	17.38
226.918	17.38
227.152	27.38
227.387	42.38
227.621	34.38
227.856	47.38
228.09	50.38
228.324	45.38
228.559	64.38
228.793	75.38
229.027	57.38
229.262	67.38
229.496	72.38
229.73	74.38
229.964	81.38
230.199	64.38
230.433	75.38
230.667	92.38
230.901	96.38
231.136	71.38
231.37	74.38
231.604	80.38
231.838	76.38
232.072	90.38
232.306	84.38
232.541	84.38
232.775	98.38
233.009	80.38
233.243	82.38
233.477	86.38
233.711	91.38
233.945	83.38
234.179	88.38
234.413	73.38
234.647	75.38
234.881	72.38
235.115	93.38
235.349	76.38
235.583	62.38
235.817	83.38
236.051	72.38
236.285	87.38
236.519	70.38
236.753	86.38
236.987	73.38
237.221	72.38
237.455	84.38
237.689	88.38
237.922	65.38
238.156	93.38
238.39	83.38
238.624	78.38
238.858	80.38
239.091	66.38
239.325	74.38
239.559	84.38
239.793	78.38
240.027	82.38
240.26	91.38
240.494	82.38
240.728	77.38
240.961	68.38
241.195	73.38
241.429	79.38
241.662	86.38
241.896	71.38
242.13	73.38
242.363	66.38
242.597	81.38
242.83	80.38
243.064	90.38
243.298	73.38
243.531	74.38
243.765	89.38
243.998	73.38
244.232	82.38
244.465	83.38
244.699	82.38
244.932	77.38
245.166	83.38
245.399	88.38
245.633	88.38
245.866	68.38
246.099	80.38
246.333	74.38
246.566	80.38
246.8	77.38
247.033	74.38
247.266	80.38
247.5	82.38
247.733	83.38
247.966	80.38
248.2	76.38
248.433	70.38
248.666	75.38
248.899	80.38
249.133	96.38
249.366	71.38
249.599	77.38
249.832	95.38
250.066	91.38
250.299	77.38
250.532	75.38
250.765	73.38
250.998	72.38
251.231	97.38
251.465	69.38
251.698	79.38
251.931	83.38
252.164	90.38
252.397	91.38
252.63	78.38
252.863	88.38
253.096	82.38
253.329	100.38
253.562	84.38
253.795	83.38
254.028	77.38
254.261	86.38
254.494	70.38
254.727	86.38
254.96	84.38
255.193	83.38
255.426	78.38
255.659	85.38
255.892	100.38
256.124	87.38
256.357	78.38
256.59	86.38
256.823	99.38
257.056	84.38
257.289	75.38
257.521	88.38
257.754	96.38
257.987	90.38
258.22	72.38
258.452	73.38
258.685	83.38
258.918	86.38
259.151	83.38
259.383	75.38
259.616	81.38
259.849	75.38
260.081	82.38
260.314	86.38
260.547	93.38
260.779	100.38
261.012	90.38
261.244	84.38
261.477	91.38
261.71	94.38
261.942	76.38
262.175	97.38
262.407	93.38
262.64	90.38
262.872	89.38
263.105	89.38
263.337	83.38
263.57	91.38
263.802	84.38
264.035	78.38
264.267	77.38
264.499	93.38
264.732	85.38
264.964	87.38
265.197	95.38
265.429	85.38
265.661	85.38
265.894	69.38
266.126	87.38
266.358	86.38
266.591	80.38
266.823	82.38
267.055	93.38
267.287	81.38
267.52	72.38
267.752	90.38
267.984	91.38
268.216	82.38
268.448	90.38
268.681	69.38
268.913	78.38
269.145	94.38
269.377	82.38
269.609	97.38
269.841	84.38
270.073	89.38
270.306	91.38
270.538	89.38
270.77	83.38
271.002	104.38
271.234	97.38
271.466	67.38
271.698	89.38
271.93	87.38
272.162	89.38
272.394	82.38
272.626	89.38
272.858	89.38
273.09	89.38
273.322	92.38
273.553	94.38
273.785	85.38
274.017	89.38
274.249	93.38
274.481	91.38
274.713	83.38
274.945	91.38
275.176	86.38
275.408	85.38
275.64	91.38
275.872	91.38
276.104	85.38
276.335	91.38
276.567	85.38
276.799	85.38
277.031	79.38
277.262	85.38
277.494	103.38
277.726	77.38
277.957	85.38
278.189	89.38
278.421	89.38
278.652	100.38
278.884	88.38
279.115	80.38
279.347	90.38
279.579	89.38
279.81	87.38
280.042	88.38
280.273	93.38
280.505	89.38
280.736	85.38
280.968	92.38
281.199	97.38
281.431	90.38
281.662	86.38
281.894	80.38
282.125	95.38
282.356	80.38
282.588	97.38
282.819	92.38
283.051	78.38
283.282	95.38
283.513	81.38
283.745	92.38
283.976	103.38
284.207	98.38
284.439	90.38
284.67	81.38
284.901	83.38
285.132	89.38
285.364	84.38
285.595	84.38
285.826	72.38
286.057	98.38
286.288	89.38
286.52	91.38
286.751	79.38
286.982	98.38
287.213	73.38
287.444	80.38
287.675	106.38
287.906	102.38
288.138	84.38
288.369	89.38
288.6	86.38
288.831	86.38
289.062	105.38
289.293	90.38
289.524	88.38
289.755	92.38
289.986	89.38
290.217	89.38
290.448	100.38
290.679	96.38
290.91	79.38
291.141	82.38
291.371	94.38
291.602	104.38
291.833	94.38
292.064	91.38
292.295	96.38
292.526	104.38
292.757	86.38
292.987	96.38
293.218	99.38
293.449	93.38
293.68	90.38
293.91	97.38
294.141	84.38
294.372	87.38
294.603	89.38
294.833	97.38
295.064	89.38
295.295	82.38
295.525	91.38
295.756	88.38
295.987	92.38
296.217	84.38
296.448	89.38
296.679	105.38
296.909	104.38
297.14	98.38
297.37	97.38
297.601	97.38
297.831	94.38
298.062	92.38
298.292	98.38
298.523	92.38
298.753	102.38
298.984	106.38
299.214	88.38
299.445	81.38
299.675	102.38
299.905	97.38
300.136	100.38
300.366	81.38
300.597	82.38
300.827	82.38
301.057	99.38
301.288	101.38
301.518	108.38
301.748	87.38
301.979	96.38
302.209	78.38
302.439	95.38
302.669	94.38
302.9	96.38
303.13	90.38
303.36	81.38
303.59	69.38
303.82	82.38
304.051	93.38
304.281	99.38
304.511	94.38
304.741	93.38
304.971	100.38
305.201	98.38
305.431	94.38
305.661	77.38
305.891	87.38
306.121	97.38
306.352	94.38
306.582	103.38
306.812	82.38
307.042	83.38
307.272	89.38
307.502	98.38
307.731	93.38
307.961	103.38
308.191	90.38
308.421	89.38
308.651	93.38
308.881	97.38
309.111	83.38
309.341	85.38
309.571	92.38
309.8	78.38
310.03	88.38
310.26	85.38
310.49	101.38
310.72	98.38
310.949	94.38
311.179	98.38
311.409	96.38
311.639	94.38
311.868	82.38
312.098	92.38
312.328	89.38
312.557	102.38
312.787	75.38
313.017	100.38
313.246	91.38
313.476	84.38
313.706	92.38
313.935	89.38
314.165	106.38
314.394	86.38
314.624	94.38
314.853	105.38
315.083	88.38
315.312	103.38
315.542	104.38
315.771	97.38
316.001	90.38
316.23	90.38
316.46	92.38
316.689	101.38
316.919	98.38
317.148	90.38
317.377	97.38
317.607	96.38
317.836	100.38
318.065	99.38
318.295	100.38
318.524	86.38
318.753	83.38
318.983	90.38
319.212	93.38
319.441	86.38
319.67	90.38
319.9	92.38
320.129	87.38
320.358	96.38
320.587	105.38
320.816	95.38
321.046	87.38
321.275	97.38
321.504	106.38
321.733	113.38
321.962	99.38
322.191	100.38
322.42	93.38
322.649	92.38
322.878	95.38
323.108	94.38
323.337	90.38
323.566	89.38
323.795	83.38
324.024	104.38
324.253	85.38
324.482	91.38
324.71	90.38
324.939	91.38
325.168	103.38
325.397	84.38
325.626	106.38
325.855	93.38
326.084	90.38
326.313	97.38
326.542	88.38
326.77	94.38
326.999	95.38
327.228	90.38
327.457	86.38
327.686	83.38
327.914	96.38
328.143	86.38
328.372	86.38
328.6	102.38
328.829	96.38
329.058	102.38
329.287	100.38
329.515	103.38
329.744	81.38
329.972	95.38
330.201	93.38
330.43	107.38
330.658	83.38
330.887	86.38
331.115	102.38
331.344	99.38
331.572	89.38
331.801	88.38
332.03	93.38
332.258	88.38
332.486	101.38
332.715	109.38
332.943	102.38
333.172	109.38
333.4	87.38
333.629	105.38
333.857	107.38
334.085	91.38
334.314	93.38
334.542	91.38
334.771	85.38
334.999	92.38
335.227	98.38
335.455	107.38
335.684	94.38
335.912	96.38
336.14	90.38
336.369	83.38
336.597	88.38
336.825	105.38
337.053	107.38
337.281	91.38
337.51	114.38
337.738	106.38
337.966	95.38
338.194	96.38
338.422	97.38
338.65	100.38
338.878	108.38
339.106	93.38
339.334	93.38
339.562	97.38
339.79	81.38
340.018	91.38
340.246	94.38
340.474	96.38
340.702	97.38
340.93	84.38
341.158	81.38
341.386	109.38
341.614	87.38
341.842	102.38
342.07	85.38
342.298	103.38
342.526	101.38
342.754	89.38
342.981	104.38
343.209	98.38
343.437	104.38
343.665	107.38
343.893	100.38
344.12	90.38
344.348	103.38
344.576	86.38
344.804	96.38
345.031	80.38
345.259	97.38
345.487	97.38
345.714	93.38
345.942	80.38
346.17	93.38
346.397	86.38
346.625	94.38
346.853	104.38
347.08	101.38
347.308	86.38
347.535	99.38
347.763	90.38
347.99	102.38
348.218	82.38
348.445	88.38
348.673	86.38
348.9	105.38
349.128	104.38
349.355	92.38
349.583	103.38
349.81	98.38
350.037	98.38
350.265	99.38
350.492	92.38
350.72	98.38
350.947	106.38
351.174	84.38
351.402	83.38
351.629	84.38
351.856	86.38
352.083	97.38
352.311	92.38
352.538	93.38
352.765	90.38
352.992	117.38
353.22	98.38
353.447	98.38
353.674	99.38
353.901	102.38
354.128	90.38
354.355	95.38
354.583	92.38
354.81	91.38
355.037	92.38
355.264	108.38
355.491	91.38
355.718	89.38
355.945	92.38
356.172	96.38
356.399	99.38
356.626	99.38
356.853	92.38
357.08	84.38
357.307	98.38
357.534	99.38
357.761	90.38
357.988	98.38
358.215	81.38
358.441	85.38
358.668	112.38
358.895	101.38
359.122	88.38
359.349	96.38
359.576	83.38
359.802	96.38
360.029	85.38
360.256	98.38
360.483	105.38
360.709	104.38
360.936	98.38
361.163	92.38
361.39	84.38
361.616	96.38
361.843	90.38
362.07	104.38
362.296	87.38
362.523	99.38
362.749	97.38
362.976	99.38
363.203	82.38
363.429	93.38
363.656	88.38
363.882	88.38
364.109	92.38
364.335	86.38
364.562	91.38
364.788	87.38
365.015	86.38
365.241	101.38
365.468	98.38
365.694	101.38
365.92	98.38
366.147	86.38
366.373	97.38
366.599	97.38
366.826	82.38
367.052	99.38
367.278	104.38
367.505	82.38
367.731	102.38
367.957	115.38
368.184	101.38
368.41	112.38
368.636	93.38
368.862	98.38
369.089	100.38
369.315	106.38
369.541	92.38
369.767	95.38
369.993	95.38
370.219	102.38
370.445	94.38
370.672	100.38
370.898	84.38
371.124	85.38
371.35	88.38
371.576	114.38
371.802	77.38
372.028	101.38
372.254	105.38
372.48	82.38
372.706	106.38
372.932	107.38
373.158	97.38
373.384	95.38
373.61	97.38
373.835	101.38
374.061	110.38
374.287	97.38
374.513	84.38
374.739	94.38
374.965	101.38
375.191	82.38
375.416	101.38
375.642	96.38
375.868	88.38
376.094	92.38
376.319	90.38
376.545	103.38
376.771	109.38
376.997	85.38
377.222	78.38
377.448	91.38
377.674	84.38
377.899	87.38
378.125	97.38
378.35	102.38
378.576	102.38
378.802	102.38
379.027	108.38
379.253	102.38
379.478	103.38
379.704	76.38
379.929	89.38
380.155	88.38
380.38	97.38
380.606	87.38
380.831	98.38
381.057	94.38
381.282	94.38
381.507	100.38
381.733	98.38
381.958	90.38
382.184	104.38
382.409	105.38
382.634	108.38
382.86	86.38
383.085	94.38
383.31	96.38
383.535	95.38
383.761	90.38
383.986	101.38
384.211	89.38
384.436	87.38
384.662	87.38
384.887	109.38
385.112	92.38
385.337	87.38
385.562	101.38
385.787	92.38
386.013	101.38
386.238	89.38
386.463	88.38
386.688	104.38
386.913	102.38
387.138	102.38
387.363	109.38
387.588	100.38
387.813	91.38
388.038	110.38
388.263	97.38
388.488	91.38
388.713	91.38
388.938	93.38
389.163	83.38
389.387	90.38
389.612	99.38
389.837	97.38
390.062	94.38
390.287	95.38
390.512	102.38
390.736	106.38
390.961	92.38
391.186	94.38
391.411	86.38
391.636	107.38
391.86	106.38
392.085	91.38
392.31	104.38
392.534	104.38
392.759	99.38
392.984	101.38
393.208	97.38
393.433	109.38
393.658	94.38
393.882	102.38
394.107	95.38
394.331	97.38
394.556	95.38
394.78	100.38
395.005	100.38
395.229	83.38
395.454	100.38
395.678	103.38
395.903	109.38
396.127	118.38
396.352	92.38
396.576	88.38
396.801	86.38
397.025	93.38
397.249	109.38
397.474	85.38
397.698	108.38
397.922	114.38
398.147	99.38
398.371	93.38
398.595	99.38
398.82	100.38
399.044	114.38
399.268	112.38
399.492	88.38
399.717	109.38
399.941	90.38
400.165	112.38
400.389	104.38
400.613	96.38
400.837	105.38
401.062	92.38
401.286	88.38
401.51	95.38
401.734	93.38
401.958	96.38
402.182	95.38
402.406	105.38
402.63	107.38
402.854	97.38
403.078	109.38
403.302	102.38
403.526	101.38
403.75	101.38
403.974	104.38
404.198	103.38
404.422	93.38
404.645	107.38
404.869	87.38
405.093	87.38
405.317	90.38
405.541	101.38
405.765	92.38
405.988	95.38
406.212	86.38
406.436	111.38
406.66	99.38
406.883	96.38
407.107	112.38
407.331	84.38
407.555	101.38
407.778	105.38
408.002	103.38
408.226	97.38
408.449	114.38
408.673	90.38
408.896	105.38
409.12	89.38
409.344	100.38
409.567	106.38
409.791	96.38
410.014	105.38
410.238	100.38
410.461	109.38
410.685	108.38
410.908	115.38
411.132	109.38
411.355	103.38
411.578	113.38
411.802	116.38
412.025	97.38
412.249	108.38
412.472	101.38
412.695	100.38
412.919	89.38
413.142	105.38
413.365	88.38
413.589	93.38
413.812	97.38
414.035	96.38
414.258	90.38
414.482	96.38
414.705	100.38
414.928	108.38
415.151	90.38
415.374	105.38
415.597	85.38
415.821	97.38
416.044	94.38
416.267	114.38
416.49	100.38
416.713	93.38
416.936	104.38
417.159	98.38
417.382	110.38
417.605	106.38
417.828	96.38
418.051	108.38
418.274	116.38
418.497	112.38
418.72	93.38
418.943	107.38
419.166	103.38
419.389	112.38
419.611	93.38
419.834	100.38
420.057	113.38
420.28	91.38
420.503	91.38
420.726	99.38
420.948	83.38
421.171	98.38
421.394	96.38
421.617	103.38
421.839	102.38
422.062	113.38
422.285	116.38
422.507	100.38
422.73	90.38
422.953	103.38
423.175	97.38
423.398	105.38
423.621	97.38
423.843	107.38
424.066	107.38
424.288	113.38
424.511	114.38
424.733	97.38
424.956	105.38
425.178	102.38
425.401	98.38
425.623	96.38
425.846	105.38
426.068	89.38
426.291	101.38
426.513	106.38
426.735	96.38
426.958	118.38
427.18	104.38
427.402	108.38
427.625	97.38
427.847	95.38
428.069	88.38
428.292	99.38
428.514	92.38
428.736	92.38
428.958	82.38
429.181	96.38
429.403	101.38
429.625	102.38
429.847	97.38
430.069	102.38
430.292	99.38
430.514	92.38
430.736	86.38
430.958	85.38
431.18	97.38
431.402	94.38
431.624	93.38
431.846	101.38
432.068	103.38
432.29	101.38
432.512	101.38
432.734	103.38
432.956	87.38
433.178	93.38
433.4	85.38
433.622	93.38
433.844	97.38
434.066	108.38
434.287	106.38
434.509	107.38
434.731	101.38
434.953	115.38
435.175	92.38
435.397	94.38
435.618	104.38
435.84	107.38
436.062	108.38
436.284	97.38
436.505	106.38
436.727	99.38
436.949	105.38
437.17	90.38
437.392	99.38
437.614	100.38
437.835	87.38
438.057	90.38
438.278	94.38
438.5	103.38
438.721	96.38
438.943	87.38
439.165	96.38
439.386	88.38
439.608	95.38
439.829	92.38
440.05	105.38
440.272	91.38
440.493	97.38
440.715	87.38
440.936	100.38
441.158	90.38
441.379	98.38
441.6	107.38
441.822	108.38
442.043	105.38
442.264	99.38
442.486	96.38
442.707	96.38
442.928	108.38
443.149	106.38
443.371	97.38
443.592	92.38
443.813	95.38
444.034	91.38
444.255	89.38
444.476	102.38
444.698	95.38
444.919	85.38
445.14	204.38
445.361	160.38
445.582	112.38
445.803	89.38
446.024	91.38
446.245	93.38
446.466	90.38
446.687	92.38
446.908	92.38
447.129	99.38
447.35	97.38
447.571	104.38
447.792	103.38
448.013	101.38
448.234	96.38
448.455	100.38
448.675	84.38
448.896	98.38
449.117	94.38
449.338	91.38
449.559	91.38
449.779	82.38
450	87.38
450.221	89.38
450.442	101.38
450.662	99.38
450.883	87.38
451.104	88.38
451.324	94.38
451.545	104.38
451.766	98.38
451.986	95.38
452.207	101.38
452.428	98.38
452.648	105.38
452.869	91.38
453.089	103.38
453.31	100.38
453.53	85.38
453.751	99.38
453.971	97.38
454.192	98.38
454.412	109.38
454.633	81.38
454.853	105.38
455.073	88.38
455.294	92.38
455.514	90.38
455.734	99.38
455.955	98.38
456.175	89.38
456.395	90.38
456.616	101.38
456.836	102.38
457.056	87.38
457.276	88.38
457.497	107.38
457.717	96.38
457.937	97.38
458.157	96.38
458.377	99.38
458.598	92.38
458.818	91.38
459.038	96.38
459.258	98.38
459.478	112.38
459.698	110.38
459.918	112.38
460.138	99.38
460.358	98.38
460.578	90.38
460.798	98.38
461.018	99.38
461.238	104.38
461.458	113.38
461.678	104.38
461.898	106.38
462.118	104.38
462.338	87.38
462.558	99.38
462.777	89.38
462.997	110.38
463.217	97.38
463.437	108.38
463.657	113.38
463.876	112.38
464.096	99.38
464.316	113.38
464.536	100.38
464.755	90.38
464.975	93.38
465.195	113.38
465.414	106.38
465.634	101.38
465.854	103.38
466.073	85.38
466.293	94.38
466.512	85.38
466.732	93.38
466.951	92.38
467.171	90.38
467.391	94.38
467.61	88.38
467.829	100.38
468.049	93.38
468.268	88.38
468.488	69.38
468.707	107.38
468.927	92.38
469.146	92.38
469.365	96.38
469.585	114.38
469.804	90.38
470.023	90.38
470.243	108.38
470.462	101.38
470.681	107.38
470.901	102.38
471.12	96.38
471.339	96.38
471.558	103.38
471.777	102.38
471.997	94.38
472.216	92.38
472.435	93.38
472.654	97.38
472.873	107.38
473.092	108.38
473.311	93.38
473.53	90.38
473.749	95.38
473.968	96.38
474.187	99.38
474.406	115.38
474.625	97.38
474.844	104.38
475.063	110.38
475.282	98.38
475.501	102.38
475.72	114.38
475.939	111.38
476.158	96.38
476.377	97.38
476.596	93.38
476.814	102.38
477.033	103.38
477.252	94.38
477.471	84.38
477.69	115.38
477.908	106.38
478.127	103.38
478.346	106.38
478.564	101.38
478.783	111.38
479.002	106.38
479.22	103.38
479.439	108.38
479.658	99.38
479.876	104.38
480.095	92.38
480.313	126.38
480.532	99.38
480.751	104.38
480.969	98.38
481.188	102.38
481.406	113.38
481.624	99.38
481.843	100.38
482.061	97.38
482.28	109.38
482.498	98.38
482.717	100.38
482.935	120.38
483.153	101.38
483.372	108.38
483.59	106.38
483.808	116.38
484.027	114.38
484.245	113.38
484.463	99.38
484.681	105.38
484.9	97.38
485.118	99.38
485.336	104.38
485.554	116.38
485.772	109.38
485.99	97.38
486.209	116.38
486.427	98.38
486.645	117.38
486.863	98.38
487.081	111.38
487.299	112.38
487.517	104.38
487.735	101.38
487.953	118.38
488.171	112.38
488.389	105.38
488.607	119.38
488.825	94.38
489.043	96.38
489.261	110.38
489.479	105.38
489.696	108.38
489.914	99.38
490.132	110.38
490.35	108.38
490.568	109.38
490.786	122.38
491.003	124.38
491.221	103.38
491.439	101.38
491.657	105.38
491.874	121.38
492.092	91.38
492.31	115.38
492.527	96.38
492.745	116.38
492.963	109.38
493.18	110.38
493.398	128.38
493.615	112.38
493.833	111.38
494.05	107.38
494.268	118.38
494.485	110.38
494.703	100.38
494.92	105.38
495.138	111.38
495.355	96.38
495.573	114.38
495.79	103.38
496.008	118.38
496.225	116.38
496.442	115.38
496.66	117.38
496.877	104.38
497.094	112.38
497.312	101.38
497.529	95.38
497.746	103.38
497.963	103.38
498.181	114.38
498.398	112.38
498.615	106.38
498.832	112.38
499.049	124.38
499.267	124.38
499.484	131.38
499.701	133.38
499.918	134.38
500.135	141.38
500.352	141.38
500.569	156.38
500.786	158.38
501.003	145.38
501.22	136.38
501.437	150.38
501.654	123.38
501.871	118.38
502.088	126.38
502.305	113.38
502.522	114.38
502.739	107.38
502.956	128.38
503.172	112.38
503.389	93.38
503.606	108.38
503.823	108.38
504.04	114.38
504.256	115.38
504.473	114.38
504.69	116.38
504.907	120.38
505.123	121.38
505.34	116.38
505.557	106.38
505.773	116.38
505.99	114.38
506.207	100.38
506.423	90.38
506.64	94.38
506.856	110.38
507.073	115.38
507.289	94.38
507.506	87.38
507.722	102.38
507.939	115.38
508.155	108.38
508.372	107.38
508.588	90.38
508.805	98.38
509.021	89.38
509.238	109.38
509.454	111.38
509.67	102.38
509.887	92.38
510.103	95.38
510.319	104.38
510.536	104.38
510.752	112.38
510.968	104.38
511.184	96.38
511.401	92.38
511.617	105.38
511.833	98.38
512.049	101.38
512.265	98.38
512.481	83.38
512.698	105.38
512.914	109.38
513.13	103.38
513.346	101.38
513.562	108.38
513.778	100.38
513.994	92.38
514.21	101.38
514.426	107.38
514.642	107.38
514.858	98.38
515.074	108.38
515.29	109.38
515.506	92.38
515.721	108.38
515.937	113.38
516.153	104.38
516.369	103.38
516.585	98.38
516.801	99.38
517.016	114.38
517.232	97.38
517.448	112.38
517.664	105.38
517.879	95.38
518.095	100.38
518.311	100.38
518.527	113.38
518.742	114.38
518.958	90.38
519.173	99.38
519.389	99.38
519.605	102.38
519.82	103.38
520.036	99.38
520.251	112.38
520.467	105.38
520.682	105.38
520.898	106.38
521.113	95.38
521.329	101.38
521.544	96.38
521.76	101.38
521.975	114.38
522.19	96.38
522.406	88.38
522.621	106.38
522.836	101.38
523.052	104.38
523.267	97.38
523.482	89.38
523.698	92.38
523.913	84.38
524.128	91.38
524.343	95.38
524.559	99.38
524.774	104.38
524.989	92.38
525.204	93.38
525.419	82.38
525.634	101.38
525.849	99.38
526.064	103.38
526.28	111.38
526.495	114.38
526.71	99.38
526.925	96.38
527.14	107.38
527.355	103.38
527.57	93.38
527.785	95.38
527.999	113.38
528.214	104.38
528.429	93.38
528.644	99.38
528.859	103.38
529.074	88.38
529.289	112.38
529.503	109.38
529.718	106.38
529.933	98.38
530.148	84.38
530.363	95.38
530.577	101.38
530.792	89.38
531.007	102.38
531.221	96.38
531.436	93.38
531.651	85.38
531.865	101.38
532.08	97.38
532.295	86.38
532.509	93.38
532.724	86.38
532.938	106.38
533.153	85.38
533.367	98.38
533.582	102.38
533.796	109.38
534.011	82.38
534.225	93.38
534.44	91.38
534.654	102.38
534.868	95.38
535.083	106.38
535.297	117.38
535.511	94.38
535.726	110.38
535.94	112.38
536.154	94.38
536.369	94.38
536.583	87.38
536.797	90.38
537.011	101.38
537.225	94.38
537.44	95.38
537.654	103.38
537.868	96.38
538.082	96.38
538.296	90.38
538.51	90.38
538.724	106.38
538.938	95.38
539.153	102.38
539.367	94.38
539.581	99.38
539.795	90.38
540.009	99.38
540.222	94.38
540.436	98.38
540.65	102.38
540.864	96.38
541.078	89.38
541.292	109.38
541.506	108.38
541.72	107.38
541.934	113.38
542.147	110.38
542.361	102.38
542.575	100.38
542.789	100.38
543.002	91.38
543.216	101.38
543.43	99.38
543.644	119.38
543.857	125.38
544.071	106.38
544.285	104.38
544.498	110.38
544.712	85.38
544.925	89.38
545.139	114.38
545.352	96.38
545.566	101.38
545.779	121.38
545.993	114.38
546.206	102.38
546.42	98.38
546.633	106.38
546.847	107.38
547.06	121.38
547.274	94.38
547.487	96.38
547.7	110.38
547.914	99.38
548.127	97.38
548.34	84.38
548.554	100.38
548.767	104.38
548.98	115.38
549.193	90.38
549.407	112.38
549.62	103.38
549.833	92.38
550.046	100.38
550.259	113.38
550.473	91.38
550.686	96.38
550.899	100.38
551.112	104.38
551.325	103.38
551.538	109.38
551.751	102.38
551.964	82.38
552.177	118.38
552.39	103.38
552.603	100.38
552.816	116.38
553.029	114.38
553.242	115.38
553.455	116.38
553.667	100.38
553.88	112.38
554.093	106.38
554.306	106.38
554.519	104.38
554.732	105.38
554.944	102.38
555.157	97.38
555.37	85.38
555.583	112.38
555.795	101.38
556.008	98.38
556.221	107.38
556.433	105.38
556.646	86.38
556.859	88.38
557.071	100.38
557.284	103.38
557.496	114.38
557.709	89.38
557.921	103.38
558.134	98.38
558.346	102.38
558.559	98.38
558.771	88.38
558.984	95.38
559.196	87.38
559.409	104.38
559.621	117.38
559.833	88.38
560.046	84.38
560.258	105.38
560.47	112.38
560.683	107.38
560.895	92.38
561.107	95.38
561.32	103.38
561.532	90.38
561.744	93.38
561.956	101.38
562.168	84.38
562.381	99.38
562.593	88.38
562.805	96.38
563.017	89.38
563.229	92.38
563.441	103.38
563.653	108.38
563.865	98.38
564.077	90.38
564.289	101.38
564.501	107.38
564.713	108.38
564.925	97.38
565.137	101.38
565.349	86.38
565.561	98.38
565.773	97.38
565.985	104.38
566.197	106.38
566.408	102.38
566.62	105.38
566.832	112.38
567.044	119.38
567.255	104.38
567.467	114.38
567.679	97.38
567.891	95.38
568.102	97.38
568.314	120.38
568.526	122.38
568.737	112.38
568.949	94.38
569.161	104.38
569.372	95.38
569.584	106.38
569.795	110.38
570.007	94.38
570.218	97.38
570.43	100.38
570.641	109.38
570.853	98.38
571.064	100.38
571.276	97.38
571.487	89.38
571.698	93.38
571.91	91.38
572.121	92.38
572.333	97.38
572.544	112.38
572.755	100.38
572.966	91.38
573.178	96.38
573.389	98.38
573.6	98.38
573.811	96.38
574.023	96.38
574.234	84.38
574.445	116.38
574.656	98.38
574.867	93.38
575.078	92.38
575.289	102.38
575.501	94.38
575.712	99.38
575.923	89.38
576.134	102.38
576.345	84.38
576.556	100.38
576.767	80.38
576.978	85.38
577.188	91.38
577.399	94.38
577.61	88.38
577.821	102.38
578.032	91.38
578.243	97.38
578.454	87.38
578.665	93.38
578.875	89.38
579.086	103.38
579.297	70.38
579.508	102.38
579.718	107.38
579.929	113.38
580.14	96.38
580.35	92.38
580.561	104.38
580.772	97.38
580.982	82.38
581.193	80.38
581.403	101.38
581.614	91.38
581.825	95.38
582.035	86.38
582.246	85.38
582.456	83.38
582.667	96.38
582.877	115.38
583.087	101.38
583.298	106.38
583.508	78.38
583.719	90.38
583.929	95.38
584.139	83.38
584.35	104.38
584.56	89.38
584.77	92.38
584.981	100.38
585.191	91.38
585.401	90.38
585.611	90.38
585.821	96.38
586.032	90.38
586.242	94.38
586.452	85.38
586.662	102.38
586.872	94.38
587.082	89.38
587.292	99.38
587.502	101.38
587.713	102.38
587.923	100.38
588.133	97.38
588.343	86.38
588.553	100.38
588.762	87.38
588.972	102.38
589.182	93.38
589.392	107.38
589.602	92.38
589.812	104.38
590.022	97.38
590.232	101.38
590.441	93.38
590.651	89.38
590.861	83.38
591.071	97.38
591.281	86.38
591.49	96.38
591.7	100.38
591.91	83.38
592.119	88.38
592.329	92.38
592.539	95.38
592.748	84.38
592.958	76.38
593.167	91.38
593.377	94.38
593.587	85.38
593.796	103.38
594.006	103.38
594.215	97.38
594.424	106.38
594.634	96.38
594.843	97.38
595.053	96.38
595.262	91.38
595.472	93.38
595.681	97.38
595.89	83.38
596.1	98.38
596.309	100.38
596.518	98.38
596.727	99.38
596.937	94.38
597.146	77.38
597.355	85.38
597.564	97.38
597.774	92.38
597.983	80.38
598.192	101.38
598.401	104.38
598.61	81.38
598.819	97.38
599.028	95.38
599.237	87.38
599.446	94.38
599.655	77.38
599.864	92.38
600.073	93.38
600.282	97.38
600.491	77.38
600.7	86.38
600.909	110.38
601.118	102.38
601.327	95.38
601.536	88.38
601.745	74.38
601.953	102.38
602.162	96.38
602.371	101.38
602.58	88.38
602.789	88.38
602.997	99.38
603.206	84.38
603.415	96.38
603.623	101.38
603.832	91.38
604.041	104.38
604.249	93.38
604.458	115.38
604.666	107.38
604.875	95.38
605.084	93.38
605.292	112.38
605.501	89.38
605.709	90.38
605.918	84.38
606.126	84.38
606.334	84.38
606.543	86.38
606.751	86.38
606.96	96.38
607.168	99.38
607.376	69.38
607.585	73.38
607.793	94.38
608.001	75.38
608.21	103.38
608.418	91.38
608.626	97.38
608.834	94.38
609.043	88.38
609.251	79.38
609.459	91.38
609.667	77.38
609.875	87.38
610.083	105.38
610.291	97.38
610.499	95.38
610.707	93.38
610.916	77.38
611.124	92.38
611.332	92.38
611.54	102.38
611.748	101.38
611.955	82.38
612.163	85.38
612.371	97.38
612.579	91.38
612.787	97.38
612.995	89.38
613.203	85.38
613.411	84.38
613.618	89.38
613.826	87.38
614.034	97.38
614.242	101.38
614.449	102.38
614.657	98.38
614.865	94.38
615.072	101.38
615.28	91.38
615.488	92.38
615.695	96.38
615.903	101.38
616.111	95.38
616.318	94.38
616.526	86.38
616.733	94.38
616.941	102.38
617.148	85.38
617.356	101.38
617.563	86.38
617.771	102.38
617.978	85.38
618.185	94.38
618.393	94.38
618.6	86.38
618.807	93.38
619.015	82.38
619.222	93.38
619.429	84.38
619.637	77.38
619.844	99.38
620.051	88.38
620.258	87.38
620.466	91.38
620.673	91.38
620.88	95.38
621.087	90.38
621.294	89.38
621.501	92.38
621.708	88.38
621.915	83.38
622.122	90.38
622.329	87.38
622.536	82.38
622.743	91.38
622.95	96.38
623.157	102.38
623.364	93.38
623.571	92.38
623.778	94.38
623.985	87.38
624.192	89.38
624.399	77.38
624.606	96.38
624.812	99.38
625.019	88.38
625.226	86.38
625.433	84.38
625.639	89.38
625.846	91.38
626.053	101.38
626.259	98.38
626.466	89.38
626.673	79.38
626.879	79.38
627.086	77.38
627.293	101.38
627.499	89.38
627.706	79.38
627.912	92.38
628.119	74.38
628.325	79.38
628.532	90.38
628.738	103.38
628.945	105.38
629.151	94.38
629.357	91.38
629.564	74.38
629.77	97.38
629.976	83.38
630.183	84.38
630.389	94.38
630.595	82.38
630.802	83.38
631.008	85.38
631.214	84.38
631.42	94.38
631.627	98.38
631.833	96.38
632.039	92.38
632.245	79.38
632.451	84.38
632.657	101.38
632.863	95.38
633.069	92.38
633.275	90.38
633.481	102.38
633.688	92.38
633.893	88.38
634.099	79.38
634.305	102.38
634.511	99.38
634.717	84.38
634.923	74.38
635.129	92.38
635.335	89.38
635.541	91.38
635.747	88.38
635.952	88.38
636.158	94.38
636.364	81.38
636.57	81.38
636.775	84.38
636.981	90.38
637.187	84.38
637.392	90.38
637.598	91.38
637.804	92.38
638.009	93.38
638.215	80.38
638.421	96.38
638.626	87.38
638.832	101.38
639.037	73.38
639.243	86.38
639.448	92.38
639.654	98.38
639.859	82.38
640.065	91.38
640.27	84.38
640.475	86.38
640.681	81.38
640.886	97.38
641.091	99.38
641.297	101.38
641.502	90.38
641.707	102.38
641.913	97.38
642.118	83.38
642.323	85.38
642.528	79.38
642.733	92.38
642.939	98.38
643.144	93.38
643.349	85.38
643.554	98.38
643.759	82.38
643.964	66.38
644.169	69.38
644.374	92.38
644.579	95.38
644.784	83.38
644.989	84.38
645.194	93.38
645.399	98.38
645.604	80.38
645.809	82.38
646.014	92.38
646.219	86.38
646.423	77.38
646.628	96.38
646.833	82.38
647.038	84.38
647.243	92.38
647.447	91.38
647.652	78.38
647.857	100.38
648.062	84.38
648.266	88.38
648.471	83.38
648.676	88.38
648.88	83.38
649.085	88.38
649.289	86.38
649.494	95.38
649.698	86.38
649.903	100.38
650.107	89.38
650.312	90.38
650.516	84.38
650.721	101.38
650.925	100.38
651.13	78.38
651.334	88.38
651.539	92.38
651.743	96.38
651.947	94.38
652.152	93.38
652.356	90.38
652.56	84.38
652.764	88.38
652.969	89.38
653.173	95.38
653.377	87.38
653.581	97.38
653.785	89.38
653.99	91.38
654.194	80.38
654.398	84.38
654.602	90.38
654.806	77.38
655.01	87.38
655.214	85.38
655.418	87.38
655.622	88.38
655.826	101.38
656.03	93.38
656.234	82.38
656.438	90.38
656.642	97.38
656.846	92.38
657.049	90.38
657.253	71.38
657.457	78.38
657.661	89.38
657.865	93.38
658.068	75.38
658.272	101.38
658.476	69.38
658.68	84.38
658.883	76.38
659.087	84.38
659.291	87.38
659.494	68.38
659.698	85.38
659.901	90.38
660.105	81.38
660.309	94.38
660.512	88.38
660.716	82.38
660.919	76.38
661.123	85.38
661.326	78.38
661.53	92.38
661.733	91.38
661.936	85.38
662.14	74.38
662.343	90.38
662.546	84.38
662.75	73.38
662.953	94.38
663.156	98.38
663.36	89.38
663.563	81.38
663.766	91.38
663.969	88.38
664.173	84.38
664.376	80.38
664.579	83.38
664.782	77.38
664.985	86.38
665.188	92.38
665.391	79.38
665.594	94.38
665.797	97.38
666	71.38
666.203	92.38
666.406	84.38
666.609	80.38
666.812	78.38
667.015	93.38
667.218	80.38
667.421	75.38
667.624	89.38
667.827	94.38
668.03	86.38
668.232	72.38
668.435	98.38
668.638	73.38
668.841	76.38
669.043	75.38
669.246	85.38
669.449	102.38
669.651	93.38
669.854	80.38
670.057	71.38
670.259	71.38
670.462	81.38
670.665	89.38
670.867	85.38
671.07	91.38
671.272	95.38
671.475	86.38
671.677	66.38
671.88	84.38
672.082	75.38
672.284	82.38
672.487	89.38
672.689	83.38
672.892	78.38
