Data from Location5.07152019.Energy5.Lamp.07192019.3%Agarose_HRD10591_15-38-11-394.txt Node
Date: Fri Jul 19 15:38:11 EDT 2019
User: cochatt
Spectrometer: HR+D1059
Trigger mode: 1
Integration Time (sec): 1.000000E-1
Scans to average: 1
Electric dark correction enabled: true
Nonlinearity correction enabled: false
Boxcar width: 0
XAxis mode: Wavelengths
Number of Pixels in Spectrum: 2048
>>>>>Begin Spectral Data<<<<<
223.165	-29.31
223.4	-29.31
223.635	-29.31
223.869	-16.31
224.104	-8.31
224.338	-8.31
224.573	-0.31
224.808	-22.31
225.042	-16.31
225.277	-6.31
225.511	1.69
225.746	19.69
225.98	7.69
226.215	-2.31
226.449	33.69
226.683	8.69
226.918	7.69
227.152	30.69
227.387	52.69
227.621	35.69
227.856	46.69
228.09	55.69
228.324	46.69
228.559	52.69
228.793	68.69
229.027	51.69
229.262	63.69
229.496	75.69
229.73	70.69
229.964	77.69
230.199	83.69
230.433	76.69
230.667	70.69
230.901	72.69
231.136	78.69
231.37	79.69
231.604	95.69
231.838	88.69
232.072	75.69
232.306	95.69
232.541	82.69
232.775	79.69
233.009	76.69
233.243	77.69
233.477	80.69
233.711	77.69
233.945	90.69
234.179	75.69
234.413	84.69
234.647	82.69
234.881	99.69
235.115	72.69
235.349	87.69
235.583	84.69
235.817	76.69
236.051	84.69
236.285	70.69
236.519	69.69
236.753	76.69
236.987	90.69
237.221	76.69
237.455	71.69
237.689	82.69
237.922	78.69
238.156	83.69
238.39	76.69
238.624	69.69
238.858	86.69
239.091	95.69
239.325	56.69
239.559	90.69
239.793	73.69
240.027	75.69
240.26	77.69
240.494	78.69
240.728	83.69
240.961	83.69
241.195	78.69
241.429	84.69
241.662	66.69
241.896	71.69
242.13	83.69
242.363	79.69
242.597	77.69
242.83	72.69
243.064	64.69
243.298	69.69
243.531	72.69
243.765	87.69
243.998	81.69
244.232	71.69
244.465	90.69
244.699	81.69
244.932	75.69
245.166	62.69
245.399	81.69
245.633	81.69
245.866	81.69
246.099	77.69
246.333	79.69
246.566	82.69
246.8	82.69
247.033	82.69
247.266	78.69
247.5	79.69
247.733	78.69
247.966	83.69
248.2	72.69
248.433	76.69
248.666	85.69
248.899	69.69
249.133	74.69
249.366	86.69
249.599	88.69
249.832	76.69
250.066	77.69
250.299	71.69
250.532	79.69
250.765	65.69
250.998	78.69
251.231	79.69
251.465	76.69
251.698	70.69
251.931	76.69
252.164	73.69
252.397	76.69
252.63	69.69
252.863	66.69
253.096	74.69
253.329	84.69
253.562	89.69
253.795	77.69
254.028	81.69
254.261	87.69
254.494	83.69
254.727	75.69
254.96	77.69
255.193	83.69
255.426	86.69
255.659	85.69
255.892	72.69
256.124	75.69
256.357	86.69
256.59	88.69
256.823	74.69
257.056	83.69
257.289	92.69
257.521	74.69
257.754	73.69
257.987	73.69
258.22	83.69
258.452	80.69
258.685	71.69
258.918	83.69
259.151	79.69
259.383	78.69
259.616	99.69
259.849	77.69
260.081	72.69
260.314	82.69
260.547	76.69
260.779	83.69
261.012	95.69
261.244	87.69
261.477	87.69
261.71	77.69
261.942	77.69
262.175	82.69
262.407	87.69
262.64	74.69
262.872	72.69
263.105	87.69
263.337	71.69
263.57	74.69
263.802	93.69
264.035	74.69
264.267	79.69
264.499	76.69
264.732	91.69
264.964	100.69
265.197	83.69
265.429	82.69
265.661	84.69
265.894	82.69
266.126	71.69
266.358	90.69
266.591	79.69
266.823	78.69
267.055	83.69
267.287	82.69
267.52	92.69
267.752	86.69
267.984	82.69
268.216	89.69
268.448	91.69
268.681	78.69
268.913	83.69
269.145	68.69
269.377	84.69
269.609	85.69
269.841	85.69
270.073	85.69
270.306	85.69
270.538	73.69
270.77	81.69
271.002	67.69
271.234	84.69
271.466	83.69
271.698	106.69
271.93	97.69
272.162	80.69
272.394	58.69
272.626	83.69
272.858	71.69
273.09	85.69
273.322	85.69
273.553	76.69
273.785	88.69
274.017	77.69
274.249	75.69
274.481	63.69
274.713	88.69
274.945	79.69
275.176	74.69
275.408	84.69
275.64	69.69
275.872	80.69
276.104	85.69
276.335	78.69
276.567	72.69
276.799	98.69
277.031	87.69
277.262	79.69
277.494	97.69
277.726	92.69
277.957	83.69
278.189	78.69
278.421	73.69
278.652	78.69
278.884	79.69
279.115	85.69
279.347	64.69
279.579	86.69
279.81	74.69
280.042	80.69
280.273	80.69
280.505	94.69
280.736	80.69
280.968	86.69
281.199	75.69
281.431	75.69
281.662	79.69
281.894	87.69
282.125	87.69
282.356	82.69
282.588	83.69
282.819	74.69
283.051	84.69
283.282	77.69
283.513	92.69
283.745	99.69
283.976	82.69
284.207	76.69
284.439	69.69
284.67	81.69
284.901	86.69
285.132	83.69
285.364	76.69
285.595	93.69
285.826	83.69
286.057	79.69
286.288	71.69
286.52	83.69
286.751	92.69
286.982	92.69
287.213	76.69
287.444	83.69
287.675	84.69
287.906	85.69
288.138	94.69
288.369	81.69
288.6	86.69
288.831	81.69
289.062	91.69
289.293	94.69
289.524	76.69
289.755	96.69
289.986	101.69
290.217	72.69
290.448	90.69
290.679	80.69
290.91	93.69
291.141	81.69
291.371	89.69
291.602	77.69
291.833	84.69
292.064	88.69
292.295	85.69
292.526	83.69
292.757	96.69
292.987	78.69
293.218	83.69
293.449	88.69
293.68	70.69
293.91	79.69
294.141	93.69
294.372	90.69
294.603	106.69
294.833	83.69
295.064	80.69
295.295	83.69
295.525	97.69
295.756	76.69
295.987	99.69
296.217	89.69
296.448	93.69
296.679	96.69
296.909	88.69
297.14	77.69
297.37	90.69
297.601	72.69
297.831	76.69
298.062	94.69
298.292	87.69
298.523	83.69
298.753	85.69
298.984	89.69
299.214	86.69
299.445	75.69
299.675	89.69
299.905	82.69
300.136	76.69
300.366	90.69
300.597	85.69
300.827	83.69
301.057	73.69
301.288	101.69
301.518	84.69
301.748	73.69
301.979	86.69
302.209	89.69
302.439	82.69
302.669	83.69
302.9	81.69
303.13	83.69
303.36	83.69
303.59	87.69
303.82	81.69
304.051	92.69
304.281	93.69
304.511	92.69
304.741	82.69
304.971	72.69
305.201	84.69
305.431	82.69
305.661	63.69
305.891	87.69
306.121	94.69
306.352	93.69
306.582	81.69
306.812	77.69
307.042	84.69
307.272	84.69
307.502	72.69
307.731	87.69
307.961	79.69
308.191	83.69
308.421	72.69
308.651	98.69
308.881	97.69
309.111	80.69
309.341	94.69
309.571	70.69
309.8	76.69
310.03	82.69
310.26	83.69
310.49	86.69
310.72	75.69
310.949	81.69
311.179	87.69
311.409	97.69
311.639	88.69
311.868	77.69
312.098	82.69
312.328	84.69
312.557	80.69
312.787	77.69
313.017	84.69
313.246	89.69
313.476	82.69
313.706	82.69
313.935	85.69
314.165	89.69
314.394	80.69
314.624	94.69
314.853	92.69
315.083	80.69
315.312	93.69
315.542	88.69
315.771	84.69
316.001	94.69
316.23	65.69
316.46	87.69
316.689	85.69
316.919	83.69
317.148	81.69
317.377	90.69
317.607	79.69
317.836	83.69
318.065	77.69
318.295	77.69
318.524	70.69
318.753	73.69
318.983	97.69
319.212	90.69
319.441	76.69
319.67	69.69
319.9	95.69
320.129	68.69
320.358	89.69
320.587	86.69
320.816	91.69
321.046	82.69
321.275	83.69
321.504	71.69
321.733	91.69
321.962	94.69
322.191	83.69
322.42	93.69
322.649	75.69
322.878	83.69
323.108	82.69
323.337	77.69
323.566	75.69
323.795	74.69
324.024	84.69
324.253	70.69
324.482	81.69
324.71	88.69
324.939	77.69
325.168	88.69
325.397	83.69
325.626	93.69
325.855	91.69
326.084	89.69
326.313	99.69
326.542	95.69
326.77	90.69
326.999	78.69
327.228	85.69
327.457	82.69
327.686	90.69
327.914	74.69
328.143	87.69
328.372	89.69
328.6	84.69
328.829	90.69
329.058	78.69
329.287	82.69
329.515	96.69
329.744	88.69
329.972	90.69
330.201	95.69
330.43	77.69
330.658	82.69
330.887	87.69
331.115	83.69
331.344	86.69
331.572	92.69
331.801	80.69
332.03	82.69
332.258	90.69
332.486	92.69
332.715	88.69
332.943	83.69
333.172	82.69
333.4	90.69
333.629	96.69
333.857	94.69
334.085	74.69
334.314	96.69
334.542	88.69
334.771	81.69
334.999	86.69
335.227	71.69
335.455	84.69
335.684	85.69
335.912	82.69
336.14	88.69
336.369	96.69
336.597	57.69
336.825	78.69
337.053	81.69
337.281	77.69
337.51	82.69
337.738	82.69
337.966	86.69
338.194	89.69
338.422	83.69
338.65	72.69
338.878	75.69
339.106	71.69
339.334	82.69
339.562	73.69
339.79	80.69
340.018	87.69
340.246	93.69
340.474	76.69
340.702	86.69
340.93	88.69
341.158	84.69
341.386	88.69
341.614	95.69
341.842	87.69
342.07	77.69
342.298	87.69
342.526	81.69
342.754	72.69
342.981	86.69
343.209	74.69
343.437	87.69
343.665	79.69
343.893	83.69
344.12	84.69
344.348	81.69
344.576	78.69
344.804	96.69
345.031	89.69
345.259	81.69
345.487	88.69
345.714	76.69
345.942	84.69
346.17	96.69
346.397	80.69
346.625	82.69
346.853	86.69
347.08	74.69
347.308	78.69
347.535	71.69
347.763	95.69
347.99	94.69
348.218	72.69
348.445	82.69
348.673	83.69
348.9	75.69
349.128	88.69
349.355	75.69
349.583	82.69
349.81	85.69
350.037	81.69
350.265	71.69
350.492	86.69
350.72	97.69
350.947	87.69
351.174	72.69
351.402	87.69
351.629	84.69
351.856	77.69
352.083	71.69
352.311	84.69
352.538	77.69
352.765	73.69
352.992	89.69
353.22	84.69
353.447	79.69
353.674	90.69
353.901	77.69
354.128	90.69
354.355	70.69
354.583	90.69
354.81	78.69
355.037	81.69
355.264	91.69
355.491	82.69
355.718	91.69
355.945	91.69
356.172	80.69
356.399	86.69
356.626	87.69
356.853	85.69
357.08	84.69
357.307	84.69
357.534	79.69
357.761	89.69
357.988	80.69
358.215	80.69
358.441	76.69
358.668	94.69
358.895	96.69
359.122	85.69
359.349	77.69
359.576	70.69
359.802	88.69
360.029	86.69
360.256	73.69
360.483	93.69
360.709	83.69
360.936	90.69
361.163	95.69
361.39	98.69
361.616	71.69
361.843	75.69
362.07	91.69
362.296	93.69
362.523	88.69
362.749	100.69
362.976	104.69
363.203	93.69
363.429	88.69
363.656	80.69
363.882	78.69
364.109	60.69
364.335	95.69
364.562	89.69
364.788	83.69
365.015	75.69
365.241	93.69
365.468	71.69
365.694	80.69
365.92	77.69
366.147	88.69
366.373	87.69
366.599	76.69
366.826	91.69
367.052	82.69
367.278	84.69
367.505	87.69
367.731	99.69
367.957	83.69
368.184	90.69
368.41	82.69
368.636	91.69
368.862	74.69
369.089	74.69
369.315	84.69
369.541	88.69
369.767	85.69
369.993	79.69
370.219	92.69
370.445	87.69
370.672	96.69
370.898	96.69
371.124	96.69
371.35	103.69
371.576	91.69
371.802	87.69
372.028	81.69
372.254	84.69
372.48	76.69
372.706	82.69
372.932	81.69
373.158	91.69
373.384	101.69
373.61	84.69
373.835	88.69
374.061	113.69
374.287	83.69
374.513	77.69
374.739	79.69
374.965	99.69
375.191	87.69
375.416	92.69
375.642	88.69
375.868	98.69
376.094	86.69
376.319	97.69
376.545	81.69
376.771	88.69
376.997	93.69
377.222	86.69
377.448	77.69
377.674	71.69
377.899	85.69
378.125	86.69
378.35	83.69
378.576	78.69
378.802	76.69
379.027	72.69
379.253	91.69
379.478	96.69
379.704	79.69
379.929	72.69
380.155	82.69
380.38	87.69
380.606	69.69
380.831	87.69
381.057	88.69
381.282	88.69
381.507	63.69
381.733	101.69
381.958	98.69
382.184	88.69
382.409	85.69
382.634	85.69
382.86	77.69
383.085	86.69
383.31	88.69
383.535	75.69
383.761	82.69
383.986	78.69
384.211	88.69
384.436	86.69
384.662	76.69
384.887	89.69
385.112	79.69
385.337	80.69
385.562	80.69
385.787	88.69
386.013	108.69
386.238	69.69
386.463	85.69
386.688	87.69
386.913	77.69
387.138	73.69
387.363	91.69
387.588	101.69
387.813	84.69
388.038	85.69
388.263	87.69
388.488	90.69
388.713	82.69
388.938	85.69
389.163	90.69
389.387	100.69
389.612	90.69
389.837	80.69
390.062	97.69
390.287	85.69
390.512	82.69
390.736	89.69
390.961	99.69
391.186	87.69
391.411	79.69
391.636	93.69
391.86	89.69
392.085	96.69
392.31	82.69
392.534	87.69
392.759	84.69
392.984	86.69
393.208	99.69
393.433	96.69
393.658	90.69
393.882	73.69
394.107	87.69
394.331	82.69
394.556	82.69
394.78	81.69
395.005	79.69
395.229	53.69
395.454	91.69
395.678	80.69
395.903	87.69
396.127	100.69
396.352	87.69
396.576	87.69
396.801	88.69
397.025	78.69
397.249	104.69
397.474	96.69
397.698	81.69
397.922	85.69
398.147	95.69
398.371	87.69
398.595	86.69
398.82	72.69
399.044	82.69
399.268	85.69
399.492	88.69
399.717	85.69
399.941	93.69
400.165	93.69
400.389	106.69
400.613	90.69
400.837	81.69
401.062	96.69
401.286	84.69
401.51	92.69
401.734	76.69
401.958	82.69
402.182	82.69
402.406	78.69
402.63	101.69
402.854	88.69
403.078	106.69
403.302	85.69
403.526	83.69
403.75	83.69
403.974	97.69
404.198	102.69
404.422	81.69
404.645	79.69
404.869	87.69
405.093	94.69
405.317	88.69
405.541	81.69
405.765	105.69
405.988	84.69
406.212	77.69
406.436	79.69
406.66	99.69
406.883	88.69
407.107	69.69
407.331	80.69
407.555	83.69
407.778	89.69
408.002	88.69
408.226	87.69
408.449	98.69
408.673	93.69
408.896	88.69
409.12	94.69
409.344	92.69
409.567	101.69
409.791	85.69
410.014	87.69
410.238	88.69
410.461	95.69
410.685	84.69
410.908	88.69
411.132	98.69
411.355	93.69
411.578	101.69
411.802	91.69
412.025	83.69
412.249	81.69
412.472	81.69
412.695	83.69
412.919	73.69
413.142	93.69
413.365	103.69
413.589	83.69
413.812	95.69
414.035	94.69
414.258	97.69
414.482	91.69
414.705	87.69
414.928	83.69
415.151	90.69
415.374	86.69
415.597	102.69
415.821	82.69
416.044	96.69
416.267	87.69
416.49	83.69
416.713	91.69
416.936	100.69
417.159	90.69
417.382	88.69
417.605	80.69
417.828	99.69
418.051	90.69
418.274	102.69
418.497	99.69
418.72	83.69
418.943	82.69
419.166	96.69
419.389	96.69
419.611	92.69
419.834	94.69
420.057	102.69
420.28	98.69
420.503	106.69
420.726	84.69
420.948	108.69
421.171	98.69
421.394	90.69
421.617	96.69
421.839	84.69
422.062	86.69
422.285	93.69
422.507	76.69
422.73	91.69
422.953	101.69
423.175	99.69
423.398	87.69
423.621	86.69
423.843	86.69
424.066	85.69
424.288	101.69
424.511	99.69
424.733	95.69
424.956	96.69
425.178	81.69
425.401	99.69
425.623	95.69
425.846	91.69
426.068	88.69
426.291	88.69
426.513	95.69
426.735	87.69
426.958	94.69
427.18	100.69
427.402	98.69
427.625	83.69
427.847	93.69
428.069	88.69
428.292	102.69
428.514	94.69
428.736	90.69
428.958	99.69
429.181	104.69
429.403	95.69
429.625	89.69
429.847	92.69
430.069	93.69
430.292	88.69
430.514	96.69
430.736	102.69
430.958	99.69
431.18	86.69
431.402	107.69
431.624	96.69
431.846	91.69
432.068	78.69
432.29	83.69
432.512	84.69
432.734	86.69
432.956	84.69
433.178	88.69
433.4	115.69
433.622	112.69
433.844	96.69
434.066	85.69
434.287	78.69
434.509	94.69
434.731	90.69
434.953	80.69
435.175	108.69
435.397	99.69
435.618	78.69
435.84	91.69
436.062	86.69
436.284	92.69
436.505	90.69
436.727	79.69
436.949	93.69
437.17	89.69
437.392	80.69
437.614	89.69
437.835	84.69
438.057	72.69
438.278	81.69
438.5	93.69
438.721	95.69
438.943	89.69
439.165	105.69
439.386	85.69
439.608	114.69
439.829	96.69
440.05	98.69
440.272	106.69
440.493	89.69
440.715	110.69
440.936	87.69
441.158	89.69
441.379	103.69
441.6	94.69
441.822	98.69
442.043	101.69
442.264	96.69
442.486	86.69
442.707	92.69
442.928	93.69
443.149	90.69
443.371	86.69
443.592	100.69
443.813	99.69
444.034	98.69
444.255	101.69
444.476	77.69
444.698	94.69
444.919	100.69
445.14	201.69
445.361	145.69
445.582	99.69
445.803	86.69
446.024	92.69
446.245	105.69
446.466	97.69
446.687	113.69
446.908	102.69
447.129	105.69
447.35	100.69
447.571	107.69
447.792	87.69
448.013	104.69
448.234	92.69
448.455	94.69
448.675	77.69
448.896	88.69
449.117	93.69
449.338	104.69
449.559	105.69
449.779	99.69
450	108.69
450.221	99.69
450.442	94.69
450.662	93.69
450.883	102.69
451.104	96.69
451.324	105.69
451.545	89.69
451.766	97.69
451.986	103.69
452.207	75.69
452.428	84.69
452.648	111.69
452.869	104.69
453.089	92.69
453.31	87.69
453.53	86.69
453.751	96.69
453.971	78.69
454.192	108.69
454.412	86.69
454.633	81.69
454.853	86.69
455.073	94.69
455.294	92.69
455.514	115.69
455.734	93.69
455.955	100.69
456.175	77.69
456.395	83.69
456.616	91.69
456.836	95.69
457.056	82.69
457.276	95.69
457.497	97.69
457.717	90.69
457.937	83.69
458.157	85.69
458.377	90.69
458.598	93.69
458.818	81.69
459.038	97.69
459.258	79.69
459.478	84.69
459.698	89.69
459.918	86.69
460.138	94.69
460.358	82.69
460.578	91.69
460.798	82.69
461.018	92.69
461.238	82.69
461.458	85.69
461.678	89.69
461.898	83.69
462.118	92.69
462.338	84.69
462.558	86.69
462.777	82.69
462.997	89.69
463.217	84.69
463.437	94.69
463.657	83.69
463.876	91.69
464.096	87.69
464.316	73.69
464.536	89.69
464.755	99.69
464.975	76.69
465.195	88.69
465.414	95.69
465.634	97.69
465.854	100.69
466.073	96.69
466.293	89.69
466.512	102.69
466.732	90.69
466.951	93.69
467.171	88.69
467.391	98.69
467.61	86.69
467.829	105.69
468.049	110.69
468.268	90.69
468.488	103.69
468.707	101.69
468.927	97.69
469.146	99.69
469.365	104.69
469.585	92.69
469.804	83.69
470.023	91.69
470.243	99.69
470.462	116.69
470.681	97.69
470.901	89.69
471.12	100.69
471.339	98.69
471.558	83.69
471.777	94.69
471.997	98.69
472.216	96.69
472.435	99.69
472.654	86.69
472.873	98.69
473.092	76.69
473.311	86.69
473.53	91.69
473.749	89.69
473.968	93.69
474.187	102.69
474.406	99.69
474.625	89.69
474.844	93.69
475.063	87.69
475.282	100.69
475.501	83.69
475.72	95.69
475.939	80.69
476.158	92.69
476.377	80.69
476.596	95.69
476.814	93.69
477.033	77.69
477.252	92.69
477.471	95.69
477.69	95.69
477.908	89.69
478.127	90.69
478.346	102.69
478.564	96.69
478.783	77.69
479.002	101.69
479.22	91.69
479.439	99.69
479.658	99.69
479.876	100.69
480.095	86.69
480.313	94.69
480.532	89.69
480.751	90.69
480.969	81.69
481.188	82.69
481.406	85.69
481.624	82.69
481.843	83.69
482.061	88.69
482.28	92.69
482.498	90.69
482.717	91.69
482.935	88.69
483.153	95.69
483.372	99.69
483.59	101.69
483.808	99.69
484.027	95.69
484.245	99.69
484.463	96.69
484.681	96.69
484.9	99.69
485.118	110.69
485.336	101.69
485.554	85.69
485.772	82.69
485.99	74.69
486.209	92.69
486.427	99.69
486.645	98.69
486.863	106.69
487.081	110.69
487.299	97.69
487.517	97.69
487.735	102.69
487.953	114.69
488.171	123.69
488.389	105.69
488.607	100.69
488.825	91.69
489.043	96.69
489.261	82.69
489.479	92.69
489.696	99.69
489.914	96.69
490.132	95.69
490.35	110.69
490.568	90.69
490.786	113.69
491.003	91.69
491.221	99.69
491.439	107.69
491.657	106.69
491.874	121.69
492.092	124.69
492.31	132.69
492.527	112.69
492.745	125.69
492.963	114.69
493.18	123.69
493.398	104.69
493.615	107.69
493.833	114.69
494.05	102.69
494.268	112.69
494.485	112.69
494.703	101.69
494.92	111.69
495.138	89.69
495.355	106.69
495.573	90.69
495.79	105.69
496.008	120.69
496.225	108.69
496.442	98.69
496.66	104.69
496.877	91.69
497.094	103.69
497.312	93.69
497.529	100.69
497.746	102.69
497.963	116.69
498.181	103.69
498.398	96.69
498.615	78.69
498.832	83.69
499.049	85.69
499.267	84.69
499.484	77.69
499.701	91.69
499.918	96.69
500.135	89.69
500.352	91.69
500.569	88.69
500.786	100.69
501.003	108.69
501.22	104.69
501.437	89.69
501.654	82.69
501.871	97.69
502.088	120.69
502.305	89.69
502.522	101.69
502.739	97.69
502.956	94.69
503.172	88.69
503.389	95.69
503.606	92.69
503.823	90.69
504.04	92.69
504.256	80.69
504.473	92.69
504.69	98.69
504.907	109.69
505.123	104.69
505.34	102.69
505.557	94.69
505.773	94.69
505.99	81.69
506.207	97.69
506.423	95.69
506.64	89.69
506.856	85.69
507.073	90.69
507.289	105.69
507.506	93.69
507.722	97.69
507.939	87.69
508.155	90.69
508.372	95.69
508.588	99.69
508.805	92.69
509.021	90.69
509.238	93.69
509.454	76.69
509.67	90.69
509.887	82.69
510.103	87.69
510.319	98.69
510.536	85.69
510.752	87.69
510.968	102.69
511.184	83.69
511.401	84.69
511.617	82.69
511.833	91.69
512.049	87.69
512.265	72.69
512.481	80.69
512.698	82.69
512.914	99.69
513.13	86.69
513.346	93.69
513.562	81.69
513.778	81.69
513.994	92.69
514.21	82.69
514.426	92.69
514.642	82.69
514.858	83.69
515.074	86.69
515.29	72.69
515.506	92.69
515.721	96.69
515.937	95.69
516.153	77.69
516.369	87.69
516.585	77.69
516.801	90.69
517.016	89.69
517.232	72.69
517.448	91.69
517.664	87.69
517.879	89.69
518.095	86.69
518.311	91.69
518.527	90.69
518.742	86.69
518.958	89.69
519.173	85.69
519.389	80.69
519.605	89.69
519.82	102.69
520.036	93.69
520.251	93.69
520.467	95.69
520.682	79.69
520.898	71.69
521.113	94.69
521.329	90.69
521.544	90.69
521.76	79.69
521.975	84.69
522.19	84.69
522.406	83.69
522.621	97.69
522.836	88.69
523.052	101.69
523.267	90.69
523.482	83.69
523.698	97.69
523.913	92.69
524.128	98.69
524.343	91.69
524.559	90.69
524.774	87.69
524.989	92.69
525.204	95.69
525.419	84.69
525.634	78.69
525.849	102.69
526.064	82.69
526.28	95.69
526.495	89.69
526.71	95.69
526.925	81.69
527.14	82.69
527.355	85.69
527.57	83.69
527.785	87.69
527.999	86.69
528.214	85.69
528.429	76.69
528.644	90.69
528.859	95.69
529.074	95.69
529.289	104.69
529.503	102.69
529.718	104.69
529.933	83.69
530.148	87.69
530.363	98.69
530.577	93.69
530.792	71.69
531.007	102.69
531.221	88.69
531.436	67.69
531.651	88.69
531.865	85.69
532.08	77.69
532.295	99.69
532.509	92.69
532.724	107.69
532.938	71.69
533.153	86.69
533.367	108.69
533.582	106.69
533.796	97.69
534.011	95.69
534.225	83.69
534.44	87.69
534.654	76.69
534.868	95.69
535.083	85.69
535.297	75.69
535.511	87.69
535.726	95.69
535.94	80.69
536.154	72.69
536.369	76.69
536.583	77.69
536.797	73.69
537.011	83.69
537.225	83.69
537.44	80.69
537.654	89.69
537.868	75.69
538.082	87.69
538.296	74.69
538.51	87.69
538.724	83.69
538.938	105.69
539.153	95.69
539.367	89.69
539.581	97.69
539.795	84.69
540.009	77.69
540.222	91.69
540.436	88.69
540.65	97.69
540.864	107.69
541.078	92.69
541.292	95.69
541.506	89.69
541.72	123.69
541.934	112.69
542.147	104.69
542.361	116.69
542.575	98.69
542.789	94.69
543.002	92.69
543.216	91.69
543.43	99.69
543.644	87.69
543.857	106.69
544.071	87.69
544.285	92.69
544.498	106.69
544.712	114.69
544.925	112.69
545.139	107.69
545.352	103.69
545.566	104.69
545.779	101.69
545.993	111.69
546.206	107.69
546.42	106.69
546.633	118.69
546.847	111.69
547.06	101.69
547.274	111.69
547.487	107.69
547.7	109.69
547.914	112.69
548.127	103.69
548.34	98.69
548.554	106.69
548.767	106.69
548.98	96.69
549.193	103.69
549.407	115.69
549.62	109.69
549.833	102.69
550.046	103.69
550.259	97.69
550.473	99.69
550.686	113.69
550.899	88.69
551.112	103.69
551.325	120.69
551.538	107.69
551.751	75.69
551.964	95.69
552.177	89.69
552.39	91.69
552.603	112.69
552.816	101.69
553.029	104.69
553.242	111.69
553.455	98.69
553.667	115.69
553.88	97.69
554.093	107.69
554.306	104.69
554.519	113.69
554.732	98.69
554.944	91.69
555.157	105.69
555.37	94.69
555.583	112.69
555.795	102.69
556.008	101.69
556.221	115.69
556.433	98.69
556.646	95.69
556.859	86.69
557.071	97.69
557.284	88.69
557.496	98.69
557.709	98.69
557.921	111.69
558.134	105.69
558.346	99.69
558.559	91.69
558.771	89.69
558.984	81.69
559.196	98.69
559.409	97.69
559.621	103.69
559.833	97.69
560.046	88.69
560.258	92.69
560.47	94.69
560.683	105.69
560.895	100.69
561.107	104.69
561.32	91.69
561.532	113.69
561.744	92.69
561.956	105.69
562.168	94.69
562.381	97.69
562.593	93.69
562.805	92.69
563.017	92.69
563.229	92.69
563.441	93.69
563.653	103.69
563.865	91.69
564.077	97.69
564.289	104.69
564.501	104.69
564.713	94.69
564.925	99.69
565.137	95.69
565.349	93.69
565.561	86.69
565.773	84.69
565.985	100.69
566.197	87.69
566.408	92.69
566.62	96.69
566.832	95.69
567.044	105.69
567.255	106.69
567.467	100.69
567.679	75.69
567.891	81.69
568.102	84.69
568.314	91.69
568.526	84.69
568.737	80.69
568.949	77.69
569.161	95.69
569.372	81.69
569.584	95.69
569.795	85.69
570.007	78.69
570.218	99.69
570.43	93.69
570.641	72.69
570.853	81.69
571.064	85.69
571.276	84.69
571.487	96.69
571.698	87.69
571.91	89.69
572.121	89.69
572.333	74.69
572.544	90.69
572.755	93.69
572.966	84.69
573.178	82.69
573.389	71.69
573.6	85.69
573.811	86.69
574.023	89.69
574.234	95.69
574.445	72.69
574.656	77.69
574.867	84.69
575.078	106.69
575.289	85.69
575.501	96.69
575.712	91.69
575.923	82.69
576.134	89.69
576.345	91.69
576.556	95.69
576.767	81.69
576.978	74.69
577.188	81.69
577.399	89.69
577.61	95.69
577.821	87.69
578.032	76.69
578.243	88.69
578.454	76.69
578.665	91.69
578.875	78.69
579.086	80.69
579.297	85.69
579.508	74.69
579.718	88.69
579.929	83.69
580.14	83.69
580.35	67.69
580.561	83.69
580.772	90.69
580.982	90.69
581.193	92.69
581.403	86.69
581.614	87.69
581.825	72.69
582.035	83.69
582.246	82.69
582.456	77.69
582.667	77.69
582.877	85.69
583.087	85.69
583.298	91.69
583.508	77.69
583.719	83.69
583.929	79.69
584.139	92.69
584.35	92.69
584.56	88.69
584.77	82.69
584.981	89.69
585.191	88.69
585.401	92.69
585.611	71.69
585.821	83.69
586.032	84.69
586.242	69.69
586.452	97.69
586.662	66.69
586.872	66.69
587.082	80.69
587.292	81.69
587.502	81.69
587.713	85.69
587.923	82.69
588.133	81.69
588.343	83.69
588.553	76.69
588.762	80.69
588.972	92.69
589.182	73.69
589.392	85.69
589.602	77.69
589.812	90.69
590.022	81.69
590.232	77.69
590.441	75.69
590.651	72.69
590.861	77.69
591.071	89.69
591.281	90.69
591.49	90.69
591.7	89.69
591.91	71.69
592.119	75.69
592.329	91.69
592.539	77.69
592.748	84.69
592.958	85.69
593.167	76.69
593.377	83.69
593.587	102.69
593.796	95.69
594.006	84.69
594.215	83.69
594.424	92.69
594.634	79.69
594.843	92.69
595.053	90.69
595.262	84.69
595.472	74.69
595.681	82.69
595.89	86.69
596.1	92.69
596.309	81.69
596.518	84.69
596.727	79.69
596.937	80.69
597.146	85.69
597.355	87.69
597.564	93.69
597.774	91.69
597.983	85.69
598.192	89.69
598.401	93.69
598.61	80.69
598.819	82.69
599.028	98.69
599.237	92.69
599.446	92.69
599.655	82.69
599.864	81.69
600.073	83.69
600.282	89.69
600.491	82.69
600.7	86.69
600.909	91.69
601.118	88.69
601.327	94.69
601.536	101.69
601.745	84.69
601.953	98.69
602.162	96.69
602.371	81.69
602.58	77.69
602.789	90.69
602.997	77.69
603.206	98.69
603.415	102.69
603.623	84.69
603.832	85.69
604.041	88.69
604.249	102.69
604.458	96.69
604.666	70.69
604.875	81.69
605.084	85.69
605.292	90.69
605.501	93.69
605.709	90.69
605.918	87.69
606.126	82.69
606.334	87.69
606.543	90.69
606.751	87.69
606.96	85.69
607.168	83.69
607.376	98.69
607.585	96.69
607.793	92.69
608.001	86.69
608.21	88.69
608.418	91.69
608.626	90.69
608.834	90.69
609.043	96.69
609.251	89.69
609.459	97.69
609.667	81.69
609.875	94.69
610.083	91.69
610.291	84.69
610.499	89.69
610.707	111.69
610.916	85.69
611.124	90.69
611.332	98.69
611.54	76.69
611.748	86.69
611.955	83.69
612.163	99.69
612.371	102.69
612.579	92.69
612.787	104.69
612.995	85.69
613.203	83.69
613.411	98.69
613.618	91.69
613.826	76.69
614.034	101.69
614.242	92.69
614.449	80.69
614.657	80.69
614.865	86.69
615.072	90.69
615.28	96.69
615.488	83.69
615.695	89.69
615.903	79.69
616.111	85.69
616.318	92.69
616.526	88.69
616.733	100.69
616.941	82.69
617.148	94.69
617.356	76.69
617.563	85.69
617.771	97.69
617.978	81.69
618.185	78.69
618.393	82.69
618.6	85.69
618.807	95.69
619.015	80.69
619.222	75.69
619.429	93.69
619.637	90.69
619.844	91.69
620.051	96.69
620.258	88.69
620.466	86.69
620.673	97.69
620.88	96.69
621.087	91.69
621.294	95.69
621.501	88.69
621.708	84.69
621.915	104.69
622.122	96.69
622.329	86.69
622.536	91.69
622.743	78.69
622.95	93.69
623.157	89.69
623.364	80.69
623.571	88.69
623.778	92.69
623.985	95.69
624.192	91.69
624.399	85.69
624.606	106.69
624.812	90.69
625.019	84.69
625.226	91.69
625.433	90.69
625.639	75.69
625.846	85.69
626.053	79.69
626.259	93.69
626.466	85.69
626.673	80.69
626.879	85.69
627.086	81.69
627.293	89.69
627.499	91.69
627.706	94.69
627.912	91.69
628.119	90.69
628.325	88.69
628.532	85.69
628.738	78.69
628.945	84.69
629.151	93.69
629.357	77.69
629.564	77.69
629.77	69.69
629.976	98.69
630.183	87.69
630.389	77.69
630.595	77.69
630.802	101.69
631.008	76.69
631.214	80.69
631.42	86.69
631.627	85.69
631.833	88.69
632.039	71.69
632.245	87.69
632.451	84.69
632.657	70.69
632.863	87.69
633.069	88.69
633.275	82.69
633.481	77.69
633.688	94.69
633.893	87.69
634.099	82.69
634.305	79.69
634.511	82.69
634.717	90.69
634.923	85.69
635.129	76.69
635.335	92.69
635.541	86.69
635.747	89.69
635.952	92.69
636.158	88.69
636.364	94.69
636.57	76.69
636.775	87.69
636.981	86.69
637.187	83.69
637.392	86.69
637.598	84.69
637.804	84.69
638.009	93.69
638.215	81.69
638.421	89.69
638.626	99.69
638.832	87.69
639.037	92.69
639.243	83.69
639.448	88.69
639.654	82.69
639.859	96.69
640.065	86.69
640.27	95.69
640.475	95.69
640.681	88.69
640.886	85.69
641.091	104.69
641.297	82.69
641.502	93.69
641.707	80.69
641.913	87.69
642.118	89.69
642.323	89.69
642.528	87.69
642.733	91.69
642.939	90.69
643.144	85.69
643.349	86.69
643.554	88.69
643.759	82.69
643.964	81.69
644.169	69.69
644.374	81.69
644.579	85.69
644.784	88.69
644.989	95.69
645.194	93.69
645.399	92.69
645.604	98.69
645.809	80.69
646.014	80.69
646.219	92.69
646.423	102.69
646.628	97.69
646.833	79.69
647.038	85.69
647.243	88.69
647.447	100.69
647.652	80.69
647.857	78.69
648.062	95.69
648.266	84.69
648.471	75.69
648.676	88.69
648.88	92.69
649.085	76.69
649.289	83.69
649.494	89.69
649.698	80.69
649.903	82.69
650.107	87.69
650.312	87.69
650.516	88.69
650.721	78.69
650.925	99.69
651.13	85.69
651.334	89.69
651.539	96.69
651.743	92.69
651.947	93.69
652.152	107.69
652.356	84.69
652.56	84.69
652.764	87.69
652.969	84.69
653.173	90.69
653.377	83.69
653.581	81.69
653.785	70.69
653.99	87.69
654.194	88.69
654.398	84.69
654.602	76.69
654.806	82.69
655.01	84.69
655.214	88.69
655.418	81.69
655.622	77.69
655.826	68.69
656.03	79.69
656.234	87.69
656.438	90.69
656.642	75.69
656.846	81.69
657.049	74.69
657.253	87.69
657.457	72.69
657.661	80.69
657.865	79.69
658.068	79.69
658.272	92.69
658.476	74.69
658.68	87.69
658.883	82.69
659.087	83.69
659.291	83.69
659.494	71.69
659.698	93.69
659.901	96.69
660.105	83.69
660.309	90.69
660.512	78.69
660.716	74.69
660.919	83.69
661.123	93.69
661.326	96.69
661.53	85.69
661.733	94.69
661.936	79.69
662.14	83.69
662.343	88.69
662.546	82.69
662.75	83.69
662.953	84.69
663.156	91.69
663.36	83.69
663.563	79.69
663.766	82.69
663.969	84.69
664.173	80.69
664.376	71.69
664.579	75.69
664.782	89.69
664.985	83.69
665.188	69.69
665.391	63.69
665.594	84.69
665.797	83.69
666	92.69
666.203	87.69
666.406	77.69
666.609	87.69
666.812	79.69
667.015	92.69
667.218	87.69
667.421	84.69
667.624	81.69
667.827	86.69
668.03	76.69
668.232	95.69
668.435	93.69
668.638	95.69
668.841	74.69
669.043	82.69
669.246	85.69
669.449	77.69
669.651	81.69
669.854	68.69
670.057	75.69
670.259	81.69
670.462	77.69
670.665	87.69
670.867	77.69
671.07	77.69
671.272	84.69
671.475	83.69
671.677	81.69
671.88	92.69
672.082	91.69
672.284	88.69
672.487	69.69
672.689	83.69
672.892	75.69
