Data from 0.5MCu(NO3)2.Standard.Lamp.E10.CV._HRD10591_16-05-01-753.txt Node
Date: Mon Jul 22 16:05:01 EDT 2019
User: cochatt
Spectrometer: HR+D1059
Trigger mode: 1
Integration Time (sec): 1.000000E-1
Scans to average: 1
Electric dark correction enabled: true
Nonlinearity correction enabled: false
Boxcar width: 0
XAxis mode: Wavelengths
Number of Pixels in Spectrum: 2048
>>>>>Begin Spectral Data<<<<<
223.165	-15.62
223.4	-15.62
223.635	-15.62
223.869	-9.62
224.104	-14.62
224.338	1.38
224.573	-15.62
224.808	-9.62
225.042	-19.62
225.277	-8.62
225.511	-7.62
225.746	8.38
225.98	8.38
226.215	-1.62
226.449	24.38
226.683	7.38
226.918	29.38
227.152	23.38
227.387	34.38
227.621	27.38
227.856	31.38
228.09	31.38
228.324	52.38
228.559	59.38
228.793	79.38
229.027	71.38
229.262	68.38
229.496	67.38
229.73	77.38
229.964	78.38
230.199	80.38
230.433	86.38
230.667	83.38
230.901	79.38
231.136	92.38
231.37	81.38
231.604	87.38
231.838	94.38
232.072	83.38
232.306	78.38
232.541	94.38
232.775	82.38
233.009	84.38
233.243	89.38
233.477	85.38
233.711	92.38
233.945	88.38
234.179	88.38
234.413	86.38
234.647	85.38
234.881	97.38
235.115	84.38
235.349	93.38
235.583	83.38
235.817	86.38
236.051	91.38
236.285	90.38
236.519	80.38
236.753	99.38
236.987	83.38
237.221	67.38
237.455	93.38
237.689	84.38
237.922	77.38
238.156	78.38
238.39	95.38
238.624	91.38
238.858	76.38
239.091	75.38
239.325	90.38
239.559	91.38
239.793	98.38
240.027	96.38
240.26	80.38
240.494	82.38
240.728	84.38
240.961	92.38
241.195	94.38
241.429	87.38
241.662	91.38
241.896	95.38
242.13	99.38
242.363	84.38
242.597	98.38
242.83	100.38
243.064	96.38
243.298	98.38
243.531	84.38
243.765	102.38
243.998	89.38
244.232	90.38
244.465	88.38
244.699	95.38
244.932	108.38
245.166	104.38
245.399	109.38
245.633	95.38
245.866	91.38
246.099	102.38
246.333	80.38
246.566	106.38
246.8	93.38
247.033	98.38
247.266	111.38
247.5	107.38
247.733	99.38
247.966	109.38
248.2	104.38
248.433	96.38
248.666	102.38
248.899	110.38
249.133	98.38
249.366	101.38
249.599	99.38
249.832	95.38
250.066	115.38
250.299	102.38
250.532	104.38
250.765	93.38
250.998	99.38
251.231	108.38
251.465	89.38
251.698	113.38
251.931	102.38
252.164	113.38
252.397	108.38
252.63	107.38
252.863	95.38
253.096	99.38
253.329	112.38
253.562	113.38
253.795	112.38
254.028	95.38
254.261	116.38
254.494	100.38
254.727	110.38
254.96	101.38
255.193	107.38
255.426	107.38
255.659	101.38
255.892	113.38
256.124	89.38
256.357	110.38
256.59	104.38
256.823	104.38
257.056	118.38
257.289	113.38
257.521	116.38
257.754	100.38
257.987	112.38
258.22	116.38
258.452	106.38
258.685	109.38
258.918	124.38
259.151	109.38
259.383	115.38
259.616	120.38
259.849	118.38
260.081	118.38
260.314	121.38
260.547	108.38
260.779	115.38
261.012	134.38
261.244	125.38
261.477	121.38
261.71	112.38
261.942	119.38
262.175	119.38
262.407	124.38
262.64	109.38
262.872	112.38
263.105	117.38
263.337	117.38
263.57	120.38
263.802	120.38
264.035	126.38
264.267	132.38
264.499	109.38
264.732	117.38
264.964	121.38
265.197	118.38
265.429	126.38
265.661	112.38
265.894	132.38
266.126	126.38
266.358	141.38
266.591	119.38
266.823	130.38
267.055	128.38
267.287	131.38
267.52	117.38
267.752	132.38
267.984	127.38
268.216	109.38
268.448	133.38
268.681	131.38
268.913	107.38
269.145	121.38
269.377	124.38
269.609	126.38
269.841	135.38
270.073	126.38
270.306	123.38
270.538	144.38
270.77	123.38
271.002	135.38
271.234	128.38
271.466	138.38
271.698	125.38
271.93	137.38
272.162	135.38
272.394	131.38
272.626	128.38
272.858	120.38
273.09	131.38
273.322	129.38
273.553	133.38
273.785	138.38
274.017	136.38
274.249	124.38
274.481	134.38
274.713	129.38
274.945	147.38
275.176	138.38
275.408	135.38
275.64	147.38
275.872	146.38
276.104	150.38
276.335	136.38
276.567	141.38
276.799	134.38
277.031	129.38
277.262	130.38
277.494	140.38
277.726	135.38
277.957	140.38
278.189	142.38
278.421	134.38
278.652	143.38
278.884	139.38
279.115	156.38
279.347	141.38
279.579	141.38
279.81	134.38
280.042	140.38
280.273	145.38
280.505	138.38
280.736	149.38
280.968	147.38
281.199	152.38
281.431	128.38
281.662	159.38
281.894	139.38
282.125	139.38
282.356	140.38
282.588	129.38
282.819	143.38
283.051	140.38
283.282	132.38
283.513	157.38
283.745	164.38
283.976	155.38
284.207	136.38
284.439	159.38
284.67	153.38
284.901	155.38
285.132	142.38
285.364	157.38
285.595	148.38
285.826	154.38
286.057	156.38
286.288	151.38
286.52	148.38
286.751	162.38
286.982	148.38
287.213	143.38
287.444	151.38
287.675	161.38
287.906	157.38
288.138	149.38
288.369	155.38
288.6	161.38
288.831	155.38
289.062	160.38
289.293	163.38
289.524	154.38
289.755	164.38
289.986	169.38
290.217	172.38
290.448	147.38
290.679	165.38
290.91	160.38
291.141	165.38
291.371	153.38
291.602	156.38
291.833	148.38
292.064	159.38
292.295	154.38
292.526	162.38
292.757	150.38
292.987	157.38
293.218	152.38
293.449	165.38
293.68	156.38
293.91	161.38
294.141	152.38
294.372	161.38
294.603	163.38
294.833	180.38
295.064	160.38
295.295	159.38
295.525	161.38
295.756	171.38
295.987	175.38
296.217	167.38
296.448	167.38
296.679	176.38
296.909	176.38
297.14	192.38
297.37	174.38
297.601	173.38
297.831	169.38
298.062	187.38
298.292	180.38
298.523	176.38
298.753	182.38
298.984	171.38
299.214	177.38
299.445	186.38
299.675	182.38
299.905	169.38
300.136	172.38
300.366	168.38
300.597	162.38
300.827	172.38
301.057	161.38
301.288	179.38
301.518	177.38
301.748	183.38
301.979	183.38
302.209	180.38
302.439	172.38
302.669	175.38
302.9	173.38
303.13	167.38
303.36	166.38
303.59	178.38
303.82	170.38
304.051	160.38
304.281	175.38
304.511	179.38
304.741	174.38
304.971	171.38
305.201	176.38
305.431	180.38
305.661	170.38
305.891	179.38
306.121	167.38
306.352	170.38
306.582	190.38
306.812	182.38
307.042	173.38
307.272	179.38
307.502	177.38
307.731	172.38
307.961	182.38
308.191	179.38
308.421	161.38
308.651	159.38
308.881	168.38
309.111	184.38
309.341	173.38
309.571	171.38
309.8	164.38
310.03	164.38
310.26	190.38
310.49	181.38
310.72	173.38
310.949	178.38
311.179	177.38
311.409	174.38
311.639	179.38
311.868	172.38
312.098	168.38
312.328	163.38
312.557	171.38
312.787	164.38
313.017	183.38
313.246	185.38
313.476	183.38
313.706	172.38
313.935	174.38
314.165	171.38
314.394	175.38
314.624	196.38
314.853	181.38
315.083	177.38
315.312	184.38
315.542	189.38
315.771	173.38
316.001	194.38
316.23	198.38
316.46	179.38
316.689	174.38
316.919	186.38
317.148	190.38
317.377	174.38
317.607	185.38
317.836	183.38
318.065	181.38
318.295	169.38
318.524	165.38
318.753	182.38
318.983	173.38
319.212	180.38
319.441	175.38
319.67	175.38
319.9	186.38
320.129	180.38
320.358	175.38
320.587	161.38
320.816	183.38
321.046	196.38
321.275	169.38
321.504	171.38
321.733	157.38
321.962	180.38
322.191	191.38
322.42	179.38
322.649	191.38
322.878	187.38
323.108	185.38
323.337	187.38
323.566	199.38
323.795	191.38
324.024	201.38
324.253	177.38
324.482	176.38
324.71	196.38
324.939	190.38
325.168	180.38
325.397	177.38
325.626	197.38
325.855	193.38
326.084	185.38
326.313	197.38
326.542	185.38
326.77	198.38
326.999	190.38
327.228	203.38
327.457	193.38
327.686	193.38
327.914	181.38
328.143	184.38
328.372	202.38
328.6	208.38
328.829	181.38
329.058	197.38
329.287	202.38
329.515	184.38
329.744	197.38
329.972	199.38
330.201	200.38
330.43	202.38
330.658	174.38
330.887	198.38
331.115	198.38
331.344	201.38
331.572	200.38
331.801	199.38
332.03	199.38
332.258	207.38
332.486	223.38
332.715	209.38
332.943	211.38
333.172	235.38
333.4	232.38
333.629	248.38
333.857	259.38
334.085	242.38
334.314	226.38
334.542	239.38
334.771	218.38
334.999	218.38
335.227	220.38
335.455	242.38
335.684	204.38
335.912	229.38
336.14	216.38
336.369	234.38
336.597	225.38
336.825	209.38
337.053	214.38
337.281	228.38
337.51	223.38
337.738	205.38
337.966	211.38
338.194	204.38
338.422	195.38
338.65	196.38
338.878	201.38
339.106	208.38
339.334	219.38
339.562	192.38
339.79	203.38
340.018	198.38
340.246	189.38
340.474	202.38
340.702	195.38
340.93	189.38
341.158	205.38
341.386	194.38
341.614	210.38
341.842	188.38
342.07	201.38
342.298	204.38
342.526	198.38
342.754	197.38
342.981	205.38
343.209	210.38
343.437	203.38
343.665	215.38
343.893	230.38
344.12	233.38
344.348	220.38
344.576	216.38
344.804	202.38
345.031	214.38
345.259	196.38
345.487	203.38
345.714	214.38
345.942	189.38
346.17	199.38
346.397	188.38
346.625	192.38
346.853	194.38
347.08	189.38
347.308	196.38
347.535	189.38
347.763	207.38
347.99	209.38
348.218	214.38
348.445	206.38
348.673	184.38
348.9	201.38
349.128	199.38
349.355	198.38
349.583	201.38
349.81	200.38
350.037	184.38
350.265	182.38
350.492	182.38
350.72	189.38
350.947	189.38
351.174	192.38
351.402	195.38
351.629	187.38
351.856	198.38
352.083	179.38
352.311	185.38
352.538	189.38
352.765	181.38
352.992	191.38
353.22	180.38
353.447	194.38
353.674	190.38
353.901	184.38
354.128	174.38
354.355	188.38
354.583	191.38
354.81	187.38
355.037	201.38
355.264	169.38
355.491	182.38
355.718	195.38
355.945	196.38
356.172	187.38
356.399	187.38
356.626	184.38
356.853	184.38
357.08	183.38
357.307	175.38
357.534	188.38
357.761	198.38
357.988	204.38
358.215	187.38
358.441	189.38
358.668	207.38
358.895	207.38
359.122	189.38
359.349	182.38
359.576	198.38
359.802	183.38
360.029	181.38
360.256	188.38
360.483	173.38
360.709	168.38
360.936	191.38
361.163	184.38
361.39	196.38
361.616	192.38
361.843	175.38
362.07	180.38
362.296	184.38
362.523	173.38
362.749	196.38
362.976	196.38
363.203	189.38
363.429	192.38
363.656	204.38
363.882	190.38
364.109	175.38
364.335	176.38
364.562	187.38
364.788	167.38
365.015	180.38
365.241	197.38
365.468	188.38
365.694	185.38
365.92	191.38
366.147	175.38
366.373	177.38
366.599	181.38
366.826	200.38
367.052	189.38
367.278	180.38
367.505	180.38
367.731	199.38
367.957	194.38
368.184	194.38
368.41	187.38
368.636	183.38
368.862	184.38
369.089	175.38
369.315	181.38
369.541	192.38
369.767	198.38
369.993	200.38
370.219	195.38
370.445	177.38
370.672	190.38
370.898	197.38
371.124	189.38
371.35	212.38
371.576	197.38
371.802	193.38
372.028	194.38
372.254	185.38
372.48	201.38
372.706	199.38
372.932	192.38
373.158	215.38
373.384	193.38
373.61	199.38
373.835	192.38
374.061	203.38
374.287	201.38
374.513	196.38
374.739	217.38
374.965	213.38
375.191	221.38
375.416	196.38
375.642	219.38
375.868	209.38
376.094	212.38
376.319	213.38
376.545	194.38
376.771	206.38
376.997	191.38
377.222	193.38
377.448	202.38
377.674	198.38
377.899	202.38
378.125	208.38
378.35	188.38
378.576	203.38
378.802	192.38
379.027	197.38
379.253	193.38
379.478	207.38
379.704	207.38
379.929	178.38
380.155	201.38
380.38	202.38
380.606	189.38
380.831	205.38
381.057	198.38
381.282	184.38
381.507	196.38
381.733	204.38
381.958	189.38
382.184	222.38
382.409	212.38
382.634	209.38
382.86	195.38
383.085	201.38
383.31	216.38
383.535	224.38
383.761	215.38
383.986	220.38
384.211	216.38
384.436	227.38
384.662	209.38
384.887	206.38
385.112	220.38
385.337	221.38
385.562	209.38
385.787	234.38
386.013	245.38
386.238	221.38
386.463	211.38
386.688	218.38
386.913	208.38
387.138	208.38
387.363	235.38
387.588	235.38
387.813	209.38
388.038	220.38
388.263	227.38
388.488	219.38
388.713	205.38
388.938	212.38
389.163	210.38
389.387	238.38
389.612	215.38
389.837	215.38
390.062	220.38
390.287	209.38
390.512	214.38
390.736	196.38
390.961	214.38
391.186	232.38
391.411	223.38
391.636	254.38
391.86	246.38
392.085	244.38
392.31	238.38
392.534	241.38
392.759	230.38
392.984	237.38
393.208	226.38
393.433	228.38
393.658	220.38
393.882	224.38
394.107	240.38
394.331	245.38
394.556	219.38
394.78	222.38
395.005	233.38
395.229	271.38
395.454	236.38
395.678	241.38
395.903	246.38
396.127	238.38
396.352	219.38
396.576	215.38
396.801	223.38
397.025	208.38
397.249	241.38
397.474	261.38
397.698	240.38
397.922	225.38
398.147	236.38
398.371	228.38
398.595	229.38
398.82	267.38
399.044	265.38
399.268	279.38
399.492	338.38
399.717	376.38
399.941	353.38
400.165	324.38
400.389	294.38
400.613	273.38
400.837	269.38
401.062	262.38
401.286	275.38
401.51	251.38
401.734	247.38
401.958	262.38
402.182	257.38
402.406	268.38
402.63	259.38
402.854	294.38
403.078	271.38
403.302	303.38
403.526	284.38
403.75	315.38
403.974	300.38
404.198	288.38
404.422	307.38
404.645	316.38
404.869	300.38
405.093	283.38
405.317	266.38
405.541	285.38
405.765	271.38
405.988	270.38
406.212	289.38
406.436	260.38
406.66	286.38
406.883	295.38
407.107	318.38
407.331	318.38
407.555	317.38
407.778	326.38
408.002	334.38
408.226	310.38
408.449	302.38
408.673	284.38
408.896	308.38
409.12	283.38
409.344	289.38
409.567	295.38
409.791	286.38
410.014	303.38
410.238	286.38
410.461	273.38
410.685	276.38
410.908	283.38
411.132	279.38
411.355	257.38
411.578	274.38
411.802	268.38
412.025	274.38
412.249	267.38
412.472	274.38
412.695	263.38
412.919	258.38
413.142	259.38
413.365	258.38
413.589	271.38
413.812	251.38
414.035	240.38
414.258	247.38
414.482	250.38
414.705	276.38
414.928	268.38
415.151	246.38
415.374	255.38
415.597	251.38
415.821	254.38
416.044	247.38
416.267	253.38
416.49	244.38
416.713	258.38
416.936	265.38
417.159	256.38
417.382	250.38
417.605	244.38
417.828	247.38
418.051	261.38
418.274	262.38
418.497	267.38
418.72	248.38
418.943	266.38
419.166	261.38
419.389	291.38
419.611	295.38
419.834	280.38
420.057	261.38
420.28	261.38
420.503	260.38
420.726	255.38
420.948	243.38
421.171	253.38
421.394	261.38
421.617	255.38
421.839	246.38
422.062	250.38
422.285	263.38
422.507	263.38
422.73	253.38
422.953	252.38
423.175	261.38
423.398	280.38
423.621	275.38
423.843	271.38
424.066	280.38
424.288	285.38
424.511	279.38
424.733	257.38
424.956	252.38
425.178	270.38
425.401	248.38
425.623	254.38
425.846	258.38
426.068	239.38
426.291	243.38
426.513	251.38
426.735	243.38
426.958	262.38
427.18	261.38
427.402	232.38
427.625	231.38
427.847	238.38
428.069	233.38
428.292	238.38
428.514	223.38
428.736	227.38
428.958	211.38
429.181	232.38
429.403	228.38
429.625	219.38
429.847	240.38
430.069	230.38
430.292	216.38
430.514	243.38
430.736	212.38
430.958	226.38
431.18	217.38
431.402	219.38
431.624	232.38
431.846	219.38
432.068	244.38
432.29	245.38
432.512	238.38
432.734	236.38
432.956	240.38
433.178	238.38
433.4	209.38
433.622	231.38
433.844	239.38
434.066	237.38
434.287	216.38
434.509	243.38
434.731	259.38
434.953	261.38
435.175	253.38
435.397	245.38
435.618	251.38
435.84	228.38
436.062	226.38
436.284	237.38
436.505	222.38
436.727	238.38
436.949	248.38
437.17	235.38
437.392	224.38
437.614	226.38
437.835	237.38
438.057	220.38
438.278	236.38
438.5	220.38
438.721	244.38
438.943	221.38
439.165	219.38
439.386	226.38
439.608	227.38
439.829	241.38
440.05	245.38
440.272	225.38
440.493	228.38
440.715	230.38
440.936	235.38
441.158	263.38
441.379	253.38
441.6	251.38
441.822	259.38
442.043	263.38
442.264	262.38
442.486	252.38
442.707	259.38
442.928	259.38
443.149	253.38
443.371	267.38
443.592	230.38
443.813	235.38
444.034	265.38
444.255	255.38
444.476	257.38
444.698	279.38
444.919	309.38
445.14	416.38
445.361	327.38
445.582	249.38
445.803	261.38
446.024	240.38
446.245	253.38
446.466	258.38
446.687	232.38
446.908	237.38
447.129	232.38
447.35	243.38
447.571	232.38
447.792	225.38
448.013	209.38
448.234	216.38
448.455	216.38
448.675	215.38
448.896	238.38
449.117	215.38
449.338	225.38
449.559	213.38
449.779	227.38
450	231.38
450.221	219.38
450.442	225.38
450.662	219.38
450.883	220.38
451.104	213.38
451.324	213.38
451.545	226.38
451.766	219.38
451.986	229.38
452.207	224.38
452.428	212.38
452.648	236.38
452.869	223.38
453.089	227.38
453.31	210.38
453.53	222.38
453.751	224.38
453.971	196.38
454.192	211.38
454.412	213.38
454.633	219.38
454.853	214.38
455.073	208.38
455.294	215.38
455.514	216.38
455.734	204.38
455.955	212.38
456.175	195.38
456.395	225.38
456.616	207.38
456.836	201.38
457.056	205.38
457.276	227.38
457.497	213.38
457.717	208.38
457.937	216.38
458.157	220.38
458.377	211.38
458.598	217.38
458.818	204.38
459.038	230.38
459.258	224.38
459.478	227.38
459.698	222.38
459.918	250.38
460.138	240.38
460.358	263.38
460.578	275.38
460.798	276.38
461.018	266.38
461.238	264.38
461.458	258.38
461.678	279.38
461.898	273.38
462.118	263.38
462.338	277.38
462.558	303.38
462.777	309.38
462.997	328.38
463.217	342.38
463.437	354.38
463.657	310.38
463.876	325.38
464.096	294.38
464.316	319.38
464.536	290.38
464.755	299.38
464.975	287.38
465.195	273.38
465.414	260.38
465.634	256.38
465.854	244.38
466.073	255.38
466.293	244.38
466.512	236.38
466.732	235.38
466.951	229.38
467.171	235.38
467.391	217.38
467.61	224.38
467.829	228.38
468.049	238.38
468.268	225.38
468.488	223.38
468.707	214.38
468.927	228.38
469.146	238.38
469.365	196.38
469.585	224.38
469.804	242.38
470.023	257.38
470.243	228.38
470.462	241.38
470.681	239.38
470.901	232.38
471.12	233.38
471.339	219.38
471.558	233.38
471.777	237.38
471.997	225.38
472.216	213.38
472.435	247.38
472.654	224.38
472.873	219.38
473.092	224.38
473.311	237.38
473.53	220.38
473.749	228.38
473.968	227.38
474.187	225.38
474.406	213.38
474.625	221.38
474.844	215.38
475.063	205.38
475.282	220.38
475.501	217.38
475.72	220.38
475.939	227.38
476.158	212.38
476.377	235.38
476.596	229.38
476.814	222.38
477.033	225.38
477.252	249.38
477.471	226.38
477.69	231.38
477.908	237.38
478.127	257.38
478.346	253.38
478.564	269.38
478.783	267.38
479.002	266.38
479.22	264.38
479.439	260.38
479.658	272.38
479.876	264.38
480.095	260.38
480.313	265.38
480.532	286.38
480.751	295.38
480.969	260.38
481.188	270.38
481.406	263.38
481.624	259.38
481.843	245.38
482.061	233.38
482.28	231.38
482.498	256.38
482.717	232.38
482.935	248.38
483.153	240.38
483.372	248.38
483.59	260.38
483.808	252.38
484.027	242.38
484.245	244.38
484.463	241.38
484.681	254.38
484.9	255.38
485.118	260.38
485.336	265.38
485.554	255.38
485.772	272.38
485.99	286.38
486.209	254.38
486.427	280.38
486.645	269.38
486.863	263.38
487.081	260.38
487.299	240.38
487.517	265.38
487.735	264.38
487.953	263.38
488.171	256.38
488.389	245.38
488.607	243.38
488.825	255.38
489.043	264.38
489.261	251.38
489.479	271.38
489.696	257.38
489.914	271.38
490.132	260.38
490.35	243.38
490.568	264.38
490.786	269.38
491.003	254.38
491.221	278.38
491.439	261.38
491.657	267.38
491.874	270.38
492.092	284.38
492.31	259.38
492.527	269.38
492.745	261.38
492.963	271.38
493.18	271.38
493.398	276.38
493.615	272.38
493.833	281.38
494.05	292.38
494.268	277.38
494.485	281.38
494.703	285.38
494.92	285.38
495.138	272.38
495.355	269.38
495.573	273.38
495.79	259.38
496.008	269.38
496.225	271.38
496.442	273.38
496.66	276.38
496.877	290.38
497.094	306.38
497.312	284.38
497.529	296.38
497.746	320.38
497.963	300.38
498.181	314.38
498.398	333.38
498.615	335.38
498.832	350.38
499.049	374.38
499.267	411.38
499.484	456.38
499.701	470.38
499.918	557.38
500.135	608.38
500.352	721.38
500.569	759.38
500.786	752.38
501.003	661.38
501.22	608.38
501.437	563.38
501.654	484.38
501.871	450.38
502.088	418.38
502.305	372.38
502.522	348.38
502.739	370.38
502.956	337.38
503.172	343.38
503.389	343.38
503.606	309.38
503.823	294.38
504.04	300.38
504.256	306.38
504.473	316.38
504.69	330.38
504.907	332.38
505.123	309.38
505.34	299.38
505.557	258.38
505.773	278.38
505.99	275.38
506.207	256.38
506.423	245.38
506.64	251.38
506.856	257.38
507.073	237.38
507.289	262.38
507.506	255.38
507.722	240.38
507.939	234.38
508.155	239.38
508.372	233.38
508.588	246.38
508.805	253.38
509.021	250.38
509.238	263.38
509.454	243.38
509.67	256.38
509.887	243.38
510.103	242.38
510.319	252.38
510.536	224.38
510.752	244.38
510.968	224.38
511.184	237.38
511.401	227.38
511.617	237.38
511.833	233.38
512.049	248.38
512.265	236.38
512.481	225.38
512.698	240.38
512.914	233.38
513.13	253.38
513.346	249.38
513.562	231.38
513.778	225.38
513.994	237.38
514.21	242.38
514.426	247.38
514.642	255.38
514.858	237.38
515.074	252.38
515.29	233.38
515.506	238.38
515.721	232.38
515.937	241.38
516.153	260.38
516.369	272.38
516.585	271.38
516.801	252.38
517.016	259.38
517.232	294.38
517.448	307.38
517.664	317.38
517.879	325.38
518.095	313.38
518.311	316.38
518.527	303.38
518.742	306.38
518.958	287.38
519.173	266.38
519.389	239.38
519.605	260.38
519.82	255.38
520.036	260.38
520.251	264.38
520.467	240.38
520.682	224.38
520.898	218.38
521.113	269.38
521.329	233.38
521.544	236.38
521.76	230.38
521.975	231.38
522.19	232.38
522.406	232.38
522.621	223.38
522.836	219.38
523.052	223.38
523.267	238.38
523.482	226.38
523.698	227.38
523.913	218.38
524.128	224.38
524.343	231.38
524.559	229.38
524.774	233.38
524.989	238.38
525.204	219.38
525.419	213.38
525.634	217.38
525.849	209.38
526.064	228.38
526.28	231.38
526.495	210.38
526.71	232.38
526.925	215.38
527.14	236.38
527.355	223.38
527.57	232.38
527.785	223.38
527.999	219.38
528.214	224.38
528.429	226.38
528.644	225.38
528.859	218.38
529.074	215.38
529.289	221.38
529.503	223.38
529.718	216.38
529.933	219.38
530.148	232.38
530.363	217.38
530.577	220.38
530.792	202.38
531.007	232.38
531.221	222.38
531.436	221.38
531.651	221.38
531.865	219.38
532.08	219.38
532.295	221.38
532.509	216.38
532.724	229.38
532.938	219.38
533.153	213.38
533.367	212.38
533.582	235.38
533.796	228.38
534.011	227.38
534.225	216.38
534.44	229.38
534.654	208.38
534.868	219.38
535.083	213.38
535.297	223.38
535.511	221.38
535.726	223.38
535.94	228.38
536.154	211.38
536.369	223.38
536.583	219.38
536.797	217.38
537.011	218.38
537.225	197.38
537.44	211.38
537.654	204.38
537.868	194.38
538.082	206.38
538.296	213.38
538.51	211.38
538.724	210.38
538.938	201.38
539.153	210.38
539.367	223.38
539.581	232.38
539.795	216.38
540.009	209.38
540.222	215.38
540.436	206.38
540.65	204.38
540.864	201.38
541.078	219.38
541.292	209.38
541.506	202.38
541.72	223.38
541.934	199.38
542.147	212.38
542.361	213.38
542.575	230.38
542.789	199.38
543.002	203.38
543.216	217.38
543.43	221.38
543.644	199.38
543.857	222.38
544.071	204.38
544.285	205.38
544.498	210.38
544.712	220.38
544.925	224.38
545.139	231.38
545.352	207.38
545.566	241.38
545.779	221.38
545.993	238.38
546.206	215.38
546.42	209.38
546.633	211.38
546.847	227.38
547.06	210.38
547.274	219.38
547.487	227.38
547.7	221.38
547.914	224.38
548.127	226.38
548.34	216.38
548.554	216.38
548.767	202.38
548.98	213.38
549.193	223.38
549.407	206.38
549.62	224.38
549.833	214.38
550.046	207.38
550.259	217.38
550.473	191.38
550.686	207.38
550.899	203.38
551.112	203.38
551.325	203.38
551.538	199.38
551.751	200.38
551.964	211.38
552.177	214.38
552.39	220.38
552.603	228.38
552.816	231.38
553.029	222.38
553.242	233.38
553.455	228.38
553.667	247.38
553.88	230.38
554.093	237.38
554.306	222.38
554.519	212.38
554.732	205.38
554.944	207.38
555.157	219.38
555.37	200.38
555.583	202.38
555.795	211.38
556.008	204.38
556.221	189.38
556.433	191.38
556.646	196.38
556.859	211.38
557.071	195.38
557.284	195.38
557.496	197.38
557.709	188.38
557.921	216.38
558.134	185.38
558.346	189.38
558.559	193.38
558.771	187.38
558.984	190.38
559.196	196.38
559.409	190.38
559.621	191.38
559.833	196.38
560.046	188.38
560.258	199.38
560.47	203.38
560.683	198.38
560.895	178.38
561.107	205.38
561.32	183.38
561.532	204.38
561.744	200.38
561.956	207.38
562.168	190.38
562.381	197.38
562.593	211.38
562.805	201.38
563.017	208.38
563.229	199.38
563.441	180.38
563.653	185.38
563.865	188.38
564.077	195.38
564.289	194.38
564.501	189.38
564.713	197.38
564.925	201.38
565.137	202.38
565.349	216.38
565.561	217.38
565.773	210.38
565.985	232.38
566.197	226.38
566.408	262.38
566.62	255.38
566.832	269.38
567.044	280.38
567.255	273.38
567.467	273.38
567.679	297.38
567.891	317.38
568.102	328.38
568.314	328.38
568.526	298.38
568.737	294.38
568.949	256.38
569.161	221.38
569.372	222.38
569.584	235.38
569.795	187.38
570.007	175.38
570.218	195.38
570.43	199.38
570.641	189.38
570.853	192.38
571.064	200.38
571.276	200.38
571.487	205.38
571.698	202.38
571.91	185.38
572.121	183.38
572.333	163.38
572.544	172.38
572.755	177.38
572.966	189.38
573.178	171.38
573.389	155.38
573.6	155.38
573.811	161.38
574.023	161.38
574.234	176.38
574.445	178.38
574.656	172.38
574.867	182.38
575.078	184.38
575.289	172.38
575.501	186.38
575.712	180.38
575.923	185.38
576.134	170.38
576.345	170.38
576.556	171.38
576.767	173.38
576.978	165.38
577.188	172.38
577.399	185.38
577.61	168.38
577.821	185.38
578.032	162.38
578.243	161.38
578.454	164.38
578.665	148.38
578.875	167.38
579.086	175.38
579.297	168.38
579.508	175.38
579.718	168.38
579.929	168.38
580.14	173.38
580.35	164.38
580.561	168.38
580.772	166.38
580.982	166.38
581.193	175.38
581.403	149.38
581.614	153.38
581.825	148.38
582.035	150.38
582.246	166.38
582.456	141.38
582.667	141.38
582.877	153.38
583.087	146.38
583.298	168.38
583.508	164.38
583.719	146.38
583.929	153.38
584.139	148.38
584.35	156.38
584.56	157.38
584.77	148.38
584.981	155.38
585.191	143.38
585.401	163.38
585.611	151.38
585.821	148.38
586.032	156.38
586.242	153.38
586.452	148.38
586.662	154.38
586.872	156.38
587.082	149.38
587.292	161.38
587.502	143.38
587.713	144.38
587.923	135.38
588.133	156.38
588.343	171.38
588.553	152.38
588.762	169.38
588.972	155.38
589.182	165.38
589.392	140.38
589.602	130.38
589.812	154.38
590.022	153.38
590.232	137.38
590.441	133.38
590.651	171.38
590.861	157.38
591.071	161.38
591.281	155.38
591.49	152.38
591.7	162.38
591.91	163.38
592.119	148.38
592.329	163.38
592.539	156.38
592.748	175.38
592.958	178.38
593.167	192.38
593.377	183.38
593.587	191.38
593.796	167.38
594.006	181.38
594.215	204.38
594.424	199.38
594.634	186.38
594.843	164.38
595.053	172.38
595.262	145.38
595.472	165.38
595.681	157.38
595.89	144.38
596.1	168.38
596.309	152.38
596.518	153.38
596.727	156.38
596.937	148.38
597.146	136.38
597.355	154.38
597.564	145.38
597.774	145.38
597.983	140.38
598.192	147.38
598.401	144.38
598.61	146.38
598.819	165.38
599.028	121.38
599.237	137.38
599.446	128.38
599.655	133.38
599.864	145.38
600.073	146.38
600.282	127.38
600.491	128.38
600.7	137.38
600.909	139.38
601.118	137.38
601.327	145.38
601.536	140.38
601.745	140.38
601.953	147.38
602.162	120.38
602.371	134.38
602.58	137.38
602.789	123.38
602.997	135.38
603.206	145.38
603.415	142.38
603.623	147.38
603.832	149.38
604.041	134.38
604.249	141.38
604.458	136.38
604.666	131.38
604.875	136.38
605.084	142.38
605.292	131.38
605.501	124.38
605.709	151.38
605.918	144.38
606.126	139.38
606.334	142.38
606.543	134.38
606.751	138.38
606.96	140.38
607.168	166.38
607.376	131.38
607.585	142.38
607.793	142.38
608.001	123.38
608.21	128.38
608.418	136.38
608.626	133.38
608.834	145.38
609.043	149.38
609.251	138.38
609.459	134.38
609.667	148.38
609.875	147.38
610.083	123.38
610.291	139.38
610.499	143.38
610.707	130.38
610.916	127.38
611.124	126.38
611.332	154.38
611.54	121.38
611.748	117.38
611.955	129.38
612.163	145.38
612.371	141.38
612.579	129.38
612.787	137.38
612.995	127.38
613.203	141.38
613.411	126.38
613.618	135.38
613.826	130.38
614.034	139.38
614.242	130.38
614.449	127.38
614.657	135.38
614.865	134.38
615.072	137.38
615.28	135.38
615.488	116.38
615.695	129.38
615.903	145.38
616.111	130.38
616.318	147.38
616.526	135.38
616.733	149.38
616.941	147.38
617.148	145.38
617.356	132.38
617.563	116.38
617.771	129.38
617.978	133.38
618.185	131.38
618.393	142.38
618.6	126.38
618.807	133.38
619.015	123.38
619.222	127.38
619.429	125.38
619.637	136.38
619.844	132.38
620.051	122.38
620.258	121.38
620.466	122.38
620.673	119.38
620.88	115.38
621.087	123.38
621.294	130.38
621.501	119.38
621.708	139.38
621.915	131.38
622.122	116.38
622.329	127.38
622.536	131.38
622.743	132.38
622.95	110.38
623.157	119.38
623.364	125.38
623.571	137.38
623.778	129.38
623.985	128.38
624.192	120.38
624.399	118.38
624.606	126.38
624.812	112.38
625.019	120.38
625.226	132.38
625.433	120.38
625.639	119.38
625.846	113.38
626.053	133.38
626.259	135.38
626.466	125.38
626.673	120.38
626.879	131.38
627.086	121.38
627.293	121.38
627.499	125.38
627.706	123.38
627.912	128.38
628.119	120.38
628.325	115.38
628.532	123.38
628.738	119.38
628.945	117.38
629.151	128.38
629.357	124.38
629.564	130.38
629.77	107.38
629.976	125.38
630.183	120.38
630.389	115.38
630.595	125.38
630.802	115.38
631.008	123.38
631.214	118.38
631.42	129.38
631.627	121.38
631.833	119.38
632.039	115.38
632.245	124.38
632.451	109.38
632.657	117.38
632.863	113.38
633.069	96.38
633.275	112.38
633.481	113.38
633.688	114.38
633.893	125.38
634.099	115.38
634.305	123.38
634.511	107.38
634.717	127.38
634.923	107.38
635.129	121.38
635.335	103.38
635.541	100.38
635.747	110.38
635.952	124.38
636.158	109.38
636.364	114.38
636.57	116.38
636.775	111.38
636.981	108.38
637.187	112.38
637.392	109.38
637.598	112.38
637.804	115.38
638.009	113.38
638.215	125.38
638.421	112.38
638.626	114.38
638.832	110.38
639.037	127.38
639.243	126.38
639.448	122.38
639.654	111.38
639.859	116.38
640.065	120.38
640.27	119.38
640.475	110.38
640.681	124.38
640.886	114.38
641.091	110.38
641.297	114.38
641.502	107.38
641.707	96.38
641.913	125.38
642.118	98.38
642.323	101.38
642.528	119.38
642.733	97.38
642.939	107.38
643.144	101.38
643.349	114.38
643.554	111.38
643.759	109.38
643.964	100.38
644.169	98.38
644.374	110.38
644.579	116.38
644.784	93.38
644.989	109.38
645.194	98.38
645.399	101.38
645.604	109.38
645.809	115.38
646.014	96.38
646.219	108.38
646.423	107.38
646.628	94.38
646.833	101.38
647.038	116.38
647.243	109.38
647.447	120.38
647.652	101.38
647.857	95.38
648.062	112.38
648.266	116.38
648.471	111.38
648.676	121.38
648.88	118.38
649.085	116.38
649.289	125.38
649.494	122.38
649.698	116.38
649.903	109.38
650.107	91.38
650.312	93.38
650.516	110.38
650.721	97.38
650.925	100.38
651.13	97.38
651.334	110.38
651.539	102.38
651.743	116.38
651.947	114.38
652.152	99.38
652.356	121.38
652.56	120.38
652.764	109.38
652.969	91.38
653.173	97.38
653.377	95.38
653.581	97.38
653.785	120.38
653.99	88.38
654.194	99.38
654.398	105.38
654.602	100.38
654.806	103.38
655.01	105.38
655.214	91.38
655.418	107.38
655.622	93.38
655.826	102.38
656.03	104.38
656.234	118.38
656.438	117.38
656.642	111.38
656.846	97.38
657.049	98.38
657.253	99.38
657.457	84.38
657.661	95.38
657.865	94.38
658.068	98.38
658.272	96.38
658.476	86.38
658.68	83.38
658.883	85.38
659.087	104.38
659.291	86.38
659.494	80.38
659.698	93.38
659.901	86.38
660.105	89.38
660.309	96.38
660.512	78.38
660.716	85.38
660.919	81.38
661.123	94.38
661.326	71.38
661.53	72.38
661.733	95.38
661.936	84.38
662.14	100.38
662.343	81.38
662.546	73.38
662.75	85.38
662.953	81.38
663.156	87.38
663.36	82.38
663.563	73.38
663.766	85.38
663.969	78.38
664.173	76.38
664.376	84.38
664.579	77.38
664.782	67.38
664.985	77.38
665.188	81.38
665.391	82.38
665.594	68.38
665.797	76.38
666	78.38
666.203	84.38
666.406	85.38
666.609	77.38
666.812	85.38
667.015	63.38
667.218	83.38
667.421	75.38
667.624	72.38
667.827	95.38
668.03	79.38
668.232	64.38
668.435	83.38
668.638	81.38
668.841	79.38
669.043	72.38
669.246	70.38
669.449	66.38
669.651	71.38
669.854	70.38
670.057	75.38
670.259	77.38
670.462	73.38
670.665	70.38
670.867	73.38
671.07	70.38
671.272	91.38
671.475	85.38
671.677	68.38
671.88	76.38
672.082	71.38
672.284	75.38
672.487	70.38
672.689	84.38
672.892	78.38
