Data from 0.5MCu(NO3)2.Standard.Lamp.E10.CV._HRD10591_16-06-28-754.txt Node
Date: Mon Jul 22 16:06:28 EDT 2019
User: cochatt
Spectrometer: HR+D1059
Trigger mode: 1
Integration Time (sec): 1.000000E-1
Scans to average: 1
Electric dark correction enabled: true
Nonlinearity correction enabled: false
Boxcar width: 0
XAxis mode: Wavelengths
Number of Pixels in Spectrum: 2048
>>>>>Begin Spectral Data<<<<<
223.165	-1.12
223.4	-1.12
223.635	-1.12
223.869	-11.12
224.104	-21.12
224.338	-19.12
224.573	-17.12
224.808	-24.12
225.042	-9.12
225.277	-13.12
225.511	13.88
225.746	4.88
225.98	-4.12
226.215	20.88
226.449	15.88
226.683	21.88
226.918	18.88
227.152	23.88
227.387	40.88
227.621	30.88
227.856	50.88
228.09	54.88
228.324	52.88
228.559	66.88
228.793	58.88
229.027	61.88
229.262	71.88
229.496	74.88
229.73	83.88
229.964	87.88
230.199	77.88
230.433	96.88
230.667	74.88
230.901	79.88
231.136	87.88
231.37	67.88
231.604	63.88
231.838	90.88
232.072	82.88
232.306	97.88
232.541	100.88
232.775	87.88
233.009	88.88
233.243	89.88
233.477	77.88
233.711	81.88
233.945	85.88
234.179	90.88
234.413	89.88
234.647	87.88
234.881	90.88
235.115	93.88
235.349	72.88
235.583	81.88
235.817	89.88
236.051	86.88
236.285	89.88
236.519	83.88
236.753	83.88
236.987	93.88
237.221	86.88
237.455	88.88
237.689	87.88
237.922	97.88
238.156	86.88
238.39	89.88
238.624	82.88
238.858	84.88
239.091	73.88
239.325	87.88
239.559	107.88
239.793	83.88
240.027	79.88
240.26	83.88
240.494	95.88
240.728	93.88
240.961	83.88
241.195	76.88
241.429	74.88
241.662	79.88
241.896	96.88
242.13	89.88
242.363	93.88
242.597	92.88
242.83	84.88
243.064	87.88
243.298	90.88
243.531	83.88
243.765	99.88
243.998	89.88
244.232	89.88
244.465	87.88
244.699	81.88
244.932	89.88
245.166	75.88
245.399	92.88
245.633	94.88
245.866	89.88
246.099	103.88
246.333	86.88
246.566	101.88
246.8	109.88
247.033	95.88
247.266	92.88
247.5	89.88
247.733	85.88
247.966	77.88
248.2	96.88
248.433	97.88
248.666	77.88
248.899	81.88
249.133	85.88
249.366	85.88
249.599	103.88
249.832	86.88
250.066	115.88
250.299	95.88
250.532	109.88
250.765	97.88
250.998	107.88
251.231	83.88
251.465	90.88
251.698	98.88
251.931	97.88
252.164	105.88
252.397	107.88
252.63	107.88
252.863	97.88
253.096	108.88
253.329	98.88
253.562	91.88
253.795	106.88
254.028	105.88
254.261	101.88
254.494	99.88
254.727	96.88
254.96	84.88
255.193	112.88
255.426	102.88
255.659	97.88
255.892	107.88
256.124	107.88
256.357	100.88
256.59	92.88
256.823	94.88
257.056	103.88
257.289	110.88
257.521	103.88
257.754	104.88
257.987	114.88
258.22	101.88
258.452	99.88
258.685	109.88
258.918	106.88
259.151	104.88
259.383	104.88
259.616	103.88
259.849	108.88
260.081	105.88
260.314	106.88
260.547	98.88
260.779	112.88
261.012	105.88
261.244	122.88
261.477	97.88
261.71	93.88
261.942	103.88
262.175	100.88
262.407	108.88
262.64	106.88
262.872	103.88
263.105	105.88
263.337	116.88
263.57	112.88
263.802	121.88
264.035	108.88
264.267	105.88
264.499	104.88
264.732	110.88
264.964	105.88
265.197	102.88
265.429	115.88
265.661	113.88
265.894	108.88
266.126	132.88
266.358	115.88
266.591	115.88
266.823	122.88
267.055	117.88
267.287	102.88
267.52	114.88
267.752	123.88
267.984	111.88
268.216	115.88
268.448	120.88
268.681	120.88
268.913	105.88
269.145	114.88
269.377	114.88
269.609	109.88
269.841	120.88
270.073	124.88
270.306	108.88
270.538	110.88
270.77	114.88
271.002	106.88
271.234	118.88
271.466	116.88
271.698	106.88
271.93	110.88
272.162	110.88
272.394	106.88
272.626	107.88
272.858	107.88
273.09	104.88
273.322	124.88
273.553	120.88
273.785	113.88
274.017	115.88
274.249	123.88
274.481	112.88
274.713	122.88
274.945	117.88
275.176	117.88
275.408	108.88
275.64	119.88
275.872	125.88
276.104	111.88
276.335	133.88
276.567	117.88
276.799	129.88
277.031	129.88
277.262	108.88
277.494	124.88
277.726	132.88
277.957	125.88
278.189	112.88
278.421	125.88
278.652	126.88
278.884	126.88
279.115	130.88
279.347	121.88
279.579	132.88
279.81	112.88
280.042	118.88
280.273	109.88
280.505	127.88
280.736	125.88
280.968	130.88
281.199	136.88
281.431	122.88
281.662	109.88
281.894	127.88
282.125	119.88
282.356	125.88
282.588	133.88
282.819	133.88
283.051	139.88
283.282	134.88
283.513	130.88
283.745	139.88
283.976	129.88
284.207	129.88
284.439	128.88
284.67	133.88
284.901	135.88
285.132	131.88
285.364	132.88
285.595	127.88
285.826	126.88
286.057	129.88
286.288	128.88
286.52	120.88
286.751	129.88
286.982	124.88
287.213	137.88
287.444	149.88
287.675	125.88
287.906	140.88
288.138	137.88
288.369	141.88
288.6	127.88
288.831	123.88
289.062	131.88
289.293	140.88
289.524	125.88
289.755	136.88
289.986	118.88
290.217	133.88
290.448	126.88
290.679	149.88
290.91	137.88
291.141	139.88
291.371	130.88
291.602	131.88
291.833	143.88
292.064	153.88
292.295	147.88
292.526	130.88
292.757	136.88
292.987	141.88
293.218	135.88
293.449	124.88
293.68	143.88
293.91	143.88
294.141	129.88
294.372	129.88
294.603	145.88
294.833	127.88
295.064	126.88
295.295	126.88
295.525	143.88
295.756	142.88
295.987	125.88
296.217	138.88
296.448	140.88
296.679	141.88
296.909	137.88
297.14	133.88
297.37	142.88
297.601	132.88
297.831	141.88
298.062	136.88
298.292	133.88
298.523	150.88
298.753	144.88
298.984	137.88
299.214	139.88
299.445	151.88
299.675	149.88
299.905	154.88
300.136	156.88
300.366	147.88
300.597	137.88
300.827	145.88
301.057	141.88
301.288	129.88
301.518	146.88
301.748	149.88
301.979	137.88
302.209	147.88
302.439	151.88
302.669	134.88
302.9	135.88
303.13	133.88
303.36	139.88
303.59	147.88
303.82	129.88
304.051	142.88
304.281	144.88
304.511	149.88
304.741	137.88
304.971	152.88
305.201	139.88
305.431	149.88
305.661	143.88
305.891	144.88
306.121	151.88
306.352	129.88
306.582	142.88
306.812	134.88
307.042	140.88
307.272	150.88
307.502	143.88
307.731	149.88
307.961	135.88
308.191	141.88
308.421	147.88
308.651	150.88
308.881	128.88
309.111	142.88
309.341	122.88
309.571	134.88
309.8	154.88
310.03	147.88
310.26	135.88
310.49	138.88
310.72	137.88
310.949	146.88
311.179	139.88
311.409	141.88
311.639	136.88
311.868	147.88
312.098	135.88
312.328	133.88
312.557	145.88
312.787	153.88
313.017	136.88
313.246	141.88
313.476	141.88
313.706	144.88
313.935	163.88
314.165	147.88
314.394	149.88
314.624	146.88
314.853	147.88
315.083	138.88
315.312	143.88
315.542	144.88
315.771	143.88
316.001	157.88
316.23	149.88
316.46	138.88
316.689	147.88
316.919	139.88
317.148	142.88
317.377	144.88
317.607	134.88
317.836	144.88
318.065	138.88
318.295	154.88
318.524	144.88
318.753	145.88
318.983	161.88
319.212	139.88
319.441	134.88
319.67	149.88
319.9	141.88
320.129	150.88
320.358	141.88
320.587	151.88
320.816	143.88
321.046	150.88
321.275	156.88
321.504	160.88
321.733	131.88
321.962	163.88
322.191	159.88
322.42	162.88
322.649	151.88
322.878	159.88
323.108	152.88
323.337	147.88
323.566	155.88
323.795	149.88
324.024	149.88
324.253	135.88
324.482	144.88
324.71	143.88
324.939	150.88
325.168	151.88
325.397	153.88
325.626	155.88
325.855	142.88
326.084	167.88
326.313	160.88
326.542	138.88
326.77	165.88
326.999	153.88
327.228	161.88
327.457	158.88
327.686	153.88
327.914	174.88
328.143	140.88
328.372	155.88
328.6	145.88
328.829	141.88
329.058	157.88
329.287	147.88
329.515	155.88
329.744	143.88
329.972	163.88
330.201	161.88
330.43	168.88
330.658	171.88
330.887	167.88
331.115	165.88
331.344	168.88
331.572	163.88
331.801	165.88
332.03	172.88
332.258	167.88
332.486	167.88
332.715	180.88
332.943	172.88
333.172	184.88
333.4	198.88
333.629	195.88
333.857	190.88
334.085	197.88
334.314	170.88
334.542	178.88
334.771	177.88
334.999	183.88
335.227	180.88
335.455	169.88
335.684	181.88
335.912	181.88
336.14	150.88
336.369	175.88
336.597	177.88
336.825	169.88
337.053	167.88
337.281	170.88
337.51	161.88
337.738	165.88
337.966	164.88
338.194	163.88
338.422	161.88
338.65	159.88
338.878	172.88
339.106	168.88
339.334	171.88
339.562	151.88
339.79	154.88
340.018	160.88
340.246	161.88
340.474	168.88
340.702	157.88
340.93	163.88
341.158	166.88
341.386	158.88
341.614	152.88
341.842	163.88
342.07	161.88
342.298	167.88
342.526	160.88
342.754	170.88
342.981	152.88
343.209	149.88
343.437	179.88
343.665	159.88
343.893	155.88
344.12	174.88
344.348	181.88
344.576	183.88
344.804	180.88
345.031	169.88
345.259	175.88
345.487	164.88
345.714	167.88
345.942	151.88
346.17	141.88
346.397	148.88
346.625	163.88
346.853	163.88
347.08	148.88
347.308	170.88
347.535	159.88
347.763	164.88
347.99	151.88
348.218	164.88
348.445	159.88
348.673	159.88
348.9	164.88
349.128	158.88
349.355	142.88
349.583	139.88
349.81	161.88
350.037	145.88
350.265	158.88
350.492	163.88
350.72	140.88
350.947	147.88
351.174	162.88
351.402	150.88
351.629	161.88
351.856	158.88
352.083	148.88
352.311	158.88
352.538	150.88
352.765	150.88
352.992	163.88
353.22	145.88
353.447	152.88
353.674	163.88
353.901	155.88
354.128	142.88
354.355	149.88
354.583	166.88
354.81	166.88
355.037	148.88
355.264	161.88
355.491	172.88
355.718	138.88
355.945	137.88
356.172	157.88
356.399	159.88
356.626	165.88
356.853	173.88
357.08	165.88
357.307	157.88
357.534	147.88
357.761	145.88
357.988	157.88
358.215	169.88
358.441	142.88
358.668	153.88
358.895	160.88
359.122	144.88
359.349	153.88
359.576	156.88
359.802	150.88
360.029	164.88
360.256	155.88
360.483	155.88
360.709	165.88
360.936	151.88
361.163	159.88
361.39	156.88
361.616	152.88
361.843	131.88
362.07	153.88
362.296	135.88
362.523	168.88
362.749	156.88
362.976	157.88
363.203	158.88
363.429	149.88
363.656	149.88
363.882	166.88
364.109	166.88
364.335	159.88
364.562	144.88
364.788	155.88
365.015	165.88
365.241	153.88
365.468	158.88
365.694	152.88
365.92	159.88
366.147	149.88
366.373	150.88
366.599	159.88
366.826	145.88
367.052	146.88
367.278	145.88
367.505	164.88
367.731	139.88
367.957	153.88
368.184	149.88
368.41	163.88
368.636	151.88
368.862	145.88
369.089	154.88
369.315	147.88
369.541	157.88
369.767	156.88
369.993	148.88
370.219	151.88
370.445	155.88
370.672	161.88
370.898	168.88
371.124	151.88
371.35	161.88
371.576	170.88
371.802	157.88
372.028	163.88
372.254	152.88
372.48	162.88
372.706	154.88
372.932	183.88
373.158	159.88
373.384	167.88
373.61	159.88
373.835	173.88
374.061	157.88
374.287	159.88
374.513	156.88
374.739	173.88
374.965	170.88
375.191	156.88
375.416	179.88
375.642	168.88
375.868	161.88
376.094	155.88
376.319	171.88
376.545	165.88
376.771	180.88
376.997	154.88
377.222	174.88
377.448	157.88
377.674	170.88
377.899	165.88
378.125	143.88
378.35	157.88
378.576	158.88
378.802	152.88
379.027	155.88
379.253	162.88
379.478	151.88
379.704	157.88
379.929	150.88
380.155	151.88
380.38	163.88
380.606	163.88
380.831	163.88
381.057	182.88
381.282	166.88
381.507	141.88
381.733	148.88
381.958	173.88
382.184	170.88
382.409	155.88
382.634	170.88
382.86	165.88
383.085	166.88
383.31	167.88
383.535	162.88
383.761	189.88
383.986	176.88
384.211	177.88
384.436	169.88
384.662	183.88
384.887	181.88
385.112	185.88
385.337	189.88
385.562	169.88
385.787	193.88
386.013	189.88
386.238	186.88
386.463	175.88
386.688	173.88
386.913	190.88
387.138	183.88
387.363	192.88
387.588	170.88
387.813	188.88
388.038	162.88
388.263	179.88
388.488	170.88
388.713	165.88
388.938	169.88
389.163	181.88
389.387	170.88
389.612	161.88
389.837	171.88
390.062	180.88
390.287	167.88
390.512	179.88
390.736	171.88
390.961	187.88
391.186	175.88
391.411	178.88
391.636	182.88
391.86	198.88
392.085	207.88
392.31	177.88
392.534	195.88
392.759	188.88
392.984	181.88
393.208	200.88
393.433	195.88
393.658	188.88
393.882	196.88
394.107	178.88
394.331	175.88
394.556	195.88
394.78	174.88
395.005	193.88
395.229	189.88
395.454	209.88
395.678	194.88
395.903	198.88
396.127	166.88
396.352	183.88
396.576	180.88
396.801	181.88
397.025	175.88
397.249	188.88
397.474	204.88
397.698	188.88
397.922	203.88
398.147	191.88
398.371	192.88
398.595	211.88
398.82	201.88
399.044	223.88
399.268	211.88
399.492	254.88
399.717	289.88
399.941	278.88
400.165	240.88
400.389	217.88
400.613	226.88
400.837	189.88
401.062	217.88
401.286	202.88
401.51	205.88
401.734	211.88
401.958	209.88
402.182	203.88
402.406	205.88
402.63	220.88
402.854	228.88
403.078	216.88
403.302	208.88
403.526	231.88
403.75	233.88
403.974	217.88
404.198	226.88
404.422	235.88
404.645	239.88
404.869	228.88
405.093	222.88
405.317	224.88
405.541	228.88
405.765	243.88
405.988	211.88
406.212	213.88
406.436	217.88
406.66	231.88
406.883	248.88
407.107	241.88
407.331	239.88
407.555	254.88
407.778	263.88
408.002	241.88
408.226	237.88
408.449	226.88
408.673	226.88
408.896	227.88
409.12	237.88
409.344	216.88
409.567	227.88
409.791	239.88
410.014	243.88
410.238	244.88
410.461	233.88
410.685	233.88
410.908	214.88
411.132	225.88
411.355	211.88
411.578	222.88
411.802	218.88
412.025	210.88
412.249	228.88
412.472	217.88
412.695	201.88
412.919	204.88
413.142	196.88
413.365	201.88
413.589	208.88
413.812	204.88
414.035	215.88
414.258	202.88
414.482	210.88
414.705	210.88
414.928	212.88
415.151	213.88
415.374	218.88
415.597	214.88
415.821	193.88
416.044	181.88
416.267	196.88
416.49	192.88
416.713	220.88
416.936	199.88
417.159	210.88
417.382	215.88
417.605	203.88
417.828	200.88
418.051	211.88
418.274	226.88
418.497	205.88
418.72	206.88
418.943	214.88
419.166	210.88
419.389	226.88
419.611	234.88
419.834	220.88
420.057	212.88
420.28	205.88
420.503	203.88
420.726	199.88
420.948	197.88
421.171	210.88
421.394	187.88
421.617	224.88
421.839	203.88
422.062	204.88
422.285	213.88
422.507	221.88
422.73	195.88
422.953	206.88
423.175	222.88
423.398	219.88
423.621	227.88
423.843	217.88
424.066	213.88
424.288	198.88
424.511	210.88
424.733	228.88
424.956	225.88
425.178	206.88
425.401	191.88
425.623	188.88
425.846	207.88
426.068	208.88
426.291	198.88
426.513	210.88
426.735	197.88
426.958	201.88
427.18	201.88
427.402	186.88
427.625	201.88
427.847	198.88
428.069	187.88
428.292	195.88
428.514	187.88
428.736	166.88
428.958	193.88
429.181	196.88
429.403	198.88
429.625	197.88
429.847	177.88
430.069	185.88
430.292	172.88
430.514	163.88
430.736	181.88
430.958	169.88
431.18	185.88
431.402	201.88
431.624	177.88
431.846	190.88
432.068	190.88
432.29	183.88
432.512	175.88
432.734	199.88
432.956	176.88
433.178	189.88
433.4	185.88
433.622	194.88
433.844	174.88
434.066	190.88
434.287	187.88
434.509	195.88
434.731	195.88
434.953	206.88
435.175	218.88
435.397	201.88
435.618	204.88
435.84	203.88
436.062	190.88
436.284	178.88
436.505	189.88
436.727	182.88
436.949	187.88
437.17	190.88
437.392	169.88
437.614	182.88
437.835	178.88
438.057	185.88
438.278	189.88
438.5	199.88
438.721	194.88
438.943	183.88
439.165	190.88
439.386	206.88
439.608	189.88
439.829	191.88
440.05	185.88
440.272	193.88
440.493	191.88
440.715	198.88
440.936	193.88
441.158	210.88
441.379	194.88
441.6	199.88
441.822	204.88
442.043	209.88
442.264	203.88
442.486	209.88
442.707	210.88
442.928	198.88
443.149	207.88
443.371	202.88
443.592	217.88
443.813	202.88
444.034	214.88
444.255	226.88
444.476	237.88
444.698	224.88
444.919	251.88
445.14	324.88
445.361	268.88
445.582	195.88
445.803	210.88
446.024	218.88
446.245	203.88
446.466	178.88
446.687	179.88
446.908	191.88
447.129	187.88
447.35	197.88
447.571	188.88
447.792	171.88
448.013	188.88
448.234	189.88
448.455	177.88
448.675	192.88
448.896	188.88
449.117	187.88
449.338	182.88
449.559	172.88
449.779	188.88
450	184.88
450.221	179.88
450.442	174.88
450.662	198.88
450.883	180.88
451.104	205.88
451.324	195.88
451.545	169.88
451.766	175.88
451.986	198.88
452.207	169.88
452.428	190.88
452.648	196.88
452.869	196.88
453.089	181.88
453.31	180.88
453.53	174.88
453.751	171.88
453.971	169.88
454.192	164.88
454.412	179.88
454.633	187.88
454.853	170.88
455.073	169.88
455.294	160.88
455.514	182.88
455.734	171.88
455.955	171.88
456.175	175.88
456.395	177.88
456.616	169.88
456.836	175.88
457.056	181.88
457.276	170.88
457.497	169.88
457.717	166.88
457.937	167.88
458.157	172.88
458.377	175.88
458.598	171.88
458.818	180.88
459.038	183.88
459.258	187.88
459.478	173.88
459.698	191.88
459.918	225.88
460.138	192.88
460.358	206.88
460.578	227.88
460.798	210.88
461.018	213.88
461.238	220.88
461.458	205.88
461.678	224.88
461.898	210.88
462.118	235.88
462.338	240.88
462.558	229.88
462.777	222.88
462.997	257.88
463.217	275.88
463.437	280.88
463.657	269.88
463.876	253.88
464.096	256.88
464.316	241.88
464.536	236.88
464.755	238.88
464.975	249.88
465.195	212.88
465.414	213.88
465.634	187.88
465.854	190.88
466.073	201.88
466.293	207.88
466.512	191.88
466.732	183.88
466.951	178.88
467.171	186.88
467.391	182.88
467.61	190.88
467.829	180.88
468.049	185.88
468.268	175.88
468.488	181.88
468.707	175.88
468.927	179.88
469.146	180.88
469.365	172.88
469.585	189.88
469.804	178.88
470.023	203.88
470.243	191.88
470.462	185.88
470.681	206.88
470.901	196.88
471.12	191.88
471.339	187.88
471.558	192.88
471.777	190.88
471.997	180.88
472.216	189.88
472.435	181.88
472.654	185.88
472.873	185.88
473.092	188.88
473.311	175.88
473.53	174.88
473.749	182.88
473.968	192.88
474.187	185.88
474.406	179.88
474.625	196.88
474.844	179.88
475.063	185.88
475.282	180.88
475.501	173.88
475.72	188.88
475.939	185.88
476.158	173.88
476.377	183.88
476.596	178.88
476.814	190.88
477.033	187.88
477.252	189.88
477.471	190.88
477.69	196.88
477.908	194.88
478.127	203.88
478.346	222.88
478.564	231.88
478.783	214.88
479.002	217.88
479.22	210.88
479.439	231.88
479.658	213.88
479.876	219.88
480.095	219.88
480.313	209.88
480.532	228.88
480.751	219.88
480.969	224.88
481.188	220.88
481.406	196.88
481.624	213.88
481.843	197.88
482.061	209.88
482.28	197.88
482.498	219.88
482.717	197.88
482.935	215.88
483.153	218.88
483.372	221.88
483.59	201.88
483.808	191.88
484.027	201.88
484.245	196.88
484.463	201.88
484.681	211.88
484.9	211.88
485.118	215.88
485.336	215.88
485.554	213.88
485.772	227.88
485.99	205.88
486.209	220.88
486.427	218.88
486.645	208.88
486.863	206.88
487.081	195.88
487.299	207.88
487.517	216.88
487.735	226.88
487.953	210.88
488.171	217.88
488.389	223.88
488.607	213.88
488.825	213.88
489.043	205.88
489.261	216.88
489.479	221.88
489.696	205.88
489.914	200.88
490.132	220.88
490.35	205.88
490.568	216.88
490.786	206.88
491.003	227.88
491.221	231.88
491.439	207.88
491.657	202.88
491.874	226.88
492.092	180.88
492.31	219.88
492.527	228.88
492.745	222.88
492.963	233.88
493.18	221.88
493.398	229.88
493.615	225.88
493.833	219.88
494.05	228.88
494.268	227.88
494.485	225.88
494.703	215.88
494.92	233.88
495.138	214.88
495.355	236.88
495.573	231.88
495.79	219.88
496.008	210.88
496.225	237.88
496.442	243.88
496.66	238.88
496.877	217.88
497.094	228.88
497.312	227.88
497.529	235.88
497.746	244.88
497.963	233.88
498.181	257.88
498.398	263.88
498.615	254.88
498.832	298.88
499.049	307.88
499.267	326.88
499.484	360.88
499.701	383.88
499.918	430.88
500.135	466.88
500.352	548.88
500.569	593.88
500.786	550.88
501.003	521.88
501.22	477.88
501.437	418.88
501.654	376.88
501.871	334.88
502.088	322.88
502.305	308.88
502.522	289.88
502.739	291.88
502.956	265.88
503.172	269.88
503.389	254.88
503.606	237.88
503.823	238.88
504.04	244.88
504.256	254.88
504.473	253.88
504.69	263.88
504.907	259.88
505.123	241.88
505.34	227.88
505.557	227.88
505.773	215.88
505.99	222.88
506.207	218.88
506.423	205.88
506.64	203.88
506.856	208.88
507.073	201.88
507.289	195.88
507.506	197.88
507.722	204.88
507.939	198.88
508.155	216.88
508.372	191.88
508.588	199.88
508.805	194.88
509.021	196.88
509.238	207.88
509.454	199.88
509.67	189.88
509.887	205.88
510.103	188.88
510.319	201.88
510.536	201.88
510.752	193.88
510.968	197.88
511.184	188.88
511.401	187.88
511.617	181.88
511.833	187.88
512.049	189.88
512.265	184.88
512.481	185.88
512.698	197.88
512.914	185.88
513.13	186.88
513.346	190.88
513.562	185.88
513.778	203.88
513.994	204.88
514.21	185.88
514.426	197.88
514.642	199.88
514.858	188.88
515.074	188.88
515.29	183.88
515.506	197.88
515.721	197.88
515.937	203.88
516.153	203.88
516.369	214.88
516.585	206.88
516.801	212.88
517.016	213.88
517.232	222.88
517.448	229.88
517.664	257.88
517.879	254.88
518.095	229.88
518.311	244.88
518.527	249.88
518.742	220.88
518.958	222.88
519.173	219.88
519.389	218.88
519.605	210.88
519.82	221.88
520.036	207.88
520.251	190.88
520.467	197.88
520.682	193.88
520.898	203.88
521.113	190.88
521.329	193.88
521.544	202.88
521.76	195.88
521.975	195.88
522.19	195.88
522.406	186.88
522.621	209.88
522.836	167.88
523.052	200.88
523.267	199.88
523.482	179.88
523.698	183.88
523.913	186.88
524.128	181.88
524.343	205.88
524.559	205.88
524.774	174.88
524.989	185.88
525.204	185.88
525.419	199.88
525.634	211.88
525.849	173.88
526.064	190.88
526.28	182.88
526.495	174.88
526.71	187.88
526.925	183.88
527.14	184.88
527.355	188.88
527.57	193.88
527.785	187.88
527.999	184.88
528.214	179.88
528.429	178.88
528.644	192.88
528.859	183.88
529.074	195.88
529.289	194.88
529.503	189.88
529.718	192.88
529.933	178.88
530.148	196.88
530.363	177.88
530.577	179.88
530.792	195.88
531.007	191.88
531.221	195.88
531.436	182.88
531.651	194.88
531.865	181.88
532.08	198.88
532.295	181.88
532.509	179.88
532.724	198.88
532.938	172.88
533.153	198.88
533.367	178.88
533.582	186.88
533.796	183.88
534.011	184.88
534.225	175.88
534.44	181.88
534.654	190.88
534.868	189.88
535.083	189.88
535.297	182.88
535.511	188.88
535.726	193.88
535.94	186.88
536.154	171.88
536.369	168.88
536.583	182.88
536.797	169.88
537.011	177.88
537.225	185.88
537.44	167.88
537.654	191.88
537.868	177.88
538.082	164.88
538.296	174.88
538.51	166.88
538.724	195.88
538.938	165.88
539.153	177.88
539.367	173.88
539.581	173.88
539.795	187.88
540.009	175.88
540.222	162.88
540.436	162.88
540.65	159.88
540.864	172.88
541.078	166.88
541.292	173.88
541.506	162.88
541.72	181.88
541.934	165.88
542.147	187.88
542.361	185.88
542.575	181.88
542.789	183.88
543.002	182.88
543.216	181.88
543.43	183.88
543.644	171.88
543.857	179.88
544.071	175.88
544.285	183.88
544.498	174.88
544.712	181.88
544.925	190.88
545.139	161.88
545.352	181.88
545.566	181.88
545.779	174.88
545.993	175.88
546.206	181.88
546.42	174.88
546.633	168.88
546.847	160.88
547.06	191.88
547.274	172.88
547.487	177.88
547.7	185.88
547.914	170.88
548.127	195.88
548.34	185.88
548.554	194.88
548.767	180.88
548.98	183.88
549.193	190.88
549.407	172.88
549.62	195.88
549.833	168.88
550.046	177.88
550.259	182.88
550.473	161.88
550.686	165.88
550.899	182.88
551.112	181.88
551.325	201.88
551.538	187.88
551.751	186.88
551.964	174.88
552.177	167.88
552.39	167.88
552.603	196.88
552.816	179.88
553.029	172.88
553.242	203.88
553.455	201.88
553.667	190.88
553.88	194.88
554.093	191.88
554.306	189.88
554.519	190.88
554.732	186.88
554.944	183.88
555.157	185.88
555.37	177.88
555.583	171.88
555.795	173.88
556.008	179.88
556.221	165.88
556.433	170.88
556.646	176.88
556.859	162.88
557.071	157.88
557.284	162.88
557.496	181.88
557.709	166.88
557.921	171.88
558.134	159.88
558.346	171.88
558.559	155.88
558.771	161.88
558.984	158.88
559.196	155.88
559.409	164.88
559.621	171.88
559.833	164.88
560.046	162.88
560.258	180.88
560.47	161.88
560.683	151.88
560.895	155.88
561.107	158.88
561.32	181.88
561.532	159.88
561.744	153.88
561.956	177.88
562.168	156.88
562.381	189.88
562.593	163.88
562.805	157.88
563.017	177.88
563.229	170.88
563.441	149.88
563.653	155.88
563.865	166.88
564.077	171.88
564.289	168.88
564.501	157.88
564.713	158.88
564.925	170.88
565.137	151.88
565.349	182.88
565.561	171.88
565.773	183.88
565.985	173.88
566.197	203.88
566.408	195.88
566.62	217.88
566.832	211.88
567.044	205.88
567.255	221.88
567.467	229.88
567.679	238.88
567.891	273.88
568.102	272.88
568.314	261.88
568.526	217.88
568.737	217.88
568.949	202.88
569.161	211.88
569.372	185.88
569.584	181.88
569.795	167.88
570.007	174.88
570.218	170.88
570.43	173.88
570.641	167.88
570.853	159.88
571.064	166.88
571.276	182.88
571.487	174.88
571.698	171.88
571.91	165.88
572.121	161.88
572.333	153.88
572.544	147.88
572.755	147.88
572.966	149.88
573.178	150.88
573.389	152.88
573.6	157.88
573.811	159.88
574.023	155.88
574.234	149.88
574.445	157.88
574.656	156.88
574.867	144.88
575.078	168.88
575.289	148.88
575.501	149.88
575.712	154.88
575.923	141.88
576.134	117.88
576.345	130.88
576.556	142.88
576.767	146.88
576.978	137.88
577.188	151.88
577.399	143.88
577.61	131.88
577.821	140.88
578.032	144.88
578.243	148.88
578.454	152.88
578.665	142.88
578.875	127.88
579.086	152.88
579.297	145.88
579.508	141.88
579.718	129.88
579.929	142.88
580.14	145.88
580.35	145.88
580.561	131.88
580.772	126.88
580.982	134.88
581.193	137.88
581.403	141.88
581.614	146.88
581.825	135.88
582.035	143.88
582.246	132.88
582.456	133.88
582.667	146.88
582.877	137.88
583.087	148.88
583.298	140.88
583.508	133.88
583.719	128.88
583.929	140.88
584.139	146.88
584.35	141.88
584.56	132.88
584.77	141.88
584.981	134.88
585.191	148.88
585.401	153.88
585.611	141.88
585.821	133.88
586.032	125.88
586.242	134.88
586.452	134.88
586.662	133.88
586.872	131.88
587.082	138.88
587.292	143.88
587.502	137.88
587.713	136.88
587.923	137.88
588.133	145.88
588.343	132.88
588.553	133.88
588.762	137.88
588.972	141.88
589.182	147.88
589.392	126.88
589.602	148.88
589.812	130.88
590.022	129.88
590.232	121.88
590.441	139.88
590.651	115.88
590.861	130.88
591.071	135.88
591.281	136.88
591.49	141.88
591.7	144.88
591.91	139.88
592.119	145.88
592.329	149.88
592.539	163.88
592.748	145.88
592.958	159.88
593.167	145.88
593.377	144.88
593.587	155.88
593.796	151.88
594.006	149.88
594.215	157.88
594.424	153.88
594.634	157.88
594.843	148.88
595.053	141.88
595.262	153.88
595.472	154.88
595.681	153.88
595.89	139.88
596.1	149.88
596.309	137.88
596.518	132.88
596.727	141.88
596.937	130.88
597.146	122.88
597.355	143.88
597.564	132.88
597.774	136.88
597.983	141.88
598.192	140.88
598.401	127.88
598.61	125.88
598.819	128.88
599.028	124.88
599.237	129.88
599.446	131.88
599.655	124.88
599.864	128.88
600.073	117.88
600.282	117.88
600.491	128.88
600.7	125.88
600.909	107.88
601.118	116.88
601.327	124.88
601.536	131.88
601.745	120.88
601.953	117.88
602.162	131.88
602.371	126.88
602.58	133.88
602.789	133.88
602.997	127.88
603.206	129.88
603.415	123.88
603.623	121.88
603.832	123.88
604.041	102.88
604.249	123.88
604.458	125.88
604.666	138.88
604.875	122.88
605.084	130.88
605.292	126.88
605.501	123.88
605.709	117.88
605.918	110.88
606.126	124.88
606.334	121.88
606.543	131.88
606.751	125.88
606.96	125.88
607.168	130.88
607.376	129.88
607.585	113.88
607.793	121.88
608.001	132.88
608.21	129.88
608.418	131.88
608.626	122.88
608.834	118.88
609.043	116.88
609.251	116.88
609.459	117.88
609.667	115.88
609.875	127.88
610.083	131.88
610.291	121.88
610.499	141.88
610.707	126.88
610.916	119.88
611.124	129.88
611.332	142.88
611.54	120.88
611.748	108.88
611.955	127.88
612.163	130.88
612.371	131.88
612.579	129.88
612.787	127.88
612.995	113.88
613.203	119.88
613.411	131.88
613.618	125.88
613.826	122.88
614.034	108.88
614.242	131.88
614.449	117.88
614.657	125.88
614.865	118.88
615.072	124.88
615.28	122.88
615.488	131.88
615.695	146.88
615.903	117.88
616.111	117.88
616.318	127.88
616.526	124.88
616.733	137.88
616.941	130.88
617.148	127.88
617.356	128.88
617.563	129.88
617.771	130.88
617.978	126.88
618.185	125.88
618.393	110.88
618.6	109.88
618.807	125.88
619.015	128.88
619.222	122.88
619.429	127.88
619.637	119.88
619.844	121.88
620.051	118.88
620.258	129.88
620.466	107.88
620.673	111.88
620.88	130.88
621.087	129.88
621.294	117.88
621.501	120.88
621.708	123.88
621.915	123.88
622.122	121.88
622.329	120.88
622.536	114.88
622.743	133.88
622.95	109.88
623.157	115.88
623.364	115.88
623.571	115.88
623.778	118.88
623.985	121.88
624.192	104.88
624.399	106.88
624.606	133.88
624.812	113.88
625.019	109.88
625.226	130.88
625.433	123.88
625.639	109.88
625.846	106.88
626.053	123.88
626.259	116.88
626.466	118.88
626.673	110.88
626.879	102.88
627.086	117.88
627.293	122.88
627.499	111.88
627.706	108.88
627.912	98.88
628.119	127.88
628.325	120.88
628.532	119.88
628.738	106.88
628.945	104.88
629.151	115.88
629.357	111.88
629.564	108.88
629.77	123.88
629.976	108.88
630.183	123.88
630.389	103.88
630.595	101.88
630.802	114.88
631.008	133.88
631.214	114.88
631.42	116.88
631.627	113.88
631.833	119.88
632.039	109.88
632.245	119.88
632.451	108.88
632.657	109.88
632.863	103.88
633.069	115.88
633.275	103.88
633.481	98.88
633.688	110.88
633.893	116.88
634.099	113.88
634.305	113.88
634.511	99.88
634.717	106.88
634.923	110.88
635.129	107.88
635.335	93.88
635.541	103.88
635.747	111.88
635.952	107.88
636.158	109.88
636.364	110.88
636.57	114.88
636.775	106.88
636.981	99.88
637.187	99.88
637.392	119.88
637.598	108.88
637.804	122.88
638.009	102.88
638.215	108.88
638.421	118.88
638.626	101.88
638.832	119.88
639.037	91.88
639.243	103.88
639.448	106.88
639.654	94.88
639.859	113.88
640.065	104.88
640.27	103.88
640.475	105.88
640.681	90.88
640.886	95.88
641.091	102.88
641.297	119.88
641.502	96.88
641.707	107.88
641.913	102.88
642.118	116.88
642.323	108.88
642.528	99.88
642.733	114.88
642.939	113.88
643.144	104.88
643.349	113.88
643.554	119.88
643.759	111.88
643.964	108.88
644.169	86.88
644.374	103.88
644.579	99.88
644.784	95.88
644.989	106.88
645.194	94.88
645.399	98.88
645.604	116.88
645.809	112.88
646.014	105.88
646.219	119.88
646.423	113.88
646.628	94.88
646.833	105.88
647.038	103.88
647.243	106.88
647.447	103.88
647.652	107.88
647.857	103.88
648.062	114.88
648.266	101.88
648.471	115.88
648.676	114.88
648.88	107.88
649.085	123.88
649.289	125.88
649.494	107.88
649.698	105.88
649.903	93.88
650.107	97.88
650.312	107.88
650.516	104.88
650.721	101.88
650.925	97.88
651.13	102.88
651.334	110.88
651.539	94.88
651.743	102.88
651.947	94.88
652.152	115.88
652.356	112.88
652.56	108.88
652.764	89.88
652.969	98.88
653.173	102.88
653.377	93.88
653.581	105.88
653.785	98.88
653.99	94.88
654.194	90.88
654.398	103.88
654.602	102.88
654.806	103.88
655.01	101.88
655.214	114.88
655.418	97.88
655.622	101.88
655.826	113.88
656.03	100.88
656.234	105.88
656.438	103.88
656.642	97.88
656.846	100.88
657.049	118.88
657.253	97.88
657.457	87.88
657.661	86.88
657.865	103.88
658.068	96.88
658.272	102.88
658.476	92.88
658.68	96.88
658.883	98.88
659.087	90.88
659.291	91.88
659.494	81.88
659.698	94.88
659.901	99.88
660.105	87.88
660.309	90.88
660.512	84.88
660.716	76.88
660.919	89.88
661.123	95.88
661.326	87.88
661.53	87.88
661.733	92.88
661.936	101.88
662.14	92.88
662.343	87.88
662.546	86.88
662.75	101.88
662.953	94.88
663.156	91.88
663.36	94.88
663.563	95.88
663.766	89.88
663.969	87.88
664.173	98.88
664.376	87.88
664.579	85.88
664.782	80.88
664.985	76.88
665.188	75.88
665.391	88.88
665.594	70.88
665.797	93.88
666	84.88
666.203	83.88
666.406	76.88
666.609	83.88
666.812	83.88
667.015	66.88
667.218	93.88
667.421	92.88
667.624	85.88
667.827	87.88
668.03	87.88
668.232	74.88
668.435	83.88
668.638	75.88
668.841	84.88
669.043	73.88
669.246	79.88
669.449	83.88
669.651	93.88
669.854	82.88
670.057	87.88
670.259	97.88
670.462	70.88
670.665	85.88
670.867	98.88
671.07	90.88
671.272	90.88
671.475	90.88
671.677	77.88
671.88	88.88
672.082	79.88
672.284	85.88
672.487	91.88
672.689	85.88
672.892	85.88
