Data from 0.5MCu(NO3)2.Standard.Lamp.E10.CV._HRD10591_16-03-55-753.txt Node
Date: Mon Jul 22 16:03:55 EDT 2019
User: cochatt
Spectrometer: HR+D1059
Trigger mode: 1
Integration Time (sec): 1.000000E-1
Scans to average: 1
Electric dark correction enabled: true
Nonlinearity correction enabled: false
Boxcar width: 0
XAxis mode: Wavelengths
Number of Pixels in Spectrum: 2048
>>>>>Begin Spectral Data<<<<<
223.165	-10.62
223.4	-10.62
223.635	-10.62
223.869	-20.62
224.104	-31.62
224.338	-10.62
224.573	-16.62
224.808	-20.62
225.042	-3.62
225.277	-10.62
225.511	-12.62
225.746	5.38
225.98	9.38
226.215	13.38
226.449	32.38
226.683	23.38
226.918	32.38
227.152	21.38
227.387	40.38
227.621	39.38
227.856	45.38
228.09	44.38
228.324	35.38
228.559	49.38
228.793	58.38
229.027	67.38
229.262	82.38
229.496	87.38
229.73	81.38
229.964	89.38
230.199	82.38
230.433	80.38
230.667	97.38
230.901	87.38
231.136	90.38
231.37	88.38
231.604	95.38
231.838	86.38
232.072	94.38
232.306	89.38
232.541	96.38
232.775	86.38
233.009	97.38
233.243	91.38
233.477	94.38
233.711	111.38
233.945	98.38
234.179	83.38
234.413	89.38
234.647	82.38
234.881	93.38
235.115	74.38
235.349	91.38
235.583	75.38
235.817	98.38
236.051	90.38
236.285	95.38
236.519	88.38
236.753	92.38
236.987	86.38
237.221	93.38
237.455	84.38
237.689	89.38
237.922	78.38
238.156	86.38
238.39	84.38
238.624	104.38
238.858	105.38
239.091	92.38
239.325	82.38
239.559	85.38
239.793	84.38
240.027	114.38
240.26	86.38
240.494	94.38
240.728	94.38
240.961	86.38
241.195	92.38
241.429	86.38
241.662	98.38
241.896	90.38
242.13	93.38
242.363	98.38
242.597	95.38
242.83	106.38
243.064	84.38
243.298	97.38
243.531	88.38
243.765	91.38
243.998	86.38
244.232	86.38
244.465	101.38
244.699	96.38
244.932	96.38
245.166	92.38
245.399	100.38
245.633	114.38
245.866	93.38
246.099	98.38
246.333	108.38
246.566	107.38
246.8	98.38
247.033	85.38
247.266	112.38
247.5	100.38
247.733	91.38
247.966	118.38
248.2	116.38
248.433	108.38
248.666	95.38
248.899	97.38
249.133	101.38
249.366	106.38
249.599	95.38
249.832	110.38
250.066	105.38
250.299	121.38
250.532	112.38
250.765	98.38
250.998	98.38
251.231	111.38
251.465	98.38
251.698	106.38
251.931	113.38
252.164	112.38
252.397	98.38
252.63	107.38
252.863	120.38
253.096	106.38
253.329	109.38
253.562	115.38
253.795	107.38
254.028	124.38
254.261	99.38
254.494	90.38
254.727	95.38
254.96	103.38
255.193	113.38
255.426	102.38
255.659	111.38
255.892	126.38
256.124	115.38
256.357	115.38
256.59	111.38
256.823	114.38
257.056	115.38
257.289	107.38
257.521	105.38
257.754	122.38
257.987	110.38
258.22	106.38
258.452	118.38
258.685	111.38
258.918	108.38
259.151	101.38
259.383	112.38
259.616	114.38
259.849	115.38
260.081	121.38
260.314	132.38
260.547	115.38
260.779	120.38
261.012	137.38
261.244	124.38
261.477	114.38
261.71	120.38
261.942	129.38
262.175	133.38
262.407	106.38
262.64	121.38
262.872	123.38
263.105	128.38
263.337	119.38
263.57	116.38
263.802	116.38
264.035	124.38
264.267	113.38
264.499	130.38
264.732	110.38
264.964	117.38
265.197	129.38
265.429	125.38
265.661	116.38
265.894	122.38
266.126	116.38
266.358	118.38
266.591	103.38
266.823	124.38
267.055	116.38
267.287	123.38
267.52	116.38
267.752	122.38
267.984	124.38
268.216	130.38
268.448	136.38
268.681	132.38
268.913	139.38
269.145	126.38
269.377	122.38
269.609	112.38
269.841	130.38
270.073	143.38
270.306	146.38
270.538	143.38
270.77	118.38
271.002	132.38
271.234	122.38
271.466	135.38
271.698	139.38
271.93	135.38
272.162	140.38
272.394	139.38
272.626	130.38
272.858	135.38
273.09	145.38
273.322	130.38
273.553	133.38
273.785	134.38
274.017	121.38
274.249	129.38
274.481	150.38
274.713	119.38
274.945	132.38
275.176	131.38
275.408	129.38
275.64	139.38
275.872	135.38
276.104	155.38
276.335	130.38
276.567	126.38
276.799	155.38
277.031	125.38
277.262	144.38
277.494	143.38
277.726	145.38
277.957	150.38
278.189	143.38
278.421	139.38
278.652	150.38
278.884	139.38
279.115	154.38
279.347	129.38
279.579	126.38
279.81	137.38
280.042	137.38
280.273	143.38
280.505	146.38
280.736	151.38
280.968	150.38
281.199	154.38
281.431	120.38
281.662	130.38
281.894	141.38
282.125	139.38
282.356	139.38
282.588	132.38
282.819	156.38
283.051	141.38
283.282	137.38
283.513	160.38
283.745	154.38
283.976	148.38
284.207	161.38
284.439	161.38
284.67	154.38
284.901	155.38
285.132	151.38
285.364	153.38
285.595	155.38
285.826	152.38
286.057	132.38
286.288	164.38
286.52	169.38
286.751	171.38
286.982	159.38
287.213	153.38
287.444	150.38
287.675	176.38
287.906	169.38
288.138	154.38
288.369	170.38
288.6	159.38
288.831	159.38
289.062	155.38
289.293	161.38
289.524	150.38
289.755	172.38
289.986	163.38
290.217	142.38
290.448	173.38
290.679	170.38
290.91	154.38
291.141	160.38
291.371	146.38
291.602	155.38
291.833	167.38
292.064	168.38
292.295	159.38
292.526	179.38
292.757	162.38
292.987	170.38
293.218	154.38
293.449	171.38
293.68	153.38
293.91	172.38
294.141	168.38
294.372	152.38
294.603	163.38
294.833	168.38
295.064	163.38
295.295	179.38
295.525	168.38
295.756	178.38
295.987	182.38
296.217	162.38
296.448	178.38
296.679	185.38
296.909	172.38
297.14	165.38
297.37	174.38
297.601	167.38
297.831	168.38
298.062	171.38
298.292	186.38
298.523	180.38
298.753	176.38
298.984	171.38
299.214	182.38
299.445	161.38
299.675	176.38
299.905	177.38
300.136	150.38
300.366	183.38
300.597	181.38
300.827	190.38
301.057	202.38
301.288	190.38
301.518	167.38
301.748	171.38
301.979	167.38
302.209	174.38
302.439	164.38
302.669	160.38
302.9	179.38
303.13	165.38
303.36	194.38
303.59	168.38
303.82	192.38
304.051	177.38
304.281	162.38
304.511	183.38
304.741	171.38
304.971	193.38
305.201	178.38
305.431	177.38
305.661	165.38
305.891	182.38
306.121	173.38
306.352	183.38
306.582	179.38
306.812	167.38
307.042	193.38
307.272	189.38
307.502	180.38
307.731	171.38
307.961	173.38
308.191	176.38
308.421	173.38
308.651	176.38
308.881	158.38
309.111	187.38
309.341	178.38
309.571	177.38
309.8	171.38
310.03	185.38
310.26	192.38
310.49	178.38
310.72	174.38
310.949	184.38
311.179	174.38
311.409	161.38
311.639	183.38
311.868	190.38
312.098	186.38
312.328	178.38
312.557	182.38
312.787	183.38
313.017	188.38
313.246	171.38
313.476	187.38
313.706	172.38
313.935	174.38
314.165	182.38
314.394	194.38
314.624	181.38
314.853	175.38
315.083	181.38
315.312	187.38
315.542	181.38
315.771	182.38
316.001	175.38
316.23	185.38
316.46	170.38
316.689	170.38
316.919	179.38
317.148	195.38
317.377	184.38
317.607	188.38
317.836	194.38
318.065	188.38
318.295	194.38
318.524	188.38
318.753	189.38
318.983	174.38
319.212	189.38
319.441	185.38
319.67	190.38
319.9	187.38
320.129	174.38
320.358	183.38
320.587	184.38
320.816	178.38
321.046	168.38
321.275	193.38
321.504	174.38
321.733	182.38
321.962	187.38
322.191	191.38
322.42	188.38
322.649	187.38
322.878	204.38
323.108	199.38
323.337	181.38
323.566	199.38
323.795	177.38
324.024	182.38
324.253	183.38
324.482	182.38
324.71	184.38
324.939	179.38
325.168	194.38
325.397	196.38
325.626	176.38
325.855	190.38
326.084	201.38
326.313	194.38
326.542	174.38
326.77	191.38
326.999	198.38
327.228	199.38
327.457	188.38
327.686	208.38
327.914	188.38
328.143	187.38
328.372	198.38
328.6	184.38
328.829	185.38
329.058	181.38
329.287	203.38
329.515	206.38
329.744	186.38
329.972	200.38
330.201	193.38
330.43	193.38
330.658	196.38
330.887	194.38
331.115	201.38
331.344	195.38
331.572	219.38
331.801	196.38
332.03	203.38
332.258	229.38
332.486	215.38
332.715	221.38
332.943	225.38
333.172	219.38
333.4	237.38
333.629	252.38
333.857	246.38
334.085	231.38
334.314	235.38
334.542	249.38
334.771	251.38
334.999	230.38
335.227	213.38
335.455	230.38
335.684	231.38
335.912	213.38
336.14	217.38
336.369	233.38
336.597	218.38
336.825	231.38
337.053	208.38
337.281	234.38
337.51	220.38
337.738	211.38
337.966	220.38
338.194	209.38
338.422	208.38
338.65	190.38
338.878	208.38
339.106	204.38
339.334	214.38
339.562	204.38
339.79	211.38
340.018	201.38
340.246	199.38
340.474	195.38
340.702	203.38
340.93	206.38
341.158	195.38
341.386	206.38
341.614	190.38
341.842	197.38
342.07	185.38
342.298	203.38
342.526	202.38
342.754	192.38
342.981	204.38
343.209	203.38
343.437	207.38
343.665	217.38
343.893	230.38
344.12	240.38
344.348	214.38
344.576	219.38
344.804	213.38
345.031	206.38
345.259	199.38
345.487	187.38
345.714	197.38
345.942	191.38
346.17	210.38
346.397	191.38
346.625	213.38
346.853	195.38
347.08	192.38
347.308	198.38
347.535	207.38
347.763	201.38
347.99	191.38
348.218	204.38
348.445	195.38
348.673	193.38
348.9	197.38
349.128	194.38
349.355	179.38
349.583	183.38
349.81	193.38
350.037	210.38
350.265	200.38
350.492	207.38
350.72	194.38
350.947	194.38
351.174	200.38
351.402	210.38
351.629	182.38
351.856	188.38
352.083	175.38
352.311	184.38
352.538	190.38
352.765	209.38
352.992	186.38
353.22	201.38
353.447	192.38
353.674	195.38
353.901	189.38
354.128	190.38
354.355	182.38
354.583	186.38
354.81	184.38
355.037	203.38
355.264	166.38
355.491	184.38
355.718	195.38
355.945	182.38
356.172	181.38
356.399	198.38
356.626	193.38
356.853	204.38
357.08	175.38
357.307	183.38
357.534	192.38
357.761	197.38
357.988	195.38
358.215	187.38
358.441	189.38
358.668	191.38
358.895	179.38
359.122	183.38
359.349	182.38
359.576	168.38
359.802	186.38
360.029	190.38
360.256	196.38
360.483	194.38
360.709	176.38
360.936	204.38
361.163	197.38
361.39	192.38
361.616	187.38
361.843	188.38
362.07	196.38
362.296	197.38
362.523	201.38
362.749	197.38
362.976	186.38
363.203	209.38
363.429	164.38
363.656	183.38
363.882	170.38
364.109	184.38
364.335	219.38
364.562	190.38
364.788	180.38
365.015	175.38
365.241	201.38
365.468	187.38
365.694	189.38
365.92	184.38
366.147	190.38
366.373	184.38
366.599	193.38
366.826	186.38
367.052	171.38
367.278	195.38
367.505	185.38
367.731	195.38
367.957	199.38
368.184	189.38
368.41	184.38
368.636	200.38
368.862	195.38
369.089	182.38
369.315	190.38
369.541	199.38
369.767	195.38
369.993	200.38
370.219	185.38
370.445	206.38
370.672	202.38
370.898	194.38
371.124	185.38
371.35	213.38
371.576	198.38
371.802	200.38
372.028	197.38
372.254	207.38
372.48	194.38
372.706	196.38
372.932	188.38
373.158	192.38
373.384	187.38
373.61	187.38
373.835	199.38
374.061	207.38
374.287	196.38
374.513	203.38
374.739	193.38
374.965	210.38
375.191	226.38
375.416	204.38
375.642	205.38
375.868	220.38
376.094	206.38
376.319	196.38
376.545	195.38
376.771	203.38
376.997	198.38
377.222	186.38
377.448	189.38
377.674	180.38
377.899	193.38
378.125	194.38
378.35	187.38
378.576	195.38
378.802	192.38
379.027	207.38
379.253	188.38
379.478	209.38
379.704	197.38
379.929	192.38
380.155	199.38
380.38	191.38
380.606	190.38
380.831	183.38
381.057	203.38
381.282	188.38
381.507	192.38
381.733	195.38
381.958	203.38
382.184	195.38
382.409	190.38
382.634	186.38
382.86	205.38
383.085	213.38
383.31	215.38
383.535	220.38
383.761	209.38
383.986	221.38
384.211	213.38
384.436	226.38
384.662	232.38
384.887	228.38
385.112	247.38
385.337	232.38
385.562	224.38
385.787	227.38
386.013	257.38
386.238	226.38
386.463	222.38
386.688	233.38
386.913	218.38
387.138	222.38
387.363	221.38
387.588	231.38
387.813	219.38
388.038	224.38
388.263	227.38
388.488	222.38
388.713	217.38
388.938	204.38
389.163	216.38
389.387	208.38
389.612	212.38
389.837	222.38
390.062	226.38
390.287	219.38
390.512	207.38
390.736	215.38
390.961	238.38
391.186	216.38
391.411	214.38
391.636	244.38
391.86	250.38
392.085	251.38
392.31	240.38
392.534	240.38
392.759	252.38
392.984	237.38
393.208	219.38
393.433	246.38
393.658	252.38
393.882	232.38
394.107	248.38
394.331	246.38
394.556	239.38
394.78	212.38
395.005	229.38
395.229	218.38
395.454	230.38
395.678	228.38
395.903	243.38
396.127	246.38
396.352	228.38
396.576	230.38
396.801	231.38
397.025	234.38
397.249	244.38
397.474	237.38
397.698	243.38
397.922	265.38
398.147	244.38
398.371	254.38
398.595	263.38
398.82	250.38
399.044	275.38
399.268	288.38
399.492	331.38
399.717	374.38
399.941	366.38
400.165	337.38
400.389	284.38
400.613	306.38
400.837	265.38
401.062	281.38
401.286	242.38
401.51	256.38
401.734	259.38
401.958	263.38
402.182	249.38
402.406	268.38
402.63	277.38
402.854	263.38
403.078	281.38
403.302	276.38
403.526	281.38
403.75	287.38
403.974	311.38
404.198	291.38
404.422	302.38
404.645	287.38
404.869	304.38
405.093	299.38
405.317	276.38
405.541	303.38
405.765	284.38
405.988	315.38
406.212	279.38
406.436	268.38
406.66	278.38
406.883	279.38
407.107	299.38
407.331	308.38
407.555	326.38
407.778	335.38
408.002	320.38
408.226	308.38
408.449	320.38
408.673	299.38
408.896	291.38
409.12	283.38
409.344	302.38
409.567	291.38
409.791	288.38
410.014	298.38
410.238	285.38
410.461	308.38
410.685	296.38
410.908	287.38
411.132	282.38
411.355	272.38
411.578	280.38
411.802	279.38
412.025	280.38
412.249	278.38
412.472	279.38
412.695	267.38
412.919	267.38
413.142	256.38
413.365	262.38
413.589	262.38
413.812	256.38
414.035	249.38
414.258	250.38
414.482	251.38
414.705	259.38
414.928	250.38
415.151	247.38
415.374	291.38
415.597	273.38
415.821	264.38
416.044	247.38
416.267	244.38
416.49	252.38
416.713	280.38
416.936	255.38
417.159	270.38
417.382	267.38
417.605	256.38
417.828	274.38
418.051	265.38
418.274	258.38
418.497	258.38
418.72	257.38
418.943	278.38
419.166	270.38
419.389	291.38
419.611	299.38
419.834	284.38
420.057	275.38
420.28	274.38
420.503	258.38
420.726	271.38
420.948	277.38
421.171	263.38
421.394	263.38
421.617	251.38
421.839	263.38
422.062	273.38
422.285	244.38
422.507	276.38
422.73	273.38
422.953	262.38
423.175	278.38
423.398	288.38
423.621	265.38
423.843	298.38
424.066	279.38
424.288	282.38
424.511	283.38
424.733	268.38
424.956	293.38
425.178	264.38
425.401	273.38
425.623	241.38
425.846	251.38
426.068	249.38
426.291	246.38
426.513	253.38
426.735	265.38
426.958	238.38
427.18	234.38
427.402	240.38
427.625	229.38
427.847	239.38
428.069	246.38
428.292	230.38
428.514	242.38
428.736	232.38
428.958	249.38
429.181	240.38
429.403	228.38
429.625	242.38
429.847	211.38
430.069	230.38
430.292	245.38
430.514	241.38
430.736	228.38
430.958	236.38
431.18	226.38
431.402	228.38
431.624	244.38
431.846	234.38
432.068	221.38
432.29	233.38
432.512	238.38
432.734	241.38
432.956	233.38
433.178	240.38
433.4	235.38
433.622	248.38
433.844	228.38
434.066	240.38
434.287	256.38
434.509	271.38
434.731	258.38
434.953	255.38
435.175	255.38
435.397	262.38
435.618	245.38
435.84	247.38
436.062	239.38
436.284	241.38
436.505	249.38
436.727	240.38
436.949	233.38
437.17	232.38
437.392	224.38
437.614	249.38
437.835	218.38
438.057	230.38
438.278	234.38
438.5	242.38
438.721	225.38
438.943	231.38
439.165	236.38
439.386	225.38
439.608	245.38
439.829	230.38
440.05	234.38
440.272	229.38
440.493	236.38
440.715	244.38
440.936	244.38
441.158	248.38
441.379	255.38
441.6	260.38
441.822	272.38
442.043	282.38
442.264	278.38
442.486	263.38
442.707	257.38
442.928	261.38
443.149	251.38
443.371	262.38
443.592	262.38
443.813	260.38
444.034	260.38
444.255	283.38
444.476	278.38
444.698	302.38
444.919	322.38
445.14	438.38
445.361	325.38
445.582	286.38
445.803	273.38
446.024	261.38
446.245	254.38
446.466	250.38
446.687	237.38
446.908	247.38
447.129	240.38
447.35	229.38
447.571	235.38
447.792	222.38
448.013	215.38
448.234	215.38
448.455	226.38
448.675	235.38
448.896	209.38
449.117	215.38
449.338	238.38
449.559	224.38
449.779	230.38
450	227.38
450.221	216.38
450.442	217.38
450.662	208.38
450.883	231.38
451.104	241.38
451.324	243.38
451.545	239.38
451.766	232.38
451.986	237.38
452.207	230.38
452.428	221.38
452.648	223.38
452.869	225.38
453.089	231.38
453.31	227.38
453.53	217.38
453.751	218.38
453.971	231.38
454.192	202.38
454.412	224.38
454.633	204.38
454.853	223.38
455.073	216.38
455.294	217.38
455.514	204.38
455.734	214.38
455.955	190.38
456.175	207.38
456.395	242.38
456.616	225.38
456.836	223.38
457.056	205.38
457.276	213.38
457.497	207.38
457.717	213.38
457.937	194.38
458.157	220.38
458.377	209.38
458.598	211.38
458.818	211.38
459.038	239.38
459.258	224.38
459.478	243.38
459.698	260.38
459.918	235.38
460.138	244.38
460.358	277.38
460.578	264.38
460.798	279.38
461.018	282.38
461.238	275.38
461.458	276.38
461.678	275.38
461.898	273.38
462.118	281.38
462.338	295.38
462.558	302.38
462.777	297.38
462.997	321.38
463.217	346.38
463.437	363.38
463.657	304.38
463.876	306.38
464.096	328.38
464.316	298.38
464.536	321.38
464.755	307.38
464.975	307.38
465.195	282.38
465.414	295.38
465.634	258.38
465.854	246.38
466.073	245.38
466.293	264.38
466.512	240.38
466.732	225.38
466.951	230.38
467.171	222.38
467.391	273.38
467.61	229.38
467.829	214.38
468.049	221.38
468.268	240.38
468.488	224.38
468.707	209.38
468.927	222.38
469.146	218.38
469.365	240.38
469.585	227.38
469.804	232.38
470.023	227.38
470.243	259.38
470.462	262.38
470.681	249.38
470.901	265.38
471.12	242.38
471.339	244.38
471.558	230.38
471.777	234.38
471.997	210.38
472.216	219.38
472.435	220.38
472.654	227.38
472.873	224.38
473.092	223.38
473.311	212.38
473.53	212.38
473.749	216.38
473.968	214.38
474.187	233.38
474.406	212.38
474.625	232.38
474.844	227.38
475.063	239.38
475.282	225.38
475.501	209.38
475.72	213.38
475.939	230.38
476.158	239.38
476.377	252.38
476.596	215.38
476.814	230.38
477.033	244.38
477.252	243.38
477.471	231.38
477.69	244.38
477.908	242.38
478.127	270.38
478.346	258.38
478.564	260.38
478.783	274.38
479.002	292.38
479.22	280.38
479.439	264.38
479.658	281.38
479.876	255.38
480.095	274.38
480.313	289.38
480.532	290.38
480.751	285.38
480.969	288.38
481.188	276.38
481.406	264.38
481.624	260.38
481.843	262.38
482.061	274.38
482.28	263.38
482.498	266.38
482.717	270.38
482.935	256.38
483.153	256.38
483.372	265.38
483.59	245.38
483.808	274.38
484.027	258.38
484.245	256.38
484.463	255.38
484.681	280.38
484.9	257.38
485.118	258.38
485.336	283.38
485.554	271.38
485.772	270.38
485.99	268.38
486.209	268.38
486.427	294.38
486.645	272.38
486.863	257.38
487.081	262.38
487.299	272.38
487.517	268.38
487.735	267.38
487.953	268.38
488.171	284.38
488.389	261.38
488.607	266.38
488.825	263.38
489.043	277.38
489.261	255.38
489.479	270.38
489.696	249.38
489.914	256.38
490.132	263.38
490.35	277.38
490.568	257.38
490.786	287.38
491.003	269.38
491.221	275.38
491.439	272.38
491.657	262.38
491.874	283.38
492.092	266.38
492.31	259.38
492.527	270.38
492.745	273.38
492.963	274.38
493.18	274.38
493.398	269.38
493.615	275.38
493.833	278.38
494.05	294.38
494.268	283.38
494.485	266.38
494.703	287.38
494.92	288.38
495.138	282.38
495.355	291.38
495.573	287.38
495.79	292.38
496.008	288.38
496.225	280.38
496.442	294.38
496.66	278.38
496.877	308.38
497.094	293.38
497.312	286.38
497.529	313.38
497.746	332.38
497.963	319.38
498.181	322.38
498.398	328.38
498.615	370.38
498.832	369.38
499.049	386.38
499.267	425.38
499.484	463.38
499.701	524.38
499.918	572.38
500.135	635.38
500.352	724.38
500.569	791.38
500.786	759.38
501.003	701.38
501.22	615.38
501.437	548.38
501.654	480.38
501.871	445.38
502.088	427.38
502.305	384.38
502.522	358.38
502.739	359.38
502.956	359.38
503.172	340.38
503.389	320.38
503.606	314.38
503.823	325.38
504.04	318.38
504.256	314.38
504.473	326.38
504.69	325.38
504.907	337.38
505.123	291.38
505.34	292.38
505.557	291.38
505.773	268.38
505.99	268.38
506.207	260.38
506.423	266.38
506.64	276.38
506.856	249.38
507.073	254.38
507.289	265.38
507.506	266.38
507.722	256.38
507.939	258.38
508.155	249.38
508.372	248.38
508.588	242.38
508.805	248.38
509.021	244.38
509.238	254.38
509.454	232.38
509.67	232.38
509.887	241.38
510.103	268.38
510.319	217.38
510.536	247.38
510.752	246.38
510.968	239.38
511.184	226.38
511.401	254.38
511.617	232.38
511.833	252.38
512.049	233.38
512.265	258.38
512.481	225.38
512.698	230.38
512.914	248.38
513.13	258.38
513.346	242.38
513.562	246.38
513.778	254.38
513.994	248.38
514.21	240.38
514.426	260.38
514.642	244.38
514.858	220.38
515.074	241.38
515.29	254.38
515.506	242.38
515.721	266.38
515.937	258.38
516.153	271.38
516.369	268.38
516.585	256.38
516.801	267.38
517.016	298.38
517.232	295.38
517.448	337.38
517.664	339.38
517.879	340.38
518.095	346.38
518.311	321.38
518.527	306.38
518.742	299.38
518.958	275.38
519.173	281.38
519.389	263.38
519.605	255.38
519.82	246.38
520.036	253.38
520.251	260.38
520.467	257.38
520.682	236.38
520.898	239.38
521.113	247.38
521.329	245.38
521.544	235.38
521.76	238.38
521.975	218.38
522.19	230.38
522.406	234.38
522.621	240.38
522.836	240.38
523.052	254.38
523.267	244.38
523.482	235.38
523.698	233.38
523.913	227.38
524.128	239.38
524.343	234.38
524.559	228.38
524.774	210.38
524.989	238.38
525.204	235.38
525.419	240.38
525.634	218.38
525.849	215.38
526.064	224.38
526.28	220.38
526.495	222.38
526.71	227.38
526.925	222.38
527.14	227.38
527.355	228.38
527.57	219.38
527.785	226.38
527.999	204.38
528.214	210.38
528.429	245.38
528.644	231.38
528.859	225.38
529.074	235.38
529.289	235.38
529.503	227.38
529.718	230.38
529.933	227.38
530.148	234.38
530.363	232.38
530.577	225.38
530.792	237.38
531.007	210.38
531.221	230.38
531.436	222.38
531.651	252.38
531.865	240.38
532.08	236.38
532.295	232.38
532.509	234.38
532.724	231.38
532.938	240.38
533.153	226.38
533.367	226.38
533.582	242.38
533.796	233.38
534.011	235.38
534.225	237.38
534.44	222.38
534.654	208.38
534.868	231.38
535.083	221.38
535.297	217.38
535.511	228.38
535.726	222.38
535.94	223.38
536.154	225.38
536.369	214.38
536.583	213.38
536.797	217.38
537.011	207.38
537.225	206.38
537.44	209.38
537.654	199.38
537.868	214.38
538.082	219.38
538.296	215.38
538.51	226.38
538.724	210.38
538.938	218.38
539.153	203.38
539.367	203.38
539.581	225.38
539.795	192.38
540.009	212.38
540.222	218.38
540.436	219.38
540.65	215.38
540.864	220.38
541.078	206.38
541.292	223.38
541.506	223.38
541.72	212.38
541.934	204.38
542.147	217.38
542.361	215.38
542.575	206.38
542.789	209.38
543.002	214.38
543.216	201.38
543.43	214.38
543.644	210.38
543.857	220.38
544.071	208.38
544.285	230.38
544.498	214.38
544.712	209.38
544.925	223.38
545.139	210.38
545.352	218.38
545.566	227.38
545.779	216.38
545.993	220.38
546.206	220.38
546.42	218.38
546.633	213.38
546.847	231.38
547.06	209.38
547.274	222.38
547.487	219.38
547.7	211.38
547.914	207.38
548.127	221.38
548.34	233.38
548.554	235.38
548.767	249.38
548.98	221.38
549.193	215.38
549.407	220.38
549.62	239.38
549.833	217.38
550.046	233.38
550.259	208.38
550.473	226.38
550.686	218.38
550.899	225.38
551.112	220.38
551.325	197.38
551.538	213.38
551.751	211.38
551.964	225.38
552.177	222.38
552.39	243.38
552.603	230.38
552.816	219.38
553.029	244.38
553.242	231.38
553.455	229.38
553.667	259.38
553.88	249.38
554.093	207.38
554.306	223.38
554.519	233.38
554.732	218.38
554.944	212.38
555.157	209.38
555.37	232.38
555.583	222.38
555.795	202.38
556.008	203.38
556.221	206.38
556.433	202.38
556.646	196.38
556.859	204.38
557.071	200.38
557.284	192.38
557.496	198.38
557.709	192.38
557.921	198.38
558.134	185.38
558.346	187.38
558.559	182.38
558.771	192.38
558.984	203.38
559.196	190.38
559.409	210.38
559.621	193.38
559.833	196.38
560.046	187.38
560.258	196.38
560.47	190.38
560.683	179.38
560.895	182.38
561.107	203.38
561.32	183.38
561.532	215.38
561.744	200.38
561.956	208.38
562.168	182.38
562.381	181.38
562.593	202.38
562.805	201.38
563.017	213.38
563.229	208.38
563.441	201.38
563.653	194.38
563.865	191.38
564.077	197.38
564.289	196.38
564.501	194.38
564.713	202.38
564.925	206.38
565.137	198.38
565.349	219.38
565.561	201.38
565.773	217.38
565.985	239.38
566.197	245.38
566.408	250.38
566.62	267.38
566.832	285.38
567.044	294.38
567.255	307.38
567.467	313.38
567.679	296.38
567.891	338.38
568.102	343.38
568.314	333.38
568.526	287.38
568.737	283.38
568.949	267.38
569.161	229.38
569.372	206.38
569.584	204.38
569.795	193.38
570.007	204.38
570.218	214.38
570.43	195.38
570.641	178.38
570.853	196.38
571.064	220.38
571.276	214.38
571.487	194.38
571.698	195.38
571.91	188.38
572.121	182.38
572.333	180.38
572.544	190.38
572.755	179.38
572.966	182.38
573.178	182.38
573.389	177.38
573.6	181.38
573.811	187.38
574.023	159.38
574.234	169.38
574.445	181.38
574.656	183.38
574.867	174.38
575.078	174.38
575.289	187.38
575.501	170.38
575.712	171.38
575.923	176.38
576.134	178.38
576.345	176.38
576.556	175.38
576.767	172.38
576.978	178.38
577.188	174.38
577.399	166.38
577.61	167.38
577.821	175.38
578.032	168.38
578.243	170.38
578.454	183.38
578.665	154.38
578.875	146.38
579.086	141.38
579.297	161.38
579.508	171.38
579.718	166.38
579.929	174.38
580.14	156.38
580.35	155.38
580.561	154.38
580.772	155.38
580.982	167.38
581.193	158.38
581.403	171.38
581.614	154.38
581.825	156.38
582.035	162.38
582.246	151.38
582.456	160.38
582.667	167.38
582.877	158.38
583.087	163.38
583.298	151.38
583.508	161.38
583.719	169.38
583.929	159.38
584.139	169.38
584.35	159.38
584.56	166.38
584.77	162.38
584.981	149.38
585.191	164.38
585.401	140.38
585.611	159.38
585.821	162.38
586.032	179.38
586.242	137.38
586.452	148.38
586.662	139.38
586.872	159.38
587.082	163.38
587.292	166.38
587.502	160.38
587.713	156.38
587.923	164.38
588.133	144.38
588.343	133.38
588.553	163.38
588.762	151.38
588.972	162.38
589.182	150.38
589.392	147.38
589.602	174.38
589.812	158.38
590.022	166.38
590.232	158.38
590.441	145.38
590.651	152.38
590.861	174.38
591.071	159.38
591.281	161.38
591.49	166.38
591.7	164.38
591.91	172.38
592.119	153.38
592.329	172.38
592.539	184.38
592.748	182.38
592.958	192.38
593.167	177.38
593.377	190.38
593.587	195.38
593.796	166.38
594.006	198.38
594.215	178.38
594.424	175.38
594.634	185.38
594.843	177.38
595.053	170.38
595.262	178.38
595.472	164.38
595.681	152.38
595.89	155.38
596.1	159.38
596.309	156.38
596.518	166.38
596.727	142.38
596.937	146.38
597.146	160.38
597.355	152.38
597.564	153.38
597.774	143.38
597.983	138.38
598.192	155.38
598.401	128.38
598.61	136.38
598.819	141.38
599.028	149.38
599.237	139.38
599.446	139.38
599.655	155.38
599.864	136.38
600.073	137.38
600.282	144.38
600.491	152.38
600.7	146.38
600.909	158.38
601.118	148.38
601.327	144.38
601.536	148.38
601.745	145.38
601.953	163.38
602.162	141.38
602.371	153.38
602.58	135.38
602.789	146.38
602.997	140.38
603.206	140.38
603.415	143.38
603.623	154.38
603.832	146.38
604.041	134.38
604.249	140.38
604.458	147.38
604.666	130.38
604.875	149.38
605.084	152.38
605.292	144.38
605.501	128.38
605.709	138.38
605.918	137.38
606.126	149.38
606.334	128.38
606.543	128.38
606.751	154.38
606.96	129.38
607.168	128.38
607.376	122.38
607.585	150.38
607.793	139.38
608.001	136.38
608.21	142.38
608.418	140.38
608.626	140.38
608.834	132.38
609.043	138.38
609.251	135.38
609.459	136.38
609.667	131.38
609.875	138.38
610.083	132.38
610.291	138.38
610.499	124.38
610.707	124.38
610.916	138.38
611.124	132.38
611.332	126.38
611.54	134.38
611.748	139.38
611.955	130.38
612.163	136.38
612.371	137.38
612.579	137.38
612.787	130.38
612.995	138.38
613.203	143.38
613.411	142.38
613.618	136.38
613.826	134.38
614.034	149.38
614.242	122.38
614.449	128.38
614.657	141.38
614.865	128.38
615.072	132.38
615.28	144.38
615.488	146.38
615.695	136.38
615.903	136.38
616.111	130.38
616.318	151.38
616.526	144.38
616.733	136.38
616.941	138.38
617.148	147.38
617.356	133.38
617.563	144.38
617.771	133.38
617.978	136.38
618.185	120.38
618.393	131.38
618.6	128.38
618.807	151.38
619.015	150.38
619.222	144.38
619.429	148.38
619.637	136.38
619.844	133.38
620.051	123.38
620.258	124.38
620.466	136.38
620.673	126.38
620.88	121.38
621.087	134.38
621.294	137.38
621.501	126.38
621.708	123.38
621.915	132.38
622.122	129.38
622.329	136.38
622.536	131.38
622.743	133.38
622.95	139.38
623.157	118.38
623.364	121.38
623.571	135.38
623.778	122.38
623.985	132.38
624.192	131.38
624.399	139.38
624.606	136.38
624.812	120.38
625.019	116.38
625.226	106.38
625.433	148.38
625.639	131.38
625.846	130.38
626.053	134.38
626.259	126.38
626.466	125.38
626.673	112.38
626.879	118.38
627.086	130.38
627.293	116.38
627.499	118.38
627.706	126.38
627.912	121.38
628.119	118.38
628.325	131.38
628.532	126.38
628.738	123.38
628.945	125.38
629.151	132.38
629.357	122.38
629.564	130.38
629.77	129.38
629.976	128.38
630.183	121.38
630.389	124.38
630.595	119.38
630.802	124.38
631.008	116.38
631.214	131.38
631.42	126.38
631.627	132.38
631.833	133.38
632.039	126.38
632.245	135.38
632.451	126.38
632.657	107.38
632.863	124.38
633.069	114.38
633.275	119.38
633.481	126.38
633.688	127.38
633.893	118.38
634.099	120.38
634.305	130.38
634.511	120.38
634.717	124.38
634.923	113.38
635.129	107.38
635.335	114.38
635.541	114.38
635.747	115.38
635.952	118.38
636.158	111.38
636.364	127.38
636.57	114.38
636.775	109.38
636.981	116.38
637.187	110.38
637.392	110.38
637.598	129.38
637.804	132.38
638.009	114.38
638.215	113.38
638.421	106.38
638.626	117.38
638.832	122.38
639.037	119.38
639.243	114.38
639.448	126.38
639.654	118.38
639.859	119.38
640.065	113.38
640.27	122.38
640.475	115.38
640.681	123.38
640.886	126.38
641.091	123.38
641.297	108.38
641.502	113.38
641.707	118.38
641.913	121.38
642.118	101.38
642.323	107.38
642.528	117.38
642.733	108.38
642.939	106.38
643.144	116.38
643.349	122.38
643.554	112.38
643.759	98.38
643.964	104.38
644.169	121.38
644.374	100.38
644.579	116.38
644.784	128.38
644.989	116.38
645.194	107.38
645.399	103.38
645.604	88.38
645.809	97.38
646.014	114.38
646.219	121.38
646.423	128.38
646.628	123.38
646.833	95.38
647.038	124.38
647.243	121.38
647.447	111.38
647.652	118.38
647.857	122.38
648.062	110.38
648.266	118.38
648.471	113.38
648.676	107.38
648.88	129.38
649.085	122.38
649.289	115.38
649.494	111.38
649.698	121.38
649.903	114.38
650.107	115.38
650.312	122.38
650.516	101.38
650.721	116.38
650.925	93.38
651.13	110.38
651.334	116.38
651.539	110.38
651.743	104.38
651.947	99.38
652.152	109.38
652.356	111.38
652.56	100.38
652.764	93.38
652.969	93.38
653.173	96.38
653.377	97.38
653.581	99.38
653.785	109.38
653.99	102.38
654.194	102.38
654.398	104.38
654.602	99.38
654.806	95.38
655.01	119.38
655.214	98.38
655.418	104.38
655.622	104.38
655.826	101.38
656.03	99.38
656.234	102.38
656.438	112.38
656.642	107.38
656.846	105.38
657.049	108.38
657.253	119.38
657.457	99.38
657.661	99.38
657.865	88.38
658.068	88.38
658.272	97.38
658.476	98.38
658.68	88.38
658.883	100.38
659.087	80.38
659.291	83.38
659.494	98.38
659.698	84.38
659.901	85.38
660.105	77.38
660.309	87.38
660.512	91.38
660.716	80.38
660.919	95.38
661.123	89.38
661.326	97.38
661.53	76.38
661.733	100.38
661.936	95.38
662.14	77.38
662.343	80.38
662.546	79.38
662.75	83.38
662.953	94.38
663.156	79.38
663.36	82.38
663.563	91.38
663.766	76.38
663.969	74.38
664.173	77.38
664.376	66.38
664.579	90.38
664.782	78.38
664.985	84.38
665.188	73.38
665.391	68.38
665.594	73.38
665.797	71.38
666	86.38
666.203	77.38
666.406	82.38
666.609	81.38
666.812	88.38
667.015	81.38
667.218	68.38
667.421	75.38
667.624	75.38
667.827	82.38
668.03	85.38
668.232	75.38
668.435	76.38
668.638	76.38
668.841	82.38
669.043	71.38
669.246	63.38
669.449	80.38
669.651	83.38
669.854	74.38
670.057	84.38
670.259	78.38
670.462	86.38
670.665	94.38
670.867	81.38
671.07	79.38
671.272	66.38
671.475	80.38
671.677	88.38
671.88	76.38
672.082	81.38
672.284	90.38
672.487	79.38
672.689	75.38
672.892	84.38
