Data from 0.5MCu(NO3)2.Standard.Lamp.E10.CV._HRD10591_16-04-10-753.txt Node
Date: Mon Jul 22 16:04:10 EDT 2019
User: cochatt
Spectrometer: HR+D1059
Trigger mode: 1
Integration Time (sec): 1.000000E-1
Scans to average: 1
Electric dark correction enabled: true
Nonlinearity correction enabled: false
Boxcar width: 0
XAxis mode: Wavelengths
Number of Pixels in Spectrum: 2048
>>>>>Begin Spectral Data<<<<<
223.165	-25.94
223.4	-25.94
223.635	-25.94
223.869	-10.94
224.104	-28.94
224.338	-16.94
224.573	-2.94
224.808	-8.94
225.042	-15.94
225.277	-4.94
225.511	7.06
225.746	7.06
225.98	2.06
226.215	1.06
226.449	9.06
226.683	24.06
226.918	37.06
227.152	28.06
227.387	41.06
227.621	28.06
227.856	29.06
228.09	45.06
228.324	42.06
228.559	69.06
228.793	58.06
229.027	53.06
229.262	59.06
229.496	85.06
229.73	74.06
229.964	73.06
230.199	81.06
230.433	79.06
230.667	73.06
230.901	87.06
231.136	79.06
231.37	75.06
231.604	92.06
231.838	99.06
232.072	80.06
232.306	88.06
232.541	83.06
232.775	97.06
233.009	77.06
233.243	86.06
233.477	82.06
233.711	90.06
233.945	89.06
234.179	86.06
234.413	95.06
234.647	84.06
234.881	86.06
235.115	83.06
235.349	90.06
235.583	73.06
235.817	83.06
236.051	91.06
236.285	84.06
236.519	92.06
236.753	89.06
236.987	96.06
237.221	74.06
237.455	82.06
237.689	74.06
237.922	80.06
238.156	97.06
238.39	95.06
238.624	83.06
238.858	90.06
239.091	81.06
239.325	73.06
239.559	91.06
239.793	67.06
240.027	85.06
240.26	82.06
240.494	98.06
240.728	88.06
240.961	79.06
241.195	81.06
241.429	85.06
241.662	92.06
241.896	91.06
242.13	90.06
242.363	86.06
242.597	92.06
242.83	97.06
243.064	81.06
243.298	92.06
243.531	106.06
243.765	91.06
243.998	104.06
244.232	91.06
244.465	92.06
244.699	103.06
244.932	99.06
245.166	100.06
245.399	97.06
245.633	99.06
245.866	93.06
246.099	95.06
246.333	106.06
246.566	100.06
246.8	113.06
247.033	105.06
247.266	90.06
247.5	101.06
247.733	99.06
247.966	113.06
248.2	89.06
248.433	100.06
248.666	114.06
248.899	104.06
249.133	105.06
249.366	92.06
249.599	102.06
249.832	97.06
250.066	123.06
250.299	106.06
250.532	105.06
250.765	99.06
250.998	102.06
251.231	92.06
251.465	103.06
251.698	90.06
251.931	97.06
252.164	111.06
252.397	101.06
252.63	111.06
252.863	99.06
253.096	118.06
253.329	108.06
253.562	117.06
253.795	113.06
254.028	94.06
254.261	111.06
254.494	102.06
254.727	115.06
254.96	113.06
255.193	113.06
255.426	104.06
255.659	115.06
255.892	110.06
256.124	123.06
256.357	94.06
256.59	111.06
256.823	106.06
257.056	104.06
257.289	110.06
257.521	119.06
257.754	116.06
257.987	120.06
258.22	114.06
258.452	117.06
258.685	112.06
258.918	111.06
259.151	117.06
259.383	109.06
259.616	119.06
259.849	117.06
260.081	107.06
260.314	103.06
260.547	100.06
260.779	116.06
261.012	127.06
261.244	121.06
261.477	111.06
261.71	105.06
261.942	121.06
262.175	101.06
262.407	111.06
262.64	122.06
262.872	122.06
263.105	112.06
263.337	121.06
263.57	129.06
263.802	116.06
264.035	126.06
264.267	122.06
264.499	98.06
264.732	117.06
264.964	121.06
265.197	138.06
265.429	127.06
265.661	132.06
265.894	113.06
266.126	116.06
266.358	123.06
266.591	120.06
266.823	129.06
267.055	129.06
267.287	121.06
267.52	131.06
267.752	128.06
267.984	121.06
268.216	126.06
268.448	132.06
268.681	125.06
268.913	116.06
269.145	116.06
269.377	129.06
269.609	151.06
269.841	119.06
270.073	129.06
270.306	111.06
270.538	120.06
270.77	119.06
271.002	135.06
271.234	131.06
271.466	121.06
271.698	124.06
271.93	128.06
272.162	131.06
272.394	125.06
272.626	124.06
272.858	136.06
273.09	124.06
273.322	149.06
273.553	132.06
273.785	131.06
274.017	146.06
274.249	126.06
274.481	127.06
274.713	133.06
274.945	137.06
275.176	122.06
275.408	135.06
275.64	134.06
275.872	125.06
276.104	141.06
276.335	136.06
276.567	149.06
276.799	152.06
277.031	129.06
277.262	151.06
277.494	123.06
277.726	136.06
277.957	147.06
278.189	137.06
278.421	143.06
278.652	135.06
278.884	135.06
279.115	139.06
279.347	147.06
279.579	147.06
279.81	134.06
280.042	141.06
280.273	131.06
280.505	141.06
280.736	155.06
280.968	125.06
281.199	146.06
281.431	140.06
281.662	147.06
281.894	139.06
282.125	134.06
282.356	144.06
282.588	133.06
282.819	130.06
283.051	145.06
283.282	154.06
283.513	147.06
283.745	152.06
283.976	143.06
284.207	139.06
284.439	161.06
284.67	153.06
284.901	150.06
285.132	146.06
285.364	141.06
285.595	149.06
285.826	159.06
286.057	161.06
286.288	149.06
286.52	150.06
286.751	162.06
286.982	151.06
287.213	149.06
287.444	141.06
287.675	154.06
287.906	158.06
288.138	168.06
288.369	169.06
288.6	161.06
288.831	163.06
289.062	155.06
289.293	154.06
289.524	148.06
289.755	156.06
289.986	160.06
290.217	159.06
290.448	149.06
290.679	163.06
290.91	155.06
291.141	145.06
291.371	155.06
291.602	163.06
291.833	148.06
292.064	163.06
292.295	167.06
292.526	155.06
292.757	156.06
292.987	155.06
293.218	167.06
293.449	177.06
293.68	156.06
293.91	149.06
294.141	154.06
294.372	179.06
294.603	165.06
294.833	172.06
295.064	163.06
295.295	176.06
295.525	174.06
295.756	170.06
295.987	139.06
296.217	168.06
296.448	170.06
296.679	164.06
296.909	160.06
297.14	160.06
297.37	167.06
297.601	157.06
297.831	158.06
298.062	165.06
298.292	172.06
298.523	175.06
298.753	159.06
298.984	160.06
299.214	175.06
299.445	164.06
299.675	171.06
299.905	172.06
300.136	175.06
300.366	187.06
300.597	170.06
300.827	181.06
301.057	181.06
301.288	185.06
301.518	166.06
301.748	159.06
301.979	170.06
302.209	180.06
302.439	183.06
302.669	172.06
302.9	161.06
303.13	191.06
303.36	174.06
303.59	149.06
303.82	173.06
304.051	155.06
304.281	162.06
304.511	180.06
304.741	159.06
304.971	168.06
305.201	180.06
305.431	167.06
305.661	180.06
305.891	169.06
306.121	168.06
306.352	175.06
306.582	167.06
306.812	170.06
307.042	168.06
307.272	178.06
307.502	187.06
307.731	163.06
307.961	171.06
308.191	162.06
308.421	183.06
308.651	171.06
308.881	187.06
309.111	169.06
309.341	157.06
309.571	168.06
309.8	150.06
310.03	162.06
310.26	180.06
310.49	176.06
310.72	172.06
310.949	173.06
311.179	178.06
311.409	170.06
311.639	178.06
311.868	171.06
312.098	183.06
312.328	171.06
312.557	183.06
312.787	191.06
313.017	173.06
313.246	178.06
313.476	171.06
313.706	176.06
313.935	172.06
314.165	189.06
314.394	196.06
314.624	184.06
314.853	176.06
315.083	178.06
315.312	177.06
315.542	181.06
315.771	199.06
316.001	179.06
316.23	179.06
316.46	165.06
316.689	176.06
316.919	171.06
317.148	199.06
317.377	190.06
317.607	191.06
317.836	173.06
318.065	178.06
318.295	163.06
318.524	180.06
318.753	173.06
318.983	175.06
319.212	157.06
319.441	188.06
319.67	186.06
319.9	204.06
320.129	190.06
320.358	178.06
320.587	183.06
320.816	171.06
321.046	187.06
321.275	188.06
321.504	171.06
321.733	172.06
321.962	178.06
322.191	196.06
322.42	183.06
322.649	175.06
322.878	188.06
323.108	160.06
323.337	179.06
323.566	178.06
323.795	173.06
324.024	178.06
324.253	183.06
324.482	169.06
324.71	185.06
324.939	195.06
325.168	194.06
325.397	192.06
325.626	201.06
325.855	180.06
326.084	190.06
326.313	193.06
326.542	207.06
326.77	188.06
326.999	204.06
327.228	183.06
327.457	187.06
327.686	201.06
327.914	194.06
328.143	179.06
328.372	183.06
328.6	180.06
328.829	196.06
329.058	194.06
329.287	187.06
329.515	191.06
329.744	195.06
329.972	178.06
330.201	199.06
330.43	183.06
330.658	185.06
330.887	182.06
331.115	172.06
331.344	213.06
331.572	199.06
331.801	195.06
332.03	192.06
332.258	198.06
332.486	202.06
332.715	206.06
332.943	217.06
333.172	233.06
333.4	230.06
333.629	247.06
333.857	244.06
334.085	222.06
334.314	233.06
334.542	230.06
334.771	229.06
334.999	221.06
335.227	243.06
335.455	222.06
335.684	201.06
335.912	230.06
336.14	227.06
336.369	207.06
336.597	201.06
336.825	209.06
337.053	219.06
337.281	216.06
337.51	216.06
337.738	212.06
337.966	213.06
338.194	205.06
338.422	195.06
338.65	191.06
338.878	206.06
339.106	191.06
339.334	197.06
339.562	193.06
339.79	198.06
340.018	193.06
340.246	183.06
340.474	210.06
340.702	194.06
340.93	210.06
341.158	194.06
341.386	204.06
341.614	202.06
341.842	186.06
342.07	183.06
342.298	206.06
342.526	179.06
342.754	195.06
342.981	202.06
343.209	197.06
343.437	210.06
343.665	221.06
343.893	222.06
344.12	218.06
344.348	213.06
344.576	202.06
344.804	203.06
345.031	206.06
345.259	196.06
345.487	205.06
345.714	189.06
345.942	196.06
346.17	186.06
346.397	188.06
346.625	203.06
346.853	195.06
347.08	187.06
347.308	187.06
347.535	195.06
347.763	197.06
347.99	185.06
348.218	191.06
348.445	200.06
348.673	198.06
348.9	195.06
349.128	184.06
349.355	191.06
349.583	190.06
349.81	195.06
350.037	178.06
350.265	195.06
350.492	196.06
350.72	175.06
350.947	187.06
351.174	186.06
351.402	176.06
351.629	188.06
351.856	194.06
352.083	175.06
352.311	194.06
352.538	190.06
352.765	193.06
352.992	172.06
353.22	205.06
353.447	179.06
353.674	211.06
353.901	179.06
354.128	197.06
354.355	169.06
354.583	173.06
354.81	178.06
355.037	195.06
355.264	185.06
355.491	180.06
355.718	186.06
355.945	191.06
356.172	169.06
356.399	187.06
356.626	176.06
356.853	179.06
357.08	202.06
357.307	188.06
357.534	182.06
357.761	196.06
357.988	191.06
358.215	190.06
358.441	182.06
358.668	191.06
358.895	177.06
359.122	196.06
359.349	194.06
359.576	175.06
359.802	168.06
360.029	189.06
360.256	166.06
360.483	178.06
360.709	197.06
360.936	178.06
361.163	181.06
361.39	161.06
361.616	165.06
361.843	184.06
362.07	192.06
362.296	183.06
362.523	181.06
362.749	195.06
362.976	197.06
363.203	185.06
363.429	173.06
363.656	192.06
363.882	167.06
364.109	196.06
364.335	188.06
364.562	183.06
364.788	191.06
365.015	200.06
365.241	183.06
365.468	172.06
365.694	190.06
365.92	181.06
366.147	165.06
366.373	196.06
366.599	192.06
366.826	169.06
367.052	183.06
367.278	178.06
367.505	171.06
367.731	186.06
367.957	195.06
368.184	172.06
368.41	187.06
368.636	184.06
368.862	168.06
369.089	172.06
369.315	191.06
369.541	186.06
369.767	169.06
369.993	196.06
370.219	199.06
370.445	175.06
370.672	192.06
370.898	195.06
371.124	194.06
371.35	185.06
371.576	191.06
371.802	192.06
372.028	195.06
372.254	212.06
372.48	203.06
372.706	188.06
372.932	200.06
373.158	205.06
373.384	192.06
373.61	186.06
373.835	188.06
374.061	204.06
374.287	188.06
374.513	200.06
374.739	204.06
374.965	221.06
375.191	232.06
375.416	216.06
375.642	207.06
375.868	215.06
376.094	212.06
376.319	202.06
376.545	201.06
376.771	190.06
376.997	198.06
377.222	175.06
377.448	189.06
377.674	187.06
377.899	192.06
378.125	197.06
378.35	187.06
378.576	175.06
378.802	196.06
379.027	185.06
379.253	209.06
379.478	192.06
379.704	204.06
379.929	202.06
380.155	192.06
380.38	203.06
380.606	199.06
380.831	193.06
381.057	178.06
381.282	194.06
381.507	188.06
381.733	200.06
381.958	192.06
382.184	189.06
382.409	207.06
382.634	188.06
382.86	198.06
383.085	196.06
383.31	214.06
383.535	210.06
383.761	203.06
383.986	209.06
384.211	226.06
384.436	219.06
384.662	233.06
384.887	212.06
385.112	216.06
385.337	224.06
385.562	217.06
385.787	219.06
386.013	230.06
386.238	215.06
386.463	221.06
386.688	219.06
386.913	216.06
387.138	216.06
387.363	218.06
387.588	229.06
387.813	217.06
388.038	216.06
388.263	217.06
388.488	213.06
388.713	206.06
388.938	215.06
389.163	217.06
389.387	217.06
389.612	220.06
389.837	215.06
390.062	203.06
390.287	203.06
390.512	242.06
390.736	211.06
390.961	213.06
391.186	203.06
391.411	213.06
391.636	228.06
391.86	230.06
392.085	226.06
392.31	233.06
392.534	252.06
392.759	233.06
392.984	221.06
393.208	226.06
393.433	241.06
393.658	219.06
393.882	246.06
394.107	219.06
394.331	209.06
394.556	216.06
394.78	236.06
395.005	236.06
395.229	231.06
395.454	242.06
395.678	231.06
395.903	242.06
396.127	219.06
396.352	247.06
396.576	230.06
396.801	228.06
397.025	215.06
397.249	220.06
397.474	231.06
397.698	240.06
397.922	232.06
398.147	231.06
398.371	248.06
398.595	233.06
398.82	267.06
399.044	268.06
399.268	304.06
399.492	338.06
399.717	395.06
399.941	362.06
400.165	325.06
400.389	284.06
400.613	272.06
400.837	270.06
401.062	241.06
401.286	245.06
401.51	241.06
401.734	253.06
401.958	246.06
402.182	259.06
402.406	254.06
402.63	265.06
402.854	269.06
403.078	276.06
403.302	275.06
403.526	290.06
403.75	284.06
403.974	293.06
404.198	298.06
404.422	310.06
404.645	278.06
404.869	284.06
405.093	302.06
405.317	288.06
405.541	277.06
405.765	272.06
405.988	269.06
406.212	271.06
406.436	269.06
406.66	267.06
406.883	287.06
407.107	292.06
407.331	299.06
407.555	337.06
407.778	323.06
408.002	314.06
408.226	284.06
408.449	299.06
408.673	276.06
408.896	278.06
409.12	282.06
409.344	274.06
409.567	279.06
409.791	282.06
410.014	295.06
410.238	290.06
410.461	292.06
410.685	267.06
410.908	260.06
411.132	280.06
411.355	257.06
411.578	255.06
411.802	251.06
412.025	248.06
412.249	277.06
412.472	247.06
412.695	268.06
412.919	258.06
413.142	245.06
413.365	258.06
413.589	254.06
413.812	256.06
414.035	252.06
414.258	251.06
414.482	294.06
414.705	252.06
414.928	259.06
415.151	220.06
415.374	247.06
415.597	230.06
415.821	232.06
416.044	246.06
416.267	261.06
416.49	261.06
416.713	255.06
416.936	263.06
417.159	247.06
417.382	232.06
417.605	262.06
417.828	249.06
418.051	262.06
418.274	242.06
418.497	253.06
418.72	266.06
418.943	270.06
419.166	281.06
419.389	287.06
419.611	294.06
419.834	274.06
420.057	263.06
420.28	259.06
420.503	256.06
420.726	251.06
420.948	245.06
421.171	243.06
421.394	235.06
421.617	255.06
421.839	260.06
422.062	242.06
422.285	240.06
422.507	257.06
422.73	256.06
422.953	271.06
423.175	281.06
423.398	273.06
423.621	278.06
423.843	278.06
424.066	266.06
424.288	283.06
424.511	269.06
424.733	249.06
424.956	273.06
425.178	261.06
425.401	256.06
425.623	240.06
425.846	243.06
426.068	243.06
426.291	249.06
426.513	236.06
426.735	247.06
426.958	231.06
427.18	226.06
427.402	250.06
427.625	243.06
427.847	226.06
428.069	228.06
428.292	214.06
428.514	220.06
428.736	233.06
428.958	222.06
429.181	224.06
429.403	239.06
429.625	234.06
429.847	220.06
430.069	201.06
430.292	230.06
430.514	219.06
430.736	237.06
430.958	220.06
431.18	229.06
431.402	237.06
431.624	226.06
431.846	223.06
432.068	222.06
432.29	242.06
432.512	231.06
432.734	246.06
432.956	233.06
433.178	227.06
433.4	216.06
433.622	236.06
433.844	223.06
434.066	227.06
434.287	232.06
434.509	251.06
434.731	244.06
434.953	263.06
435.175	235.06
435.397	240.06
435.618	239.06
435.84	240.06
436.062	220.06
436.284	227.06
436.505	242.06
436.727	226.06
436.949	234.06
437.17	228.06
437.392	218.06
437.614	228.06
437.835	218.06
438.057	221.06
438.278	227.06
438.5	202.06
438.721	217.06
438.943	228.06
439.165	248.06
439.386	223.06
439.608	239.06
439.829	241.06
440.05	237.06
440.272	222.06
440.493	229.06
440.715	239.06
440.936	243.06
441.158	253.06
441.379	236.06
441.6	267.06
441.822	267.06
442.043	250.06
442.264	259.06
442.486	241.06
442.707	247.06
442.928	257.06
443.149	256.06
443.371	249.06
443.592	244.06
443.813	255.06
444.034	237.06
444.255	273.06
444.476	280.06
444.698	288.06
444.919	311.06
445.14	417.06
445.361	335.06
445.582	259.06
445.803	238.06
446.024	239.06
446.245	243.06
446.466	244.06
446.687	241.06
446.908	237.06
447.129	239.06
447.35	239.06
447.571	223.06
447.792	228.06
448.013	234.06
448.234	210.06
448.455	214.06
448.675	233.06
448.896	211.06
449.117	211.06
449.338	227.06
449.559	215.06
449.779	202.06
450	207.06
450.221	225.06
450.442	213.06
450.662	215.06
450.883	220.06
451.104	216.06
451.324	225.06
451.545	224.06
451.766	217.06
451.986	213.06
452.207	219.06
452.428	241.06
452.648	217.06
452.869	202.06
453.089	219.06
453.31	231.06
453.53	211.06
453.751	232.06
453.971	211.06
454.192	219.06
454.412	195.06
454.633	228.06
454.853	208.06
455.073	221.06
455.294	205.06
455.514	207.06
455.734	199.06
455.955	201.06
456.175	217.06
456.395	208.06
456.616	214.06
456.836	205.06
457.056	199.06
457.276	205.06
457.497	193.06
457.717	201.06
457.937	200.06
458.157	206.06
458.377	204.06
458.598	216.06
458.818	215.06
459.038	218.06
459.258	213.06
459.478	231.06
459.698	228.06
459.918	234.06
460.138	260.06
460.358	261.06
460.578	269.06
460.798	278.06
461.018	269.06
461.238	281.06
461.458	265.06
461.678	265.06
461.898	260.06
462.118	278.06
462.338	268.06
462.558	293.06
462.777	288.06
462.997	301.06
463.217	339.06
463.437	355.06
463.657	320.06
463.876	306.06
464.096	296.06
464.316	301.06
464.536	314.06
464.755	321.06
464.975	280.06
465.195	284.06
465.414	256.06
465.634	232.06
465.854	237.06
466.073	252.06
466.293	240.06
466.512	238.06
466.732	214.06
466.951	220.06
467.171	216.06
467.391	232.06
467.61	212.06
467.829	241.06
468.049	230.06
468.268	230.06
468.488	216.06
468.707	220.06
468.927	234.06
469.146	212.06
469.365	220.06
469.585	226.06
469.804	229.06
470.023	256.06
470.243	227.06
470.462	245.06
470.681	237.06
470.901	230.06
471.12	243.06
471.339	242.06
471.558	223.06
471.777	229.06
471.997	220.06
472.216	221.06
472.435	226.06
472.654	205.06
472.873	196.06
473.092	216.06
473.311	211.06
473.53	218.06
473.749	219.06
473.968	219.06
474.187	235.06
474.406	213.06
474.625	217.06
474.844	218.06
475.063	228.06
475.282	218.06
475.501	201.06
475.72	224.06
475.939	213.06
476.158	217.06
476.377	218.06
476.596	236.06
476.814	228.06
477.033	227.06
477.252	228.06
477.471	237.06
477.69	247.06
477.908	260.06
478.127	255.06
478.346	247.06
478.564	249.06
478.783	249.06
479.002	279.06
479.22	263.06
479.439	259.06
479.658	245.06
479.876	281.06
480.095	259.06
480.313	253.06
480.532	277.06
480.751	303.06
480.969	263.06
481.188	257.06
481.406	264.06
481.624	266.06
481.843	256.06
482.061	237.06
482.28	243.06
482.498	245.06
482.717	236.06
482.935	235.06
483.153	243.06
483.372	242.06
483.59	245.06
483.808	250.06
484.027	243.06
484.245	255.06
484.463	263.06
484.681	264.06
484.9	247.06
485.118	277.06
485.336	246.06
485.554	265.06
485.772	262.06
485.99	258.06
486.209	269.06
486.427	265.06
486.645	236.06
486.863	262.06
487.081	262.06
487.299	260.06
487.517	257.06
487.735	261.06
487.953	272.06
488.171	264.06
488.389	261.06
488.607	261.06
488.825	260.06
489.043	263.06
489.261	260.06
489.479	259.06
489.696	262.06
489.914	248.06
490.132	253.06
490.35	272.06
490.568	277.06
490.786	249.06
491.003	261.06
491.221	255.06
491.439	275.06
491.657	281.06
491.874	279.06
492.092	269.06
492.31	263.06
492.527	288.06
492.745	278.06
492.963	265.06
493.18	249.06
493.398	277.06
493.615	267.06
493.833	260.06
494.05	279.06
494.268	280.06
494.485	294.06
494.703	284.06
494.92	291.06
495.138	275.06
495.355	265.06
495.573	280.06
495.79	239.06
496.008	280.06
496.225	291.06
496.442	275.06
496.66	290.06
496.877	291.06
497.094	292.06
497.312	301.06
497.529	287.06
497.746	303.06
497.963	313.06
498.181	319.06
498.398	316.06
498.615	365.06
498.832	363.06
499.049	387.06
499.267	393.06
499.484	449.06
499.701	483.06
499.918	526.06
500.135	600.06
500.352	699.06
500.569	719.06
500.786	738.06
501.003	667.06
501.22	595.06
501.437	538.06
501.654	458.06
501.871	429.06
502.088	383.06
502.305	361.06
502.522	368.06
502.739	351.06
502.956	327.06
503.172	326.06
503.389	312.06
503.606	291.06
503.823	292.06
504.04	296.06
504.256	313.06
504.473	327.06
504.69	327.06
504.907	331.06
505.123	288.06
505.34	272.06
505.557	290.06
505.773	285.06
505.99	247.06
506.207	274.06
506.423	268.06
506.64	264.06
506.856	257.06
507.073	249.06
507.289	250.06
507.506	259.06
507.722	255.06
507.939	223.06
508.155	254.06
508.372	256.06
508.588	250.06
508.805	227.06
509.021	229.06
509.238	252.06
509.454	228.06
509.67	229.06
509.887	241.06
510.103	228.06
510.319	224.06
510.536	236.06
510.752	225.06
510.968	234.06
511.184	227.06
511.401	235.06
511.617	243.06
511.833	228.06
512.049	233.06
512.265	273.06
512.481	244.06
512.698	224.06
512.914	242.06
513.13	244.06
513.346	222.06
513.562	223.06
513.778	237.06
513.994	232.06
514.21	231.06
514.426	259.06
514.642	243.06
514.858	234.06
515.074	239.06
515.29	247.06
515.506	239.06
515.721	243.06
515.937	241.06
516.153	240.06
516.369	261.06
516.585	271.06
516.801	259.06
517.016	267.06
517.232	296.06
517.448	304.06
517.664	317.06
517.879	317.06
518.095	301.06
518.311	305.06
518.527	274.06
518.742	281.06
518.958	273.06
519.173	273.06
519.389	264.06
519.605	263.06
519.82	256.06
520.036	241.06
520.251	252.06
520.467	246.06
520.682	247.06
520.898	233.06
521.113	232.06
521.329	239.06
521.544	243.06
521.76	220.06
521.975	227.06
522.19	218.06
522.406	238.06
522.621	221.06
522.836	224.06
523.052	229.06
523.267	220.06
523.482	242.06
523.698	211.06
523.913	244.06
524.128	229.06
524.343	230.06
524.559	208.06
524.774	211.06
524.989	228.06
525.204	243.06
525.419	223.06
525.634	230.06
525.849	235.06
526.064	221.06
526.28	235.06
526.495	235.06
526.71	201.06
526.925	212.06
527.14	221.06
527.355	209.06
527.57	191.06
527.785	208.06
527.999	197.06
528.214	232.06
528.429	213.06
528.644	207.06
528.859	209.06
529.074	213.06
529.289	218.06
529.503	204.06
529.718	242.06
529.933	231.06
530.148	225.06
530.363	223.06
530.577	218.06
530.792	228.06
531.007	229.06
531.221	214.06
531.436	229.06
531.651	220.06
531.865	228.06
532.08	208.06
532.295	226.06
532.509	223.06
532.724	218.06
532.938	223.06
533.153	211.06
533.367	224.06
533.582	245.06
533.796	220.06
534.011	215.06
534.225	210.06
534.44	215.06
534.654	219.06
534.868	211.06
535.083	211.06
535.297	215.06
535.511	229.06
535.726	220.06
535.94	226.06
536.154	215.06
536.369	219.06
536.583	205.06
536.797	213.06
537.011	216.06
537.225	211.06
537.44	215.06
537.654	224.06
537.868	205.06
538.082	224.06
538.296	217.06
538.51	216.06
538.724	196.06
538.938	210.06
539.153	213.06
539.367	229.06
539.581	192.06
539.795	210.06
540.009	214.06
540.222	224.06
540.436	199.06
540.65	206.06
540.864	200.06
541.078	203.06
541.292	209.06
541.506	235.06
541.72	211.06
541.934	196.06
542.147	195.06
542.361	204.06
542.575	213.06
542.789	194.06
543.002	223.06
543.216	219.06
543.43	198.06
543.644	210.06
543.857	210.06
544.071	200.06
544.285	217.06
544.498	226.06
544.712	220.06
544.925	217.06
545.139	219.06
545.352	199.06
545.566	217.06
545.779	208.06
545.993	219.06
546.206	194.06
546.42	211.06
546.633	230.06
546.847	207.06
547.06	205.06
547.274	213.06
547.487	210.06
547.7	225.06
547.914	208.06
548.127	195.06
548.34	224.06
548.554	211.06
548.767	215.06
548.98	198.06
549.193	201.06
549.407	210.06
549.62	245.06
549.833	201.06
550.046	209.06
550.259	217.06
550.473	219.06
550.686	216.06
550.899	219.06
551.112	215.06
551.325	216.06
551.538	200.06
551.751	211.06
551.964	241.06
552.177	197.06
552.39	224.06
552.603	227.06
552.816	214.06
553.029	236.06
553.242	214.06
553.455	240.06
553.667	224.06
553.88	240.06
554.093	225.06
554.306	208.06
554.519	232.06
554.732	206.06
554.944	207.06
555.157	219.06
555.37	199.06
555.583	208.06
555.795	199.06
556.008	216.06
556.221	220.06
556.433	202.06
556.646	220.06
556.859	212.06
557.071	211.06
557.284	202.06
557.496	194.06
557.709	187.06
557.921	189.06
558.134	196.06
558.346	171.06
558.559	187.06
558.771	187.06
558.984	199.06
559.196	190.06
559.409	195.06
559.621	180.06
559.833	208.06
560.046	178.06
560.258	195.06
560.47	194.06
560.683	182.06
560.895	196.06
561.107	198.06
561.32	196.06
561.532	193.06
561.744	194.06
561.956	178.06
562.168	199.06
562.381	199.06
562.593	196.06
562.805	200.06
563.017	176.06
563.229	183.06
563.441	203.06
563.653	180.06
563.865	195.06
564.077	195.06
564.289	193.06
564.501	197.06
564.713	188.06
564.925	195.06
565.137	214.06
565.349	203.06
565.561	201.06
565.773	211.06
565.985	224.06
566.197	231.06
566.408	255.06
566.62	279.06
566.832	283.06
567.044	290.06
567.255	274.06
567.467	283.06
567.679	281.06
567.891	319.06
568.102	345.06
568.314	327.06
568.526	279.06
568.737	264.06
568.949	255.06
569.161	230.06
569.372	211.06
569.584	212.06
569.795	214.06
570.007	196.06
570.218	204.06
570.43	209.06
570.641	213.06
570.853	193.06
571.064	203.06
571.276	196.06
571.487	209.06
571.698	197.06
571.91	202.06
572.121	174.06
572.333	173.06
572.544	190.06
572.755	181.06
572.966	184.06
573.178	170.06
573.389	177.06
573.6	180.06
573.811	166.06
574.023	172.06
574.234	157.06
574.445	180.06
574.656	166.06
574.867	170.06
575.078	176.06
575.289	169.06
575.501	173.06
575.712	160.06
575.923	163.06
576.134	155.06
576.345	153.06
576.556	165.06
576.767	169.06
576.978	171.06
577.188	161.06
577.399	152.06
577.61	170.06
577.821	148.06
578.032	143.06
578.243	165.06
578.454	177.06
578.665	173.06
578.875	169.06
579.086	160.06
579.297	162.06
579.508	179.06
579.718	169.06
579.929	141.06
580.14	168.06
580.35	169.06
580.561	147.06
580.772	154.06
580.982	163.06
581.193	159.06
581.403	167.06
581.614	168.06
581.825	161.06
582.035	155.06
582.246	151.06
582.456	164.06
582.667	160.06
582.877	148.06
583.087	153.06
583.298	156.06
583.508	163.06
583.719	145.06
583.929	161.06
584.139	165.06
584.35	152.06
584.56	157.06
584.77	149.06
584.981	168.06
585.191	157.06
585.401	155.06
585.611	157.06
585.821	150.06
586.032	151.06
586.242	168.06
586.452	155.06
586.662	167.06
586.872	159.06
587.082	153.06
587.292	147.06
587.502	159.06
587.713	172.06
587.923	159.06
588.133	159.06
588.343	156.06
588.553	149.06
588.762	160.06
588.972	149.06
589.182	162.06
589.392	151.06
589.602	136.06
589.812	154.06
590.022	171.06
590.232	156.06
590.441	155.06
590.651	171.06
590.861	148.06
591.071	145.06
591.281	150.06
591.49	160.06
591.7	161.06
591.91	152.06
592.119	162.06
592.329	169.06
592.539	164.06
592.748	166.06
592.958	180.06
593.167	181.06
593.377	198.06
593.587	191.06
593.796	186.06
594.006	172.06
594.215	195.06
594.424	183.06
594.634	190.06
594.843	169.06
595.053	164.06
595.262	165.06
595.472	159.06
595.681	148.06
595.89	159.06
596.1	163.06
596.309	164.06
596.518	151.06
596.727	151.06
596.937	149.06
597.146	143.06
597.355	145.06
597.564	146.06
597.774	158.06
597.983	155.06
598.192	147.06
598.401	143.06
598.61	141.06
598.819	126.06
599.028	127.06
599.237	135.06
599.446	149.06
599.655	150.06
599.864	145.06
600.073	150.06
600.282	152.06
600.491	145.06
600.7	131.06
600.909	149.06
601.118	156.06
601.327	145.06
601.536	141.06
601.745	151.06
601.953	136.06
602.162	146.06
602.371	145.06
602.58	144.06
602.789	151.06
602.997	143.06
603.206	158.06
603.415	144.06
603.623	142.06
603.832	138.06
604.041	125.06
604.249	127.06
604.458	127.06
604.666	141.06
604.875	140.06
605.084	137.06
605.292	138.06
605.501	129.06
605.709	143.06
605.918	131.06
606.126	127.06
606.334	155.06
606.543	154.06
606.751	146.06
606.96	133.06
607.168	137.06
607.376	134.06
607.585	146.06
607.793	124.06
608.001	130.06
608.21	108.06
608.418	120.06
608.626	119.06
608.834	140.06
609.043	117.06
609.251	128.06
609.459	129.06
609.667	132.06
609.875	142.06
610.083	150.06
610.291	147.06
610.499	135.06
610.707	136.06
610.916	128.06
611.124	130.06
611.332	130.06
611.54	130.06
611.748	134.06
611.955	121.06
612.163	111.06
612.371	135.06
612.579	135.06
612.787	138.06
612.995	126.06
613.203	144.06
613.411	138.06
613.618	141.06
613.826	139.06
614.034	132.06
614.242	131.06
614.449	140.06
614.657	135.06
614.865	126.06
615.072	145.06
615.28	131.06
615.488	124.06
615.695	129.06
615.903	137.06
616.111	133.06
616.318	149.06
616.526	142.06
616.733	139.06
616.941	147.06
617.148	121.06
617.356	137.06
617.563	141.06
617.771	136.06
617.978	142.06
618.185	133.06
618.393	141.06
618.6	131.06
618.807	157.06
619.015	123.06
619.222	129.06
619.429	124.06
619.637	126.06
619.844	129.06
620.051	138.06
620.258	135.06
620.466	135.06
620.673	124.06
620.88	123.06
621.087	127.06
621.294	136.06
621.501	124.06
621.708	129.06
621.915	128.06
622.122	128.06
622.329	141.06
622.536	133.06
622.743	128.06
622.95	124.06
623.157	127.06
623.364	137.06
623.571	126.06
623.778	124.06
623.985	135.06
624.192	139.06
624.399	140.06
624.606	131.06
624.812	125.06
625.019	126.06
625.226	119.06
625.433	111.06
625.639	111.06
625.846	135.06
626.053	123.06
626.259	124.06
626.466	130.06
626.673	130.06
626.879	113.06
627.086	123.06
627.293	116.06
627.499	113.06
627.706	116.06
627.912	113.06
628.119	131.06
628.325	122.06
628.532	122.06
628.738	124.06
628.945	115.06
629.151	127.06
629.357	125.06
629.564	115.06
629.77	129.06
629.976	124.06
630.183	108.06
630.389	116.06
630.595	128.06
630.802	129.06
631.008	130.06
631.214	127.06
631.42	126.06
631.627	124.06
631.833	115.06
632.039	113.06
632.245	114.06
632.451	116.06
632.657	129.06
632.863	123.06
633.069	121.06
633.275	116.06
633.481	110.06
633.688	108.06
633.893	124.06
634.099	118.06
634.305	134.06
634.511	124.06
634.717	119.06
634.923	118.06
635.129	112.06
635.335	113.06
635.541	112.06
635.747	120.06
635.952	125.06
636.158	115.06
636.364	108.06
636.57	110.06
636.775	118.06
636.981	118.06
637.187	108.06
637.392	104.06
637.598	107.06
637.804	124.06
638.009	115.06
638.215	108.06
638.421	102.06
638.626	115.06
638.832	116.06
639.037	113.06
639.243	108.06
639.448	119.06
639.654	119.06
639.859	119.06
640.065	125.06
640.27	105.06
640.475	116.06
640.681	122.06
640.886	116.06
641.091	107.06
641.297	119.06
641.502	115.06
641.707	116.06
641.913	114.06
642.118	108.06
642.323	114.06
642.528	105.06
642.733	101.06
642.939	101.06
643.144	115.06
643.349	111.06
643.554	111.06
643.759	113.06
643.964	112.06
644.169	113.06
644.374	107.06
644.579	109.06
644.784	109.06
644.989	104.06
645.194	106.06
645.399	117.06
645.604	118.06
645.809	122.06
646.014	101.06
646.219	107.06
646.423	107.06
646.628	98.06
646.833	114.06
647.038	111.06
647.243	107.06
647.447	105.06
647.652	108.06
647.857	126.06
648.062	124.06
648.266	116.06
648.471	137.06
648.676	126.06
648.88	123.06
649.085	109.06
649.289	102.06
649.494	105.06
649.698	121.06
649.903	118.06
650.107	120.06
650.312	126.06
650.516	106.06
650.721	108.06
650.925	112.06
651.13	113.06
651.334	95.06
651.539	87.06
651.743	105.06
651.947	101.06
652.152	105.06
652.356	113.06
652.56	108.06
652.764	95.06
652.969	96.06
653.173	112.06
653.377	99.06
653.581	108.06
653.785	102.06
653.99	105.06
654.194	95.06
654.398	104.06
654.602	115.06
654.806	93.06
655.01	99.06
655.214	95.06
655.418	95.06
655.622	94.06
655.826	99.06
656.03	101.06
656.234	103.06
656.438	98.06
656.642	101.06
656.846	110.06
657.049	99.06
657.253	100.06
657.457	92.06
657.661	89.06
657.865	100.06
658.068	84.06
658.272	89.06
658.476	92.06
658.68	85.06
658.883	84.06
659.087	90.06
659.291	81.06
659.494	93.06
659.698	91.06
659.901	83.06
660.105	84.06
660.309	88.06
660.512	85.06
660.716	85.06
660.919	75.06
661.123	85.06
661.326	90.06
661.53	92.06
661.733	78.06
661.936	79.06
662.14	80.06
662.343	88.06
662.546	59.06
662.75	80.06
662.953	84.06
663.156	72.06
663.36	83.06
663.563	73.06
663.766	79.06
663.969	84.06
664.173	86.06
664.376	85.06
664.579	73.06
664.782	72.06
664.985	79.06
665.188	75.06
665.391	77.06
665.594	84.06
665.797	84.06
666	89.06
666.203	82.06
666.406	83.06
666.609	71.06
666.812	92.06
667.015	82.06
667.218	83.06
667.421	83.06
667.624	85.06
667.827	61.06
668.03	70.06
668.232	67.06
668.435	76.06
668.638	91.06
668.841	77.06
669.043	78.06
669.246	83.06
669.449	75.06
669.651	81.06
669.854	71.06
670.057	76.06
670.259	70.06
670.462	66.06
670.665	75.06
670.867	79.06
671.07	83.06
671.272	88.06
671.475	85.06
671.677	78.06
671.88	69.06
672.082	81.06
672.284	82.06
672.487	80.06
672.689	88.06
672.892	77.06
