Data from 0.5MCu(NO3)2.Standard.Lamp.E10.CV._HRD10591_16-05-22-753.txt Node
Date: Mon Jul 22 16:05:22 EDT 2019
User: cochatt
Spectrometer: HR+D1059
Trigger mode: 1
Integration Time (sec): 1.000000E-1
Scans to average: 1
Electric dark correction enabled: true
Nonlinearity correction enabled: false
Boxcar width: 0
XAxis mode: Wavelengths
Number of Pixels in Spectrum: 2048
>>>>>Begin Spectral Data<<<<<
223.165	-23.12
223.4	-23.12
223.635	-23.12
223.869	-18.12
224.104	-22.12
224.338	-14.12
224.573	-20.12
224.808	-17.12
225.042	1.88
225.277	-6.12
225.511	-0.12
225.746	-1.12
225.98	5.88
226.215	12.88
226.449	21.88
226.683	22.88
226.918	20.88
227.152	35.88
227.387	39.88
227.621	33.88
227.856	49.88
228.09	24.88
228.324	55.88
228.559	54.88
228.793	51.88
229.027	63.88
229.262	76.88
229.496	74.88
229.73	75.88
229.964	91.88
230.199	76.88
230.433	91.88
230.667	84.88
230.901	93.88
231.136	80.88
231.37	98.88
231.604	92.88
231.838	97.88
232.072	96.88
232.306	84.88
232.541	90.88
232.775	99.88
233.009	103.88
233.243	94.88
233.477	89.88
233.711	96.88
233.945	90.88
234.179	100.88
234.413	89.88
234.647	100.88
234.881	102.88
235.115	102.88
235.349	101.88
235.583	106.88
235.817	99.88
236.051	107.88
236.285	92.88
236.519	103.88
236.753	100.88
236.987	91.88
237.221	98.88
237.455	96.88
237.689	104.88
237.922	92.88
238.156	102.88
238.39	97.88
238.624	93.88
238.858	92.88
239.091	82.88
239.325	116.88
239.559	91.88
239.793	89.88
240.027	100.88
240.26	106.88
240.494	96.88
240.728	101.88
240.961	102.88
241.195	108.88
241.429	113.88
241.662	93.88
241.896	114.88
242.13	87.88
242.363	120.88
242.597	100.88
242.83	104.88
243.064	98.88
243.298	96.88
243.531	113.88
243.765	101.88
243.998	109.88
244.232	96.88
244.465	106.88
244.699	117.88
244.932	95.88
245.166	109.88
245.399	129.88
245.633	105.88
245.866	113.88
246.099	120.88
246.333	116.88
246.566	111.88
246.8	110.88
247.033	120.88
247.266	123.88
247.5	117.88
247.733	118.88
247.966	107.88
248.2	131.88
248.433	116.88
248.666	122.88
248.899	113.88
249.133	121.88
249.366	122.88
249.599	123.88
249.832	119.88
250.066	117.88
250.299	110.88
250.532	129.88
250.765	109.88
250.998	115.88
251.231	107.88
251.465	121.88
251.698	133.88
251.931	114.88
252.164	130.88
252.397	124.88
252.63	127.88
252.863	122.88
253.096	126.88
253.329	126.88
253.562	120.88
253.795	131.88
254.028	129.88
254.261	122.88
254.494	139.88
254.727	138.88
254.96	121.88
255.193	141.88
255.426	140.88
255.659	136.88
255.892	129.88
256.124	139.88
256.357	130.88
256.59	137.88
256.823	117.88
257.056	128.88
257.289	131.88
257.521	124.88
257.754	140.88
257.987	150.88
258.22	140.88
258.452	144.88
258.685	135.88
258.918	142.88
259.151	144.88
259.383	149.88
259.616	123.88
259.849	135.88
260.081	135.88
260.314	151.88
260.547	139.88
260.779	144.88
261.012	129.88
261.244	142.88
261.477	139.88
261.71	148.88
261.942	141.88
262.175	142.88
262.407	152.88
262.64	151.88
262.872	119.88
263.105	146.88
263.337	135.88
263.57	149.88
263.802	153.88
264.035	156.88
264.267	140.88
264.499	147.88
264.732	150.88
264.964	153.88
265.197	149.88
265.429	152.88
265.661	158.88
265.894	143.88
266.126	149.88
266.358	154.88
266.591	154.88
266.823	151.88
267.055	153.88
267.287	164.88
267.52	144.88
267.752	139.88
267.984	161.88
268.216	159.88
268.448	165.88
268.681	167.88
268.913	155.88
269.145	156.88
269.377	153.88
269.609	158.88
269.841	170.88
270.073	152.88
270.306	153.88
270.538	152.88
270.77	163.88
271.002	153.88
271.234	157.88
271.466	180.88
271.698	167.88
271.93	169.88
272.162	152.88
272.394	179.88
272.626	153.88
272.858	158.88
273.09	162.88
273.322	155.88
273.553	157.88
273.785	170.88
274.017	174.88
274.249	161.88
274.481	189.88
274.713	170.88
274.945	174.88
275.176	189.88
275.408	163.88
275.64	164.88
275.872	173.88
276.104	160.88
276.335	181.88
276.567	181.88
276.799	181.88
277.031	181.88
277.262	186.88
277.494	155.88
277.726	177.88
277.957	177.88
278.189	174.88
278.421	188.88
278.652	191.88
278.884	182.88
279.115	178.88
279.347	179.88
279.579	180.88
279.81	193.88
280.042	188.88
280.273	194.88
280.505	198.88
280.736	202.88
280.968	193.88
281.199	193.88
281.431	194.88
281.662	192.88
281.894	187.88
282.125	184.88
282.356	208.88
282.588	192.88
282.819	194.88
283.051	194.88
283.282	182.88
283.513	212.88
283.745	200.88
283.976	201.88
284.207	183.88
284.439	215.88
284.67	193.88
284.901	203.88
285.132	196.88
285.364	209.88
285.595	205.88
285.826	197.88
286.057	198.88
286.288	204.88
286.52	188.88
286.751	181.88
286.982	207.88
287.213	197.88
287.444	201.88
287.675	196.88
287.906	198.88
288.138	207.88
288.369	212.88
288.6	205.88
288.831	230.88
289.062	217.88
289.293	207.88
289.524	205.88
289.755	202.88
289.986	220.88
290.217	205.88
290.448	206.88
290.679	206.88
290.91	215.88
291.141	213.88
291.371	207.88
291.602	205.88
291.833	217.88
292.064	226.88
292.295	209.88
292.526	210.88
292.757	221.88
292.987	225.88
293.218	217.88
293.449	210.88
293.68	226.88
293.91	215.88
294.141	220.88
294.372	214.88
294.603	215.88
294.833	205.88
295.064	213.88
295.295	220.88
295.525	218.88
295.756	228.88
295.987	213.88
296.217	210.88
296.448	217.88
296.679	225.88
296.909	211.88
297.14	232.88
297.37	227.88
297.601	235.88
297.831	224.88
298.062	231.88
298.292	230.88
298.523	235.88
298.753	244.88
298.984	241.88
299.214	227.88
299.445	236.88
299.675	230.88
299.905	236.88
300.136	222.88
300.366	222.88
300.597	221.88
300.827	234.88
301.057	226.88
301.288	243.88
301.518	244.88
301.748	241.88
301.979	236.88
302.209	247.88
302.439	230.88
302.669	259.88
302.9	248.88
303.13	230.88
303.36	229.88
303.59	216.88
303.82	252.88
304.051	241.88
304.281	234.88
304.511	253.88
304.741	233.88
304.971	234.88
305.201	245.88
305.431	229.88
305.661	240.88
305.891	237.88
306.121	233.88
306.352	228.88
306.582	219.88
306.812	243.88
307.042	238.88
307.272	234.88
307.502	240.88
307.731	245.88
307.961	238.88
308.191	221.88
308.421	231.88
308.651	252.88
308.881	245.88
309.111	258.88
309.341	239.88
309.571	237.88
309.8	225.88
310.03	227.88
310.26	218.88
310.49	234.88
310.72	249.88
310.949	238.88
311.179	227.88
311.409	234.88
311.639	252.88
311.868	227.88
312.098	255.88
312.328	229.88
312.557	251.88
312.787	239.88
313.017	259.88
313.246	250.88
313.476	264.88
313.706	253.88
313.935	249.88
314.165	244.88
314.394	263.88
314.624	258.88
314.853	243.88
315.083	245.88
315.312	248.88
315.542	246.88
315.771	245.88
316.001	234.88
316.23	245.88
316.46	234.88
316.689	231.88
316.919	246.88
317.148	253.88
317.377	239.88
317.607	244.88
317.836	230.88
318.065	233.88
318.295	259.88
318.524	233.88
318.753	243.88
318.983	258.88
319.212	242.88
319.441	247.88
319.67	246.88
319.9	241.88
320.129	241.88
320.358	256.88
320.587	256.88
320.816	236.88
321.046	233.88
321.275	241.88
321.504	240.88
321.733	244.88
321.962	237.88
322.191	254.88
322.42	259.88
322.649	249.88
322.878	237.88
323.108	247.88
323.337	255.88
323.566	257.88
323.795	250.88
324.024	245.88
324.253	241.88
324.482	241.88
324.71	226.88
324.939	257.88
325.168	247.88
325.397	244.88
325.626	257.88
325.855	261.88
326.084	266.88
326.313	253.88
326.542	265.88
326.77	259.88
326.999	262.88
327.228	261.88
327.457	264.88
327.686	261.88
327.914	259.88
328.143	283.88
328.372	260.88
328.6	256.88
328.829	270.88
329.058	267.88
329.287	268.88
329.515	259.88
329.744	260.88
329.972	256.88
330.201	267.88
330.43	261.88
330.658	263.88
330.887	266.88
331.115	268.88
331.344	261.88
331.572	272.88
331.801	286.88
332.03	281.88
332.258	292.88
332.486	295.88
332.715	311.88
332.943	317.88
333.172	313.88
333.4	349.88
333.629	333.88
333.857	351.88
334.085	334.88
334.314	327.88
334.542	337.88
334.771	321.88
334.999	323.88
335.227	330.88
335.455	310.88
335.684	314.88
335.912	299.88
336.14	332.88
336.369	315.88
336.597	294.88
336.825	314.88
337.053	290.88
337.281	302.88
337.51	308.88
337.738	301.88
337.966	298.88
338.194	292.88
338.422	273.88
338.65	295.88
338.878	271.88
339.106	278.88
339.334	299.88
339.562	275.88
339.79	262.88
340.018	281.88
340.246	274.88
340.474	259.88
340.702	277.88
340.93	285.88
341.158	279.88
341.386	251.88
341.614	285.88
341.842	263.88
342.07	275.88
342.298	275.88
342.526	278.88
342.754	235.88
342.981	259.88
343.209	266.88
343.437	283.88
343.665	305.88
343.893	320.88
344.12	316.88
344.348	327.88
344.576	310.88
344.804	266.88
345.031	293.88
345.259	291.88
345.487	263.88
345.714	283.88
345.942	265.88
346.17	268.88
346.397	258.88
346.625	267.88
346.853	253.88
347.08	253.88
347.308	269.88
347.535	271.88
347.763	292.88
347.99	277.88
348.218	283.88
348.445	279.88
348.673	283.88
348.9	257.88
349.128	266.88
349.355	268.88
349.583	269.88
349.81	266.88
350.037	269.88
350.265	265.88
350.492	269.88
350.72	257.88
350.947	270.88
351.174	253.88
351.402	248.88
351.629	265.88
351.856	258.88
352.083	242.88
352.311	264.88
352.538	270.88
352.765	267.88
352.992	272.88
353.22	258.88
353.447	262.88
353.674	271.88
353.901	253.88
354.128	245.88
354.355	267.88
354.583	279.88
354.81	243.88
355.037	241.88
355.264	265.88
355.491	264.88
355.718	264.88
355.945	260.88
356.172	262.88
356.399	261.88
356.626	248.88
356.853	261.88
357.08	269.88
357.307	251.88
357.534	263.88
357.761	239.88
357.988	268.88
358.215	268.88
358.441	262.88
358.668	258.88
358.895	251.88
359.122	250.88
359.349	254.88
359.576	263.88
359.802	259.88
360.029	257.88
360.256	265.88
360.483	261.88
360.709	256.88
360.936	266.88
361.163	241.88
361.39	249.88
361.616	263.88
361.843	252.88
362.07	252.88
362.296	239.88
362.523	264.88
362.749	260.88
362.976	241.88
363.203	244.88
363.429	233.88
363.656	254.88
363.882	250.88
364.109	249.88
364.335	250.88
364.562	246.88
364.788	246.88
365.015	258.88
365.241	250.88
365.468	252.88
365.694	231.88
365.92	230.88
366.147	275.88
366.373	253.88
366.599	247.88
366.826	256.88
367.052	252.88
367.278	265.88
367.505	255.88
367.731	258.88
367.957	271.88
368.184	253.88
368.41	259.88
368.636	234.88
368.862	246.88
369.089	253.88
369.315	258.88
369.541	265.88
369.767	246.88
369.993	265.88
370.219	249.88
370.445	256.88
370.672	278.88
370.898	245.88
371.124	254.88
371.35	266.88
371.576	270.88
371.802	286.88
372.028	275.88
372.254	270.88
372.48	262.88
372.706	284.88
372.932	281.88
373.158	281.88
373.384	287.88
373.61	277.88
373.835	293.88
374.061	271.88
374.287	287.88
374.513	284.88
374.739	289.88
374.965	288.88
375.191	293.88
375.416	294.88
375.642	283.88
375.868	294.88
376.094	285.88
376.319	286.88
376.545	278.88
376.771	276.88
376.997	249.88
377.222	284.88
377.448	277.88
377.674	269.88
377.899	257.88
378.125	249.88
378.35	268.88
378.576	279.88
378.802	264.88
379.027	263.88
379.253	274.88
379.478	266.88
379.704	258.88
379.929	282.88
380.155	282.88
380.38	261.88
380.606	267.88
380.831	279.88
381.057	257.88
381.282	255.88
381.507	261.88
381.733	263.88
381.958	252.88
382.184	274.88
382.409	281.88
382.634	286.88
382.86	301.88
383.085	302.88
383.31	275.88
383.535	309.88
383.761	295.88
383.986	309.88
384.211	327.88
384.436	305.88
384.662	293.88
384.887	312.88
385.112	285.88
385.337	311.88
385.562	317.88
385.787	330.88
386.013	301.88
386.238	302.88
386.463	307.88
386.688	317.88
386.913	332.88
387.138	317.88
387.363	294.88
387.588	306.88
387.813	294.88
388.038	312.88
388.263	313.88
388.488	316.88
388.713	305.88
388.938	302.88
389.163	307.88
389.387	305.88
389.612	308.88
389.837	313.88
390.062	299.88
390.287	318.88
390.512	296.88
390.736	317.88
390.961	278.88
391.186	306.88
391.411	309.88
391.636	332.88
391.86	346.88
392.085	350.88
392.31	354.88
392.534	357.88
392.759	321.88
392.984	329.88
393.208	309.88
393.433	327.88
393.658	328.88
393.882	317.88
394.107	321.88
394.331	302.88
394.556	343.88
394.78	328.88
395.005	333.88
395.229	311.88
395.454	346.88
395.678	331.88
395.903	335.88
396.127	316.88
396.352	325.88
396.576	311.88
396.801	324.88
397.025	328.88
397.249	319.88
397.474	329.88
397.698	326.88
397.922	355.88
398.147	316.88
398.371	327.88
398.595	346.88
398.82	373.88
399.044	391.88
399.268	411.88
399.492	466.88
399.717	546.88
399.941	531.88
400.165	487.88
400.389	420.88
400.613	396.88
400.837	372.88
401.062	385.88
401.286	373.88
401.51	359.88
401.734	356.88
401.958	375.88
402.182	377.88
402.406	381.88
402.63	398.88
402.854	390.88
403.078	390.88
403.302	404.88
403.526	418.88
403.75	428.88
403.974	427.88
404.198	427.88
404.422	443.88
404.645	441.88
404.869	413.88
405.093	410.88
405.317	383.88
405.541	388.88
405.765	421.88
405.988	391.88
406.212	400.88
406.436	382.88
406.66	407.88
406.883	413.88
407.107	414.88
407.331	432.88
407.555	485.88
407.778	460.88
408.002	432.88
408.226	446.88
408.449	445.88
408.673	419.88
408.896	413.88
409.12	412.88
409.344	412.88
409.567	406.88
409.791	435.88
410.014	400.88
410.238	421.88
410.461	409.88
410.685	395.88
410.908	412.88
411.132	405.88
411.355	365.88
411.578	385.88
411.802	374.88
412.025	383.88
412.249	389.88
412.472	377.88
412.695	379.88
412.919	361.88
413.142	349.88
413.365	358.88
413.589	343.88
413.812	358.88
414.035	369.88
414.258	351.88
414.482	347.88
414.705	362.88
414.928	361.88
415.151	374.88
415.374	375.88
415.597	349.88
415.821	364.88
416.044	363.88
416.267	332.88
416.49	337.88
416.713	331.88
416.936	359.88
417.159	348.88
417.382	334.88
417.605	360.88
417.828	362.88
418.051	358.88
418.274	362.88
418.497	364.88
418.72	376.88
418.943	378.88
419.166	376.88
419.389	401.88
419.611	411.88
419.834	392.88
420.057	394.88
420.28	371.88
420.503	364.88
420.726	367.88
420.948	360.88
421.171	369.88
421.394	357.88
421.617	343.88
421.839	354.88
422.062	373.88
422.285	371.88
422.507	359.88
422.73	366.88
422.953	374.88
423.175	382.88
423.398	386.88
423.621	393.88
423.843	377.88
424.066	395.88
424.288	369.88
424.511	389.88
424.733	388.88
424.956	371.88
425.178	363.88
425.401	364.88
425.623	355.88
425.846	349.88
426.068	355.88
426.291	349.88
426.513	343.88
426.735	331.88
426.958	344.88
427.18	342.88
427.402	350.88
427.625	323.88
427.847	320.88
428.069	330.88
428.292	306.88
428.514	317.88
428.736	313.88
428.958	316.88
429.181	331.88
429.403	304.88
429.625	321.88
429.847	300.88
430.069	329.88
430.292	329.88
430.514	306.88
430.736	316.88
430.958	313.88
431.18	332.88
431.402	326.88
431.624	326.88
431.846	317.88
432.068	317.88
432.29	315.88
432.512	323.88
432.734	321.88
432.956	326.88
433.178	325.88
433.4	329.88
433.622	348.88
433.844	337.88
434.066	339.88
434.287	349.88
434.509	331.88
434.731	362.88
434.953	369.88
435.175	377.88
435.397	372.88
435.618	351.88
435.84	335.88
436.062	342.88
436.284	325.88
436.505	299.88
436.727	335.88
436.949	333.88
437.17	344.88
437.392	300.88
437.614	325.88
437.835	311.88
438.057	318.88
438.278	315.88
438.5	327.88
438.721	319.88
438.943	314.88
439.165	309.88
439.386	312.88
439.608	324.88
439.829	332.88
440.05	340.88
440.272	329.88
440.493	317.88
440.715	338.88
440.936	363.88
441.158	326.88
441.379	343.88
441.6	345.88
441.822	355.88
442.043	359.88
442.264	360.88
442.486	339.88
442.707	354.88
442.928	348.88
443.149	340.88
443.371	358.88
443.592	360.88
443.813	370.88
444.034	371.88
444.255	381.88
444.476	371.88
444.698	419.88
444.919	436.88
445.14	540.88
445.361	446.88
445.582	372.88
445.803	338.88
446.024	341.88
446.245	341.88
446.466	317.88
446.687	316.88
446.908	336.88
447.129	328.88
447.35	319.88
447.571	330.88
447.792	303.88
448.013	329.88
448.234	291.88
448.455	312.88
448.675	305.88
448.896	300.88
449.117	295.88
449.338	309.88
449.559	305.88
449.779	299.88
450	298.88
450.221	297.88
450.442	311.88
450.662	296.88
450.883	298.88
451.104	309.88
451.324	305.88
451.545	305.88
451.766	313.88
451.986	310.88
452.207	315.88
452.428	306.88
452.648	313.88
452.869	305.88
453.089	313.88
453.31	291.88
453.53	293.88
453.751	298.88
453.971	295.88
454.192	302.88
454.412	295.88
454.633	301.88
454.853	297.88
455.073	301.88
455.294	297.88
455.514	299.88
455.734	282.88
455.955	284.88
456.175	291.88
456.395	269.88
456.616	285.88
456.836	280.88
457.056	282.88
457.276	284.88
457.497	282.88
457.717	281.88
457.937	301.88
458.157	289.88
458.377	282.88
458.598	295.88
458.818	294.88
459.038	305.88
459.258	317.88
459.478	327.88
459.698	337.88
459.918	354.88
460.138	379.88
460.358	380.88
460.578	383.88
460.798	367.88
461.018	394.88
461.238	372.88
461.458	390.88
461.678	388.88
461.898	390.88
462.118	377.88
462.338	419.88
462.558	400.88
462.777	419.88
462.997	448.88
463.217	488.88
463.437	520.88
463.657	455.88
463.876	448.88
464.096	463.88
464.316	433.88
464.536	435.88
464.755	424.88
464.975	412.88
465.195	393.88
465.414	385.88
465.634	357.88
465.854	334.88
466.073	333.88
466.293	325.88
466.512	321.88
466.732	319.88
466.951	312.88
467.171	311.88
467.391	298.88
467.61	319.88
467.829	309.88
468.049	305.88
468.268	301.88
468.488	296.88
468.707	330.88
468.927	316.88
469.146	316.88
469.365	333.88
469.585	295.88
469.804	329.88
470.023	335.88
470.243	327.88
470.462	356.88
470.681	325.88
470.901	342.88
471.12	316.88
471.339	332.88
471.558	301.88
471.777	307.88
471.997	306.88
472.216	300.88
472.435	315.88
472.654	295.88
472.873	313.88
473.092	301.88
473.311	298.88
473.53	309.88
473.749	277.88
473.968	314.88
474.187	294.88
474.406	303.88
474.625	307.88
474.844	323.88
475.063	284.88
475.282	318.88
475.501	290.88
475.72	305.88
475.939	323.88
476.158	315.88
476.377	330.88
476.596	309.88
476.814	333.88
477.033	294.88
477.252	333.88
477.471	338.88
477.69	324.88
477.908	339.88
478.127	372.88
478.346	342.88
478.564	347.88
478.783	375.88
479.002	372.88
479.22	397.88
479.439	375.88
479.658	349.88
479.876	381.88
480.095	377.88
480.313	389.88
480.532	399.88
480.751	383.88
480.969	381.88
481.188	360.88
481.406	377.88
481.624	357.88
481.843	357.88
482.061	349.88
482.28	324.88
482.498	340.88
482.717	346.88
482.935	364.88
483.153	351.88
483.372	340.88
483.59	338.88
483.808	331.88
484.027	348.88
484.245	347.88
484.463	348.88
484.681	374.88
484.9	369.88
485.118	364.88
485.336	359.88
485.554	375.88
485.772	356.88
485.99	379.88
486.209	364.88
486.427	364.88
486.645	379.88
486.863	395.88
487.081	373.88
487.299	369.88
487.517	385.88
487.735	371.88
487.953	384.88
488.171	347.88
488.389	355.88
488.607	374.88
488.825	351.88
489.043	349.88
489.261	359.88
489.479	381.88
489.696	363.88
489.914	359.88
490.132	376.88
490.35	369.88
490.568	356.88
490.786	354.88
491.003	351.88
491.221	371.88
491.439	379.88
491.657	375.88
491.874	377.88
492.092	371.88
492.31	380.88
492.527	379.88
492.745	344.88
492.963	369.88
493.18	381.88
493.398	361.88
493.615	380.88
493.833	391.88
494.05	388.88
494.268	399.88
494.485	385.88
494.703	379.88
494.92	389.88
495.138	390.88
495.355	386.88
495.573	384.88
495.79	389.88
496.008	382.88
496.225	383.88
496.442	394.88
496.66	399.88
496.877	405.88
497.094	393.88
497.312	418.88
497.529	429.88
497.746	420.88
497.963	437.88
498.181	444.88
498.398	474.88
498.615	486.88
498.832	515.88
499.049	541.88
499.267	605.88
499.484	649.88
499.701	736.88
499.918	790.88
500.135	911.88
500.352	1085.88
500.569	1116.88
500.786	1100.88
501.003	1025.88
501.22	917.88
501.437	801.88
501.654	698.88
501.871	619.88
502.088	597.88
502.305	563.88
502.522	533.88
502.739	491.88
502.956	469.88
503.172	466.88
503.389	437.88
503.606	433.88
503.823	444.88
504.04	431.88
504.256	425.88
504.473	446.88
504.69	455.88
504.907	477.88
505.123	412.88
505.34	386.88
505.557	370.88
505.773	368.88
505.99	366.88
506.207	350.88
506.423	358.88
506.64	343.88
506.856	355.88
507.073	365.88
507.289	341.88
507.506	354.88
507.722	359.88
507.939	346.88
508.155	342.88
508.372	334.88
508.588	348.88
508.805	338.88
509.021	332.88
509.238	330.88
509.454	334.88
509.67	329.88
509.887	348.88
510.103	314.88
510.319	328.88
510.536	322.88
510.752	331.88
510.968	326.88
511.184	303.88
511.401	321.88
511.617	326.88
511.833	297.88
512.049	311.88
512.265	331.88
512.481	316.88
512.698	323.88
512.914	341.88
513.13	327.88
513.346	326.88
513.562	320.88
513.778	324.88
513.994	325.88
514.21	329.88
514.426	333.88
514.642	312.88
514.858	320.88
515.074	322.88
515.29	346.88
515.506	335.88
515.721	331.88
515.937	343.88
516.153	334.88
516.369	346.88
516.585	369.88
516.801	388.88
517.016	401.88
517.232	401.88
517.448	442.88
517.664	455.88
517.879	457.88
518.095	456.88
518.311	447.88
518.527	412.88
518.742	405.88
518.958	393.88
519.173	374.88
519.389	359.88
519.605	349.88
519.82	353.88
520.036	337.88
520.251	339.88
520.467	332.88
520.682	315.88
520.898	318.88
521.113	324.88
521.329	328.88
521.544	324.88
521.76	319.88
521.975	328.88
522.19	324.88
522.406	298.88
522.621	311.88
522.836	293.88
523.052	314.88
523.267	328.88
523.482	317.88
523.698	306.88
523.913	307.88
524.128	317.88
524.343	308.88
524.559	292.88
524.774	315.88
524.989	295.88
525.204	328.88
525.419	313.88
525.634	289.88
525.849	299.88
526.064	312.88
526.28	318.88
526.495	306.88
526.71	321.88
526.925	309.88
527.14	292.88
527.355	300.88
527.57	285.88
527.785	313.88
527.999	296.88
528.214	313.88
528.429	306.88
528.644	301.88
528.859	313.88
529.074	313.88
529.289	319.88
529.503	285.88
529.718	309.88
529.933	306.88
530.148	294.88
530.363	307.88
530.577	299.88
530.792	318.88
531.007	286.88
531.221	299.88
531.436	312.88
531.651	305.88
531.865	300.88
532.08	301.88
532.295	316.88
532.509	302.88
532.724	295.88
532.938	308.88
533.153	294.88
533.367	308.88
533.582	313.88
533.796	300.88
534.011	300.88
534.225	310.88
534.44	310.88
534.654	308.88
534.868	295.88
535.083	310.88
535.297	285.88
535.511	294.88
535.726	291.88
535.94	297.88
536.154	293.88
536.369	287.88
536.583	278.88
536.797	293.88
537.011	267.88
537.225	294.88
537.44	285.88
537.654	295.88
537.868	275.88
538.082	301.88
538.296	286.88
538.51	287.88
538.724	290.88
538.938	295.88
539.153	263.88
539.367	277.88
539.581	271.88
539.795	278.88
540.009	286.88
540.222	275.88
540.436	278.88
540.65	283.88
540.864	279.88
541.078	282.88
541.292	270.88
541.506	286.88
541.72	292.88
541.934	270.88
542.147	302.88
542.361	273.88
542.575	280.88
542.789	280.88
543.002	279.88
543.216	290.88
543.43	284.88
543.644	278.88
543.857	271.88
544.071	282.88
544.285	277.88
544.498	296.88
544.712	294.88
544.925	299.88
545.139	289.88
545.352	293.88
545.566	297.88
545.779	290.88
545.993	310.88
546.206	302.88
546.42	300.88
546.633	302.88
546.847	287.88
547.06	294.88
547.274	282.88
547.487	303.88
547.7	294.88
547.914	271.88
548.127	295.88
548.34	300.88
548.554	292.88
548.767	279.88
548.98	275.88
549.193	286.88
549.407	289.88
549.62	293.88
549.833	302.88
550.046	292.88
550.259	294.88
550.473	287.88
550.686	289.88
550.899	284.88
551.112	279.88
551.325	295.88
551.538	280.88
551.751	277.88
551.964	281.88
552.177	280.88
552.39	278.88
552.603	302.88
552.816	304.88
553.029	312.88
553.242	319.88
553.455	321.88
553.667	313.88
553.88	323.88
554.093	308.88
554.306	331.88
554.519	301.88
554.732	291.88
554.944	287.88
555.157	277.88
555.37	300.88
555.583	273.88
555.795	287.88
556.008	267.88
556.221	260.88
556.433	269.88
556.646	267.88
556.859	245.88
557.071	249.88
557.284	257.88
557.496	270.88
557.709	260.88
557.921	263.88
558.134	236.88
558.346	261.88
558.559	253.88
558.771	273.88
558.984	258.88
559.196	242.88
559.409	265.88
559.621	265.88
559.833	246.88
560.046	257.88
560.258	260.88
560.47	252.88
560.683	258.88
560.895	250.88
561.107	251.88
561.32	247.88
561.532	266.88
561.744	244.88
561.956	248.88
562.168	246.88
562.381	245.88
562.593	254.88
562.805	253.88
563.017	264.88
563.229	271.88
563.441	263.88
563.653	243.88
563.865	247.88
564.077	250.88
564.289	245.88
564.501	264.88
564.713	281.88
564.925	269.88
565.137	274.88
565.349	278.88
565.561	294.88
565.773	279.88
565.985	285.88
566.197	311.88
566.408	332.88
566.62	383.88
566.832	397.88
567.044	410.88
567.255	395.88
567.467	377.88
567.679	426.88
567.891	474.88
568.102	498.88
568.314	467.88
568.526	414.88
568.737	381.88
568.949	337.88
569.161	324.88
569.372	290.88
569.584	285.88
569.795	274.88
570.007	289.88
570.218	263.88
570.43	257.88
570.641	261.88
570.853	271.88
571.064	275.88
571.276	268.88
571.487	259.88
571.698	261.88
571.91	237.88
572.121	241.88
572.333	225.88
572.544	231.88
572.755	241.88
572.966	234.88
573.178	231.88
573.389	230.88
573.6	243.88
573.811	228.88
574.023	221.88
574.234	234.88
574.445	237.88
574.656	234.88
574.867	212.88
575.078	234.88
575.289	218.88
575.501	221.88
575.712	233.88
575.923	215.88
576.134	217.88
576.345	214.88
576.556	219.88
576.767	218.88
576.978	221.88
577.188	214.88
577.399	221.88
577.61	211.88
577.821	215.88
578.032	207.88
578.243	212.88
578.454	215.88
578.665	199.88
578.875	217.88
579.086	203.88
579.297	204.88
579.508	206.88
579.718	198.88
579.929	198.88
580.14	181.88
580.35	209.88
580.561	198.88
580.772	193.88
580.982	210.88
581.193	195.88
581.403	191.88
581.614	206.88
581.825	222.88
582.035	211.88
582.246	205.88
582.456	192.88
582.667	196.88
582.877	198.88
583.087	191.88
583.298	207.88
583.508	207.88
583.719	196.88
583.929	199.88
584.139	203.88
584.35	191.88
584.56	189.88
584.77	201.88
584.981	212.88
585.191	195.88
585.401	195.88
585.611	197.88
585.821	206.88
586.032	202.88
586.242	202.88
586.452	198.88
586.662	194.88
586.872	198.88
587.082	199.88
587.292	194.88
587.502	210.88
587.713	204.88
587.923	193.88
588.133	183.88
588.343	207.88
588.553	191.88
588.762	183.88
588.972	180.88
589.182	198.88
589.392	193.88
589.602	198.88
589.812	199.88
590.022	193.88
590.232	204.88
590.441	187.88
590.651	194.88
590.861	207.88
591.071	205.88
591.281	229.88
591.49	216.88
591.7	193.88
591.91	204.88
592.119	193.88
592.329	214.88
592.539	217.88
592.748	219.88
592.958	227.88
593.167	245.88
593.377	257.88
593.587	246.88
593.796	248.88
594.006	236.88
594.215	222.88
594.424	249.88
594.634	255.88
594.843	241.88
595.053	244.88
595.262	235.88
595.472	212.88
595.681	191.88
595.89	199.88
596.1	202.88
596.309	201.88
596.518	186.88
596.727	183.88
596.937	193.88
597.146	184.88
597.355	181.88
597.564	194.88
597.774	187.88
597.983	187.88
598.192	194.88
598.401	194.88
598.61	186.88
598.819	178.88
599.028	178.88
599.237	174.88
599.446	183.88
599.655	187.88
599.864	165.88
600.073	169.88
600.282	183.88
600.491	173.88
600.7	181.88
600.909	180.88
601.118	180.88
601.327	181.88
601.536	188.88
601.745	181.88
601.953	172.88
602.162	169.88
602.371	158.88
602.58	173.88
602.789	172.88
602.997	172.88
603.206	169.88
603.415	159.88
603.623	176.88
603.832	183.88
604.041	162.88
604.249	160.88
604.458	168.88
604.666	172.88
604.875	175.88
605.084	174.88
605.292	173.88
605.501	165.88
605.709	177.88
605.918	165.88
606.126	157.88
606.334	164.88
606.543	185.88
606.751	165.88
606.96	167.88
607.168	181.88
607.376	171.88
607.585	171.88
607.793	159.88
608.001	177.88
608.21	181.88
608.418	168.88
608.626	149.88
608.834	174.88
609.043	180.88
609.251	183.88
609.459	165.88
609.667	165.88
609.875	175.88
610.083	161.88
610.291	179.88
610.499	162.88
610.707	166.88
610.916	148.88
611.124	181.88
611.332	174.88
611.54	168.88
611.748	167.88
611.955	162.88
612.163	161.88
612.371	139.88
612.579	163.88
612.787	156.88
612.995	162.88
613.203	173.88
613.411	167.88
613.618	162.88
613.826	180.88
614.034	169.88
614.242	170.88
614.449	157.88
614.657	169.88
614.865	167.88
615.072	162.88
615.28	168.88
615.488	169.88
615.695	173.88
615.903	166.88
616.111	173.88
616.318	169.88
616.526	181.88
616.733	178.88
616.941	173.88
617.148	165.88
617.356	156.88
617.563	169.88
617.771	177.88
617.978	168.88
618.185	164.88
618.393	174.88
618.6	164.88
618.807	177.88
619.015	164.88
619.222	161.88
619.429	165.88
619.637	157.88
619.844	168.88
620.051	166.88
620.258	155.88
620.466	151.88
620.673	158.88
620.88	165.88
621.087	158.88
621.294	146.88
621.501	170.88
621.708	163.88
621.915	157.88
622.122	167.88
622.329	163.88
622.536	157.88
622.743	146.88
622.95	149.88
623.157	148.88
623.364	163.88
623.571	150.88
623.778	140.88
623.985	153.88
624.192	147.88
624.399	133.88
624.606	161.88
624.812	164.88
625.019	151.88
625.226	157.88
625.433	133.88
625.639	151.88
625.846	162.88
626.053	156.88
626.259	127.88
626.466	149.88
626.673	153.88
626.879	137.88
627.086	161.88
627.293	139.88
627.499	152.88
627.706	143.88
627.912	133.88
628.119	132.88
628.325	136.88
628.532	135.88
628.738	145.88
628.945	143.88
629.151	141.88
629.357	152.88
629.564	147.88
629.77	153.88
629.976	144.88
630.183	144.88
630.389	149.88
630.595	134.88
630.802	129.88
631.008	126.88
631.214	143.88
631.42	153.88
631.627	145.88
631.833	138.88
632.039	143.88
632.245	143.88
632.451	127.88
632.657	126.88
632.863	141.88
633.069	135.88
633.275	149.88
633.481	134.88
633.688	126.88
633.893	146.88
634.099	142.88
634.305	131.88
634.511	147.88
634.717	146.88
634.923	141.88
635.129	143.88
635.335	132.88
635.541	142.88
635.747	140.88
635.952	147.88
636.158	117.88
636.364	137.88
636.57	134.88
636.775	150.88
636.981	130.88
637.187	133.88
637.392	149.88
637.598	148.88
637.804	123.88
638.009	118.88
638.215	129.88
638.421	134.88
638.626	134.88
638.832	132.88
639.037	142.88
639.243	137.88
639.448	126.88
639.654	127.88
639.859	136.88
640.065	121.88
640.27	127.88
640.475	132.88
640.681	131.88
640.886	128.88
641.091	133.88
641.297	131.88
641.502	149.88
641.707	113.88
641.913	126.88
642.118	136.88
642.323	125.88
642.528	117.88
642.733	135.88
642.939	138.88
643.144	124.88
643.349	129.88
643.554	130.88
643.759	129.88
643.964	124.88
644.169	143.88
644.374	129.88
644.579	134.88
644.784	123.88
644.989	133.88
645.194	122.88
645.399	127.88
645.604	129.88
645.809	128.88
646.014	125.88
646.219	125.88
646.423	125.88
646.628	134.88
646.833	140.88
647.038	152.88
647.243	149.88
647.447	128.88
647.652	125.88
647.857	133.88
648.062	147.88
648.266	134.88
648.471	130.88
648.676	138.88
648.88	146.88
649.085	128.88
649.289	138.88
649.494	151.88
649.698	134.88
649.903	117.88
650.107	119.88
650.312	123.88
650.516	116.88
650.721	125.88
650.925	132.88
651.13	128.88
651.334	119.88
651.539	129.88
651.743	122.88
651.947	124.88
652.152	125.88
652.356	126.88
652.56	122.88
652.764	118.88
652.969	121.88
653.173	114.88
653.377	100.88
653.581	117.88
653.785	124.88
653.99	106.88
654.194	105.88
654.398	114.88
654.602	110.88
654.806	122.88
655.01	121.88
655.214	124.88
655.418	119.88
655.622	125.88
655.826	121.88
656.03	111.88
656.234	140.88
656.438	117.88
656.642	118.88
656.846	107.88
657.049	125.88
657.253	108.88
657.457	104.88
657.661	106.88
657.865	90.88
658.068	115.88
658.272	105.88
658.476	102.88
658.68	107.88
658.883	107.88
659.087	87.88
659.291	93.88
659.494	98.88
659.698	84.88
659.901	98.88
660.105	94.88
660.309	95.88
660.512	87.88
660.716	89.88
660.919	100.88
661.123	101.88
661.326	83.88
661.53	94.88
661.733	105.88
661.936	92.88
662.14	90.88
662.343	94.88
662.546	97.88
662.75	75.88
662.953	102.88
663.156	90.88
663.36	79.88
663.563	89.88
663.766	96.88
663.969	87.88
664.173	73.88
664.376	92.88
664.579	94.88
664.782	85.88
664.985	100.88
665.188	100.88
665.391	78.88
665.594	77.88
665.797	69.88
666	92.88
666.203	97.88
666.406	75.88
666.609	67.88
666.812	78.88
667.015	90.88
667.218	85.88
667.421	84.88
667.624	82.88
667.827	77.88
668.03	92.88
668.232	84.88
668.435	79.88
668.638	63.88
668.841	85.88
669.043	83.88
669.246	86.88
669.449	82.88
669.651	82.88
669.854	88.88
670.057	74.88
670.259	80.88
670.462	76.88
670.665	85.88
670.867	84.88
671.07	85.88
671.272	82.88
671.475	83.88
671.677	82.88
671.88	80.88
672.082	66.88
672.284	71.88
672.487	86.88
672.689	89.88
672.892	86.88
