Data from 0.5MCu(NO3)2.Standard.Lamp.E10.CV._HRD10591_16-04-19-753.txt Node
Date: Mon Jul 22 16:04:19 EDT 2019
User: cochatt
Spectrometer: HR+D1059
Trigger mode: 1
Integration Time (sec): 1.000000E-1
Scans to average: 1
Electric dark correction enabled: true
Nonlinearity correction enabled: false
Boxcar width: 0
XAxis mode: Wavelengths
Number of Pixels in Spectrum: 2048
>>>>>Begin Spectral Data<<<<<
223.165	-16.31
223.4	-16.31
223.635	-16.31
223.869	-17.31
224.104	-19.31
224.338	-13.31
224.573	-26.31
224.808	-18.31
225.042	-3.31
225.277	-1.31
225.511	-2.31
225.746	-8.31
225.98	8.69
226.215	15.69
226.449	8.69
226.683	35.69
226.918	30.69
227.152	26.69
227.387	26.69
227.621	35.69
227.856	36.69
228.09	53.69
228.324	42.69
228.559	52.69
228.793	51.69
229.027	62.69
229.262	76.69
229.496	79.69
229.73	85.69
229.964	91.69
230.199	77.69
230.433	81.69
230.667	67.69
230.901	96.69
231.136	86.69
231.37	89.69
231.604	88.69
231.838	93.69
232.072	84.69
232.306	94.69
232.541	98.69
232.775	91.69
233.009	77.69
233.243	95.69
233.477	94.69
233.711	91.69
233.945	102.69
234.179	80.69
234.413	99.69
234.647	94.69
234.881	98.69
235.115	96.69
235.349	91.69
235.583	99.69
235.817	97.69
236.051	88.69
236.285	94.69
236.519	105.69
236.753	102.69
236.987	98.69
237.221	90.69
237.455	99.69
237.689	94.69
237.922	93.69
238.156	112.69
238.39	95.69
238.624	94.69
238.858	86.69
239.091	99.69
239.325	103.69
239.559	82.69
239.793	111.69
240.027	89.69
240.26	102.69
240.494	104.69
240.728	104.69
240.961	94.69
241.195	109.69
241.429	110.69
241.662	99.69
241.896	118.69
242.13	112.69
242.363	95.69
242.597	94.69
242.83	110.69
243.064	110.69
243.298	125.69
243.531	96.69
243.765	109.69
243.998	100.69
244.232	122.69
244.465	115.69
244.699	113.69
244.932	115.69
245.166	130.69
245.399	118.69
245.633	115.69
245.866	129.69
246.099	127.69
246.333	114.69
246.566	124.69
246.8	122.69
247.033	121.69
247.266	102.69
247.5	117.69
247.733	122.69
247.966	126.69
248.2	124.69
248.433	117.69
248.666	116.69
248.899	107.69
249.133	108.69
249.366	129.69
249.599	126.69
249.832	112.69
250.066	119.69
250.299	130.69
250.532	124.69
250.765	133.69
250.998	127.69
251.231	126.69
251.465	121.69
251.698	138.69
251.931	133.69
252.164	113.69
252.397	125.69
252.63	135.69
252.863	123.69
253.096	134.69
253.329	140.69
253.562	123.69
253.795	126.69
254.028	134.69
254.261	136.69
254.494	129.69
254.727	136.69
254.96	125.69
255.193	143.69
255.426	137.69
255.659	121.69
255.892	131.69
256.124	131.69
256.357	125.69
256.59	143.69
256.823	136.69
257.056	142.69
257.289	142.69
257.521	139.69
257.754	135.69
257.987	143.69
258.22	137.69
258.452	149.69
258.685	133.69
258.918	131.69
259.151	134.69
259.383	135.69
259.616	158.69
259.849	157.69
260.081	147.69
260.314	138.69
260.547	154.69
260.779	146.69
261.012	138.69
261.244	166.69
261.477	160.69
261.71	156.69
261.942	156.69
262.175	155.69
262.407	142.69
262.64	136.69
262.872	138.69
263.105	168.69
263.337	167.69
263.57	147.69
263.802	131.69
264.035	160.69
264.267	156.69
264.499	156.69
264.732	162.69
264.964	167.69
265.197	146.69
265.429	160.69
265.661	167.69
265.894	177.69
266.126	169.69
266.358	137.69
266.591	166.69
266.823	152.69
267.055	157.69
267.287	172.69
267.52	146.69
267.752	173.69
267.984	159.69
268.216	164.69
268.448	165.69
268.681	157.69
268.913	171.69
269.145	176.69
269.377	166.69
269.609	164.69
269.841	159.69
270.073	179.69
270.306	167.69
270.538	167.69
270.77	168.69
271.002	169.69
271.234	153.69
271.466	156.69
271.698	185.69
271.93	179.69
272.162	164.69
272.394	172.69
272.626	168.69
272.858	178.69
273.09	186.69
273.322	188.69
273.553	164.69
273.785	176.69
274.017	187.69
274.249	176.69
274.481	184.69
274.713	185.69
274.945	184.69
275.176	177.69
275.408	184.69
275.64	182.69
275.872	174.69
276.104	191.69
276.335	189.69
276.567	176.69
276.799	191.69
277.031	193.69
277.262	179.69
277.494	194.69
277.726	184.69
277.957	193.69
278.189	197.69
278.421	180.69
278.652	189.69
278.884	201.69
279.115	191.69
279.347	197.69
279.579	201.69
279.81	206.69
280.042	208.69
280.273	192.69
280.505	185.69
280.736	189.69
280.968	202.69
281.199	201.69
281.431	198.69
281.662	216.69
281.894	200.69
282.125	209.69
282.356	201.69
282.588	210.69
282.819	210.69
283.051	212.69
283.282	199.69
283.513	213.69
283.745	202.69
283.976	220.69
284.207	205.69
284.439	215.69
284.67	216.69
284.901	203.69
285.132	201.69
285.364	222.69
285.595	218.69
285.826	218.69
286.057	226.69
286.288	209.69
286.52	210.69
286.751	218.69
286.982	226.69
287.213	213.69
287.444	239.69
287.675	218.69
287.906	231.69
288.138	216.69
288.369	224.69
288.6	228.69
288.831	222.69
289.062	223.69
289.293	232.69
289.524	225.69
289.755	212.69
289.986	210.69
290.217	246.69
290.448	238.69
290.679	243.69
290.91	234.69
291.141	224.69
291.371	230.69
291.602	222.69
291.833	224.69
292.064	225.69
292.295	247.69
292.526	234.69
292.757	238.69
292.987	226.69
293.218	238.69
293.449	236.69
293.68	230.69
293.91	217.69
294.141	238.69
294.372	252.69
294.603	231.69
294.833	227.69
295.064	240.69
295.295	250.69
295.525	230.69
295.756	234.69
295.987	238.69
296.217	231.69
296.448	256.69
296.679	234.69
296.909	241.69
297.14	252.69
297.37	261.69
297.601	232.69
297.831	248.69
298.062	258.69
298.292	256.69
298.523	258.69
298.753	269.69
298.984	216.69
299.214	252.69
299.445	241.69
299.675	256.69
299.905	266.69
300.136	241.69
300.366	241.69
300.597	262.69
300.827	262.69
301.057	263.69
301.288	275.69
301.518	260.69
301.748	253.69
301.979	269.69
302.209	263.69
302.439	247.69
302.669	273.69
302.9	254.69
303.13	262.69
303.36	248.69
303.59	264.69
303.82	263.69
304.051	258.69
304.281	252.69
304.511	250.69
304.741	270.69
304.971	263.69
305.201	270.69
305.431	259.69
305.661	275.69
305.891	270.69
306.121	262.69
306.352	257.69
306.582	243.69
306.812	254.69
307.042	263.69
307.272	258.69
307.502	248.69
307.731	239.69
307.961	261.69
308.191	246.69
308.421	258.69
308.651	244.69
308.881	258.69
309.111	265.69
309.341	272.69
309.571	262.69
309.8	242.69
310.03	252.69
310.26	249.69
310.49	268.69
310.72	249.69
310.949	262.69
311.179	252.69
311.409	263.69
311.639	273.69
311.868	260.69
312.098	247.69
312.328	256.69
312.557	252.69
312.787	263.69
313.017	273.69
313.246	279.69
313.476	259.69
313.706	281.69
313.935	259.69
314.165	265.69
314.394	284.69
314.624	281.69
314.853	280.69
315.083	276.69
315.312	273.69
315.542	285.69
315.771	268.69
316.001	285.69
316.23	260.69
316.46	262.69
316.689	280.69
316.919	281.69
317.148	275.69
317.377	286.69
317.607	271.69
317.836	269.69
318.065	263.69
318.295	244.69
318.524	264.69
318.753	263.69
318.983	266.69
319.212	275.69
319.441	280.69
319.67	271.69
319.9	262.69
320.129	259.69
320.358	278.69
320.587	260.69
320.816	271.69
321.046	252.69
321.275	274.69
321.504	278.69
321.733	258.69
321.962	261.69
322.191	275.69
322.42	266.69
322.649	285.69
322.878	263.69
323.108	270.69
323.337	272.69
323.566	276.69
323.795	255.69
324.024	280.69
324.253	276.69
324.482	260.69
324.71	254.69
324.939	279.69
325.168	276.69
325.397	269.69
325.626	293.69
325.855	297.69
326.084	293.69
326.313	296.69
326.542	290.69
326.77	293.69
326.999	292.69
327.228	286.69
327.457	287.69
327.686	277.69
327.914	304.69
328.143	290.69
328.372	299.69
328.6	302.69
328.829	290.69
329.058	301.69
329.287	270.69
329.515	270.69
329.744	291.69
329.972	297.69
330.201	291.69
330.43	292.69
330.658	304.69
330.887	300.69
331.115	300.69
331.344	313.69
331.572	315.69
331.801	304.69
332.03	301.69
332.258	317.69
332.486	342.69
332.715	334.69
332.943	345.69
333.172	385.69
333.4	389.69
333.629	362.69
333.857	368.69
334.085	373.69
334.314	382.69
334.542	377.69
334.771	349.69
334.999	367.69
335.227	343.69
335.455	336.69
335.684	345.69
335.912	348.69
336.14	344.69
336.369	324.69
336.597	339.69
336.825	325.69
337.053	333.69
337.281	333.69
337.51	330.69
337.738	330.69
337.966	312.69
338.194	303.69
338.422	314.69
338.65	305.69
338.878	313.69
339.106	295.69
339.334	293.69
339.562	295.69
339.79	301.69
340.018	283.69
340.246	284.69
340.474	294.69
340.702	294.69
340.93	318.69
341.158	306.69
341.386	298.69
341.614	297.69
341.842	313.69
342.07	286.69
342.298	290.69
342.526	280.69
342.754	278.69
342.981	306.69
343.209	293.69
343.437	314.69
343.665	337.69
343.893	392.69
344.12	364.69
344.348	360.69
344.576	321.69
344.804	322.69
345.031	292.69
345.259	302.69
345.487	276.69
345.714	303.69
345.942	304.69
346.17	298.69
346.397	296.69
346.625	275.69
346.853	294.69
347.08	281.69
347.308	280.69
347.535	288.69
347.763	288.69
347.99	299.69
348.218	305.69
348.445	302.69
348.673	284.69
348.9	274.69
349.128	277.69
349.355	269.69
349.583	282.69
349.81	290.69
350.037	280.69
350.265	272.69
350.492	263.69
350.72	272.69
350.947	287.69
351.174	287.69
351.402	263.69
351.629	277.69
351.856	272.69
352.083	275.69
352.311	278.69
352.538	265.69
352.765	277.69
352.992	278.69
353.22	277.69
353.447	286.69
353.674	258.69
353.901	284.69
354.128	269.69
354.355	267.69
354.583	290.69
354.81	292.69
355.037	286.69
355.264	281.69
355.491	277.69
355.718	274.69
355.945	285.69
356.172	300.69
356.399	281.69
356.626	293.69
356.853	278.69
357.08	264.69
357.307	280.69
357.534	278.69
357.761	281.69
357.988	276.69
358.215	277.69
358.441	277.69
358.668	272.69
358.895	271.69
359.122	257.69
359.349	284.69
359.576	276.69
359.802	266.69
360.029	257.69
360.256	292.69
360.483	280.69
360.709	269.69
360.936	280.69
361.163	273.69
361.39	280.69
361.616	282.69
361.843	281.69
362.07	286.69
362.296	273.69
362.523	270.69
362.749	286.69
362.976	273.69
363.203	283.69
363.429	289.69
363.656	263.69
363.882	270.69
364.109	277.69
364.335	276.69
364.562	266.69
364.788	266.69
365.015	259.69
365.241	266.69
365.468	285.69
365.694	274.69
365.92	259.69
366.147	270.69
366.373	270.69
366.599	273.69
366.826	280.69
367.052	286.69
367.278	280.69
367.505	298.69
367.731	279.69
367.957	267.69
368.184	270.69
368.41	270.69
368.636	275.69
368.862	272.69
369.089	284.69
369.315	275.69
369.541	276.69
369.767	291.69
369.993	291.69
370.219	272.69
370.445	287.69
370.672	279.69
370.898	277.69
371.124	286.69
371.35	282.69
371.576	299.69
371.802	282.69
372.028	274.69
372.254	290.69
372.48	281.69
372.706	300.69
372.932	302.69
373.158	295.69
373.384	280.69
373.61	302.69
373.835	303.69
374.061	272.69
374.287	293.69
374.513	303.69
374.739	300.69
374.965	329.69
375.191	318.69
375.416	320.69
375.642	300.69
375.868	309.69
376.094	312.69
376.319	289.69
376.545	305.69
376.771	309.69
376.997	301.69
377.222	293.69
377.448	286.69
377.674	293.69
377.899	277.69
378.125	285.69
378.35	288.69
378.576	273.69
378.802	279.69
379.027	297.69
379.253	280.69
379.478	287.69
379.704	280.69
379.929	293.69
380.155	281.69
380.38	287.69
380.606	271.69
380.831	283.69
381.057	283.69
381.282	281.69
381.507	296.69
381.733	285.69
381.958	288.69
382.184	290.69
382.409	283.69
382.634	292.69
382.86	300.69
383.085	295.69
383.31	298.69
383.535	294.69
383.761	312.69
383.986	303.69
384.211	321.69
384.436	325.69
384.662	342.69
384.887	326.69
385.112	329.69
385.337	335.69
385.562	318.69
385.787	331.69
386.013	344.69
386.238	347.69
386.463	357.69
386.688	325.69
386.913	327.69
387.138	337.69
387.363	318.69
387.588	328.69
387.813	319.69
388.038	341.69
388.263	334.69
388.488	340.69
388.713	325.69
388.938	300.69
389.163	334.69
389.387	322.69
389.612	317.69
389.837	318.69
390.062	327.69
390.287	324.69
390.512	326.69
390.736	326.69
390.961	333.69
391.186	348.69
391.411	336.69
391.636	359.69
391.86	366.69
392.085	375.69
392.31	353.69
392.534	365.69
392.759	354.69
392.984	356.69
393.208	362.69
393.433	336.69
393.658	342.69
393.882	349.69
394.107	354.69
394.331	368.69
394.556	360.69
394.78	364.69
395.005	351.69
395.229	342.69
395.454	357.69
395.678	371.69
395.903	375.69
396.127	348.69
396.352	363.69
396.576	342.69
396.801	346.69
397.025	334.69
397.249	348.69
397.474	373.69
397.698	359.69
397.922	357.69
398.147	342.69
398.371	357.69
398.595	366.69
398.82	370.69
399.044	428.69
399.268	452.69
399.492	546.69
399.717	601.69
399.941	598.69
400.165	515.69
400.389	473.69
400.613	404.69
400.837	375.69
401.062	391.69
401.286	376.69
401.51	388.69
401.734	368.69
401.958	389.69
402.182	392.69
402.406	378.69
402.63	434.69
402.854	420.69
403.078	440.69
403.302	434.69
403.526	448.69
403.75	478.69
403.974	455.69
404.198	485.69
404.422	480.69
404.645	447.69
404.869	437.69
405.093	457.69
405.317	428.69
405.541	454.69
405.765	420.69
405.988	419.69
406.212	423.69
406.436	445.69
406.66	424.69
406.883	447.69
407.107	470.69
407.331	495.69
407.555	502.69
407.778	525.69
408.002	509.69
408.226	442.69
408.449	438.69
408.673	458.69
408.896	412.69
409.12	440.69
409.344	432.69
409.567	441.69
409.791	449.69
410.014	455.69
410.238	439.69
410.461	423.69
410.685	425.69
410.908	439.69
411.132	424.69
411.355	404.69
411.578	411.69
411.802	419.69
412.025	423.69
412.249	402.69
412.472	385.69
412.695	394.69
412.919	386.69
413.142	404.69
413.365	396.69
413.589	383.69
413.812	390.69
414.035	377.69
414.258	383.69
414.482	375.69
414.705	392.69
414.928	399.69
415.151	397.69
415.374	402.69
415.597	381.69
415.821	388.69
416.044	402.69
416.267	381.69
416.49	373.69
416.713	397.69
416.936	385.69
417.159	388.69
417.382	380.69
417.605	374.69
417.828	400.69
418.051	373.69
418.274	378.69
418.497	380.69
418.72	400.69
418.943	392.69
419.166	411.69
419.389	439.69
419.611	432.69
419.834	410.69
420.057	424.69
420.28	386.69
420.503	366.69
420.726	366.69
420.948	375.69
421.171	372.69
421.394	390.69
421.617	384.69
421.839	397.69
422.062	390.69
422.285	390.69
422.507	409.69
422.73	414.69
422.953	401.69
423.175	401.69
423.398	407.69
423.621	417.69
423.843	401.69
424.066	396.69
424.288	428.69
424.511	418.69
424.733	386.69
424.956	383.69
425.178	386.69
425.401	391.69
425.623	381.69
425.846	382.69
426.068	361.69
426.291	364.69
426.513	353.69
426.735	344.69
426.958	362.69
427.18	351.69
427.402	350.69
427.625	374.69
427.847	353.69
428.069	353.69
428.292	353.69
428.514	352.69
428.736	348.69
428.958	342.69
429.181	333.69
429.403	332.69
429.625	340.69
429.847	340.69
430.069	339.69
430.292	310.69
430.514	317.69
430.736	341.69
430.958	341.69
431.18	332.69
431.402	336.69
431.624	330.69
431.846	342.69
432.068	381.69
432.29	360.69
432.512	347.69
432.734	344.69
432.956	349.69
433.178	379.69
433.4	364.69
433.622	344.69
433.844	353.69
434.066	350.69
434.287	332.69
434.509	357.69
434.731	379.69
434.953	381.69
435.175	397.69
435.397	395.69
435.618	367.69
435.84	355.69
436.062	358.69
436.284	339.69
436.505	338.69
436.727	345.69
436.949	351.69
437.17	342.69
437.392	351.69
437.614	342.69
437.835	334.69
438.057	310.69
438.278	321.69
438.5	336.69
438.721	320.69
438.943	320.69
439.165	350.69
439.386	338.69
439.608	346.69
439.829	343.69
440.05	354.69
440.272	344.69
440.493	373.69
440.715	346.69
440.936	349.69
441.158	367.69
441.379	384.69
441.6	392.69
441.822	386.69
442.043	376.69
442.264	356.69
442.486	361.69
442.707	383.69
442.928	362.69
443.149	367.69
443.371	378.69
443.592	348.69
443.813	382.69
444.034	377.69
444.255	404.69
444.476	422.69
444.698	437.69
444.919	465.69
445.14	558.69
445.361	476.69
445.582	396.69
445.803	375.69
446.024	382.69
446.245	362.69
446.466	342.69
446.687	332.69
446.908	348.69
447.129	333.69
447.35	359.69
447.571	341.69
447.792	340.69
448.013	336.69
448.234	336.69
448.455	325.69
448.675	321.69
448.896	313.69
449.117	306.69
449.338	324.69
449.559	312.69
449.779	305.69
450	329.69
450.221	313.69
450.442	322.69
450.662	316.69
450.883	343.69
451.104	334.69
451.324	333.69
451.545	336.69
451.766	308.69
451.986	320.69
452.207	325.69
452.428	325.69
452.648	315.69
452.869	326.69
453.089	310.69
453.31	316.69
453.53	315.69
453.751	310.69
453.971	311.69
454.192	288.69
454.412	304.69
454.633	295.69
454.853	295.69
455.073	301.69
455.294	311.69
455.514	296.69
455.734	298.69
455.955	286.69
456.175	312.69
456.395	313.69
456.616	290.69
456.836	300.69
457.056	294.69
457.276	306.69
457.497	295.69
457.717	284.69
457.937	320.69
458.157	298.69
458.377	296.69
458.598	308.69
458.818	349.69
459.038	325.69
459.258	336.69
459.478	343.69
459.698	332.69
459.918	353.69
460.138	382.69
460.358	393.69
460.578	421.69
460.798	396.69
461.018	387.69
461.238	404.69
461.458	424.69
461.678	414.69
461.898	410.69
462.118	417.69
462.338	434.69
462.558	438.69
462.777	469.69
462.997	482.69
463.217	548.69
463.437	534.69
463.657	488.69
463.876	464.69
464.096	462.69
464.316	483.69
464.536	498.69
464.755	459.69
464.975	439.69
465.195	423.69
465.414	394.69
465.634	361.69
465.854	363.69
466.073	351.69
466.293	340.69
466.512	343.69
466.732	350.69
466.951	330.69
467.171	352.69
467.391	323.69
467.61	343.69
467.829	329.69
468.049	336.69
468.268	330.69
468.488	324.69
468.707	321.69
468.927	333.69
469.146	326.69
469.365	325.69
469.585	322.69
469.804	351.69
470.023	356.69
470.243	360.69
470.462	350.69
470.681	359.69
470.901	339.69
471.12	352.69
471.339	341.69
471.558	341.69
471.777	323.69
471.997	329.69
472.216	335.69
472.435	317.69
472.654	318.69
472.873	319.69
473.092	297.69
473.311	327.69
473.53	317.69
473.749	327.69
473.968	324.69
474.187	330.69
474.406	325.69
474.625	304.69
474.844	338.69
475.063	318.69
475.282	325.69
475.501	322.69
475.72	333.69
475.939	324.69
476.158	345.69
476.377	318.69
476.596	330.69
476.814	338.69
477.033	342.69
477.252	344.69
477.471	342.69
477.69	368.69
477.908	365.69
478.127	380.69
478.346	376.69
478.564	390.69
478.783	392.69
479.002	398.69
479.22	410.69
479.439	398.69
479.658	398.69
479.876	411.69
480.095	398.69
480.313	410.69
480.532	430.69
480.751	431.69
480.969	413.69
481.188	392.69
481.406	370.69
481.624	386.69
481.843	377.69
482.061	357.69
482.28	367.69
482.498	361.69
482.717	384.69
482.935	393.69
483.153	372.69
483.372	364.69
483.59	351.69
483.808	368.69
484.027	364.69
484.245	385.69
484.463	389.69
484.681	394.69
484.9	388.69
485.118	387.69
485.336	391.69
485.554	389.69
485.772	421.69
485.99	397.69
486.209	402.69
486.427	426.69
486.645	414.69
486.863	412.69
487.081	413.69
487.299	384.69
487.517	408.69
487.735	385.69
487.953	377.69
488.171	397.69
488.389	398.69
488.607	395.69
488.825	367.69
489.043	391.69
489.261	393.69
489.479	372.69
489.696	386.69
489.914	391.69
490.132	396.69
490.35	391.69
490.568	388.69
490.786	393.69
491.003	378.69
491.221	383.69
491.439	385.69
491.657	411.69
491.874	405.69
492.092	408.69
492.31	386.69
492.527	417.69
492.745	402.69
492.963	417.69
493.18	407.69
493.398	400.69
493.615	411.69
493.833	408.69
494.05	409.69
494.268	418.69
494.485	405.69
494.703	423.69
494.92	397.69
495.138	387.69
495.355	410.69
495.573	414.69
495.79	422.69
496.008	404.69
496.225	413.69
496.442	438.69
496.66	433.69
496.877	424.69
497.094	448.69
497.312	445.69
497.529	438.69
497.746	465.69
497.963	489.69
498.181	474.69
498.398	498.69
498.615	534.69
498.832	562.69
499.049	605.69
499.267	653.69
499.484	727.69
499.701	792.69
499.918	854.69
500.135	977.69
500.352	1130.69
500.569	1189.69
500.786	1192.69
501.003	1093.69
501.22	983.69
501.437	858.69
501.654	759.69
501.871	683.69
502.088	626.69
502.305	597.69
502.522	570.69
502.739	545.69
502.956	531.69
503.172	507.69
503.389	487.69
503.606	464.69
503.823	469.69
504.04	456.69
504.256	470.69
504.473	478.69
504.69	517.69
504.907	493.69
505.123	441.69
505.34	419.69
505.557	400.69
505.773	401.69
505.99	401.69
506.207	383.69
506.423	390.69
506.64	370.69
506.856	379.69
507.073	390.69
507.289	371.69
507.506	376.69
507.722	368.69
507.939	369.69
508.155	356.69
508.372	352.69
508.588	353.69
508.805	368.69
509.021	344.69
509.238	361.69
509.454	357.69
509.67	350.69
509.887	355.69
510.103	330.69
510.319	357.69
510.536	364.69
510.752	330.69
510.968	355.69
511.184	351.69
511.401	352.69
511.617	349.69
511.833	336.69
512.049	353.69
512.265	356.69
512.481	326.69
512.698	341.69
512.914	353.69
513.13	330.69
513.346	340.69
513.562	351.69
513.778	357.69
513.994	347.69
514.21	348.69
514.426	339.69
514.642	353.69
514.858	365.69
515.074	352.69
515.29	376.69
515.506	352.69
515.721	390.69
515.937	392.69
516.153	375.69
516.369	387.69
516.585	400.69
516.801	401.69
517.016	432.69
517.232	449.69
517.448	469.69
517.664	467.69
517.879	476.69
518.095	475.69
518.311	475.69
518.527	452.69
518.742	422.69
518.958	432.69
519.173	405.69
519.389	411.69
519.605	384.69
519.82	396.69
520.036	382.69
520.251	365.69
520.467	358.69
520.682	374.69
520.898	364.69
521.113	349.69
521.329	339.69
521.544	336.69
521.76	349.69
521.975	339.69
522.19	333.69
522.406	340.69
522.621	350.69
522.836	328.69
523.052	338.69
523.267	343.69
523.482	327.69
523.698	338.69
523.913	345.69
524.128	331.69
524.343	339.69
524.559	337.69
524.774	317.69
524.989	331.69
525.204	332.69
525.419	332.69
525.634	314.69
525.849	330.69
526.064	330.69
526.28	324.69
526.495	324.69
526.71	328.69
526.925	317.69
527.14	317.69
527.355	331.69
527.57	317.69
527.785	297.69
527.999	324.69
528.214	322.69
528.429	342.69
528.644	341.69
528.859	329.69
529.074	343.69
529.289	333.69
529.503	327.69
529.718	326.69
529.933	316.69
530.148	328.69
530.363	325.69
530.577	320.69
530.792	343.69
531.007	325.69
531.221	342.69
531.436	336.69
531.651	327.69
531.865	335.69
532.08	339.69
532.295	320.69
532.509	324.69
532.724	327.69
532.938	330.69
533.153	305.69
533.367	326.69
533.582	336.69
533.796	353.69
534.011	351.69
534.225	333.69
534.44	335.69
534.654	322.69
534.868	326.69
535.083	325.69
535.297	332.69
535.511	325.69
535.726	310.69
535.94	317.69
536.154	316.69
536.369	320.69
536.583	290.69
536.797	321.69
537.011	297.69
537.225	314.69
537.44	302.69
537.654	321.69
537.868	301.69
538.082	298.69
538.296	295.69
538.51	313.69
538.724	296.69
538.938	319.69
539.153	289.69
539.367	313.69
539.581	285.69
539.795	285.69
540.009	284.69
540.222	326.69
540.436	296.69
540.65	316.69
540.864	292.69
541.078	297.69
541.292	298.69
541.506	314.69
541.72	296.69
541.934	304.69
542.147	294.69
542.361	310.69
542.575	283.69
542.789	308.69
543.002	294.69
543.216	292.69
543.43	280.69
543.644	280.69
543.857	306.69
544.071	314.69
544.285	304.69
544.498	301.69
544.712	304.69
544.925	329.69
545.139	299.69
545.352	308.69
545.566	313.69
545.779	320.69
545.993	320.69
546.206	309.69
546.42	325.69
546.633	308.69
546.847	293.69
547.06	317.69
547.274	325.69
547.487	317.69
547.7	301.69
547.914	325.69
548.127	317.69
548.34	314.69
548.554	297.69
548.767	324.69
548.98	317.69
549.193	314.69
549.407	334.69
549.62	335.69
549.833	337.69
550.046	309.69
550.259	313.69
550.473	310.69
550.686	295.69
550.899	287.69
551.112	292.69
551.325	302.69
551.538	317.69
551.751	313.69
551.964	326.69
552.177	294.69
552.39	302.69
552.603	309.69
552.816	327.69
553.029	331.69
553.242	345.69
553.455	357.69
553.667	342.69
553.88	346.69
554.093	329.69
554.306	325.69
554.519	318.69
554.732	305.69
554.944	310.69
555.157	286.69
555.37	302.69
555.583	311.69
555.795	273.69
556.008	303.69
556.221	270.69
556.433	292.69
556.646	298.69
556.859	284.69
557.071	287.69
557.284	278.69
557.496	270.69
557.709	269.69
557.921	277.69
558.134	282.69
558.346	266.69
558.559	281.69
558.771	274.69
558.984	285.69
559.196	272.69
559.409	275.69
559.621	266.69
559.833	264.69
560.046	269.69
560.258	268.69
560.47	285.69
560.683	274.69
560.895	289.69
561.107	274.69
561.32	275.69
561.532	260.69
561.744	256.69
561.956	278.69
562.168	272.69
562.381	281.69
562.593	253.69
562.805	244.69
563.017	274.69
563.229	270.69
563.441	282.69
563.653	276.69
563.865	265.69
564.077	276.69
564.289	262.69
564.501	286.69
564.713	283.69
564.925	285.69
565.137	296.69
565.349	312.69
565.561	305.69
565.773	324.69
565.985	323.69
566.197	336.69
566.408	364.69
566.62	394.69
566.832	454.69
567.044	446.69
567.255	437.69
567.467	444.69
567.679	465.69
567.891	502.69
568.102	515.69
568.314	510.69
568.526	464.69
568.737	406.69
568.949	363.69
569.161	348.69
569.372	312.69
569.584	292.69
569.795	281.69
570.007	282.69
570.218	280.69
570.43	270.69
570.641	288.69
570.853	284.69
571.064	290.69
571.276	303.69
571.487	297.69
571.698	276.69
571.91	264.69
572.121	239.69
572.333	256.69
572.544	236.69
572.755	253.69
572.966	255.69
573.178	229.69
573.389	247.69
573.6	237.69
573.811	259.69
574.023	242.69
574.234	236.69
574.445	237.69
574.656	233.69
574.867	238.69
575.078	257.69
575.289	258.69
575.501	235.69
575.712	253.69
575.923	228.69
576.134	222.69
576.345	216.69
576.556	217.69
576.767	223.69
576.978	222.69
577.188	236.69
577.399	224.69
577.61	241.69
577.821	244.69
578.032	231.69
578.243	222.69
578.454	232.69
578.665	217.69
578.875	217.69
579.086	218.69
579.297	211.69
579.508	222.69
579.718	214.69
579.929	213.69
580.14	221.69
580.35	202.69
580.561	202.69
580.772	206.69
580.982	242.69
581.193	209.69
581.403	230.69
581.614	210.69
581.825	212.69
582.035	206.69
582.246	216.69
582.456	213.69
582.667	231.69
582.877	212.69
583.087	214.69
583.298	215.69
583.508	221.69
583.719	201.69
583.929	199.69
584.139	196.69
584.35	221.69
584.56	212.69
584.77	202.69
584.981	201.69
585.191	210.69
585.401	213.69
585.611	211.69
585.821	199.69
586.032	212.69
586.242	202.69
586.452	203.69
586.662	198.69
586.872	211.69
587.082	202.69
587.292	194.69
587.502	199.69
587.713	194.69
587.923	215.69
588.133	213.69
588.343	203.69
588.553	211.69
588.762	209.69
588.972	210.69
589.182	214.69
589.392	206.69
589.602	198.69
589.812	221.69
590.022	214.69
590.232	218.69
590.441	214.69
590.651	212.69
590.861	217.69
591.071	208.69
591.281	211.69
591.49	213.69
591.7	221.69
591.91	211.69
592.119	215.69
592.329	244.69
592.539	225.69
592.748	219.69
592.958	244.69
593.167	259.69
593.377	248.69
593.587	262.69
593.796	274.69
594.006	264.69
594.215	282.69
594.424	255.69
594.634	252.69
594.843	258.69
595.053	244.69
595.262	248.69
595.472	218.69
595.681	217.69
595.89	221.69
596.1	205.69
596.309	210.69
596.518	199.69
596.727	204.69
596.937	199.69
597.146	200.69
597.355	182.69
597.564	194.69
597.774	196.69
597.983	194.69
598.192	197.69
598.401	188.69
598.61	191.69
598.819	198.69
599.028	185.69
599.237	195.69
599.446	193.69
599.655	184.69
599.864	168.69
600.073	194.69
600.282	193.69
600.491	181.69
600.7	193.69
600.909	193.69
601.118	192.69
601.327	202.69
601.536	185.69
601.745	186.69
601.953	190.69
602.162	173.69
602.371	188.69
602.58	197.69
602.789	197.69
602.997	188.69
603.206	184.69
603.415	184.69
603.623	176.69
603.832	181.69
604.041	174.69
604.249	173.69
604.458	173.69
604.666	157.69
604.875	168.69
605.084	165.69
605.292	169.69
605.501	180.69
605.709	176.69
605.918	168.69
606.126	184.69
606.334	195.69
606.543	172.69
606.751	162.69
606.96	168.69
607.168	169.69
607.376	177.69
607.585	202.69
607.793	162.69
608.001	168.69
608.21	184.69
608.418	169.69
608.626	177.69
608.834	164.69
609.043	172.69
609.251	154.69
609.459	159.69
609.667	168.69
609.875	176.69
610.083	169.69
610.291	190.69
610.499	178.69
610.707	174.69
610.916	197.69
611.124	185.69
611.332	157.69
611.54	180.69
611.748	169.69
611.955	189.69
612.163	180.69
612.371	178.69
612.579	176.69
612.787	169.69
612.995	176.69
613.203	173.69
613.411	150.69
613.618	170.69
613.826	149.69
614.034	151.69
614.242	164.69
614.449	169.69
614.657	173.69
614.865	170.69
615.072	169.69
615.28	175.69
615.488	164.69
615.695	180.69
615.903	181.69
616.111	182.69
616.318	190.69
616.526	179.69
616.733	180.69
616.941	172.69
617.148	185.69
617.356	168.69
617.563	172.69
617.771	173.69
617.978	164.69
618.185	192.69
618.393	161.69
618.6	169.69
618.807	181.69
619.015	177.69
619.222	181.69
619.429	177.69
619.637	154.69
619.844	165.69
620.051	173.69
620.258	166.69
620.466	159.69
620.673	157.69
620.88	144.69
621.087	154.69
621.294	148.69
621.501	158.69
621.708	165.69
621.915	163.69
622.122	169.69
622.329	161.69
622.536	152.69
622.743	165.69
622.95	165.69
623.157	166.69
623.364	156.69
623.571	173.69
623.778	154.69
623.985	167.69
624.192	158.69
624.399	150.69
624.606	167.69
624.812	148.69
625.019	153.69
625.226	154.69
625.433	155.69
625.639	156.69
625.846	146.69
626.053	165.69
626.259	145.69
626.466	144.69
626.673	137.69
626.879	158.69
627.086	154.69
627.293	151.69
627.499	148.69
627.706	158.69
627.912	158.69
628.119	149.69
628.325	149.69
628.532	136.69
628.738	157.69
628.945	166.69
629.151	154.69
629.357	144.69
629.564	149.69
629.77	150.69
629.976	160.69
630.183	141.69
630.389	134.69
630.595	142.69
630.802	151.69
631.008	140.69
631.214	138.69
631.42	142.69
631.627	143.69
631.833	127.69
632.039	150.69
632.245	152.69
632.451	154.69
632.657	144.69
632.863	138.69
633.069	130.69
633.275	157.69
633.481	133.69
633.688	126.69
633.893	149.69
634.099	137.69
634.305	128.69
634.511	138.69
634.717	134.69
634.923	125.69
635.129	132.69
635.335	124.69
635.541	126.69
635.747	137.69
635.952	130.69
636.158	151.69
636.364	148.69
636.57	143.69
636.775	138.69
636.981	156.69
637.187	136.69
637.392	131.69
637.598	141.69
637.804	156.69
638.009	124.69
638.215	120.69
638.421	133.69
638.626	132.69
638.832	142.69
639.037	148.69
639.243	125.69
639.448	122.69
639.654	138.69
639.859	148.69
640.065	145.69
640.27	139.69
640.475	126.69
640.681	135.69
640.886	140.69
641.091	126.69
641.297	136.69
641.502	123.69
641.707	142.69
641.913	126.69
642.118	122.69
642.323	141.69
642.528	134.69
642.733	125.69
642.939	113.69
643.144	126.69
643.349	113.69
643.554	136.69
643.759	130.69
643.964	136.69
644.169	122.69
644.374	118.69
644.579	137.69
644.784	119.69
644.989	125.69
645.194	122.69
645.399	130.69
645.604	128.69
645.809	150.69
646.014	132.69
646.219	138.69
646.423	137.69
646.628	130.69
646.833	139.69
647.038	124.69
647.243	136.69
647.447	141.69
647.652	132.69
647.857	131.69
648.062	141.69
648.266	132.69
648.471	141.69
648.676	139.69
648.88	152.69
649.085	141.69
649.289	140.69
649.494	142.69
649.698	149.69
649.903	149.69
650.107	133.69
650.312	118.69
650.516	117.69
650.721	116.69
650.925	124.69
651.13	121.69
651.334	143.69
651.539	121.69
651.743	125.69
651.947	120.69
652.152	117.69
652.356	121.69
652.56	136.69
652.764	115.69
652.969	119.69
653.173	120.69
653.377	113.69
653.581	113.69
653.785	114.69
653.99	110.69
654.194	117.69
654.398	124.69
654.602	109.69
654.806	90.69
655.01	114.69
655.214	122.69
655.418	122.69
655.622	125.69
655.826	108.69
656.03	123.69
656.234	113.69
656.438	135.69
656.642	138.69
656.846	122.69
657.049	114.69
657.253	110.69
657.457	129.69
657.661	105.69
657.865	110.69
658.068	102.69
658.272	106.69
658.476	103.69
658.68	103.69
658.883	83.69
659.087	92.69
659.291	83.69
659.494	81.69
659.698	93.69
659.901	89.69
660.105	94.69
660.309	89.69
660.512	89.69
660.716	86.69
660.919	67.69
661.123	85.69
661.326	93.69
661.53	81.69
661.733	87.69
661.936	91.69
662.14	72.69
662.343	89.69
662.546	69.69
662.75	78.69
662.953	80.69
663.156	66.69
663.36	70.69
663.563	72.69
663.766	71.69
663.969	68.69
664.173	76.69
664.376	70.69
664.579	76.69
664.782	84.69
664.985	77.69
665.188	74.69
665.391	84.69
665.594	75.69
665.797	78.69
666	94.69
666.203	82.69
666.406	75.69
666.609	62.69
666.812	81.69
667.015	89.69
667.218	78.69
667.421	83.69
667.624	81.69
667.827	91.69
668.03	80.69
668.232	66.69
668.435	67.69
668.638	100.69
668.841	87.69
669.043	85.69
669.246	82.69
669.449	81.69
669.651	84.69
669.854	69.69
670.057	69.69
670.259	87.69
670.462	74.69
670.665	87.69
670.867	81.69
671.07	64.69
671.272	74.69
671.475	81.69
671.677	74.69
671.88	86.69
672.082	82.69
672.284	77.69
672.487	91.69
672.689	93.69
672.892	71.69
