Data from 0.5MCu(NO3)2.Standard.Lamp.E10.CV._HRD10591_16-05-44-753.txt Node
Date: Mon Jul 22 16:05:44 EDT 2019
User: cochatt
Spectrometer: HR+D1059
Trigger mode: 1
Integration Time (sec): 1.000000E-1
Scans to average: 1
Electric dark correction enabled: true
Nonlinearity correction enabled: false
Boxcar width: 0
XAxis mode: Wavelengths
Number of Pixels in Spectrum: 2048
>>>>>Begin Spectral Data<<<<<
223.165	-3.62
223.4	-3.62
223.635	-3.62
223.869	-25.62
224.104	-15.62
224.338	-18.62
224.573	0.38
224.808	-8.62
225.042	-9.62
225.277	-18.62
225.511	-1.62
225.746	-1.62
225.98	11.38
226.215	13.38
226.449	18.38
226.683	2.38
226.918	25.38
227.152	32.38
227.387	34.38
227.621	40.38
227.856	40.38
228.09	40.38
228.324	53.38
228.559	49.38
228.793	74.38
229.027	66.38
229.262	81.38
229.496	80.38
229.73	77.38
229.964	73.38
230.199	90.38
230.433	100.38
230.667	81.38
230.901	82.38
231.136	91.38
231.37	85.38
231.604	93.38
231.838	94.38
232.072	91.38
232.306	92.38
232.541	80.38
232.775	86.38
233.009	90.38
233.243	97.38
233.477	99.38
233.711	104.38
233.945	85.38
234.179	91.38
234.413	77.38
234.647	89.38
234.881	98.38
235.115	98.38
235.349	89.38
235.583	88.38
235.817	89.38
236.051	68.38
236.285	86.38
236.519	82.38
236.753	94.38
236.987	86.38
237.221	84.38
237.455	80.38
237.689	100.38
237.922	78.38
238.156	87.38
238.39	93.38
238.624	86.38
238.858	84.38
239.091	101.38
239.325	86.38
239.559	83.38
239.793	88.38
240.027	96.38
240.26	93.38
240.494	83.38
240.728	91.38
240.961	84.38
241.195	94.38
241.429	83.38
241.662	86.38
241.896	101.38
242.13	94.38
242.363	95.38
242.597	94.38
242.83	88.38
243.064	101.38
243.298	113.38
243.531	94.38
243.765	94.38
243.998	97.38
244.232	96.38
244.465	103.38
244.699	102.38
244.932	98.38
245.166	96.38
245.399	96.38
245.633	102.38
245.866	98.38
246.099	105.38
246.333	90.38
246.566	115.38
246.8	110.38
247.033	91.38
247.266	100.38
247.5	119.38
247.733	103.38
247.966	101.38
248.2	93.38
248.433	104.38
248.666	99.38
248.899	98.38
249.133	101.38
249.366	108.38
249.599	118.38
249.832	102.38
250.066	124.38
250.299	122.38
250.532	106.38
250.765	102.38
250.998	94.38
251.231	106.38
251.465	108.38
251.698	115.38
251.931	111.38
252.164	118.38
252.397	120.38
252.63	105.38
252.863	100.38
253.096	103.38
253.329	101.38
253.562	111.38
253.795	114.38
254.028	112.38
254.261	108.38
254.494	100.38
254.727	109.38
254.96	97.38
255.193	97.38
255.426	120.38
255.659	106.38
255.892	109.38
256.124	100.38
256.357	123.38
256.59	100.38
256.823	106.38
257.056	114.38
257.289	113.38
257.521	101.38
257.754	118.38
257.987	113.38
258.22	122.38
258.452	106.38
258.685	114.38
258.918	112.38
259.151	92.38
259.383	114.38
259.616	114.38
259.849	127.38
260.081	121.38
260.314	123.38
260.547	122.38
260.779	118.38
261.012	108.38
261.244	128.38
261.477	122.38
261.71	124.38
261.942	110.38
262.175	131.38
262.407	122.38
262.64	107.38
262.872	96.38
263.105	124.38
263.337	114.38
263.57	121.38
263.802	136.38
264.035	134.38
264.267	136.38
264.499	121.38
264.732	117.38
264.964	142.38
265.197	131.38
265.429	131.38
265.661	123.38
265.894	130.38
266.126	123.38
266.358	116.38
266.591	139.38
266.823	117.38
267.055	124.38
267.287	121.38
267.52	113.38
267.752	116.38
267.984	138.38
268.216	129.38
268.448	132.38
268.681	142.38
268.913	127.38
269.145	142.38
269.377	132.38
269.609	116.38
269.841	128.38
270.073	130.38
270.306	130.38
270.538	152.38
270.77	119.38
271.002	132.38
271.234	134.38
271.466	146.38
271.698	137.38
271.93	139.38
272.162	125.38
272.394	117.38
272.626	131.38
272.858	142.38
273.09	128.38
273.322	130.38
273.553	146.38
273.785	133.38
274.017	129.38
274.249	134.38
274.481	139.38
274.713	144.38
274.945	120.38
275.176	131.38
275.408	134.38
275.64	145.38
275.872	129.38
276.104	146.38
276.335	136.38
276.567	130.38
276.799	141.38
277.031	142.38
277.262	134.38
277.494	130.38
277.726	138.38
277.957	143.38
278.189	125.38
278.421	137.38
278.652	148.38
278.884	128.38
279.115	142.38
279.347	151.38
279.579	141.38
279.81	136.38
280.042	145.38
280.273	151.38
280.505	155.38
280.736	142.38
280.968	154.38
281.199	144.38
281.431	155.38
281.662	153.38
281.894	153.38
282.125	149.38
282.356	145.38
282.588	143.38
282.819	164.38
283.051	157.38
283.282	138.38
283.513	143.38
283.745	151.38
283.976	165.38
284.207	158.38
284.439	141.38
284.67	150.38
284.901	143.38
285.132	145.38
285.364	156.38
285.595	154.38
285.826	147.38
286.057	154.38
286.288	155.38
286.52	155.38
286.751	148.38
286.982	167.38
287.213	151.38
287.444	166.38
287.675	158.38
287.906	136.38
288.138	146.38
288.369	152.38
288.6	168.38
288.831	161.38
289.062	178.38
289.293	170.38
289.524	159.38
289.755	153.38
289.986	151.38
290.217	146.38
290.448	170.38
290.679	164.38
290.91	160.38
291.141	167.38
291.371	156.38
291.602	146.38
291.833	148.38
292.064	169.38
292.295	159.38
292.526	151.38
292.757	163.38
292.987	179.38
293.218	145.38
293.449	169.38
293.68	166.38
293.91	170.38
294.141	178.38
294.372	154.38
294.603	158.38
294.833	170.38
295.064	165.38
295.295	180.38
295.525	162.38
295.756	176.38
295.987	166.38
296.217	162.38
296.448	164.38
296.679	160.38
296.909	155.38
297.14	158.38
297.37	170.38
297.601	165.38
297.831	164.38
298.062	177.38
298.292	172.38
298.523	175.38
298.753	168.38
298.984	189.38
299.214	184.38
299.445	179.38
299.675	171.38
299.905	166.38
300.136	167.38
300.366	180.38
300.597	180.38
300.827	172.38
301.057	176.38
301.288	186.38
301.518	182.38
301.748	175.38
301.979	172.38
302.209	186.38
302.439	164.38
302.669	182.38
302.9	161.38
303.13	169.38
303.36	185.38
303.59	187.38
303.82	176.38
304.051	180.38
304.281	180.38
304.511	179.38
304.741	195.38
304.971	184.38
305.201	178.38
305.431	190.38
305.661	179.38
305.891	169.38
306.121	197.38
306.352	186.38
306.582	164.38
306.812	162.38
307.042	184.38
307.272	174.38
307.502	171.38
307.731	189.38
307.961	188.38
308.191	180.38
308.421	181.38
308.651	188.38
308.881	160.38
309.111	185.38
309.341	184.38
309.571	170.38
309.8	181.38
310.03	168.38
310.26	170.38
310.49	204.38
310.72	198.38
310.949	171.38
311.179	171.38
311.409	179.38
311.639	177.38
311.868	195.38
312.098	174.38
312.328	173.38
312.557	178.38
312.787	177.38
313.017	188.38
313.246	186.38
313.476	172.38
313.706	176.38
313.935	181.38
314.165	188.38
314.394	188.38
314.624	186.38
314.853	182.38
315.083	173.38
315.312	182.38
315.542	168.38
315.771	188.38
316.001	180.38
316.23	192.38
316.46	169.38
316.689	187.38
316.919	176.38
317.148	188.38
317.377	185.38
317.607	192.38
317.836	178.38
318.065	169.38
318.295	180.38
318.524	180.38
318.753	182.38
318.983	183.38
319.212	163.38
319.441	180.38
319.67	184.38
319.9	185.38
320.129	201.38
320.358	189.38
320.587	178.38
320.816	182.38
321.046	173.38
321.275	175.38
321.504	171.38
321.733	166.38
321.962	169.38
322.191	180.38
322.42	184.38
322.649	185.38
322.878	166.38
323.108	183.38
323.337	176.38
323.566	187.38
323.795	185.38
324.024	194.38
324.253	209.38
324.482	172.38
324.71	173.38
324.939	187.38
325.168	185.38
325.397	197.38
325.626	187.38
325.855	213.38
326.084	187.38
326.313	205.38
326.542	198.38
326.77	219.38
326.999	198.38
327.228	190.38
327.457	182.38
327.686	188.38
327.914	195.38
328.143	198.38
328.372	177.38
328.6	193.38
328.829	169.38
329.058	171.38
329.287	203.38
329.515	185.38
329.744	182.38
329.972	191.38
330.201	198.38
330.43	186.38
330.658	191.38
330.887	203.38
331.115	204.38
331.344	211.38
331.572	192.38
331.801	202.38
332.03	208.38
332.258	205.38
332.486	199.38
332.715	220.38
332.943	235.38
333.172	233.38
333.4	231.38
333.629	249.38
333.857	233.38
334.085	234.38
334.314	248.38
334.542	235.38
334.771	235.38
334.999	230.38
335.227	207.38
335.455	229.38
335.684	234.38
335.912	228.38
336.14	228.38
336.369	218.38
336.597	221.38
336.825	215.38
337.053	212.38
337.281	221.38
337.51	214.38
337.738	211.38
337.966	206.38
338.194	196.38
338.422	207.38
338.65	198.38
338.878	203.38
339.106	182.38
339.334	208.38
339.562	211.38
339.79	200.38
340.018	196.38
340.246	204.38
340.474	204.38
340.702	194.38
340.93	202.38
341.158	203.38
341.386	194.38
341.614	196.38
341.842	194.38
342.07	186.38
342.298	210.38
342.526	203.38
342.754	197.38
342.981	198.38
343.209	182.38
343.437	208.38
343.665	241.38
343.893	227.38
344.12	240.38
344.348	220.38
344.576	220.38
344.804	205.38
345.031	212.38
345.259	206.38
345.487	193.38
345.714	204.38
345.942	209.38
346.17	198.38
346.397	184.38
346.625	180.38
346.853	186.38
347.08	187.38
347.308	199.38
347.535	198.38
347.763	204.38
347.99	204.38
348.218	182.38
348.445	204.38
348.673	211.38
348.9	204.38
349.128	210.38
349.355	202.38
349.583	195.38
349.81	190.38
350.037	196.38
350.265	202.38
350.492	188.38
350.72	202.38
350.947	172.38
351.174	198.38
351.402	186.38
351.629	182.38
351.856	204.38
352.083	193.38
352.311	185.38
352.538	194.38
352.765	180.38
352.992	182.38
353.22	186.38
353.447	192.38
353.674	184.38
353.901	197.38
354.128	190.38
354.355	194.38
354.583	204.38
354.81	187.38
355.037	197.38
355.264	203.38
355.491	182.38
355.718	193.38
355.945	197.38
356.172	194.38
356.399	209.38
356.626	190.38
356.853	196.38
357.08	179.38
357.307	194.38
357.534	192.38
357.761	187.38
357.988	185.38
358.215	202.38
358.441	176.38
358.668	182.38
358.895	184.38
359.122	184.38
359.349	185.38
359.576	173.38
359.802	190.38
360.029	199.38
360.256	178.38
360.483	186.38
360.709	186.38
360.936	205.38
361.163	184.38
361.39	192.38
361.616	204.38
361.843	179.38
362.07	182.38
362.296	186.38
362.523	188.38
362.749	182.38
362.976	177.38
363.203	170.38
363.429	195.38
363.656	195.38
363.882	199.38
364.109	171.38
364.335	189.38
364.562	180.38
364.788	182.38
365.015	189.38
365.241	179.38
365.468	182.38
365.694	192.38
365.92	177.38
366.147	189.38
366.373	204.38
366.599	200.38
366.826	181.38
367.052	200.38
367.278	194.38
367.505	196.38
367.731	189.38
367.957	190.38
368.184	177.38
368.41	193.38
368.636	187.38
368.862	177.38
369.089	184.38
369.315	187.38
369.541	189.38
369.767	186.38
369.993	193.38
370.219	184.38
370.445	191.38
370.672	205.38
370.898	189.38
371.124	190.38
371.35	198.38
371.576	200.38
371.802	177.38
372.028	199.38
372.254	200.38
372.48	196.38
372.706	204.38
372.932	197.38
373.158	212.38
373.384	194.38
373.61	194.38
373.835	203.38
374.061	202.38
374.287	190.38
374.513	209.38
374.739	202.38
374.965	197.38
375.191	205.38
375.416	219.38
375.642	205.38
375.868	207.38
376.094	219.38
376.319	212.38
376.545	203.38
376.771	186.38
376.997	184.38
377.222	196.38
377.448	187.38
377.674	196.38
377.899	215.38
378.125	197.38
378.35	187.38
378.576	196.38
378.802	187.38
379.027	187.38
379.253	194.38
379.478	205.38
379.704	201.38
379.929	193.38
380.155	206.38
380.38	201.38
380.606	201.38
380.831	199.38
381.057	201.38
381.282	191.38
381.507	197.38
381.733	201.38
381.958	217.38
382.184	201.38
382.409	199.38
382.634	197.38
382.86	203.38
383.085	200.38
383.31	214.38
383.535	217.38
383.761	212.38
383.986	224.38
384.211	224.38
384.436	210.38
384.662	219.38
384.887	216.38
385.112	233.38
385.337	235.38
385.562	240.38
385.787	217.38
386.013	224.38
386.238	224.38
386.463	225.38
386.688	231.38
386.913	219.38
387.138	221.38
387.363	214.38
387.588	210.38
387.813	219.38
388.038	221.38
388.263	229.38
388.488	221.38
388.713	229.38
388.938	226.38
389.163	213.38
389.387	216.38
389.612	221.38
389.837	216.38
390.062	219.38
390.287	217.38
390.512	189.38
390.736	229.38
390.961	217.38
391.186	225.38
391.411	233.38
391.636	227.38
391.86	240.38
392.085	260.38
392.31	231.38
392.534	252.38
392.759	254.38
392.984	243.38
393.208	214.38
393.433	228.38
393.658	237.38
393.882	228.38
394.107	244.38
394.331	248.38
394.556	233.38
394.78	245.38
395.005	235.38
395.229	240.38
395.454	241.38
395.678	248.38
395.903	233.38
396.127	236.38
396.352	235.38
396.576	227.38
396.801	233.38
397.025	217.38
397.249	233.38
397.474	227.38
397.698	232.38
397.922	228.38
398.147	238.38
398.371	222.38
398.595	242.38
398.82	254.38
399.044	263.38
399.268	288.38
399.492	339.38
399.717	358.38
399.941	354.38
400.165	321.38
400.389	305.38
400.613	272.38
400.837	260.38
401.062	267.38
401.286	243.38
401.51	242.38
401.734	262.38
401.958	267.38
402.182	262.38
402.406	258.38
402.63	255.38
402.854	282.38
403.078	271.38
403.302	272.38
403.526	281.38
403.75	280.38
403.974	297.38
404.198	291.38
404.422	297.38
404.645	295.38
404.869	289.38
405.093	275.38
405.317	266.38
405.541	262.38
405.765	257.38
405.988	275.38
406.212	264.38
406.436	264.38
406.66	268.38
406.883	270.38
407.107	301.38
407.331	307.38
407.555	307.38
407.778	318.38
408.002	326.38
408.226	293.38
408.449	301.38
408.673	300.38
408.896	279.38
409.12	274.38
409.344	276.38
409.567	282.38
409.791	281.38
410.014	299.38
410.238	291.38
410.461	296.38
410.685	281.38
410.908	292.38
411.132	277.38
411.355	264.38
411.578	284.38
411.802	283.38
412.025	268.38
412.249	262.38
412.472	264.38
412.695	281.38
412.919	252.38
413.142	256.38
413.365	257.38
413.589	266.38
413.812	242.38
414.035	233.38
414.258	256.38
414.482	274.38
414.705	289.38
414.928	256.38
415.151	269.38
415.374	258.38
415.597	267.38
415.821	260.38
416.044	268.38
416.267	266.38
416.49	252.38
416.713	244.38
416.936	258.38
417.159	245.38
417.382	240.38
417.605	250.38
417.828	268.38
418.051	278.38
418.274	261.38
418.497	258.38
418.72	247.38
418.943	247.38
419.166	282.38
419.389	284.38
419.611	290.38
419.834	277.38
420.057	273.38
420.28	252.38
420.503	252.38
420.726	248.38
420.948	232.38
421.171	262.38
421.394	251.38
421.617	244.38
421.839	233.38
422.062	265.38
422.285	268.38
422.507	277.38
422.73	269.38
422.953	265.38
423.175	254.38
423.398	264.38
423.621	267.38
423.843	274.38
424.066	268.38
424.288	277.38
424.511	282.38
424.733	277.38
424.956	264.38
425.178	276.38
425.401	246.38
425.623	252.38
425.846	253.38
426.068	229.38
426.291	242.38
426.513	224.38
426.735	245.38
426.958	231.38
427.18	232.38
427.402	211.38
427.625	238.38
427.847	225.38
428.069	237.38
428.292	233.38
428.514	242.38
428.736	232.38
428.958	231.38
429.181	221.38
429.403	230.38
429.625	215.38
429.847	219.38
430.069	246.38
430.292	227.38
430.514	234.38
430.736	246.38
430.958	226.38
431.18	228.38
431.402	241.38
431.624	222.38
431.846	233.38
432.068	253.38
432.29	224.38
432.512	231.38
432.734	232.38
432.956	214.38
433.178	235.38
433.4	236.38
433.622	226.38
433.844	253.38
434.066	236.38
434.287	234.38
434.509	219.38
434.731	264.38
434.953	243.38
435.175	256.38
435.397	245.38
435.618	242.38
435.84	246.38
436.062	232.38
436.284	217.38
436.505	229.38
436.727	240.38
436.949	244.38
437.17	224.38
437.392	229.38
437.614	215.38
437.835	214.38
438.057	235.38
438.278	229.38
438.5	221.38
438.721	212.38
438.943	242.38
439.165	229.38
439.386	221.38
439.608	228.38
439.829	234.38
440.05	244.38
440.272	221.38
440.493	230.38
440.715	233.38
440.936	240.38
441.158	240.38
441.379	227.38
441.6	244.38
441.822	248.38
442.043	256.38
442.264	266.38
442.486	242.38
442.707	253.38
442.928	251.38
443.149	244.38
443.371	257.38
443.592	262.38
443.813	242.38
444.034	263.38
444.255	258.38
444.476	284.38
444.698	285.38
444.919	302.38
445.14	425.38
445.361	324.38
445.582	282.38
445.803	264.38
446.024	261.38
446.245	235.38
446.466	232.38
446.687	247.38
446.908	243.38
447.129	240.38
447.35	245.38
447.571	237.38
447.792	226.38
448.013	223.38
448.234	212.38
448.455	208.38
448.675	220.38
448.896	223.38
449.117	216.38
449.338	213.38
449.559	216.38
449.779	217.38
450	217.38
450.221	212.38
450.442	199.38
450.662	215.38
450.883	226.38
451.104	218.38
451.324	240.38
451.545	216.38
451.766	232.38
451.986	217.38
452.207	224.38
452.428	220.38
452.648	239.38
452.869	216.38
453.089	204.38
453.31	221.38
453.53	211.38
453.751	228.38
453.971	212.38
454.192	212.38
454.412	197.38
454.633	229.38
454.853	216.38
455.073	207.38
455.294	217.38
455.514	224.38
455.734	202.38
455.955	227.38
456.175	201.38
456.395	203.38
456.616	210.38
456.836	215.38
457.056	208.38
457.276	227.38
457.497	206.38
457.717	201.38
457.937	207.38
458.157	211.38
458.377	209.38
458.598	226.38
458.818	236.38
459.038	210.38
459.258	231.38
459.478	245.38
459.698	258.38
459.918	232.38
460.138	242.38
460.358	268.38
460.578	267.38
460.798	259.38
461.018	282.38
461.238	259.38
461.458	252.38
461.678	258.38
461.898	275.38
462.118	272.38
462.338	282.38
462.558	292.38
462.777	284.38
462.997	317.38
463.217	350.38
463.437	350.38
463.657	333.38
463.876	323.38
464.096	312.38
464.316	313.38
464.536	310.38
464.755	295.38
464.975	297.38
465.195	285.38
465.414	271.38
465.634	232.38
465.854	237.38
466.073	229.38
466.293	236.38
466.512	237.38
466.732	221.38
466.951	233.38
467.171	230.38
467.391	230.38
467.61	248.38
467.829	208.38
468.049	236.38
468.268	229.38
468.488	240.38
468.707	232.38
468.927	240.38
469.146	224.38
469.365	232.38
469.585	236.38
469.804	244.38
470.023	235.38
470.243	235.38
470.462	237.38
470.681	228.38
470.901	218.38
471.12	240.38
471.339	243.38
471.558	234.38
471.777	207.38
471.997	238.38
472.216	221.38
472.435	221.38
472.654	207.38
472.873	214.38
473.092	222.38
473.311	216.38
473.53	200.38
473.749	240.38
473.968	229.38
474.187	222.38
474.406	227.38
474.625	224.38
474.844	216.38
475.063	227.38
475.282	239.38
475.501	215.38
475.72	232.38
475.939	221.38
476.158	226.38
476.377	214.38
476.596	238.38
476.814	227.38
477.033	242.38
477.252	224.38
477.471	224.38
477.69	247.38
477.908	240.38
478.127	264.38
478.346	272.38
478.564	254.38
478.783	284.38
479.002	266.38
479.22	276.38
479.439	268.38
479.658	242.38
479.876	243.38
480.095	271.38
480.313	286.38
480.532	306.38
480.751	277.38
480.969	264.38
481.188	272.38
481.406	274.38
481.624	226.38
481.843	258.38
482.061	243.38
482.28	254.38
482.498	228.38
482.717	252.38
482.935	228.38
483.153	244.38
483.372	244.38
483.59	265.38
483.808	248.38
484.027	262.38
484.245	261.38
484.463	255.38
484.681	257.38
484.9	253.38
485.118	263.38
485.336	276.38
485.554	237.38
485.772	234.38
485.99	268.38
486.209	260.38
486.427	268.38
486.645	264.38
486.863	264.38
487.081	259.38
487.299	271.38
487.517	259.38
487.735	278.38
487.953	265.38
488.171	258.38
488.389	262.38
488.607	257.38
488.825	270.38
489.043	259.38
489.261	245.38
489.479	261.38
489.696	261.38
489.914	264.38
490.132	272.38
490.35	274.38
490.568	258.38
490.786	250.38
491.003	264.38
491.221	269.38
491.439	249.38
491.657	261.38
491.874	262.38
492.092	265.38
492.31	258.38
492.527	272.38
492.745	274.38
492.963	271.38
493.18	271.38
493.398	288.38
493.615	267.38
493.833	269.38
494.05	266.38
494.268	288.38
494.485	302.38
494.703	270.38
494.92	282.38
495.138	293.38
495.355	250.38
495.573	274.38
495.79	264.38
496.008	269.38
496.225	273.38
496.442	258.38
496.66	287.38
496.877	282.38
497.094	293.38
497.312	287.38
497.529	292.38
497.746	295.38
497.963	299.38
498.181	316.38
498.398	331.38
498.615	346.38
498.832	339.38
499.049	382.38
499.267	390.38
499.484	431.38
499.701	474.38
499.918	540.38
500.135	578.38
500.352	683.38
500.569	729.38
500.786	718.38
501.003	637.38
501.22	574.38
501.437	536.38
501.654	467.38
501.871	434.38
502.088	389.38
502.305	365.38
502.522	353.38
502.739	350.38
502.956	329.38
503.172	326.38
503.389	315.38
503.606	293.38
503.823	309.38
504.04	293.38
504.256	314.38
504.473	329.38
504.69	320.38
504.907	317.38
505.123	295.38
505.34	283.38
505.557	290.38
505.773	263.38
505.99	274.38
506.207	268.38
506.423	272.38
506.64	243.38
506.856	258.38
507.073	234.38
507.289	250.38
507.506	258.38
507.722	253.38
507.939	233.38
508.155	268.38
508.372	268.38
508.588	222.38
508.805	245.38
509.021	233.38
509.238	255.38
509.454	241.38
509.67	241.38
509.887	238.38
510.103	235.38
510.319	222.38
510.536	214.38
510.752	220.38
510.968	228.38
511.184	233.38
511.401	229.38
511.617	243.38
511.833	232.38
512.049	253.38
512.265	234.38
512.481	224.38
512.698	246.38
512.914	216.38
513.13	236.38
513.346	245.38
513.562	244.38
513.778	242.38
513.994	227.38
514.21	233.38
514.426	216.38
514.642	240.38
514.858	232.38
515.074	237.38
515.29	234.38
515.506	256.38
515.721	237.38
515.937	243.38
516.153	260.38
516.369	261.38
516.585	268.38
516.801	252.38
517.016	264.38
517.232	301.38
517.448	296.38
517.664	309.38
517.879	307.38
518.095	310.38
518.311	308.38
518.527	293.38
518.742	288.38
518.958	269.38
519.173	272.38
519.389	278.38
519.605	236.38
519.82	252.38
520.036	257.38
520.251	226.38
520.467	233.38
520.682	231.38
520.898	229.38
521.113	219.38
521.329	227.38
521.544	231.38
521.76	228.38
521.975	232.38
522.19	240.38
522.406	225.38
522.621	234.38
522.836	221.38
523.052	236.38
523.267	232.38
523.482	222.38
523.698	202.38
523.913	215.38
524.128	221.38
524.343	221.38
524.559	218.38
524.774	221.38
524.989	232.38
525.204	226.38
525.419	225.38
525.634	217.38
525.849	237.38
526.064	224.38
526.28	232.38
526.495	220.38
526.71	230.38
526.925	201.38
527.14	214.38
527.355	226.38
527.57	226.38
527.785	224.38
527.999	211.38
528.214	210.38
528.429	222.38
528.644	206.38
528.859	216.38
529.074	221.38
529.289	234.38
529.503	207.38
529.718	246.38
529.933	222.38
530.148	225.38
530.363	213.38
530.577	218.38
530.792	220.38
531.007	198.38
531.221	224.38
531.436	219.38
531.651	207.38
531.865	224.38
532.08	220.38
532.295	223.38
532.509	222.38
532.724	215.38
532.938	221.38
533.153	233.38
533.367	224.38
533.582	217.38
533.796	212.38
534.011	241.38
534.225	208.38
534.44	230.38
534.654	212.38
534.868	211.38
535.083	227.38
535.297	216.38
535.511	217.38
535.726	219.38
535.94	203.38
536.154	223.38
536.369	216.38
536.583	225.38
536.797	217.38
537.011	197.38
537.225	200.38
537.44	218.38
537.654	220.38
537.868	206.38
538.082	224.38
538.296	212.38
538.51	226.38
538.724	206.38
538.938	207.38
539.153	195.38
539.367	214.38
539.581	210.38
539.795	209.38
540.009	217.38
540.222	212.38
540.436	187.38
540.65	202.38
540.864	200.38
541.078	214.38
541.292	208.38
541.506	213.38
541.72	204.38
541.934	212.38
542.147	204.38
542.361	212.38
542.575	205.38
542.789	207.38
543.002	187.38
543.216	214.38
543.43	214.38
543.644	192.38
543.857	207.38
544.071	210.38
544.285	212.38
544.498	208.38
544.712	206.38
544.925	216.38
545.139	219.38
545.352	216.38
545.566	212.38
545.779	214.38
545.993	205.38
546.206	229.38
546.42	215.38
546.633	214.38
546.847	220.38
547.06	198.38
547.274	199.38
547.487	214.38
547.7	216.38
547.914	222.38
548.127	196.38
548.34	221.38
548.554	214.38
548.767	216.38
548.98	217.38
549.193	221.38
549.407	205.38
549.62	230.38
549.833	229.38
550.046	237.38
550.259	206.38
550.473	220.38
550.686	229.38
550.899	216.38
551.112	212.38
551.325	204.38
551.538	221.38
551.751	206.38
551.964	214.38
552.177	225.38
552.39	220.38
552.603	204.38
552.816	236.38
553.029	220.38
553.242	231.38
553.455	231.38
553.667	230.38
553.88	237.38
554.093	224.38
554.306	227.38
554.519	216.38
554.732	209.38
554.944	214.38
555.157	216.38
555.37	222.38
555.583	214.38
555.795	212.38
556.008	216.38
556.221	203.38
556.433	204.38
556.646	204.38
556.859	189.38
557.071	193.38
557.284	206.38
557.496	199.38
557.709	202.38
557.921	190.38
558.134	198.38
558.346	194.38
558.559	191.38
558.771	196.38
558.984	184.38
559.196	187.38
559.409	192.38
559.621	184.38
559.833	183.38
560.046	181.38
560.258	189.38
560.47	205.38
560.683	214.38
560.895	183.38
561.107	184.38
561.32	181.38
561.532	194.38
561.744	203.38
561.956	192.38
562.168	188.38
562.381	169.38
562.593	197.38
562.805	169.38
563.017	188.38
563.229	201.38
563.441	172.38
563.653	183.38
563.865	202.38
564.077	170.38
564.289	208.38
564.501	203.38
564.713	218.38
564.925	206.38
565.137	216.38
565.349	206.38
565.561	202.38
565.773	211.38
565.985	230.38
566.197	232.38
566.408	244.38
566.62	249.38
566.832	274.38
567.044	274.38
567.255	263.38
567.467	276.38
567.679	299.38
567.891	314.38
568.102	329.38
568.314	311.38
568.526	315.38
568.737	270.38
568.949	233.38
569.161	207.38
569.372	208.38
569.584	215.38
569.795	219.38
570.007	189.38
570.218	204.38
570.43	192.38
570.641	195.38
570.853	191.38
571.064	205.38
571.276	192.38
571.487	179.38
571.698	191.38
571.91	190.38
572.121	203.38
572.333	187.38
572.544	179.38
572.755	164.38
572.966	171.38
573.178	174.38
573.389	181.38
573.6	164.38
573.811	167.38
574.023	185.38
574.234	161.38
574.445	177.38
574.656	187.38
574.867	168.38
575.078	156.38
575.289	158.38
575.501	180.38
575.712	173.38
575.923	157.38
576.134	164.38
576.345	168.38
576.556	171.38
576.767	160.38
576.978	159.38
577.188	174.38
577.399	163.38
577.61	173.38
577.821	163.38
578.032	144.38
578.243	166.38
578.454	165.38
578.665	153.38
578.875	164.38
579.086	154.38
579.297	161.38
579.508	160.38
579.718	166.38
579.929	150.38
580.14	156.38
580.35	153.38
580.561	156.38
580.772	161.38
580.982	154.38
581.193	163.38
581.403	152.38
581.614	150.38
581.825	157.38
582.035	160.38
582.246	172.38
582.456	155.38
582.667	140.38
582.877	152.38
583.087	152.38
583.298	155.38
583.508	160.38
583.719	159.38
583.929	157.38
584.139	157.38
584.35	158.38
584.56	138.38
584.77	148.38
584.981	155.38
585.191	145.38
585.401	142.38
585.611	153.38
585.821	167.38
586.032	152.38
586.242	160.38
586.452	152.38
586.662	148.38
586.872	143.38
587.082	152.38
587.292	166.38
587.502	146.38
587.713	147.38
587.923	155.38
588.133	159.38
588.343	160.38
588.553	148.38
588.762	147.38
588.972	155.38
589.182	152.38
589.392	151.38
589.602	160.38
589.812	171.38
590.022	165.38
590.232	157.38
590.441	149.38
590.651	157.38
590.861	158.38
591.071	166.38
591.281	169.38
591.49	145.38
591.7	154.38
591.91	165.38
592.119	163.38
592.329	161.38
592.539	179.38
592.748	161.38
592.958	180.38
593.167	158.38
593.377	178.38
593.587	186.38
593.796	193.38
594.006	165.38
594.215	172.38
594.424	198.38
594.634	186.38
594.843	171.38
595.053	173.38
595.262	167.38
595.472	164.38
595.681	164.38
595.89	148.38
596.1	151.38
596.309	159.38
596.518	152.38
596.727	147.38
596.937	162.38
597.146	151.38
597.355	150.38
597.564	138.38
597.774	157.38
597.983	144.38
598.192	151.38
598.401	138.38
598.61	144.38
598.819	138.38
599.028	141.38
599.237	145.38
599.446	139.38
599.655	138.38
599.864	147.38
600.073	139.38
600.282	148.38
600.491	135.38
600.7	140.38
600.909	130.38
601.118	133.38
601.327	140.38
601.536	143.38
601.745	142.38
601.953	144.38
602.162	144.38
602.371	140.38
602.58	142.38
602.789	149.38
602.997	123.38
603.206	148.38
603.415	142.38
603.623	136.38
603.832	149.38
604.041	139.38
604.249	136.38
604.458	142.38
604.666	134.38
604.875	137.38
605.084	147.38
605.292	138.38
605.501	136.38
605.709	144.38
605.918	141.38
606.126	134.38
606.334	138.38
606.543	139.38
606.751	126.38
606.96	132.38
607.168	146.38
607.376	139.38
607.585	116.38
607.793	141.38
608.001	141.38
608.21	138.38
608.418	151.38
608.626	141.38
608.834	149.38
609.043	139.38
609.251	152.38
609.459	126.38
609.667	136.38
609.875	138.38
610.083	131.38
610.291	124.38
610.499	129.38
610.707	136.38
610.916	143.38
611.124	141.38
611.332	130.38
611.54	140.38
611.748	134.38
611.955	131.38
612.163	137.38
612.371	147.38
612.579	124.38
612.787	122.38
612.995	130.38
613.203	138.38
613.411	139.38
613.618	131.38
613.826	143.38
614.034	127.38
614.242	116.38
614.449	130.38
614.657	125.38
614.865	139.38
615.072	136.38
615.28	149.38
615.488	136.38
615.695	131.38
615.903	135.38
616.111	132.38
616.318	141.38
616.526	143.38
616.733	134.38
616.941	142.38
617.148	133.38
617.356	144.38
617.563	142.38
617.771	123.38
617.978	148.38
618.185	138.38
618.393	136.38
618.6	142.38
618.807	147.38
619.015	120.38
619.222	128.38
619.429	132.38
619.637	129.38
619.844	132.38
620.051	130.38
620.258	125.38
620.466	131.38
620.673	121.38
620.88	131.38
621.087	114.38
621.294	133.38
621.501	135.38
621.708	136.38
621.915	126.38
622.122	130.38
622.329	130.38
622.536	147.38
622.743	130.38
622.95	122.38
623.157	122.38
623.364	136.38
623.571	134.38
623.778	134.38
623.985	127.38
624.192	129.38
624.399	127.38
624.606	117.38
624.812	124.38
625.019	131.38
625.226	116.38
625.433	114.38
625.639	122.38
625.846	132.38
626.053	124.38
626.259	124.38
626.466	128.38
626.673	114.38
626.879	108.38
627.086	120.38
627.293	122.38
627.499	128.38
627.706	125.38
627.912	140.38
628.119	121.38
628.325	126.38
628.532	123.38
628.738	131.38
628.945	130.38
629.151	121.38
629.357	120.38
629.564	126.38
629.77	118.38
629.976	116.38
630.183	129.38
630.389	114.38
630.595	124.38
630.802	114.38
631.008	116.38
631.214	118.38
631.42	126.38
631.627	122.38
631.833	116.38
632.039	120.38
632.245	115.38
632.451	126.38
632.657	123.38
632.863	115.38
633.069	118.38
633.275	137.38
633.481	107.38
633.688	125.38
633.893	119.38
634.099	110.38
634.305	110.38
634.511	118.38
634.717	107.38
634.923	120.38
635.129	119.38
635.335	121.38
635.541	125.38
635.747	102.38
635.952	98.38
636.158	125.38
636.364	119.38
636.57	120.38
636.775	123.38
636.981	123.38
637.187	116.38
637.392	116.38
637.598	111.38
637.804	121.38
638.009	113.38
638.215	116.38
638.421	110.38
638.626	128.38
638.832	121.38
639.037	123.38
639.243	103.38
639.448	100.38
639.654	132.38
639.859	115.38
640.065	127.38
640.27	120.38
640.475	115.38
640.681	123.38
640.886	110.38
641.091	118.38
641.297	108.38
641.502	110.38
641.707	104.38
641.913	122.38
642.118	104.38
642.323	128.38
642.528	124.38
642.733	101.38
642.939	116.38
643.144	120.38
643.349	104.38
643.554	102.38
643.759	115.38
643.964	112.38
644.169	112.38
644.374	121.38
644.579	112.38
644.784	104.38
644.989	117.38
645.194	109.38
645.399	116.38
645.604	126.38
645.809	116.38
646.014	115.38
646.219	111.38
646.423	104.38
646.628	115.38
646.833	95.38
647.038	112.38
647.243	101.38
647.447	135.38
647.652	120.38
647.857	121.38
648.062	113.38
648.266	122.38
648.471	126.38
648.676	116.38
648.88	133.38
649.085	118.38
649.289	108.38
649.494	100.38
649.698	121.38
649.903	120.38
650.107	109.38
650.312	116.38
650.516	106.38
650.721	109.38
650.925	94.38
651.13	110.38
651.334	113.38
651.539	120.38
651.743	107.38
651.947	104.38
652.152	100.38
652.356	112.38
652.56	108.38
652.764	112.38
652.969	100.38
653.173	102.38
653.377	93.38
653.581	102.38
653.785	98.38
653.99	106.38
654.194	100.38
654.398	103.38
654.602	93.38
654.806	101.38
655.01	97.38
655.214	94.38
655.418	96.38
655.622	104.38
655.826	87.38
656.03	102.38
656.234	110.38
656.438	105.38
656.642	106.38
656.846	116.38
657.049	96.38
657.253	105.38
657.457	92.38
657.661	96.38
657.865	98.38
658.068	96.38
658.272	86.38
658.476	95.38
658.68	101.38
658.883	89.38
659.087	80.38
659.291	82.38
659.494	93.38
659.698	87.38
659.901	109.38
660.105	98.38
660.309	91.38
660.512	81.38
660.716	94.38
660.919	87.38
661.123	88.38
661.326	90.38
661.53	83.38
661.733	88.38
661.936	98.38
662.14	80.38
662.343	88.38
662.546	96.38
662.75	89.38
662.953	92.38
663.156	87.38
663.36	88.38
663.563	78.38
663.766	81.38
663.969	96.38
664.173	89.38
664.376	81.38
664.579	88.38
664.782	68.38
664.985	97.38
665.188	66.38
665.391	86.38
665.594	91.38
665.797	83.38
666	90.38
666.203	83.38
666.406	87.38
666.609	75.38
666.812	84.38
667.015	78.38
667.218	83.38
667.421	91.38
667.624	88.38
667.827	76.38
668.03	69.38
668.232	71.38
668.435	77.38
668.638	97.38
668.841	88.38
669.043	91.38
669.246	82.38
669.449	77.38
669.651	76.38
669.854	106.38
670.057	75.38
670.259	86.38
670.462	96.38
670.665	75.38
670.867	88.38
671.07	72.38
671.272	72.38
671.475	89.38
671.677	76.38
671.88	70.38
672.082	72.38
672.284	78.38
672.487	72.38
672.689	84.38
672.892	83.38
