Data from 0.5MCu(NO3)2.Standard.Lamp.E10.CV._HRD10591_16-04-41-753.txt Node
Date: Mon Jul 22 16:04:41 EDT 2019
User: cochatt
Spectrometer: HR+D1059
Trigger mode: 1
Integration Time (sec): 1.000000E-1
Scans to average: 1
Electric dark correction enabled: true
Nonlinearity correction enabled: false
Boxcar width: 0
XAxis mode: Wavelengths
Number of Pixels in Spectrum: 2048
>>>>>Begin Spectral Data<<<<<
223.165	-10.62
223.4	-10.62
223.635	-10.62
223.869	-17.62
224.104	-6.62
224.338	-13.62
224.573	-18.62
224.808	-18.62
225.042	-1.62
225.277	1.38
225.511	4.38
225.746	-12.62
225.98	-1.62
226.215	6.38
226.449	11.38
226.683	17.38
226.918	29.38
227.152	31.38
227.387	33.38
227.621	33.38
227.856	45.38
228.09	50.38
228.324	42.38
228.559	60.38
228.793	65.38
229.027	68.38
229.262	65.38
229.496	81.38
229.73	77.38
229.964	72.38
230.199	73.38
230.433	86.38
230.667	95.38
230.901	85.38
231.136	86.38
231.37	104.38
231.604	87.38
231.838	99.38
232.072	82.38
232.306	93.38
232.541	85.38
232.775	92.38
233.009	82.38
233.243	91.38
233.477	85.38
233.711	96.38
233.945	101.38
234.179	98.38
234.413	94.38
234.647	96.38
234.881	86.38
235.115	89.38
235.349	104.38
235.583	102.38
235.817	99.38
236.051	93.38
236.285	93.38
236.519	78.38
236.753	103.38
236.987	94.38
237.221	87.38
237.455	95.38
237.689	98.38
237.922	88.38
238.156	92.38
238.39	84.38
238.624	88.38
238.858	92.38
239.091	96.38
239.325	81.38
239.559	89.38
239.793	89.38
240.027	97.38
240.26	79.38
240.494	91.38
240.728	102.38
240.961	94.38
241.195	93.38
241.429	86.38
241.662	90.38
241.896	103.38
242.13	91.38
242.363	93.38
242.597	115.38
242.83	92.38
243.064	101.38
243.298	93.38
243.531	103.38
243.765	89.38
243.998	97.38
244.232	100.38
244.465	104.38
244.699	101.38
244.932	103.38
245.166	111.38
245.399	100.38
245.633	108.38
245.866	90.38
246.099	92.38
246.333	86.38
246.566	102.38
246.8	113.38
247.033	104.38
247.266	105.38
247.5	114.38
247.733	111.38
247.966	115.38
248.2	114.38
248.433	117.38
248.666	112.38
248.899	98.38
249.133	103.38
249.366	109.38
249.599	114.38
249.832	94.38
250.066	111.38
250.299	108.38
250.532	105.38
250.765	108.38
250.998	96.38
251.231	108.38
251.465	108.38
251.698	97.38
251.931	126.38
252.164	119.38
252.397	120.38
252.63	131.38
252.863	108.38
253.096	110.38
253.329	110.38
253.562	122.38
253.795	123.38
254.028	126.38
254.261	113.38
254.494	116.38
254.727	120.38
254.96	109.38
255.193	107.38
255.426	125.38
255.659	104.38
255.892	119.38
256.124	116.38
256.357	116.38
256.59	127.38
256.823	108.38
257.056	101.38
257.289	127.38
257.521	121.38
257.754	113.38
257.987	120.38
258.22	121.38
258.452	116.38
258.685	114.38
258.918	123.38
259.151	107.38
259.383	123.38
259.616	122.38
259.849	123.38
260.081	134.38
260.314	120.38
260.547	118.38
260.779	130.38
261.012	123.38
261.244	126.38
261.477	127.38
261.71	113.38
261.942	122.38
262.175	130.38
262.407	122.38
262.64	132.38
262.872	129.38
263.105	119.38
263.337	111.38
263.57	111.38
263.802	124.38
264.035	124.38
264.267	144.38
264.499	127.38
264.732	139.38
264.964	127.38
265.197	134.38
265.429	130.38
265.661	130.38
265.894	134.38
266.126	128.38
266.358	125.38
266.591	139.38
266.823	124.38
267.055	119.38
267.287	126.38
267.52	134.38
267.752	127.38
267.984	125.38
268.216	130.38
268.448	131.38
268.681	130.38
268.913	125.38
269.145	125.38
269.377	123.38
269.609	143.38
269.841	133.38
270.073	131.38
270.306	129.38
270.538	152.38
270.77	132.38
271.002	145.38
271.234	144.38
271.466	142.38
271.698	134.38
271.93	136.38
272.162	143.38
272.394	142.38
272.626	146.38
272.858	142.38
273.09	155.38
273.322	139.38
273.553	132.38
273.785	126.38
274.017	142.38
274.249	139.38
274.481	150.38
274.713	147.38
274.945	154.38
275.176	150.38
275.408	148.38
275.64	153.38
275.872	151.38
276.104	151.38
276.335	149.38
276.567	140.38
276.799	137.38
277.031	170.38
277.262	152.38
277.494	151.38
277.726	143.38
277.957	151.38
278.189	157.38
278.421	140.38
278.652	141.38
278.884	130.38
279.115	171.38
279.347	150.38
279.579	146.38
279.81	146.38
280.042	149.38
280.273	145.38
280.505	171.38
280.736	163.38
280.968	153.38
281.199	154.38
281.431	153.38
281.662	150.38
281.894	160.38
282.125	164.38
282.356	165.38
282.588	152.38
282.819	148.38
283.051	155.38
283.282	169.38
283.513	165.38
283.745	153.38
283.976	158.38
284.207	177.38
284.439	162.38
284.67	169.38
284.901	168.38
285.132	175.38
285.364	168.38
285.595	162.38
285.826	152.38
286.057	162.38
286.288	165.38
286.52	155.38
286.751	177.38
286.982	160.38
287.213	163.38
287.444	165.38
287.675	164.38
287.906	160.38
288.138	175.38
288.369	165.38
288.6	181.38
288.831	167.38
289.062	171.38
289.293	166.38
289.524	175.38
289.755	174.38
289.986	179.38
290.217	183.38
290.448	178.38
290.679	179.38
290.91	189.38
291.141	162.38
291.371	177.38
291.602	171.38
291.833	161.38
292.064	171.38
292.295	162.38
292.526	178.38
292.757	165.38
292.987	172.38
293.218	167.38
293.449	181.38
293.68	170.38
293.91	165.38
294.141	174.38
294.372	170.38
294.603	182.38
294.833	179.38
295.064	177.38
295.295	179.38
295.525	177.38
295.756	177.38
295.987	171.38
296.217	175.38
296.448	205.38
296.679	182.38
296.909	175.38
297.14	181.38
297.37	202.38
297.601	179.38
297.831	181.38
298.062	184.38
298.292	191.38
298.523	186.38
298.753	186.38
298.984	171.38
299.214	194.38
299.445	196.38
299.675	188.38
299.905	170.38
300.136	189.38
300.366	202.38
300.597	189.38
300.827	204.38
301.057	188.38
301.288	185.38
301.518	198.38
301.748	195.38
301.979	211.38
302.209	184.38
302.439	189.38
302.669	189.38
302.9	189.38
303.13	181.38
303.36	186.38
303.59	179.38
303.82	183.38
304.051	187.38
304.281	192.38
304.511	183.38
304.741	182.38
304.971	198.38
305.201	204.38
305.431	196.38
305.661	177.38
305.891	187.38
306.121	189.38
306.352	190.38
306.582	190.38
306.812	184.38
307.042	183.38
307.272	201.38
307.502	202.38
307.731	191.38
307.961	186.38
308.191	179.38
308.421	186.38
308.651	182.38
308.881	182.38
309.111	180.38
309.341	204.38
309.571	198.38
309.8	207.38
310.03	193.38
310.26	190.38
310.49	180.38
310.72	187.38
310.949	183.38
311.179	194.38
311.409	186.38
311.639	187.38
311.868	203.38
312.098	207.38
312.328	193.38
312.557	196.38
312.787	201.38
313.017	177.38
313.246	203.38
313.476	196.38
313.706	202.38
313.935	189.38
314.165	195.38
314.394	207.38
314.624	211.38
314.853	208.38
315.083	206.38
315.312	215.38
315.542	214.38
315.771	210.38
316.001	203.38
316.23	201.38
316.46	212.38
316.689	188.38
316.919	191.38
317.148	212.38
317.377	193.38
317.607	185.38
317.836	192.38
318.065	193.38
318.295	196.38
318.524	198.38
318.753	196.38
318.983	194.38
319.212	197.38
319.441	178.38
319.67	194.38
319.9	189.38
320.129	201.38
320.358	191.38
320.587	190.38
320.816	190.38
321.046	198.38
321.275	205.38
321.504	197.38
321.733	202.38
321.962	205.38
322.191	206.38
322.42	211.38
322.649	183.38
322.878	206.38
323.108	206.38
323.337	191.38
323.566	211.38
323.795	203.38
324.024	204.38
324.253	203.38
324.482	185.38
324.71	196.38
324.939	205.38
325.168	201.38
325.397	218.38
325.626	199.38
325.855	240.38
326.084	213.38
326.313	214.38
326.542	212.38
326.77	201.38
326.999	208.38
327.228	206.38
327.457	201.38
327.686	195.38
327.914	218.38
328.143	203.38
328.372	217.38
328.6	196.38
328.829	204.38
329.058	211.38
329.287	214.38
329.515	201.38
329.744	204.38
329.972	221.38
330.201	217.38
330.43	194.38
330.658	229.38
330.887	212.38
331.115	212.38
331.344	225.38
331.572	211.38
331.801	213.38
332.03	218.38
332.258	226.38
332.486	232.38
332.715	238.38
332.943	240.38
333.172	266.38
333.4	258.38
333.629	275.38
333.857	254.38
334.085	253.38
334.314	259.38
334.542	249.38
334.771	247.38
334.999	246.38
335.227	232.38
335.455	253.38
335.684	243.38
335.912	259.38
336.14	249.38
336.369	242.38
336.597	251.38
336.825	232.38
337.053	225.38
337.281	221.38
337.51	230.38
337.738	227.38
337.966	235.38
338.194	234.38
338.422	233.38
338.65	209.38
338.878	213.38
339.106	220.38
339.334	228.38
339.562	219.38
339.79	230.38
340.018	218.38
340.246	210.38
340.474	221.38
340.702	218.38
340.93	233.38
341.158	207.38
341.386	226.38
341.614	209.38
341.842	207.38
342.07	208.38
342.298	193.38
342.526	213.38
342.754	213.38
342.981	199.38
343.209	202.38
343.437	211.38
343.665	219.38
343.893	234.38
344.12	239.38
344.348	235.38
344.576	255.38
344.804	223.38
345.031	213.38
345.259	216.38
345.487	201.38
345.714	223.38
345.942	222.38
346.17	194.38
346.397	217.38
346.625	203.38
346.853	207.38
347.08	204.38
347.308	213.38
347.535	217.38
347.763	227.38
347.99	218.38
348.218	210.38
348.445	201.38
348.673	218.38
348.9	203.38
349.128	206.38
349.355	210.38
349.583	211.38
349.81	211.38
350.037	199.38
350.265	200.38
350.492	202.38
350.72	207.38
350.947	202.38
351.174	210.38
351.402	222.38
351.629	211.38
351.856	211.38
352.083	198.38
352.311	211.38
352.538	188.38
352.765	206.38
352.992	186.38
353.22	191.38
353.447	199.38
353.674	208.38
353.901	181.38
354.128	196.38
354.355	201.38
354.583	219.38
354.81	205.38
355.037	213.38
355.264	230.38
355.491	190.38
355.718	199.38
355.945	194.38
356.172	205.38
356.399	195.38
356.626	211.38
356.853	193.38
357.08	195.38
357.307	204.38
357.534	209.38
357.761	195.38
357.988	205.38
358.215	196.38
358.441	192.38
358.668	190.38
358.895	199.38
359.122	191.38
359.349	202.38
359.576	213.38
359.802	206.38
360.029	196.38
360.256	216.38
360.483	206.38
360.709	195.38
360.936	207.38
361.163	208.38
361.39	215.38
361.616	189.38
361.843	205.38
362.07	197.38
362.296	206.38
362.523	207.38
362.749	198.38
362.976	207.38
363.203	207.38
363.429	215.38
363.656	206.38
363.882	208.38
364.109	204.38
364.335	199.38
364.562	175.38
364.788	198.38
365.015	192.38
365.241	199.38
365.468	195.38
365.694	199.38
365.92	204.38
366.147	195.38
366.373	187.38
366.599	202.38
366.826	204.38
367.052	207.38
367.278	204.38
367.505	200.38
367.731	191.38
367.957	196.38
368.184	202.38
368.41	201.38
368.636	215.38
368.862	215.38
369.089	198.38
369.315	195.38
369.541	206.38
369.767	193.38
369.993	196.38
370.219	219.38
370.445	203.38
370.672	200.38
370.898	206.38
371.124	212.38
371.35	225.38
371.576	227.38
371.802	219.38
372.028	221.38
372.254	212.38
372.48	202.38
372.706	212.38
372.932	215.38
373.158	220.38
373.384	217.38
373.61	196.38
373.835	199.38
374.061	207.38
374.287	213.38
374.513	223.38
374.739	221.38
374.965	228.38
375.191	228.38
375.416	215.38
375.642	227.38
375.868	228.38
376.094	206.38
376.319	231.38
376.545	221.38
376.771	200.38
376.997	200.38
377.222	221.38
377.448	216.38
377.674	218.38
377.899	211.38
378.125	201.38
378.35	202.38
378.576	213.38
378.802	201.38
379.027	202.38
379.253	216.38
379.478	201.38
379.704	204.38
379.929	213.38
380.155	204.38
380.38	211.38
380.606	203.38
380.831	195.38
381.057	210.38
381.282	206.38
381.507	217.38
381.733	217.38
381.958	199.38
382.184	220.38
382.409	213.38
382.634	221.38
382.86	220.38
383.085	243.38
383.31	226.38
383.535	234.38
383.761	232.38
383.986	237.38
384.211	216.38
384.436	221.38
384.662	245.38
384.887	241.38
385.112	242.38
385.337	246.38
385.562	243.38
385.787	222.38
386.013	223.38
386.238	247.38
386.463	227.38
386.688	233.38
386.913	250.38
387.138	222.38
387.363	218.38
387.588	243.38
387.813	222.38
388.038	242.38
388.263	235.38
388.488	231.38
388.713	217.38
388.938	241.38
389.163	222.38
389.387	250.38
389.612	235.38
389.837	227.38
390.062	236.38
390.287	245.38
390.512	223.38
390.736	237.38
390.961	242.38
391.186	216.38
391.411	217.38
391.636	245.38
391.86	257.38
392.085	251.38
392.31	253.38
392.534	236.38
392.759	246.38
392.984	268.38
393.208	242.38
393.433	244.38
393.658	254.38
393.882	246.38
394.107	253.38
394.331	246.38
394.556	257.38
394.78	248.38
395.005	246.38
395.229	247.38
395.454	246.38
395.678	272.38
395.903	261.38
396.127	260.38
396.352	255.38
396.576	237.38
396.801	232.38
397.025	241.38
397.249	237.38
397.474	267.38
397.698	264.38
397.922	265.38
398.147	256.38
398.371	243.38
398.595	247.38
398.82	260.38
399.044	272.38
399.268	301.38
399.492	367.38
399.717	390.38
399.941	373.38
400.165	333.38
400.389	324.38
400.613	299.38
400.837	282.38
401.062	271.38
401.286	277.38
401.51	279.38
401.734	275.38
401.958	263.38
402.182	271.38
402.406	268.38
402.63	273.38
402.854	294.38
403.078	295.38
403.302	295.38
403.526	312.38
403.75	310.38
403.974	317.38
404.198	322.38
404.422	334.38
404.645	315.38
404.869	305.38
405.093	315.38
405.317	289.38
405.541	311.38
405.765	295.38
405.988	293.38
406.212	308.38
406.436	294.38
406.66	307.38
406.883	293.38
407.107	346.38
407.331	341.38
407.555	356.38
407.778	330.38
408.002	349.38
408.226	338.38
408.449	334.38
408.673	291.38
408.896	288.38
409.12	317.38
409.344	299.38
409.567	309.38
409.791	317.38
410.014	332.38
410.238	316.38
410.461	310.38
410.685	303.38
410.908	294.38
411.132	291.38
411.355	275.38
411.578	301.38
411.802	287.38
412.025	267.38
412.249	315.38
412.472	299.38
412.695	286.38
412.919	266.38
413.142	285.38
413.365	267.38
413.589	281.38
413.812	284.38
414.035	260.38
414.258	276.38
414.482	283.38
414.705	270.38
414.928	264.38
415.151	271.38
415.374	280.38
415.597	284.38
415.821	281.38
416.044	279.38
416.267	267.38
416.49	269.38
416.713	262.38
416.936	284.38
417.159	270.38
417.382	261.38
417.605	289.38
417.828	286.38
418.051	250.38
418.274	266.38
418.497	269.38
418.72	290.38
418.943	274.38
419.166	299.38
419.389	310.38
419.611	292.38
419.834	290.38
420.057	299.38
420.28	272.38
420.503	276.38
420.726	281.38
420.948	270.38
421.171	267.38
421.394	279.38
421.617	289.38
421.839	290.38
422.062	271.38
422.285	263.38
422.507	276.38
422.73	277.38
422.953	274.38
423.175	265.38
423.398	298.38
423.621	274.38
423.843	306.38
424.066	291.38
424.288	293.38
424.511	272.38
424.733	284.38
424.956	285.38
425.178	269.38
425.401	277.38
425.623	261.38
425.846	265.38
426.068	268.38
426.291	255.38
426.513	261.38
426.735	269.38
426.958	242.38
427.18	255.38
427.402	241.38
427.625	260.38
427.847	260.38
428.069	258.38
428.292	255.38
428.514	245.38
428.736	245.38
428.958	244.38
429.181	246.38
429.403	254.38
429.625	247.38
429.847	250.38
430.069	238.38
430.292	262.38
430.514	243.38
430.736	254.38
430.958	245.38
431.18	241.38
431.402	254.38
431.624	250.38
431.846	247.38
432.068	263.38
432.29	261.38
432.512	251.38
432.734	246.38
432.956	238.38
433.178	245.38
433.4	236.38
433.622	249.38
433.844	237.38
434.066	255.38
434.287	249.38
434.509	258.38
434.731	266.38
434.953	267.38
435.175	287.38
435.397	286.38
435.618	277.38
435.84	250.38
436.062	235.38
436.284	247.38
436.505	243.38
436.727	250.38
436.949	257.38
437.17	256.38
437.392	254.38
437.614	247.38
437.835	255.38
438.057	240.38
438.278	225.38
438.5	240.38
438.721	253.38
438.943	241.38
439.165	238.38
439.386	247.38
439.608	251.38
439.829	241.38
440.05	250.38
440.272	245.38
440.493	244.38
440.715	261.38
440.936	249.38
441.158	255.38
441.379	282.38
441.6	273.38
441.822	283.38
442.043	274.38
442.264	275.38
442.486	264.38
442.707	266.38
442.928	274.38
443.149	253.38
443.371	270.38
443.592	282.38
443.813	245.38
444.034	273.38
444.255	290.38
444.476	286.38
444.698	310.38
444.919	333.38
445.14	455.38
445.361	338.38
445.582	287.38
445.803	274.38
446.024	250.38
446.245	267.38
446.466	259.38
446.687	243.38
446.908	235.38
447.129	241.38
447.35	253.38
447.571	259.38
447.792	246.38
448.013	233.38
448.234	229.38
448.455	235.38
448.675	241.38
448.896	249.38
449.117	223.38
449.338	214.38
449.559	227.38
449.779	221.38
450	229.38
450.221	220.38
450.442	229.38
450.662	227.38
450.883	221.38
451.104	237.38
451.324	245.38
451.545	233.38
451.766	243.38
451.986	241.38
452.207	243.38
452.428	235.38
452.648	241.38
452.869	237.38
453.089	228.38
453.31	220.38
453.53	230.38
453.751	253.38
453.971	235.38
454.192	219.38
454.412	220.38
454.633	226.38
454.853	223.38
455.073	213.38
455.294	228.38
455.514	226.38
455.734	242.38
455.955	226.38
456.175	217.38
456.395	217.38
456.616	223.38
456.836	223.38
457.056	219.38
457.276	229.38
457.497	224.38
457.717	226.38
457.937	227.38
458.157	221.38
458.377	212.38
458.598	226.38
458.818	213.38
459.038	252.38
459.258	275.38
459.478	259.38
459.698	245.38
459.918	278.38
460.138	255.38
460.358	291.38
460.578	291.38
460.798	282.38
461.018	287.38
461.238	289.38
461.458	281.38
461.678	296.38
461.898	293.38
462.118	293.38
462.338	298.38
462.558	310.38
462.777	316.38
462.997	341.38
463.217	378.38
463.437	387.38
463.657	340.38
463.876	325.38
464.096	340.38
464.316	333.38
464.536	342.38
464.755	342.38
464.975	307.38
465.195	283.38
465.414	294.38
465.634	267.38
465.854	265.38
466.073	255.38
466.293	258.38
466.512	239.38
466.732	251.38
466.951	235.38
467.171	236.38
467.391	259.38
467.61	242.38
467.829	235.38
468.049	247.38
468.268	235.38
468.488	233.38
468.707	221.38
468.927	229.38
469.146	225.38
469.365	250.38
469.585	239.38
469.804	241.38
470.023	246.38
470.243	264.38
470.462	273.38
470.681	260.38
470.901	257.38
471.12	238.38
471.339	251.38
471.558	266.38
471.777	245.38
471.997	237.38
472.216	236.38
472.435	241.38
472.654	226.38
472.873	228.38
473.092	231.38
473.311	228.38
473.53	227.38
473.749	235.38
473.968	236.38
474.187	227.38
474.406	227.38
474.625	234.38
474.844	253.38
475.063	265.38
475.282	231.38
475.501	241.38
475.72	219.38
475.939	247.38
476.158	237.38
476.377	237.38
476.596	232.38
476.814	266.38
477.033	235.38
477.252	255.38
477.471	243.38
477.69	250.38
477.908	263.38
478.127	267.38
478.346	270.38
478.564	283.38
478.783	271.38
479.002	278.38
479.22	284.38
479.439	282.38
479.658	281.38
479.876	277.38
480.095	286.38
480.313	307.38
480.532	310.38
480.751	298.38
480.969	281.38
481.188	262.38
481.406	273.38
481.624	256.38
481.843	271.38
482.061	257.38
482.28	261.38
482.498	261.38
482.717	263.38
482.935	247.38
483.153	277.38
483.372	265.38
483.59	274.38
483.808	269.38
484.027	272.38
484.245	273.38
484.463	258.38
484.681	283.38
484.9	278.38
485.118	294.38
485.336	287.38
485.554	267.38
485.772	285.38
485.99	283.38
486.209	293.38
486.427	273.38
486.645	291.38
486.863	285.38
487.081	289.38
487.299	302.38
487.517	270.38
487.735	285.38
487.953	284.38
488.171	285.38
488.389	280.38
488.607	262.38
488.825	269.38
489.043	280.38
489.261	265.38
489.479	271.38
489.696	276.38
489.914	273.38
490.132	272.38
490.35	286.38
490.568	294.38
490.786	286.38
491.003	305.38
491.221	276.38
491.439	285.38
491.657	284.38
491.874	272.38
492.092	290.38
492.31	290.38
492.527	276.38
492.745	274.38
492.963	280.38
493.18	319.38
493.398	281.38
493.615	291.38
493.833	277.38
494.05	289.38
494.268	290.38
494.485	296.38
494.703	282.38
494.92	310.38
495.138	299.38
495.355	277.38
495.573	312.38
495.79	277.38
496.008	299.38
496.225	294.38
496.442	321.38
496.66	290.38
496.877	298.38
497.094	315.38
497.312	314.38
497.529	312.38
497.746	327.38
497.963	324.38
498.181	323.38
498.398	347.38
498.615	370.38
498.832	385.38
499.049	414.38
499.267	436.38
499.484	477.38
499.701	534.38
499.918	612.38
500.135	645.38
500.352	739.38
500.569	806.38
500.786	783.38
501.003	711.38
501.22	638.38
501.437	555.38
501.654	512.38
501.871	454.38
502.088	412.38
502.305	428.38
502.522	414.38
502.739	378.38
502.956	355.38
503.172	344.38
503.389	353.38
503.606	336.38
503.823	315.38
504.04	329.38
504.256	325.38
504.473	322.38
504.69	336.38
504.907	346.38
505.123	310.38
505.34	310.38
505.557	316.38
505.773	285.38
505.99	277.38
506.207	276.38
506.423	276.38
506.64	281.38
506.856	263.38
507.073	262.38
507.289	273.38
507.506	265.38
507.722	271.38
507.939	264.38
508.155	278.38
508.372	253.38
508.588	261.38
508.805	255.38
509.021	245.38
509.238	270.38
509.454	255.38
509.67	255.38
509.887	255.38
510.103	242.38
510.319	250.38
510.536	266.38
510.752	260.38
510.968	265.38
511.184	250.38
511.401	252.38
511.617	244.38
511.833	235.38
512.049	261.38
512.265	232.38
512.481	225.38
512.698	250.38
512.914	254.38
513.13	241.38
513.346	242.38
513.562	247.38
513.778	263.38
513.994	254.38
514.21	248.38
514.426	262.38
514.642	243.38
514.858	242.38
515.074	265.38
515.29	264.38
515.506	263.38
515.721	263.38
515.937	277.38
516.153	280.38
516.369	273.38
516.585	299.38
516.801	290.38
517.016	315.38
517.232	312.38
517.448	327.38
517.664	357.38
517.879	327.38
518.095	337.38
518.311	318.38
518.527	315.38
518.742	323.38
518.958	289.38
519.173	299.38
519.389	277.38
519.605	259.38
519.82	270.38
520.036	284.38
520.251	272.38
520.467	232.38
520.682	265.38
520.898	245.38
521.113	280.38
521.329	258.38
521.544	245.38
521.76	236.38
521.975	254.38
522.19	243.38
522.406	245.38
522.621	242.38
522.836	232.38
523.052	242.38
523.267	233.38
523.482	237.38
523.698	231.38
523.913	238.38
524.128	233.38
524.343	247.38
524.559	239.38
524.774	240.38
524.989	230.38
525.204	243.38
525.419	234.38
525.634	227.38
525.849	238.38
526.064	236.38
526.28	234.38
526.495	244.38
526.71	246.38
526.925	236.38
527.14	238.38
527.355	229.38
527.57	241.38
527.785	228.38
527.999	232.38
528.214	239.38
528.429	254.38
528.644	226.38
528.859	249.38
529.074	245.38
529.289	246.38
529.503	241.38
529.718	245.38
529.933	244.38
530.148	235.38
530.363	244.38
530.577	233.38
530.792	234.38
531.007	249.38
531.221	250.38
531.436	228.38
531.651	236.38
531.865	244.38
532.08	262.38
532.295	238.38
532.509	229.38
532.724	230.38
532.938	230.38
533.153	225.38
533.367	234.38
533.582	248.38
533.796	242.38
534.011	217.38
534.225	232.38
534.44	233.38
534.654	234.38
534.868	245.38
535.083	246.38
535.297	228.38
535.511	237.38
535.726	240.38
535.94	235.38
536.154	216.38
536.369	233.38
536.583	236.38
536.797	235.38
537.011	216.38
537.225	217.38
537.44	222.38
537.654	232.38
537.868	234.38
538.082	222.38
538.296	206.38
538.51	211.38
538.724	228.38
538.938	210.38
539.153	231.38
539.367	226.38
539.581	225.38
539.795	207.38
540.009	215.38
540.222	221.38
540.436	223.38
540.65	207.38
540.864	221.38
541.078	222.38
541.292	215.38
541.506	223.38
541.72	230.38
541.934	218.38
542.147	193.38
542.361	228.38
542.575	225.38
542.789	229.38
543.002	224.38
543.216	211.38
543.43	225.38
543.644	215.38
543.857	214.38
544.071	233.38
544.285	229.38
544.498	220.38
544.712	225.38
544.925	228.38
545.139	224.38
545.352	221.38
545.566	229.38
545.779	228.38
545.993	237.38
546.206	226.38
546.42	240.38
546.633	215.38
546.847	212.38
547.06	223.38
547.274	216.38
547.487	204.38
547.7	220.38
547.914	211.38
548.127	220.38
548.34	215.38
548.554	242.38
548.767	212.38
548.98	233.38
549.193	222.38
549.407	212.38
549.62	242.38
549.833	252.38
550.046	246.38
550.259	226.38
550.473	229.38
550.686	222.38
550.899	220.38
551.112	229.38
551.325	222.38
551.538	219.38
551.751	229.38
551.964	232.38
552.177	222.38
552.39	215.38
552.603	238.38
552.816	226.38
553.029	237.38
553.242	258.38
553.455	251.38
553.667	245.38
553.88	263.38
554.093	234.38
554.306	229.38
554.519	229.38
554.732	216.38
554.944	209.38
555.157	221.38
555.37	225.38
555.583	229.38
555.795	220.38
556.008	218.38
556.221	200.38
556.433	193.38
556.646	192.38
556.859	215.38
557.071	215.38
557.284	213.38
557.496	195.38
557.709	194.38
557.921	208.38
558.134	214.38
558.346	205.38
558.559	202.38
558.771	216.38
558.984	210.38
559.196	193.38
559.409	195.38
559.621	212.38
559.833	203.38
560.046	207.38
560.258	199.38
560.47	197.38
560.683	187.38
560.895	202.38
561.107	193.38
561.32	201.38
561.532	190.38
561.744	210.38
561.956	206.38
562.168	209.38
562.381	208.38
562.593	209.38
562.805	197.38
563.017	203.38
563.229	220.38
563.441	211.38
563.653	200.38
563.865	206.38
564.077	220.38
564.289	198.38
564.501	209.38
564.713	200.38
564.925	209.38
565.137	225.38
565.349	205.38
565.561	234.38
565.773	217.38
565.985	229.38
566.197	233.38
566.408	257.38
566.62	250.38
566.832	285.38
567.044	289.38
567.255	297.38
567.467	299.38
567.679	321.38
567.891	349.38
568.102	350.38
568.314	359.38
568.526	314.38
568.737	296.38
568.949	266.38
569.161	234.38
569.372	234.38
569.584	231.38
569.795	211.38
570.007	219.38
570.218	220.38
570.43	200.38
570.641	201.38
570.853	213.38
571.064	207.38
571.276	193.38
571.487	214.38
571.698	211.38
571.91	186.38
572.121	188.38
572.333	190.38
572.544	171.38
572.755	197.38
572.966	194.38
573.178	191.38
573.389	190.38
573.6	189.38
573.811	190.38
574.023	184.38
574.234	169.38
574.445	183.38
574.656	187.38
574.867	190.38
575.078	208.38
575.289	193.38
575.501	182.38
575.712	186.38
575.923	170.38
576.134	173.38
576.345	167.38
576.556	166.38
576.767	179.38
576.978	185.38
577.188	181.38
577.399	172.38
577.61	160.38
577.821	169.38
578.032	183.38
578.243	181.38
578.454	181.38
578.665	170.38
578.875	170.38
579.086	180.38
579.297	176.38
579.508	160.38
579.718	165.38
579.929	171.38
580.14	183.38
580.35	179.38
580.561	168.38
580.772	143.38
580.982	165.38
581.193	165.38
581.403	167.38
581.614	170.38
581.825	169.38
582.035	167.38
582.246	173.38
582.456	149.38
582.667	157.38
582.877	153.38
583.087	164.38
583.298	174.38
583.508	173.38
583.719	159.38
583.929	166.38
584.139	161.38
584.35	154.38
584.56	158.38
584.77	178.38
584.981	167.38
585.191	170.38
585.401	165.38
585.611	147.38
585.821	190.38
586.032	180.38
586.242	162.38
586.452	168.38
586.662	164.38
586.872	148.38
587.082	152.38
587.292	161.38
587.502	175.38
587.713	154.38
587.923	172.38
588.133	151.38
588.343	150.38
588.553	153.38
588.762	168.38
588.972	170.38
589.182	157.38
589.392	174.38
589.602	174.38
589.812	178.38
590.022	175.38
590.232	157.38
590.441	164.38
590.651	157.38
590.861	170.38
591.071	150.38
591.281	169.38
591.49	165.38
591.7	177.38
591.91	185.38
592.119	168.38
592.329	183.38
592.539	177.38
592.748	185.38
592.958	168.38
593.167	174.38
593.377	184.38
593.587	187.38
593.796	211.38
594.006	211.38
594.215	198.38
594.424	203.38
594.634	193.38
594.843	159.38
595.053	177.38
595.262	175.38
595.472	170.38
595.681	185.38
595.89	159.38
596.1	168.38
596.309	155.38
596.518	146.38
596.727	160.38
596.937	159.38
597.146	168.38
597.355	164.38
597.564	160.38
597.774	159.38
597.983	157.38
598.192	163.38
598.401	150.38
598.61	143.38
598.819	152.38
599.028	151.38
599.237	147.38
599.446	146.38
599.655	150.38
599.864	158.38
600.073	155.38
600.282	144.38
600.491	138.38
600.7	151.38
600.909	142.38
601.118	139.38
601.327	137.38
601.536	147.38
601.745	135.38
601.953	157.38
602.162	163.38
602.371	157.38
602.58	147.38
602.789	143.38
602.997	140.38
603.206	142.38
603.415	148.38
603.623	147.38
603.832	153.38
604.041	155.38
604.249	147.38
604.458	149.38
604.666	157.38
604.875	154.38
605.084	121.38
605.292	142.38
605.501	145.38
605.709	130.38
605.918	136.38
606.126	148.38
606.334	144.38
606.543	155.38
606.751	153.38
606.96	151.38
607.168	133.38
607.376	137.38
607.585	165.38
607.793	147.38
608.001	144.38
608.21	151.38
608.418	154.38
608.626	132.38
608.834	135.38
609.043	130.38
609.251	141.38
609.459	158.38
609.667	142.38
609.875	133.38
610.083	134.38
610.291	142.38
610.499	135.38
610.707	141.38
610.916	149.38
611.124	155.38
611.332	136.38
611.54	141.38
611.748	137.38
611.955	143.38
612.163	137.38
612.371	147.38
612.579	133.38
612.787	140.38
612.995	133.38
613.203	146.38
613.411	144.38
613.618	130.38
613.826	155.38
614.034	154.38
614.242	140.38
614.449	144.38
614.657	155.38
614.865	143.38
615.072	158.38
615.28	147.38
615.488	154.38
615.695	130.38
615.903	141.38
616.111	144.38
616.318	162.38
616.526	155.38
616.733	137.38
616.941	131.38
617.148	148.38
617.356	153.38
617.563	142.38
617.771	149.38
617.978	140.38
618.185	142.38
618.393	135.38
618.6	139.38
618.807	139.38
619.015	145.38
619.222	138.38
619.429	138.38
619.637	153.38
619.844	133.38
620.051	131.38
620.258	113.38
620.466	124.38
620.673	138.38
620.88	136.38
621.087	125.38
621.294	143.38
621.501	131.38
621.708	142.38
621.915	128.38
622.122	142.38
622.329	124.38
622.536	139.38
622.743	124.38
622.95	135.38
623.157	141.38
623.364	140.38
623.571	133.38
623.778	143.38
623.985	134.38
624.192	119.38
624.399	132.38
624.606	128.38
624.812	141.38
625.019	125.38
625.226	115.38
625.433	119.38
625.639	131.38
625.846	131.38
626.053	136.38
626.259	126.38
626.466	122.38
626.673	127.38
626.879	125.38
627.086	130.38
627.293	123.38
627.499	141.38
627.706	124.38
627.912	138.38
628.119	142.38
628.325	136.38
628.532	123.38
628.738	129.38
628.945	122.38
629.151	128.38
629.357	125.38
629.564	121.38
629.77	121.38
629.976	142.38
630.183	130.38
630.389	134.38
630.595	137.38
630.802	117.38
631.008	122.38
631.214	127.38
631.42	127.38
631.627	135.38
631.833	124.38
632.039	125.38
632.245	122.38
632.451	120.38
632.657	127.38
632.863	126.38
633.069	117.38
633.275	126.38
633.481	129.38
633.688	119.38
633.893	145.38
634.099	131.38
634.305	113.38
634.511	109.38
634.717	120.38
634.923	113.38
635.129	116.38
635.335	118.38
635.541	132.38
635.747	137.38
635.952	118.38
636.158	118.38
636.364	139.38
636.57	129.38
636.775	119.38
636.981	113.38
637.187	125.38
637.392	117.38
637.598	117.38
637.804	134.38
638.009	122.38
638.215	119.38
638.421	125.38
638.626	110.38
638.832	134.38
639.037	114.38
639.243	123.38
639.448	127.38
639.654	114.38
639.859	115.38
640.065	121.38
640.27	124.38
640.475	114.38
640.681	118.38
640.886	121.38
641.091	125.38
641.297	132.38
641.502	119.38
641.707	104.38
641.913	123.38
642.118	119.38
642.323	123.38
642.528	132.38
642.733	109.38
642.939	135.38
643.144	126.38
643.349	116.38
643.554	127.38
643.759	126.38
643.964	119.38
644.169	104.38
644.374	128.38
644.579	122.38
644.784	115.38
644.989	122.38
645.194	109.38
645.399	109.38
645.604	127.38
645.809	119.38
646.014	126.38
646.219	133.38
646.423	111.38
646.628	107.38
646.833	123.38
647.038	119.38
647.243	131.38
647.447	114.38
647.652	116.38
647.857	117.38
648.062	119.38
648.266	120.38
648.471	133.38
648.676	110.38
648.88	111.38
649.085	132.38
649.289	115.38
649.494	121.38
649.698	113.38
649.903	106.38
650.107	133.38
650.312	123.38
650.516	142.38
650.721	116.38
650.925	123.38
651.13	109.38
651.334	113.38
651.539	115.38
651.743	118.38
651.947	105.38
652.152	113.38
652.356	105.38
652.56	105.38
652.764	117.38
652.969	112.38
653.173	107.38
653.377	113.38
653.581	123.38
653.785	105.38
653.99	90.38
654.194	103.38
654.398	93.38
654.602	96.38
654.806	95.38
655.01	101.38
655.214	117.38
655.418	104.38
655.622	108.38
655.826	106.38
656.03	98.38
656.234	97.38
656.438	111.38
656.642	104.38
656.846	114.38
657.049	117.38
657.253	103.38
657.457	106.38
657.661	121.38
657.865	85.38
658.068	97.38
658.272	86.38
658.476	104.38
658.68	94.38
658.883	93.38
659.087	87.38
659.291	101.38
659.494	101.38
659.698	89.38
659.901	94.38
660.105	98.38
660.309	102.38
660.512	94.38
660.716	100.38
660.919	91.38
661.123	96.38
661.326	92.38
661.53	86.38
661.733	89.38
661.936	71.38
662.14	76.38
662.343	81.38
662.546	94.38
662.75	71.38
662.953	90.38
663.156	79.38
663.36	84.38
663.563	84.38
663.766	80.38
663.969	82.38
664.173	90.38
664.376	89.38
664.579	88.38
664.782	85.38
664.985	100.38
665.188	89.38
665.391	85.38
665.594	86.38
665.797	82.38
666	86.38
666.203	81.38
666.406	93.38
666.609	77.38
666.812	86.38
667.015	83.38
667.218	83.38
667.421	83.38
667.624	95.38
667.827	86.38
668.03	88.38
668.232	81.38
668.435	77.38
668.638	86.38
668.841	95.38
669.043	96.38
669.246	86.38
669.449	79.38
669.651	91.38
669.854	88.38
670.057	87.38
670.259	89.38
670.462	78.38
670.665	75.38
670.867	73.38
671.07	70.38
671.272	74.38
671.475	86.38
671.677	85.38
671.88	77.38
672.082	87.38
672.284	100.38
672.487	91.38
672.689	84.38
672.892	83.38
