Data from 0.5MCu(NO3)2.Standard.Lamp.E10.CV._HRD10591_16-05-42-753.txt Node
Date: Mon Jul 22 16:05:42 EDT 2019
User: cochatt
Spectrometer: HR+D1059
Trigger mode: 1
Integration Time (sec): 1.000000E-1
Scans to average: 1
Electric dark correction enabled: true
Nonlinearity correction enabled: false
Boxcar width: 0
XAxis mode: Wavelengths
Number of Pixels in Spectrum: 2048
>>>>>Begin Spectral Data<<<<<
223.165	-14.12
223.4	-14.12
223.635	-14.12
223.869	-16.12
224.104	-7.12
224.338	-14.12
224.573	-10.12
224.808	-12.12
225.042	-4.12
225.277	-7.12
225.511	-18.12
225.746	6.88
225.98	3.88
226.215	5.88
226.449	0.88
226.683	27.88
226.918	27.88
227.152	29.88
227.387	31.88
227.621	22.88
227.856	44.88
228.09	30.88
228.324	39.88
228.559	49.88
228.793	73.88
229.027	65.88
229.262	68.88
229.496	63.88
229.73	85.88
229.964	64.88
230.199	76.88
230.433	79.88
230.667	87.88
230.901	69.88
231.136	72.88
231.37	71.88
231.604	87.88
231.838	76.88
232.072	88.88
232.306	86.88
232.541	86.88
232.775	85.88
233.009	88.88
233.243	83.88
233.477	86.88
233.711	81.88
233.945	92.88
234.179	84.88
234.413	99.88
234.647	77.88
234.881	80.88
235.115	85.88
235.349	94.88
235.583	92.88
235.817	83.88
236.051	86.88
236.285	72.88
236.519	93.88
236.753	95.88
236.987	89.88
237.221	85.88
237.455	80.88
237.689	82.88
237.922	98.88
238.156	84.88
238.39	83.88
238.624	92.88
238.858	80.88
239.091	80.88
239.325	71.88
239.559	73.88
239.793	65.88
240.027	84.88
240.26	85.88
240.494	92.88
240.728	89.88
240.961	80.88
241.195	80.88
241.429	86.88
241.662	100.88
241.896	86.88
242.13	95.88
242.363	90.88
242.597	78.88
242.83	84.88
243.064	103.88
243.298	89.88
243.531	83.88
243.765	70.88
243.998	87.88
244.232	91.88
244.465	96.88
244.699	93.88
244.932	91.88
245.166	97.88
245.399	94.88
245.633	108.88
245.866	98.88
246.099	98.88
246.333	94.88
246.566	97.88
246.8	93.88
247.033	110.88
247.266	107.88
247.5	95.88
247.733	109.88
247.966	106.88
248.2	95.88
248.433	97.88
248.666	92.88
248.899	101.88
249.133	111.88
249.366	91.88
249.599	116.88
249.832	99.88
250.066	92.88
250.299	108.88
250.532	95.88
250.765	111.88
250.998	107.88
251.231	104.88
251.465	117.88
251.698	104.88
251.931	116.88
252.164	107.88
252.397	101.88
252.63	92.88
252.863	96.88
253.096	97.88
253.329	98.88
253.562	106.88
253.795	113.88
254.028	111.88
254.261	104.88
254.494	91.88
254.727	99.88
254.96	107.88
255.193	111.88
255.426	113.88
255.659	96.88
255.892	111.88
256.124	109.88
256.357	99.88
256.59	123.88
256.823	95.88
257.056	96.88
257.289	118.88
257.521	131.88
257.754	129.88
257.987	120.88
258.22	115.88
258.452	121.88
258.685	107.88
258.918	104.88
259.151	109.88
259.383	121.88
259.616	120.88
259.849	115.88
260.081	119.88
260.314	128.88
260.547	115.88
260.779	114.88
261.012	120.88
261.244	124.88
261.477	134.88
261.71	117.88
261.942	113.88
262.175	118.88
262.407	117.88
262.64	116.88
262.872	104.88
263.105	118.88
263.337	119.88
263.57	118.88
263.802	131.88
264.035	131.88
264.267	130.88
264.499	128.88
264.732	131.88
264.964	120.88
265.197	119.88
265.429	129.88
265.661	136.88
265.894	128.88
266.126	139.88
266.358	116.88
266.591	116.88
266.823	122.88
267.055	112.88
267.287	123.88
267.52	123.88
267.752	117.88
267.984	146.88
268.216	127.88
268.448	128.88
268.681	125.88
268.913	137.88
269.145	123.88
269.377	133.88
269.609	118.88
269.841	133.88
270.073	135.88
270.306	139.88
270.538	138.88
270.77	140.88
271.002	137.88
271.234	121.88
271.466	132.88
271.698	126.88
271.93	128.88
272.162	136.88
272.394	127.88
272.626	119.88
272.858	129.88
273.09	124.88
273.322	134.88
273.553	123.88
273.785	121.88
274.017	127.88
274.249	128.88
274.481	142.88
274.713	129.88
274.945	156.88
275.176	137.88
275.408	152.88
275.64	135.88
275.872	129.88
276.104	141.88
276.335	135.88
276.567	149.88
276.799	135.88
277.031	134.88
277.262	122.88
277.494	117.88
277.726	121.88
277.957	127.88
278.189	129.88
278.421	135.88
278.652	149.88
278.884	148.88
279.115	128.88
279.347	142.88
279.579	138.88
279.81	150.88
280.042	133.88
280.273	123.88
280.505	147.88
280.736	144.88
280.968	156.88
281.199	143.88
281.431	152.88
281.662	150.88
281.894	156.88
282.125	134.88
282.356	148.88
282.588	165.88
282.819	152.88
283.051	157.88
283.282	137.88
283.513	162.88
283.745	153.88
283.976	154.88
284.207	153.88
284.439	155.88
284.67	158.88
284.901	166.88
285.132	162.88
285.364	163.88
285.595	171.88
285.826	164.88
286.057	164.88
286.288	162.88
286.52	159.88
286.751	162.88
286.982	161.88
287.213	166.88
287.444	147.88
287.675	153.88
287.906	156.88
288.138	170.88
288.369	155.88
288.6	159.88
288.831	147.88
289.062	174.88
289.293	147.88
289.524	153.88
289.755	173.88
289.986	150.88
290.217	141.88
290.448	157.88
290.679	171.88
290.91	171.88
291.141	169.88
291.371	171.88
291.602	174.88
291.833	160.88
292.064	169.88
292.295	161.88
292.526	159.88
292.757	158.88
292.987	178.88
293.218	175.88
293.449	175.88
293.68	165.88
293.91	150.88
294.141	157.88
294.372	171.88
294.603	162.88
294.833	176.88
295.064	162.88
295.295	156.88
295.525	154.88
295.756	166.88
295.987	155.88
296.217	168.88
296.448	161.88
296.679	168.88
296.909	165.88
297.14	167.88
297.37	183.88
297.601	169.88
297.831	180.88
298.062	165.88
298.292	192.88
298.523	191.88
298.753	187.88
298.984	188.88
299.214	179.88
299.445	188.88
299.675	176.88
299.905	182.88
300.136	182.88
300.366	188.88
300.597	173.88
300.827	177.88
301.057	191.88
301.288	187.88
301.518	168.88
301.748	188.88
301.979	181.88
302.209	175.88
302.439	184.88
302.669	180.88
302.9	181.88
303.13	191.88
303.36	166.88
303.59	177.88
303.82	172.88
304.051	177.88
304.281	191.88
304.511	180.88
304.741	179.88
304.971	179.88
305.201	195.88
305.431	173.88
305.661	191.88
305.891	166.88
306.121	175.88
306.352	191.88
306.582	184.88
306.812	182.88
307.042	178.88
307.272	188.88
307.502	182.88
307.731	185.88
307.961	170.88
308.191	170.88
308.421	175.88
308.651	167.88
308.881	180.88
309.111	175.88
309.341	165.88
309.571	177.88
309.8	189.88
310.03	183.88
310.26	179.88
310.49	180.88
310.72	190.88
310.949	176.88
311.179	179.88
311.409	177.88
311.639	178.88
311.868	182.88
312.098	176.88
312.328	188.88
312.557	204.88
312.787	199.88
313.017	197.88
313.246	163.88
313.476	196.88
313.706	201.88
313.935	185.88
314.165	187.88
314.394	187.88
314.624	197.88
314.853	192.88
315.083	196.88
315.312	198.88
315.542	182.88
315.771	179.88
316.001	185.88
316.23	180.88
316.46	183.88
316.689	199.88
316.919	172.88
317.148	187.88
317.377	173.88
317.607	197.88
317.836	201.88
318.065	190.88
318.295	187.88
318.524	192.88
318.753	206.88
318.983	179.88
319.212	182.88
319.441	177.88
319.67	181.88
319.9	185.88
320.129	184.88
320.358	184.88
320.587	188.88
320.816	192.88
321.046	175.88
321.275	189.88
321.504	181.88
321.733	188.88
321.962	187.88
322.191	196.88
322.42	174.88
322.649	186.88
322.878	171.88
323.108	188.88
323.337	180.88
323.566	179.88
323.795	195.88
324.024	183.88
324.253	181.88
324.482	193.88
324.71	183.88
324.939	199.88
325.168	197.88
325.397	204.88
325.626	190.88
325.855	202.88
326.084	204.88
326.313	191.88
326.542	215.88
326.77	197.88
326.999	213.88
327.228	200.88
327.457	197.88
327.686	195.88
327.914	199.88
328.143	207.88
328.372	203.88
328.6	190.88
328.829	194.88
329.058	194.88
329.287	203.88
329.515	211.88
329.744	190.88
329.972	205.88
330.201	200.88
330.43	187.88
330.658	198.88
330.887	220.88
331.115	201.88
331.344	211.88
331.572	202.88
331.801	215.88
332.03	215.88
332.258	201.88
332.486	228.88
332.715	230.88
332.943	255.88
333.172	251.88
333.4	241.88
333.629	257.88
333.857	247.88
334.085	252.88
334.314	239.88
334.542	245.88
334.771	238.88
334.999	226.88
335.227	215.88
335.455	221.88
335.684	224.88
335.912	206.88
336.14	220.88
336.369	238.88
336.597	228.88
336.825	226.88
337.053	236.88
337.281	215.88
337.51	225.88
337.738	210.88
337.966	220.88
338.194	214.88
338.422	214.88
338.65	217.88
338.878	205.88
339.106	212.88
339.334	211.88
339.562	215.88
339.79	218.88
340.018	205.88
340.246	187.88
340.474	209.88
340.702	211.88
340.93	201.88
341.158	201.88
341.386	209.88
341.614	190.88
341.842	208.88
342.07	201.88
342.298	213.88
342.526	191.88
342.754	198.88
342.981	211.88
343.209	204.88
343.437	208.88
343.665	212.88
343.893	237.88
344.12	253.88
344.348	226.88
344.576	220.88
344.804	212.88
345.031	199.88
345.259	211.88
345.487	192.88
345.714	204.88
345.942	205.88
346.17	205.88
346.397	193.88
346.625	204.88
346.853	189.88
347.08	204.88
347.308	206.88
347.535	229.88
347.763	214.88
347.99	183.88
348.218	196.88
348.445	206.88
348.673	192.88
348.9	209.88
349.128	198.88
349.355	192.88
349.583	189.88
349.81	197.88
350.037	185.88
350.265	203.88
350.492	200.88
350.72	195.88
350.947	175.88
351.174	196.88
351.402	199.88
351.629	184.88
351.856	182.88
352.083	195.88
352.311	216.88
352.538	199.88
352.765	192.88
352.992	191.88
353.22	201.88
353.447	196.88
353.674	172.88
353.901	192.88
354.128	186.88
354.355	185.88
354.583	183.88
354.81	201.88
355.037	207.88
355.264	201.88
355.491	192.88
355.718	195.88
355.945	209.88
356.172	196.88
356.399	179.88
356.626	194.88
356.853	202.88
357.08	187.88
357.307	190.88
357.534	189.88
357.761	203.88
357.988	190.88
358.215	192.88
358.441	180.88
358.668	177.88
358.895	185.88
359.122	183.88
359.349	195.88
359.576	216.88
359.802	198.88
360.029	189.88
360.256	195.88
360.483	199.88
360.709	200.88
360.936	208.88
361.163	196.88
361.39	209.88
361.616	198.88
361.843	182.88
362.07	198.88
362.296	196.88
362.523	190.88
362.749	194.88
362.976	180.88
363.203	189.88
363.429	198.88
363.656	191.88
363.882	209.88
364.109	191.88
364.335	190.88
364.562	185.88
364.788	199.88
365.015	185.88
365.241	213.88
365.468	190.88
365.694	192.88
365.92	180.88
366.147	187.88
366.373	191.88
366.599	193.88
366.826	182.88
367.052	178.88
367.278	192.88
367.505	189.88
367.731	207.88
367.957	190.88
368.184	189.88
368.41	185.88
368.636	190.88
368.862	172.88
369.089	193.88
369.315	194.88
369.541	193.88
369.767	191.88
369.993	182.88
370.219	202.88
370.445	188.88
370.672	191.88
370.898	185.88
371.124	189.88
371.35	193.88
371.576	192.88
371.802	198.88
372.028	201.88
372.254	190.88
372.48	195.88
372.706	199.88
372.932	190.88
373.158	204.88
373.384	193.88
373.61	199.88
373.835	212.88
374.061	209.88
374.287	217.88
374.513	201.88
374.739	210.88
374.965	207.88
375.191	232.88
375.416	224.88
375.642	217.88
375.868	213.88
376.094	211.88
376.319	210.88
376.545	210.88
376.771	196.88
376.997	198.88
377.222	199.88
377.448	202.88
377.674	216.88
377.899	206.88
378.125	206.88
378.35	200.88
378.576	203.88
378.802	189.88
379.027	201.88
379.253	193.88
379.478	199.88
379.704	194.88
379.929	196.88
380.155	195.88
380.38	207.88
380.606	193.88
380.831	195.88
381.057	207.88
381.282	197.88
381.507	200.88
381.733	193.88
381.958	217.88
382.184	202.88
382.409	189.88
382.634	226.88
382.86	203.88
383.085	205.88
383.31	215.88
383.535	210.88
383.761	219.88
383.986	213.88
384.211	234.88
384.436	230.88
384.662	225.88
384.887	226.88
385.112	232.88
385.337	224.88
385.562	224.88
385.787	235.88
386.013	238.88
386.238	236.88
386.463	246.88
386.688	227.88
386.913	239.88
387.138	233.88
387.363	242.88
387.588	231.88
387.813	224.88
388.038	229.88
388.263	224.88
388.488	225.88
388.713	219.88
388.938	228.88
389.163	230.88
389.387	211.88
389.612	218.88
389.837	212.88
390.062	208.88
390.287	217.88
390.512	232.88
390.736	226.88
390.961	220.88
391.186	209.88
391.411	232.88
391.636	239.88
391.86	246.88
392.085	263.88
392.31	249.88
392.534	240.88
392.759	253.88
392.984	220.88
393.208	225.88
393.433	225.88
393.658	233.88
393.882	228.88
394.107	239.88
394.331	240.88
394.556	230.88
394.78	239.88
395.005	234.88
395.229	227.88
395.454	237.88
395.678	249.88
395.903	245.88
396.127	247.88
396.352	229.88
396.576	222.88
396.801	245.88
397.025	236.88
397.249	246.88
397.474	234.88
397.698	252.88
397.922	239.88
398.147	241.88
398.371	251.88
398.595	260.88
398.82	265.88
399.044	271.88
399.268	299.88
399.492	343.88
399.717	387.88
399.941	377.88
400.165	346.88
400.389	289.88
400.613	295.88
400.837	275.88
401.062	274.88
401.286	276.88
401.51	264.88
401.734	270.88
401.958	272.88
402.182	271.88
402.406	260.88
402.63	280.88
402.854	281.88
403.078	283.88
403.302	288.88
403.526	300.88
403.75	302.88
403.974	299.88
404.198	320.88
404.422	316.88
404.645	284.88
404.869	305.88
405.093	284.88
405.317	287.88
405.541	285.88
405.765	288.88
405.988	284.88
406.212	267.88
406.436	274.88
406.66	292.88
406.883	272.88
407.107	306.88
407.331	313.88
407.555	339.88
407.778	327.88
408.002	340.88
408.226	309.88
408.449	315.88
408.673	309.88
408.896	301.88
409.12	299.88
409.344	293.88
409.567	293.88
409.791	302.88
410.014	324.88
410.238	300.88
410.461	308.88
410.685	292.88
410.908	278.88
411.132	265.88
411.355	273.88
411.578	278.88
411.802	283.88
412.025	271.88
412.249	276.88
412.472	269.88
412.695	264.88
412.919	262.88
413.142	258.88
413.365	268.88
413.589	266.88
413.812	254.88
414.035	256.88
414.258	261.88
414.482	265.88
414.705	260.88
414.928	264.88
415.151	254.88
415.374	271.88
415.597	253.88
415.821	275.88
416.044	274.88
416.267	260.88
416.49	253.88
416.713	253.88
416.936	256.88
417.159	264.88
417.382	264.88
417.605	249.88
417.828	257.88
418.051	252.88
418.274	240.88
418.497	266.88
418.72	264.88
418.943	258.88
419.166	296.88
419.389	306.88
419.611	285.88
419.834	287.88
420.057	265.88
420.28	273.88
420.503	268.88
420.726	253.88
420.948	260.88
421.171	278.88
421.394	261.88
421.617	266.88
421.839	262.88
422.062	254.88
422.285	262.88
422.507	256.88
422.73	255.88
422.953	287.88
423.175	268.88
423.398	275.88
423.621	285.88
423.843	270.88
424.066	269.88
424.288	274.88
424.511	289.88
424.733	276.88
424.956	257.88
425.178	263.88
425.401	267.88
425.623	258.88
425.846	257.88
426.068	252.88
426.291	233.88
426.513	240.88
426.735	242.88
426.958	253.88
427.18	244.88
427.402	263.88
427.625	240.88
427.847	236.88
428.069	237.88
428.292	232.88
428.514	225.88
428.736	232.88
428.958	231.88
429.181	241.88
429.403	241.88
429.625	257.88
429.847	238.88
430.069	253.88
430.292	238.88
430.514	222.88
430.736	238.88
430.958	229.88
431.18	237.88
431.402	224.88
431.624	216.88
431.846	235.88
432.068	232.88
432.29	250.88
432.512	219.88
432.734	251.88
432.956	228.88
433.178	232.88
433.4	248.88
433.622	263.88
433.844	244.88
434.066	230.88
434.287	245.88
434.509	232.88
434.731	251.88
434.953	271.88
435.175	259.88
435.397	265.88
435.618	242.88
435.84	245.88
436.062	255.88
436.284	228.88
436.505	229.88
436.727	227.88
436.949	250.88
437.17	253.88
437.392	240.88
437.614	220.88
437.835	232.88
438.057	236.88
438.278	217.88
438.5	218.88
438.721	224.88
438.943	218.88
439.165	240.88
439.386	227.88
439.608	227.88
439.829	216.88
440.05	226.88
440.272	241.88
440.493	232.88
440.715	242.88
440.936	255.88
441.158	265.88
441.379	273.88
441.6	266.88
441.822	261.88
442.043	271.88
442.264	257.88
442.486	262.88
442.707	272.88
442.928	265.88
443.149	248.88
443.371	271.88
443.592	277.88
443.813	257.88
444.034	267.88
444.255	280.88
444.476	286.88
444.698	305.88
444.919	322.88
445.14	405.88
445.361	336.88
445.582	267.88
445.803	274.88
446.024	258.88
446.245	264.88
446.466	239.88
446.687	255.88
446.908	232.88
447.129	242.88
447.35	253.88
447.571	236.88
447.792	231.88
448.013	221.88
448.234	215.88
448.455	215.88
448.675	211.88
448.896	212.88
449.117	230.88
449.338	215.88
449.559	227.88
449.779	217.88
450	236.88
450.221	222.88
450.442	206.88
450.662	219.88
450.883	225.88
451.104	233.88
451.324	236.88
451.545	220.88
451.766	233.88
451.986	226.88
452.207	216.88
452.428	236.88
452.648	227.88
452.869	209.88
453.089	232.88
453.31	224.88
453.53	216.88
453.751	213.88
453.971	219.88
454.192	214.88
454.412	219.88
454.633	210.88
454.853	206.88
455.073	222.88
455.294	199.88
455.514	213.88
455.734	211.88
455.955	207.88
456.175	199.88
456.395	220.88
456.616	202.88
456.836	234.88
457.056	212.88
457.276	220.88
457.497	216.88
457.717	212.88
457.937	213.88
458.157	200.88
458.377	229.88
458.598	228.88
458.818	218.88
459.038	226.88
459.258	232.88
459.478	244.88
459.698	257.88
459.918	255.88
460.138	264.88
460.358	279.88
460.578	287.88
460.798	288.88
461.018	271.88
461.238	285.88
461.458	278.88
461.678	292.88
461.898	289.88
462.118	271.88
462.338	282.88
462.558	305.88
462.777	319.88
462.997	355.88
463.217	345.88
463.437	364.88
463.657	343.88
463.876	313.88
464.096	307.88
464.316	313.88
464.536	323.88
464.755	300.88
464.975	292.88
465.195	296.88
465.414	278.88
465.634	269.88
465.854	233.88
466.073	241.88
466.293	229.88
466.512	251.88
466.732	234.88
466.951	231.88
467.171	236.88
467.391	247.88
467.61	241.88
467.829	230.88
468.049	235.88
468.268	225.88
468.488	216.88
468.707	207.88
468.927	231.88
469.146	229.88
469.365	226.88
469.585	231.88
469.804	242.88
470.023	237.88
470.243	251.88
470.462	259.88
470.681	255.88
470.901	240.88
471.12	248.88
471.339	239.88
471.558	237.88
471.777	222.88
471.997	248.88
472.216	222.88
472.435	208.88
472.654	221.88
472.873	233.88
473.092	224.88
473.311	210.88
473.53	215.88
473.749	229.88
473.968	223.88
474.187	241.88
474.406	224.88
474.625	224.88
474.844	237.88
475.063	218.88
475.282	224.88
475.501	202.88
475.72	231.88
475.939	220.88
476.158	247.88
476.377	238.88
476.596	237.88
476.814	224.88
477.033	233.88
477.252	244.88
477.471	247.88
477.69	231.88
477.908	250.88
478.127	255.88
478.346	272.88
478.564	285.88
478.783	256.88
479.002	279.88
479.22	263.88
479.439	266.88
479.658	259.88
479.876	280.88
480.095	283.88
480.313	308.88
480.532	292.88
480.751	303.88
480.969	277.88
481.188	273.88
481.406	262.88
481.624	265.88
481.843	250.88
482.061	258.88
482.28	251.88
482.498	255.88
482.717	255.88
482.935	261.88
483.153	244.88
483.372	268.88
483.59	262.88
483.808	248.88
484.027	273.88
484.245	270.88
484.463	256.88
484.681	272.88
484.9	283.88
485.118	266.88
485.336	262.88
485.554	264.88
485.772	282.88
485.99	271.88
486.209	277.88
486.427	271.88
486.645	269.88
486.863	284.88
487.081	285.88
487.299	292.88
487.517	267.88
487.735	284.88
487.953	281.88
488.171	280.88
488.389	273.88
488.607	286.88
488.825	263.88
489.043	280.88
489.261	255.88
489.479	259.88
489.696	251.88
489.914	289.88
490.132	277.88
490.35	268.88
490.568	272.88
490.786	264.88
491.003	283.88
491.221	279.88
491.439	255.88
491.657	260.88
491.874	271.88
492.092	263.88
492.31	277.88
492.527	281.88
492.745	285.88
492.963	260.88
493.18	283.88
493.398	279.88
493.615	272.88
493.833	288.88
494.05	275.88
494.268	281.88
494.485	278.88
494.703	290.88
494.92	273.88
495.138	295.88
495.355	274.88
495.573	278.88
495.79	276.88
496.008	276.88
496.225	280.88
496.442	289.88
496.66	287.88
496.877	289.88
497.094	308.88
497.312	308.88
497.529	295.88
497.746	304.88
497.963	310.88
498.181	319.88
498.398	347.88
498.615	344.88
498.832	360.88
499.049	396.88
499.267	433.88
499.484	453.88
499.701	513.88
499.918	553.88
500.135	643.88
500.352	728.88
500.569	795.88
500.786	755.88
501.003	719.88
501.22	629.88
501.437	547.88
501.654	492.88
501.871	440.88
502.088	400.88
502.305	384.88
502.522	378.88
502.739	369.88
502.956	334.88
503.172	343.88
503.389	309.88
503.606	308.88
503.823	310.88
504.04	317.88
504.256	311.88
504.473	315.88
504.69	339.88
504.907	315.88
505.123	295.88
505.34	281.88
505.557	280.88
505.773	263.88
505.99	277.88
506.207	265.88
506.423	271.88
506.64	260.88
506.856	271.88
507.073	255.88
507.289	256.88
507.506	254.88
507.722	260.88
507.939	243.88
508.155	258.88
508.372	254.88
508.588	248.88
508.805	231.88
509.021	241.88
509.238	261.88
509.454	238.88
509.67	242.88
509.887	244.88
510.103	238.88
510.319	227.88
510.536	251.88
510.752	233.88
510.968	229.88
511.184	251.88
511.401	237.88
511.617	250.88
511.833	243.88
512.049	226.88
512.265	227.88
512.481	252.88
512.698	236.88
512.914	239.88
513.13	258.88
513.346	235.88
513.562	236.88
513.778	235.88
513.994	224.88
514.21	240.88
514.426	253.88
514.642	232.88
514.858	239.88
515.074	263.88
515.29	230.88
515.506	251.88
515.721	269.88
515.937	271.88
516.153	258.88
516.369	260.88
516.585	287.88
516.801	269.88
517.016	275.88
517.232	283.88
517.448	308.88
517.664	312.88
517.879	320.88
518.095	324.88
518.311	325.88
518.527	307.88
518.742	314.88
518.958	301.88
519.173	270.88
519.389	270.88
519.605	262.88
519.82	239.88
520.036	253.88
520.251	262.88
520.467	249.88
520.682	237.88
520.898	238.88
521.113	236.88
521.329	237.88
521.544	224.88
521.76	225.88
521.975	239.88
522.19	235.88
522.406	237.88
522.621	225.88
522.836	234.88
523.052	230.88
523.267	216.88
523.482	228.88
523.698	208.88
523.913	233.88
524.128	240.88
524.343	232.88
524.559	217.88
524.774	241.88
524.989	237.88
525.204	237.88
525.419	227.88
525.634	224.88
525.849	205.88
526.064	227.88
526.28	239.88
526.495	227.88
526.71	230.88
526.925	228.88
527.14	221.88
527.355	230.88
527.57	207.88
527.785	230.88
527.999	223.88
528.214	232.88
528.429	223.88
528.644	229.88
528.859	235.88
529.074	241.88
529.289	232.88
529.503	217.88
529.718	236.88
529.933	247.88
530.148	229.88
530.363	224.88
530.577	235.88
530.792	217.88
531.007	236.88
531.221	232.88
531.436	226.88
531.651	241.88
531.865	243.88
532.08	235.88
532.295	236.88
532.509	227.88
532.724	238.88
532.938	214.88
533.153	216.88
533.367	228.88
533.582	225.88
533.796	228.88
534.011	225.88
534.225	226.88
534.44	216.88
534.654	226.88
534.868	218.88
535.083	225.88
535.297	237.88
535.511	228.88
535.726	211.88
535.94	225.88
536.154	214.88
536.369	209.88
536.583	221.88
536.797	200.88
537.011	229.88
537.225	226.88
537.44	208.88
537.654	228.88
537.868	220.88
538.082	216.88
538.296	227.88
538.51	214.88
538.724	211.88
538.938	225.88
539.153	226.88
539.367	227.88
539.581	199.88
539.795	212.88
540.009	199.88
540.222	208.88
540.436	206.88
540.65	226.88
540.864	224.88
541.078	219.88
541.292	217.88
541.506	228.88
541.72	213.88
541.934	207.88
542.147	223.88
542.361	219.88
542.575	202.88
542.789	199.88
543.002	216.88
543.216	228.88
543.43	215.88
543.644	205.88
543.857	226.88
544.071	212.88
544.285	206.88
544.498	222.88
544.712	237.88
544.925	225.88
545.139	219.88
545.352	221.88
545.566	210.88
545.779	226.88
545.993	227.88
546.206	216.88
546.42	211.88
546.633	205.88
546.847	213.88
547.06	222.88
547.274	224.88
547.487	219.88
547.7	212.88
547.914	217.88
548.127	215.88
548.34	239.88
548.554	231.88
548.767	221.88
548.98	222.88
549.193	218.88
549.407	210.88
549.62	228.88
549.833	220.88
550.046	228.88
550.259	222.88
550.473	232.88
550.686	225.88
550.899	219.88
551.112	234.88
551.325	219.88
551.538	215.88
551.751	219.88
551.964	210.88
552.177	217.88
552.39	228.88
552.603	229.88
552.816	225.88
553.029	241.88
553.242	239.88
553.455	232.88
553.667	257.88
553.88	232.88
554.093	239.88
554.306	243.88
554.519	221.88
554.732	226.88
554.944	230.88
555.157	209.88
555.37	224.88
555.583	223.88
555.795	215.88
556.008	197.88
556.221	198.88
556.433	213.88
556.646	208.88
556.859	215.88
557.071	191.88
557.284	206.88
557.496	196.88
557.709	201.88
557.921	205.88
558.134	196.88
558.346	220.88
558.559	201.88
558.771	192.88
558.984	200.88
559.196	199.88
559.409	186.88
559.621	195.88
559.833	171.88
560.046	185.88
560.258	192.88
560.47	200.88
560.683	208.88
560.895	192.88
561.107	201.88
561.32	206.88
561.532	207.88
561.744	205.88
561.956	200.88
562.168	176.88
562.381	195.88
562.593	189.88
562.805	211.88
563.017	183.88
563.229	188.88
563.441	188.88
563.653	197.88
563.865	193.88
564.077	186.88
564.289	197.88
564.501	194.88
564.713	219.88
564.925	212.88
565.137	196.88
565.349	209.88
565.561	221.88
565.773	231.88
565.985	215.88
566.197	215.88
566.408	255.88
566.62	270.88
566.832	278.88
567.044	295.88
567.255	297.88
567.467	295.88
567.679	307.88
567.891	359.88
568.102	358.88
568.314	351.88
568.526	302.88
568.737	284.88
568.949	255.88
569.161	248.88
569.372	225.88
569.584	208.88
569.795	209.88
570.007	199.88
570.218	204.88
570.43	198.88
570.641	188.88
570.853	202.88
571.064	216.88
571.276	203.88
571.487	214.88
571.698	195.88
571.91	181.88
572.121	190.88
572.333	180.88
572.544	184.88
572.755	188.88
572.966	161.88
573.178	179.88
573.389	183.88
573.6	167.88
573.811	180.88
574.023	173.88
574.234	174.88
574.445	179.88
574.656	181.88
574.867	164.88
575.078	191.88
575.289	173.88
575.501	181.88
575.712	176.88
575.923	160.88
576.134	179.88
576.345	182.88
576.556	160.88
576.767	184.88
576.978	175.88
577.188	173.88
577.399	171.88
577.61	174.88
577.821	154.88
578.032	146.88
578.243	160.88
578.454	173.88
578.665	155.88
578.875	158.88
579.086	153.88
579.297	154.88
579.508	158.88
579.718	163.88
579.929	156.88
580.14	160.88
580.35	161.88
580.561	150.88
580.772	166.88
580.982	152.88
581.193	161.88
581.403	164.88
581.614	157.88
581.825	157.88
582.035	153.88
582.246	168.88
582.456	157.88
582.667	171.88
582.877	166.88
583.087	158.88
583.298	158.88
583.508	176.88
583.719	149.88
583.929	154.88
584.139	145.88
584.35	143.88
584.56	149.88
584.77	165.88
584.981	158.88
585.191	153.88
585.401	160.88
585.611	151.88
585.821	158.88
586.032	160.88
586.242	172.88
586.452	155.88
586.662	165.88
586.872	159.88
587.082	156.88
587.292	157.88
587.502	148.88
587.713	155.88
587.923	156.88
588.133	152.88
588.343	139.88
588.553	141.88
588.762	149.88
588.972	152.88
589.182	162.88
589.392	155.88
589.602	149.88
589.812	145.88
590.022	164.88
590.232	155.88
590.441	161.88
590.651	150.88
590.861	159.88
591.071	150.88
591.281	167.88
591.49	153.88
591.7	166.88
591.91	167.88
592.119	170.88
592.329	165.88
592.539	175.88
592.748	178.88
592.958	181.88
593.167	193.88
593.377	183.88
593.587	190.88
593.796	198.88
594.006	182.88
594.215	199.88
594.424	184.88
594.634	181.88
594.843	170.88
595.053	195.88
595.262	171.88
595.472	166.88
595.681	164.88
595.89	154.88
596.1	159.88
596.309	163.88
596.518	169.88
596.727	163.88
596.937	161.88
597.146	142.88
597.355	165.88
597.564	165.88
597.774	150.88
597.983	137.88
598.192	136.88
598.401	157.88
598.61	153.88
598.819	153.88
599.028	143.88
599.237	141.88
599.446	145.88
599.655	143.88
599.864	139.88
600.073	134.88
600.282	133.88
600.491	149.88
600.7	138.88
600.909	141.88
601.118	152.88
601.327	141.88
601.536	131.88
601.745	150.88
601.953	137.88
602.162	137.88
602.371	151.88
602.58	128.88
602.789	128.88
602.997	149.88
603.206	139.88
603.415	128.88
603.623	125.88
603.832	132.88
604.041	141.88
604.249	130.88
604.458	141.88
604.666	143.88
604.875	133.88
605.084	134.88
605.292	146.88
605.501	141.88
605.709	148.88
605.918	143.88
606.126	142.88
606.334	144.88
606.543	167.88
606.751	159.88
606.96	141.88
607.168	134.88
607.376	143.88
607.585	140.88
607.793	136.88
608.001	132.88
608.21	127.88
608.418	135.88
608.626	135.88
608.834	128.88
609.043	123.88
609.251	129.88
609.459	129.88
609.667	126.88
609.875	145.88
610.083	137.88
610.291	137.88
610.499	142.88
610.707	149.88
610.916	134.88
611.124	152.88
611.332	140.88
611.54	141.88
611.748	134.88
611.955	141.88
612.163	135.88
612.371	131.88
612.579	130.88
612.787	133.88
612.995	150.88
613.203	124.88
613.411	131.88
613.618	126.88
613.826	140.88
614.034	135.88
614.242	131.88
614.449	126.88
614.657	119.88
614.865	132.88
615.072	135.88
615.28	132.88
615.488	119.88
615.695	127.88
615.903	139.88
616.111	139.88
616.318	132.88
616.526	136.88
616.733	162.88
616.941	153.88
617.148	136.88
617.356	132.88
617.563	136.88
617.771	152.88
617.978	131.88
618.185	125.88
618.393	127.88
618.6	127.88
618.807	135.88
619.015	117.88
619.222	151.88
619.429	139.88
619.637	119.88
619.844	127.88
620.051	148.88
620.258	133.88
620.466	127.88
620.673	123.88
620.88	120.88
621.087	131.88
621.294	125.88
621.501	121.88
621.708	127.88
621.915	133.88
622.122	132.88
622.329	130.88
622.536	127.88
622.743	128.88
622.95	137.88
623.157	137.88
623.364	134.88
623.571	139.88
623.778	135.88
623.985	125.88
624.192	131.88
624.399	128.88
624.606	136.88
624.812	122.88
625.019	125.88
625.226	139.88
625.433	113.88
625.639	116.88
625.846	111.88
626.053	134.88
626.259	139.88
626.466	123.88
626.673	123.88
626.879	109.88
627.086	119.88
627.293	127.88
627.499	118.88
627.706	123.88
627.912	129.88
628.119	108.88
628.325	120.88
628.532	121.88
628.738	133.88
628.945	118.88
629.151	119.88
629.357	115.88
629.564	117.88
629.77	118.88
629.976	117.88
630.183	116.88
630.389	127.88
630.595	117.88
630.802	134.88
631.008	119.88
631.214	110.88
631.42	119.88
631.627	123.88
631.833	107.88
632.039	114.88
632.245	102.88
632.451	135.88
632.657	112.88
632.863	116.88
633.069	114.88
633.275	113.88
633.481	111.88
633.688	123.88
633.893	123.88
634.099	118.88
634.305	116.88
634.511	120.88
634.717	108.88
634.923	115.88
635.129	116.88
635.335	126.88
635.541	120.88
635.747	115.88
635.952	112.88
636.158	116.88
636.364	115.88
636.57	116.88
636.775	123.88
636.981	117.88
637.187	127.88
637.392	123.88
637.598	118.88
637.804	120.88
638.009	120.88
638.215	109.88
638.421	113.88
638.626	131.88
638.832	119.88
639.037	114.88
639.243	122.88
639.448	114.88
639.654	109.88
639.859	108.88
640.065	114.88
640.27	116.88
640.475	125.88
640.681	110.88
640.886	109.88
641.091	117.88
641.297	127.88
641.502	112.88
641.707	115.88
641.913	120.88
642.118	113.88
642.323	104.88
642.528	104.88
642.733	116.88
642.939	110.88
643.144	116.88
643.349	107.88
643.554	109.88
643.759	103.88
643.964	110.88
644.169	123.88
644.374	107.88
644.579	105.88
644.784	112.88
644.989	98.88
645.194	117.88
645.399	113.88
645.604	125.88
645.809	119.88
646.014	122.88
646.219	110.88
646.423	107.88
646.628	118.88
646.833	119.88
647.038	116.88
647.243	125.88
647.447	107.88
647.652	121.88
647.857	119.88
648.062	101.88
648.266	119.88
648.471	112.88
648.676	99.88
648.88	121.88
649.085	117.88
649.289	108.88
649.494	120.88
649.698	116.88
649.903	119.88
650.107	98.88
650.312	97.88
650.516	117.88
650.721	104.88
650.925	113.88
651.13	101.88
651.334	113.88
651.539	110.88
651.743	95.88
651.947	95.88
652.152	93.88
652.356	102.88
652.56	104.88
652.764	88.88
652.969	104.88
653.173	100.88
653.377	96.88
653.581	113.88
653.785	100.88
653.99	115.88
654.194	106.88
654.398	101.88
654.602	99.88
654.806	87.88
655.01	92.88
655.214	100.88
655.418	95.88
655.622	89.88
655.826	96.88
656.03	95.88
656.234	125.88
656.438	108.88
656.642	94.88
656.846	91.88
657.049	82.88
657.253	92.88
657.457	84.88
657.661	72.88
657.865	94.88
658.068	81.88
658.272	90.88
658.476	74.88
658.68	66.88
658.883	84.88
659.087	76.88
659.291	86.88
659.494	84.88
659.698	82.88
659.901	86.88
660.105	78.88
660.309	75.88
660.512	82.88
660.716	81.88
660.919	94.88
661.123	73.88
661.326	70.88
661.53	82.88
661.733	81.88
661.936	90.88
662.14	80.88
662.343	81.88
662.546	85.88
662.75	92.88
662.953	70.88
663.156	76.88
663.36	81.88
663.563	84.88
663.766	71.88
663.969	88.88
664.173	66.88
664.376	79.88
664.579	72.88
664.782	69.88
664.985	69.88
665.188	71.88
665.391	70.88
665.594	87.88
665.797	85.88
666	80.88
666.203	89.88
666.406	77.88
666.609	84.88
666.812	89.88
667.015	86.88
667.218	80.88
667.421	84.88
667.624	69.88
667.827	68.88
668.03	92.88
668.232	79.88
668.435	71.88
668.638	72.88
668.841	83.88
669.043	79.88
669.246	83.88
669.449	79.88
669.651	89.88
669.854	84.88
670.057	80.88
670.259	70.88
670.462	76.88
670.665	67.88
670.867	79.88
671.07	93.88
671.272	86.88
671.475	81.88
671.677	83.88
671.88	79.88
672.082	70.88
672.284	74.88
672.487	89.88
672.689	76.88
672.892	79.88
