Data from 0.5MCu(NO3)2.Standard.Lamp.E10.CV._HRD10591_16-05-40-753.txt Node
Date: Mon Jul 22 16:05:40 EDT 2019
User: cochatt
Spectrometer: HR+D1059
Trigger mode: 1
Integration Time (sec): 1.000000E-1
Scans to average: 1
Electric dark correction enabled: true
Nonlinearity correction enabled: false
Boxcar width: 0
XAxis mode: Wavelengths
Number of Pixels in Spectrum: 2048
>>>>>Begin Spectral Data<<<<<
223.165	-20.12
223.4	-20.12
223.635	-20.12
223.869	-25.12
224.104	-15.12
224.338	-3.12
224.573	-22.12
224.808	-8.12
225.042	-13.12
225.277	-1.12
225.511	-2.12
225.746	8.88
225.98	2.88
226.215	6.88
226.449	9.88
226.683	25.88
226.918	10.88
227.152	44.88
227.387	32.88
227.621	33.88
227.856	42.88
228.09	41.88
228.324	55.88
228.559	53.88
228.793	64.88
229.027	62.88
229.262	72.88
229.496	74.88
229.73	85.88
229.964	80.88
230.199	76.88
230.433	88.88
230.667	93.88
230.901	88.88
231.136	70.88
231.37	92.88
231.604	96.88
231.838	77.88
232.072	96.88
232.306	99.88
232.541	108.88
232.775	77.88
233.009	88.88
233.243	101.88
233.477	92.88
233.711	101.88
233.945	99.88
234.179	83.88
234.413	89.88
234.647	96.88
234.881	90.88
235.115	90.88
235.349	87.88
235.583	108.88
235.817	105.88
236.051	84.88
236.285	91.88
236.519	98.88
236.753	87.88
236.987	97.88
237.221	89.88
237.455	91.88
237.689	99.88
237.922	92.88
238.156	81.88
238.39	83.88
238.624	99.88
238.858	91.88
239.091	92.88
239.325	97.88
239.559	84.88
239.793	98.88
240.027	89.88
240.26	96.88
240.494	100.88
240.728	104.88
240.961	84.88
241.195	103.88
241.429	96.88
241.662	99.88
241.896	109.88
242.13	83.88
242.363	97.88
242.597	111.88
242.83	91.88
243.064	102.88
243.298	104.88
243.531	118.88
243.765	98.88
243.998	109.88
244.232	93.88
244.465	107.88
244.699	103.88
244.932	107.88
245.166	96.88
245.399	108.88
245.633	94.88
245.866	91.88
246.099	112.88
246.333	116.88
246.566	106.88
246.8	120.88
247.033	114.88
247.266	113.88
247.5	106.88
247.733	103.88
247.966	103.88
248.2	118.88
248.433	118.88
248.666	113.88
248.899	87.88
249.133	113.88
249.366	124.88
249.599	109.88
249.832	114.88
250.066	122.88
250.299	114.88
250.532	119.88
250.765	109.88
250.998	109.88
251.231	115.88
251.465	128.88
251.698	105.88
251.931	124.88
252.164	107.88
252.397	113.88
252.63	122.88
252.863	105.88
253.096	120.88
253.329	122.88
253.562	109.88
253.795	132.88
254.028	118.88
254.261	106.88
254.494	128.88
254.727	124.88
254.96	115.88
255.193	116.88
255.426	110.88
255.659	136.88
255.892	132.88
256.124	118.88
256.357	137.88
256.59	110.88
256.823	121.88
257.056	126.88
257.289	122.88
257.521	130.88
257.754	116.88
257.987	124.88
258.22	132.88
258.452	130.88
258.685	120.88
258.918	129.88
259.151	124.88
259.383	117.88
259.616	122.88
259.849	136.88
260.081	132.88
260.314	126.88
260.547	139.88
260.779	121.88
261.012	134.88
261.244	132.88
261.477	133.88
261.71	139.88
261.942	134.88
262.175	118.88
262.407	140.88
262.64	128.88
262.872	137.88
263.105	135.88
263.337	137.88
263.57	123.88
263.802	129.88
264.035	133.88
264.267	135.88
264.499	132.88
264.732	134.88
264.964	141.88
265.197	138.88
265.429	141.88
265.661	134.88
265.894	139.88
266.126	135.88
266.358	116.88
266.591	136.88
266.823	143.88
267.055	116.88
267.287	121.88
267.52	129.88
267.752	131.88
267.984	138.88
268.216	140.88
268.448	155.88
268.681	135.88
268.913	142.88
269.145	129.88
269.377	139.88
269.609	131.88
269.841	145.88
270.073	136.88
270.306	140.88
270.538	148.88
270.77	136.88
271.002	149.88
271.234	146.88
271.466	157.88
271.698	146.88
271.93	140.88
272.162	165.88
272.394	147.88
272.626	149.88
272.858	159.88
273.09	158.88
273.322	153.88
273.553	141.88
273.785	147.88
274.017	157.88
274.249	155.88
274.481	150.88
274.713	129.88
274.945	153.88
275.176	147.88
275.408	152.88
275.64	141.88
275.872	149.88
276.104	161.88
276.335	154.88
276.567	142.88
276.799	151.88
277.031	168.88
277.262	143.88
277.494	139.88
277.726	137.88
277.957	156.88
278.189	157.88
278.421	139.88
278.652	150.88
278.884	159.88
279.115	162.88
279.347	164.88
279.579	151.88
279.81	170.88
280.042	153.88
280.273	162.88
280.505	169.88
280.736	160.88
280.968	178.88
281.199	172.88
281.431	169.88
281.662	171.88
281.894	170.88
282.125	150.88
282.356	172.88
282.588	163.88
282.819	161.88
283.051	168.88
283.282	163.88
283.513	165.88
283.745	169.88
283.976	170.88
284.207	172.88
284.439	165.88
284.67	181.88
284.901	172.88
285.132	182.88
285.364	164.88
285.595	162.88
285.826	153.88
286.057	167.88
286.288	173.88
286.52	166.88
286.751	179.88
286.982	164.88
287.213	173.88
287.444	173.88
287.675	186.88
287.906	179.88
288.138	186.88
288.369	186.88
288.6	178.88
288.831	176.88
289.062	178.88
289.293	183.88
289.524	178.88
289.755	180.88
289.986	195.88
290.217	181.88
290.448	176.88
290.679	189.88
290.91	189.88
291.141	185.88
291.371	187.88
291.602	195.88
291.833	205.88
292.064	172.88
292.295	180.88
292.526	189.88
292.757	190.88
292.987	187.88
293.218	189.88
293.449	187.88
293.68	193.88
293.91	186.88
294.141	180.88
294.372	180.88
294.603	174.88
294.833	196.88
295.064	179.88
295.295	204.88
295.525	190.88
295.756	187.88
295.987	194.88
296.217	181.88
296.448	194.88
296.679	197.88
296.909	178.88
297.14	187.88
297.37	201.88
297.601	201.88
297.831	180.88
298.062	195.88
298.292	203.88
298.523	203.88
298.753	192.88
298.984	210.88
299.214	209.88
299.445	192.88
299.675	209.88
299.905	196.88
300.136	202.88
300.366	193.88
300.597	209.88
300.827	189.88
301.057	206.88
301.288	202.88
301.518	210.88
301.748	231.88
301.979	207.88
302.209	209.88
302.439	221.88
302.669	197.88
302.9	185.88
303.13	201.88
303.36	213.88
303.59	190.88
303.82	191.88
304.051	202.88
304.281	220.88
304.511	195.88
304.741	205.88
304.971	207.88
305.201	184.88
305.431	197.88
305.661	222.88
305.891	207.88
306.121	188.88
306.352	187.88
306.582	197.88
306.812	187.88
307.042	202.88
307.272	204.88
307.502	196.88
307.731	192.88
307.961	213.88
308.191	200.88
308.421	192.88
308.651	196.88
308.881	200.88
309.111	222.88
309.341	184.88
309.571	193.88
309.8	199.88
310.03	189.88
310.26	187.88
310.49	202.88
310.72	210.88
310.949	205.88
311.179	204.88
311.409	217.88
311.639	203.88
311.868	191.88
312.098	206.88
312.328	192.88
312.557	214.88
312.787	199.88
313.017	212.88
313.246	210.88
313.476	216.88
313.706	212.88
313.935	214.88
314.165	213.88
314.394	203.88
314.624	203.88
314.853	207.88
315.083	203.88
315.312	206.88
315.542	225.88
315.771	204.88
316.001	209.88
316.23	216.88
316.46	197.88
316.689	205.88
316.919	213.88
317.148	208.88
317.377	220.88
317.607	196.88
317.836	199.88
318.065	205.88
318.295	205.88
318.524	211.88
318.753	206.88
318.983	193.88
319.212	211.88
319.441	214.88
319.67	227.88
319.9	212.88
320.129	192.88
320.358	199.88
320.587	198.88
320.816	200.88
321.046	191.88
321.275	212.88
321.504	210.88
321.733	206.88
321.962	211.88
322.191	223.88
322.42	217.88
322.649	189.88
322.878	215.88
323.108	202.88
323.337	231.88
323.566	229.88
323.795	222.88
324.024	228.88
324.253	217.88
324.482	212.88
324.71	201.88
324.939	206.88
325.168	200.88
325.397	190.88
325.626	206.88
325.855	206.88
326.084	233.88
326.313	223.88
326.542	233.88
326.77	218.88
326.999	228.88
327.228	231.88
327.457	224.88
327.686	213.88
327.914	212.88
328.143	228.88
328.372	206.88
328.6	228.88
328.829	229.88
329.058	221.88
329.287	227.88
329.515	233.88
329.744	235.88
329.972	224.88
330.201	220.88
330.43	219.88
330.658	223.88
330.887	225.88
331.115	230.88
331.344	228.88
331.572	236.88
331.801	233.88
332.03	232.88
332.258	258.88
332.486	248.88
332.715	270.88
332.943	262.88
333.172	273.88
333.4	271.88
333.629	292.88
333.857	282.88
334.085	290.88
334.314	250.88
334.542	264.88
334.771	253.88
334.999	267.88
335.227	259.88
335.455	267.88
335.684	256.88
335.912	265.88
336.14	267.88
336.369	256.88
336.597	258.88
336.825	243.88
337.053	258.88
337.281	260.88
337.51	241.88
337.738	248.88
337.966	243.88
338.194	238.88
338.422	243.88
338.65	224.88
338.878	246.88
339.106	222.88
339.334	238.88
339.562	235.88
339.79	232.88
340.018	230.88
340.246	224.88
340.474	222.88
340.702	232.88
340.93	235.88
341.158	226.88
341.386	235.88
341.614	230.88
341.842	225.88
342.07	223.88
342.298	221.88
342.526	224.88
342.754	226.88
342.981	218.88
343.209	217.88
343.437	232.88
343.665	256.88
343.893	267.88
344.12	276.88
344.348	276.88
344.576	235.88
344.804	240.88
345.031	219.88
345.259	237.88
345.487	218.88
345.714	214.88
345.942	211.88
346.17	226.88
346.397	238.88
346.625	224.88
346.853	200.88
347.08	220.88
347.308	232.88
347.535	234.88
347.763	226.88
347.99	219.88
348.218	229.88
348.445	215.88
348.673	221.88
348.9	213.88
349.128	229.88
349.355	214.88
349.583	214.88
349.81	229.88
350.037	222.88
350.265	234.88
350.492	224.88
350.72	216.88
350.947	201.88
351.174	225.88
351.402	209.88
351.629	212.88
351.856	200.88
352.083	220.88
352.311	214.88
352.538	215.88
352.765	221.88
352.992	225.88
353.22	212.88
353.447	212.88
353.674	226.88
353.901	212.88
354.128	211.88
354.355	202.88
354.583	208.88
354.81	227.88
355.037	210.88
355.264	214.88
355.491	218.88
355.718	221.88
355.945	214.88
356.172	205.88
356.399	225.88
356.626	209.88
356.853	225.88
357.08	215.88
357.307	222.88
357.534	202.88
357.761	202.88
357.988	212.88
358.215	207.88
358.441	203.88
358.668	219.88
358.895	212.88
359.122	212.88
359.349	213.88
359.576	233.88
359.802	211.88
360.029	228.88
360.256	220.88
360.483	216.88
360.709	215.88
360.936	208.88
361.163	216.88
361.39	209.88
361.616	225.88
361.843	206.88
362.07	207.88
362.296	224.88
362.523	212.88
362.749	216.88
362.976	210.88
363.203	217.88
363.429	217.88
363.656	214.88
363.882	203.88
364.109	206.88
364.335	205.88
364.562	215.88
364.788	210.88
365.015	205.88
365.241	205.88
365.468	229.88
365.694	211.88
365.92	210.88
366.147	201.88
366.373	213.88
366.599	205.88
366.826	231.88
367.052	211.88
367.278	220.88
367.505	221.88
367.731	220.88
367.957	221.88
368.184	212.88
368.41	223.88
368.636	208.88
368.862	219.88
369.089	201.88
369.315	206.88
369.541	196.88
369.767	206.88
369.993	204.88
370.219	226.88
370.445	208.88
370.672	220.88
370.898	224.88
371.124	221.88
371.35	220.88
371.576	222.88
371.802	235.88
372.028	236.88
372.254	225.88
372.48	214.88
372.706	231.88
372.932	238.88
373.158	222.88
373.384	231.88
373.61	224.88
373.835	242.88
374.061	236.88
374.287	236.88
374.513	240.88
374.739	243.88
374.965	233.88
375.191	248.88
375.416	234.88
375.642	218.88
375.868	233.88
376.094	244.88
376.319	227.88
376.545	226.88
376.771	246.88
376.997	231.88
377.222	234.88
377.448	231.88
377.674	220.88
377.899	235.88
378.125	217.88
378.35	229.88
378.576	199.88
378.802	220.88
379.027	219.88
379.253	229.88
379.478	228.88
379.704	212.88
379.929	226.88
380.155	236.88
380.38	233.88
380.606	218.88
380.831	221.88
381.057	226.88
381.282	216.88
381.507	210.88
381.733	213.88
381.958	226.88
382.184	250.88
382.409	225.88
382.634	223.88
382.86	247.88
383.085	227.88
383.31	242.88
383.535	236.88
383.761	250.88
383.986	259.88
384.211	242.88
384.436	260.88
384.662	260.88
384.887	262.88
385.112	253.88
385.337	265.88
385.562	260.88
385.787	284.88
386.013	245.88
386.238	226.88
386.463	264.88
386.688	260.88
386.913	238.88
387.138	246.88
387.363	261.88
387.588	254.88
387.813	250.88
388.038	257.88
388.263	260.88
388.488	255.88
388.713	258.88
388.938	255.88
389.163	237.88
389.387	232.88
389.612	225.88
389.837	242.88
390.062	235.88
390.287	266.88
390.512	262.88
390.736	248.88
390.961	267.88
391.186	246.88
391.411	270.88
391.636	276.88
391.86	287.88
392.085	300.88
392.31	281.88
392.534	274.88
392.759	269.88
392.984	267.88
393.208	277.88
393.433	270.88
393.658	258.88
393.882	276.88
394.107	284.88
394.331	259.88
394.556	262.88
394.78	273.88
395.005	272.88
395.229	260.88
395.454	272.88
395.678	288.88
395.903	306.88
396.127	294.88
396.352	269.88
396.576	248.88
396.801	256.88
397.025	268.88
397.249	264.88
397.474	274.88
397.698	278.88
397.922	285.88
398.147	265.88
398.371	280.88
398.595	290.88
398.82	294.88
399.044	319.88
399.268	350.88
399.492	376.88
399.717	461.88
399.941	458.88
400.165	395.88
400.389	345.88
400.613	328.88
400.837	322.88
401.062	305.88
401.286	291.88
401.51	292.88
401.734	292.88
401.958	313.88
402.182	309.88
402.406	312.88
402.63	305.88
402.854	314.88
403.078	334.88
403.302	354.88
403.526	350.88
403.75	365.88
403.974	347.88
404.198	350.88
404.422	355.88
404.645	345.88
404.869	320.88
405.093	350.88
405.317	324.88
405.541	324.88
405.765	310.88
405.988	346.88
406.212	332.88
406.436	331.88
406.66	340.88
406.883	324.88
407.107	345.88
407.331	374.88
407.555	382.88
407.778	374.88
408.002	377.88
408.226	374.88
408.449	332.88
408.673	344.88
408.896	329.88
409.12	334.88
409.344	331.88
409.567	338.88
409.791	354.88
410.014	348.88
410.238	330.88
410.461	335.88
410.685	327.88
410.908	331.88
411.132	346.88
411.355	295.88
411.578	310.88
411.802	300.88
412.025	306.88
412.249	311.88
412.472	311.88
412.695	287.88
412.919	293.88
413.142	293.88
413.365	304.88
413.589	290.88
413.812	322.88
414.035	302.88
414.258	299.88
414.482	303.88
414.705	311.88
414.928	301.88
415.151	294.88
415.374	296.88
415.597	289.88
415.821	276.88
416.044	293.88
416.267	280.88
416.49	289.88
416.713	308.88
416.936	307.88
417.159	295.88
417.382	291.88
417.605	285.88
417.828	296.88
418.051	300.88
418.274	322.88
418.497	298.88
418.72	315.88
418.943	286.88
419.166	307.88
419.389	326.88
419.611	320.88
419.834	312.88
420.057	313.88
420.28	315.88
420.503	291.88
420.726	295.88
420.948	304.88
421.171	276.88
421.394	299.88
421.617	315.88
421.839	310.88
422.062	306.88
422.285	292.88
422.507	294.88
422.73	304.88
422.953	296.88
423.175	291.88
423.398	301.88
423.621	321.88
423.843	312.88
424.066	318.88
424.288	313.88
424.511	307.88
424.733	306.88
424.956	312.88
425.178	308.88
425.401	292.88
425.623	291.88
425.846	298.88
426.068	297.88
426.291	297.88
426.513	286.88
426.735	269.88
426.958	256.88
427.18	278.88
427.402	296.88
427.625	273.88
427.847	260.88
428.069	276.88
428.292	251.88
428.514	254.88
428.736	273.88
428.958	265.88
429.181	259.88
429.403	277.88
429.625	265.88
429.847	247.88
430.069	259.88
430.292	245.88
430.514	257.88
430.736	263.88
430.958	270.88
431.18	265.88
431.402	282.88
431.624	273.88
431.846	274.88
432.068	282.88
432.29	270.88
432.512	278.88
432.734	270.88
432.956	274.88
433.178	274.88
433.4	275.88
433.622	281.88
433.844	285.88
434.066	274.88
434.287	264.88
434.509	284.88
434.731	289.88
434.953	309.88
435.175	297.88
435.397	294.88
435.618	283.88
435.84	276.88
436.062	261.88
436.284	243.88
436.505	266.88
436.727	277.88
436.949	250.88
437.17	265.88
437.392	265.88
437.614	278.88
437.835	258.88
438.057	268.88
438.278	251.88
438.5	254.88
438.721	253.88
438.943	250.88
439.165	285.88
439.386	276.88
439.608	275.88
439.829	278.88
440.05	268.88
440.272	275.88
440.493	272.88
440.715	282.88
440.936	267.88
441.158	274.88
441.379	286.88
441.6	313.88
441.822	309.88
442.043	298.88
442.264	290.88
442.486	294.88
442.707	294.88
442.928	284.88
443.149	275.88
443.371	299.88
443.592	299.88
443.813	304.88
444.034	314.88
444.255	313.88
444.476	328.88
444.698	343.88
444.919	353.88
445.14	445.88
445.361	378.88
445.582	299.88
445.803	288.88
446.024	280.88
446.245	293.88
446.466	291.88
446.687	266.88
446.908	268.88
447.129	247.88
447.35	266.88
447.571	266.88
447.792	254.88
448.013	252.88
448.234	272.88
448.455	228.88
448.675	243.88
448.896	242.88
449.117	248.88
449.338	240.88
449.559	227.88
449.779	231.88
450	264.88
450.221	273.88
450.442	244.88
450.662	240.88
450.883	274.88
451.104	270.88
451.324	258.88
451.545	264.88
451.766	276.88
451.986	264.88
452.207	272.88
452.428	245.88
452.648	244.88
452.869	235.88
453.089	258.88
453.31	237.88
453.53	248.88
453.751	253.88
453.971	253.88
454.192	235.88
454.412	236.88
454.633	270.88
454.853	257.88
455.073	245.88
455.294	247.88
455.514	237.88
455.734	230.88
455.955	228.88
456.175	226.88
456.395	228.88
456.616	231.88
456.836	225.88
457.056	245.88
457.276	232.88
457.497	235.88
457.717	229.88
457.937	236.88
458.157	240.88
458.377	246.88
458.598	254.88
458.818	242.88
459.038	257.88
459.258	272.88
459.478	262.88
459.698	264.88
459.918	285.88
460.138	283.88
460.358	304.88
460.578	321.88
460.798	323.88
461.018	318.88
461.238	313.88
461.458	314.88
461.678	305.88
461.898	315.88
462.118	316.88
462.338	339.88
462.558	325.88
462.777	360.88
462.997	379.88
463.217	404.88
463.437	405.88
463.657	348.88
463.876	354.88
464.096	370.88
464.316	362.88
464.536	366.88
464.755	364.88
464.975	340.88
465.195	322.88
465.414	317.88
465.634	298.88
465.854	280.88
466.073	269.88
466.293	263.88
466.512	285.88
466.732	267.88
466.951	267.88
467.171	260.88
467.391	246.88
467.61	254.88
467.829	265.88
468.049	245.88
468.268	244.88
468.488	255.88
468.707	248.88
468.927	245.88
469.146	255.88
469.365	256.88
469.585	265.88
469.804	266.88
470.023	271.88
470.243	277.88
470.462	280.88
470.681	272.88
470.901	280.88
471.12	276.88
471.339	257.88
471.558	261.88
471.777	252.88
471.997	242.88
472.216	263.88
472.435	262.88
472.654	251.88
472.873	234.88
473.092	245.88
473.311	266.88
473.53	263.88
473.749	254.88
473.968	268.88
474.187	261.88
474.406	251.88
474.625	261.88
474.844	257.88
475.063	275.88
475.282	260.88
475.501	256.88
475.72	261.88
475.939	265.88
476.158	256.88
476.377	250.88
476.596	271.88
476.814	270.88
477.033	261.88
477.252	257.88
477.471	263.88
477.69	268.88
477.908	273.88
478.127	276.88
478.346	296.88
478.564	304.88
478.783	300.88
479.002	300.88
479.22	315.88
479.439	305.88
479.658	295.88
479.876	312.88
480.095	284.88
480.313	321.88
480.532	336.88
480.751	328.88
480.969	327.88
481.188	292.88
481.406	290.88
481.624	268.88
481.843	293.88
482.061	275.88
482.28	282.88
482.498	281.88
482.717	281.88
482.935	292.88
483.153	276.88
483.372	281.88
483.59	286.88
483.808	313.88
484.027	299.88
484.245	294.88
484.463	308.88
484.681	294.88
484.9	292.88
485.118	322.88
485.336	305.88
485.554	305.88
485.772	329.88
485.99	300.88
486.209	314.88
486.427	309.88
486.645	319.88
486.863	316.88
487.081	318.88
487.299	314.88
487.517	282.88
487.735	290.88
487.953	304.88
488.171	298.88
488.389	300.88
488.607	302.88
488.825	293.88
489.043	300.88
489.261	308.88
489.479	304.88
489.696	299.88
489.914	306.88
490.132	310.88
490.35	318.88
490.568	296.88
490.786	313.88
491.003	326.88
491.221	312.88
491.439	309.88
491.657	298.88
491.874	310.88
492.092	323.88
492.31	298.88
492.527	328.88
492.745	324.88
492.963	311.88
493.18	299.88
493.398	305.88
493.615	307.88
493.833	314.88
494.05	321.88
494.268	309.88
494.485	325.88
494.703	308.88
494.92	313.88
495.138	311.88
495.355	308.88
495.573	321.88
495.79	336.88
496.008	296.88
496.225	317.88
496.442	324.88
496.66	326.88
496.877	329.88
497.094	354.88
497.312	326.88
497.529	350.88
497.746	330.88
497.963	348.88
498.181	369.88
498.398	386.88
498.615	392.88
498.832	426.88
499.049	446.88
499.267	484.88
499.484	534.88
499.701	556.88
499.918	655.88
500.135	730.88
500.352	828.88
500.569	874.88
500.786	873.88
501.003	793.88
501.22	703.88
501.437	632.88
501.654	563.88
501.871	521.88
502.088	474.88
502.305	444.88
502.522	443.88
502.739	411.88
502.956	396.88
503.172	383.88
503.389	372.88
503.606	354.88
503.823	348.88
504.04	342.88
504.256	343.88
504.473	376.88
504.69	378.88
504.907	378.88
505.123	355.88
505.34	314.88
505.557	324.88
505.773	305.88
505.99	299.88
506.207	308.88
506.423	301.88
506.64	289.88
506.856	302.88
507.073	285.88
507.289	283.88
507.506	270.88
507.722	276.88
507.939	272.88
508.155	270.88
508.372	283.88
508.588	277.88
508.805	285.88
509.021	289.88
509.238	282.88
509.454	281.88
509.67	297.88
509.887	274.88
510.103	275.88
510.319	276.88
510.536	261.88
510.752	261.88
510.968	285.88
511.184	278.88
511.401	273.88
511.617	269.88
511.833	279.88
512.049	271.88
512.265	271.88
512.481	256.88
512.698	266.88
512.914	254.88
513.13	276.88
513.346	273.88
513.562	287.88
513.778	290.88
513.994	267.88
514.21	281.88
514.426	258.88
514.642	279.88
514.858	289.88
515.074	262.88
515.29	274.88
515.506	294.88
515.721	263.88
515.937	272.88
516.153	273.88
516.369	290.88
516.585	297.88
516.801	316.88
517.016	328.88
517.232	339.88
517.448	348.88
517.664	368.88
517.879	388.88
518.095	364.88
518.311	344.88
518.527	352.88
518.742	328.88
518.958	328.88
519.173	307.88
519.389	315.88
519.605	298.88
519.82	296.88
520.036	286.88
520.251	284.88
520.467	282.88
520.682	273.88
520.898	267.88
521.113	269.88
521.329	266.88
521.544	268.88
521.76	260.88
521.975	240.88
522.19	264.88
522.406	254.88
522.621	275.88
522.836	243.88
523.052	243.88
523.267	256.88
523.482	252.88
523.698	256.88
523.913	260.88
524.128	252.88
524.343	251.88
524.559	251.88
524.774	263.88
524.989	252.88
525.204	248.88
525.419	257.88
525.634	261.88
525.849	260.88
526.064	240.88
526.28	244.88
526.495	253.88
526.71	235.88
526.925	239.88
527.14	258.88
527.355	251.88
527.57	245.88
527.785	260.88
527.999	231.88
528.214	266.88
528.429	272.88
528.644	260.88
528.859	250.88
529.074	274.88
529.289	258.88
529.503	263.88
529.718	244.88
529.933	247.88
530.148	250.88
530.363	259.88
530.577	265.88
530.792	231.88
531.007	248.88
531.221	256.88
531.436	252.88
531.651	260.88
531.865	253.88
532.08	253.88
532.295	261.88
532.509	255.88
532.724	254.88
532.938	251.88
533.153	244.88
533.367	249.88
533.582	262.88
533.796	252.88
534.011	269.88
534.225	261.88
534.44	258.88
534.654	262.88
534.868	258.88
535.083	253.88
535.297	254.88
535.511	244.88
535.726	243.88
535.94	253.88
536.154	255.88
536.369	243.88
536.583	257.88
536.797	241.88
537.011	232.88
537.225	244.88
537.44	234.88
537.654	247.88
537.868	234.88
538.082	246.88
538.296	258.88
538.51	228.88
538.724	237.88
538.938	246.88
539.153	257.88
539.367	229.88
539.581	218.88
539.795	227.88
540.009	230.88
540.222	225.88
540.436	234.88
540.65	252.88
540.864	243.88
541.078	241.88
541.292	241.88
541.506	247.88
541.72	228.88
541.934	236.88
542.147	246.88
542.361	230.88
542.575	236.88
542.789	226.88
543.002	221.88
543.216	251.88
543.43	242.88
543.644	233.88
543.857	239.88
544.071	226.88
544.285	242.88
544.498	217.88
544.712	223.88
544.925	238.88
545.139	240.88
545.352	244.88
545.566	240.88
545.779	245.88
545.993	245.88
546.206	267.88
546.42	244.88
546.633	241.88
546.847	235.88
547.06	244.88
547.274	254.88
547.487	259.88
547.7	260.88
547.914	253.88
548.127	221.88
548.34	238.88
548.554	242.88
548.767	231.88
548.98	235.88
549.193	250.88
549.407	254.88
549.62	267.88
549.833	262.88
550.046	244.88
550.259	273.88
550.473	250.88
550.686	249.88
550.899	238.88
551.112	223.88
551.325	232.88
551.538	237.88
551.751	243.88
551.964	222.88
552.177	256.88
552.39	236.88
552.603	250.88
552.816	263.88
553.029	271.88
553.242	257.88
553.455	282.88
553.667	262.88
553.88	240.88
554.093	252.88
554.306	251.88
554.519	245.88
554.732	254.88
554.944	253.88
555.157	240.88
555.37	235.88
555.583	241.88
555.795	235.88
556.008	242.88
556.221	236.88
556.433	245.88
556.646	225.88
556.859	224.88
557.071	226.88
557.284	219.88
557.496	221.88
557.709	234.88
557.921	214.88
558.134	220.88
558.346	205.88
558.559	218.88
558.771	207.88
558.984	219.88
559.196	222.88
559.409	213.88
559.621	228.88
559.833	216.88
560.046	215.88
560.258	224.88
560.47	205.88
560.683	208.88
560.895	226.88
561.107	212.88
561.32	218.88
561.532	216.88
561.744	218.88
561.956	243.88
562.168	212.88
562.381	208.88
562.593	220.88
562.805	217.88
563.017	215.88
563.229	211.88
563.441	197.88
563.653	221.88
563.865	194.88
564.077	218.88
564.289	222.88
564.501	229.88
564.713	232.88
564.925	218.88
565.137	248.88
565.349	240.88
565.561	240.88
565.773	245.88
565.985	252.88
566.197	276.88
566.408	286.88
566.62	291.88
566.832	334.88
567.044	315.88
567.255	322.88
567.467	330.88
567.679	346.88
567.891	375.88
568.102	396.88
568.314	362.88
568.526	331.88
568.737	323.88
568.949	281.88
569.161	256.88
569.372	237.88
569.584	252.88
569.795	247.88
570.007	210.88
570.218	224.88
570.43	232.88
570.641	237.88
570.853	228.88
571.064	240.88
571.276	229.88
571.487	206.88
571.698	211.88
571.91	226.88
572.121	204.88
572.333	205.88
572.544	199.88
572.755	198.88
572.966	188.88
573.178	191.88
573.389	196.88
573.6	193.88
573.811	201.88
574.023	184.88
574.234	194.88
574.445	189.88
574.656	192.88
574.867	204.88
575.078	188.88
575.289	207.88
575.501	180.88
575.712	181.88
575.923	192.88
576.134	194.88
576.345	189.88
576.556	194.88
576.767	194.88
576.978	190.88
577.188	188.88
577.399	192.88
577.61	167.88
577.821	185.88
578.032	180.88
578.243	200.88
578.454	198.88
578.665	195.88
578.875	179.88
579.086	187.88
579.297	183.88
579.508	176.88
579.718	195.88
579.929	196.88
580.14	177.88
580.35	193.88
580.561	176.88
580.772	178.88
580.982	167.88
581.193	170.88
581.403	184.88
581.614	187.88
581.825	178.88
582.035	180.88
582.246	180.88
582.456	190.88
582.667	161.88
582.877	174.88
583.087	187.88
583.298	160.88
583.508	181.88
583.719	188.88
583.929	173.88
584.139	158.88
584.35	169.88
584.56	163.88
584.77	172.88
584.981	181.88
585.191	168.88
585.401	189.88
585.611	172.88
585.821	190.88
586.032	176.88
586.242	162.88
586.452	174.88
586.662	172.88
586.872	174.88
587.082	168.88
587.292	149.88
587.502	176.88
587.713	163.88
587.923	176.88
588.133	172.88
588.343	179.88
588.553	166.88
588.762	191.88
588.972	197.88
589.182	170.88
589.392	185.88
589.602	175.88
589.812	166.88
590.022	161.88
590.232	182.88
590.441	164.88
590.651	168.88
590.861	165.88
591.071	180.88
591.281	167.88
591.49	170.88
591.7	178.88
591.91	176.88
592.119	185.88
592.329	185.88
592.539	187.88
592.748	191.88
592.958	198.88
593.167	218.88
593.377	209.88
593.587	215.88
593.796	220.88
594.006	201.88
594.215	207.88
594.424	220.88
594.634	220.88
594.843	205.88
595.053	214.88
595.262	182.88
595.472	194.88
595.681	167.88
595.89	192.88
596.1	170.88
596.309	186.88
596.518	166.88
596.727	165.88
596.937	172.88
597.146	176.88
597.355	164.88
597.564	157.88
597.774	148.88
597.983	158.88
598.192	177.88
598.401	171.88
598.61	160.88
598.819	154.88
599.028	160.88
599.237	152.88
599.446	158.88
599.655	164.88
599.864	152.88
600.073	161.88
600.282	145.88
600.491	159.88
600.7	176.88
600.909	156.88
601.118	143.88
601.327	140.88
601.536	142.88
601.745	161.88
601.953	167.88
602.162	161.88
602.371	157.88
602.58	160.88
602.789	178.88
602.997	155.88
603.206	146.88
603.415	128.88
603.623	154.88
603.832	166.88
604.041	135.88
604.249	144.88
604.458	148.88
604.666	151.88
604.875	142.88
605.084	144.88
605.292	141.88
605.501	156.88
605.709	164.88
605.918	152.88
606.126	155.88
606.334	127.88
606.543	146.88
606.751	137.88
606.96	131.88
607.168	143.88
607.376	155.88
607.585	147.88
607.793	134.88
608.001	152.88
608.21	137.88
608.418	134.88
608.626	161.88
608.834	145.88
609.043	139.88
609.251	147.88
609.459	142.88
609.667	160.88
609.875	140.88
610.083	151.88
610.291	154.88
610.499	149.88
610.707	150.88
610.916	162.88
611.124	154.88
611.332	153.88
611.54	140.88
611.748	141.88
611.955	153.88
612.163	153.88
612.371	157.88
612.579	152.88
612.787	146.88
612.995	150.88
613.203	163.88
613.411	170.88
613.618	141.88
613.826	150.88
614.034	148.88
614.242	143.88
614.449	135.88
614.657	142.88
614.865	143.88
615.072	139.88
615.28	147.88
615.488	138.88
615.695	148.88
615.903	158.88
616.111	133.88
616.318	153.88
616.526	134.88
616.733	148.88
616.941	142.88
617.148	160.88
617.356	159.88
617.563	165.88
617.771	162.88
617.978	135.88
618.185	143.88
618.393	144.88
618.6	159.88
618.807	134.88
619.015	148.88
619.222	148.88
619.429	151.88
619.637	154.88
619.844	132.88
620.051	152.88
620.258	148.88
620.466	152.88
620.673	130.88
620.88	137.88
621.087	144.88
621.294	137.88
621.501	128.88
621.708	127.88
621.915	140.88
622.122	148.88
622.329	136.88
622.536	140.88
622.743	141.88
622.95	140.88
623.157	149.88
623.364	140.88
623.571	134.88
623.778	159.88
623.985	148.88
624.192	157.88
624.399	137.88
624.606	154.88
624.812	152.88
625.019	130.88
625.226	127.88
625.433	128.88
625.639	125.88
625.846	149.88
626.053	136.88
626.259	116.88
626.466	139.88
626.673	126.88
626.879	133.88
627.086	128.88
627.293	138.88
627.499	137.88
627.706	131.88
627.912	134.88
628.119	119.88
628.325	128.88
628.532	133.88
628.738	129.88
628.945	122.88
629.151	138.88
629.357	130.88
629.564	138.88
629.77	140.88
629.976	135.88
630.183	130.88
630.389	132.88
630.595	120.88
630.802	133.88
631.008	120.88
631.214	120.88
631.42	122.88
631.627	124.88
631.833	116.88
632.039	131.88
632.245	142.88
632.451	126.88
632.657	118.88
632.863	125.88
633.069	125.88
633.275	122.88
633.481	129.88
633.688	126.88
633.893	126.88
634.099	123.88
634.305	110.88
634.511	119.88
634.717	136.88
634.923	120.88
635.129	117.88
635.335	125.88
635.541	133.88
635.747	121.88
635.952	124.88
636.158	130.88
636.364	130.88
636.57	123.88
636.775	138.88
636.981	110.88
637.187	120.88
637.392	121.88
637.598	130.88
637.804	125.88
638.009	125.88
638.215	119.88
638.421	118.88
638.626	125.88
638.832	125.88
639.037	114.88
639.243	102.88
639.448	115.88
639.654	124.88
639.859	115.88
640.065	129.88
640.27	124.88
640.475	123.88
640.681	133.88
640.886	120.88
641.091	116.88
641.297	108.88
641.502	106.88
641.707	125.88
641.913	125.88
642.118	122.88
642.323	122.88
642.528	141.88
642.733	119.88
642.939	99.88
643.144	104.88
643.349	112.88
643.554	114.88
643.759	119.88
643.964	108.88
644.169	120.88
644.374	112.88
644.579	104.88
644.784	118.88
644.989	114.88
645.194	109.88
645.399	107.88
645.604	106.88
645.809	108.88
646.014	109.88
646.219	125.88
646.423	116.88
646.628	115.88
646.833	122.88
647.038	123.88
647.243	115.88
647.447	117.88
647.652	106.88
647.857	106.88
648.062	108.88
648.266	139.88
648.471	128.88
648.676	136.88
648.88	138.88
649.085	142.88
649.289	130.88
649.494	115.88
649.698	129.88
649.903	116.88
650.107	132.88
650.312	120.88
650.516	121.88
650.721	120.88
650.925	113.88
651.13	116.88
651.334	105.88
651.539	105.88
651.743	99.88
651.947	114.88
652.152	109.88
652.356	101.88
652.56	103.88
652.764	104.88
652.969	107.88
653.173	122.88
653.377	93.88
653.581	100.88
653.785	101.88
653.99	96.88
654.194	101.88
654.398	100.88
654.602	117.88
654.806	112.88
655.01	114.88
655.214	90.88
655.418	102.88
655.622	93.88
655.826	108.88
656.03	105.88
656.234	114.88
656.438	107.88
656.642	115.88
656.846	116.88
657.049	108.88
657.253	99.88
657.457	105.88
657.661	94.88
657.865	98.88
658.068	101.88
658.272	97.88
658.476	99.88
658.68	96.88
658.883	97.88
659.087	94.88
659.291	102.88
659.494	90.88
659.698	92.88
659.901	94.88
660.105	100.88
660.309	92.88
660.512	95.88
660.716	87.88
660.919	81.88
661.123	81.88
661.326	91.88
661.53	93.88
661.733	99.88
661.936	84.88
662.14	89.88
662.343	86.88
662.546	91.88
662.75	97.88
662.953	94.88
663.156	75.88
663.36	80.88
663.563	77.88
663.766	80.88
663.969	70.88
664.173	92.88
664.376	102.88
664.579	77.88
664.782	83.88
664.985	76.88
665.188	81.88
665.391	99.88
665.594	76.88
665.797	88.88
666	81.88
666.203	77.88
666.406	86.88
666.609	80.88
666.812	90.88
667.015	86.88
667.218	94.88
667.421	76.88
667.624	74.88
667.827	82.88
668.03	76.88
668.232	80.88
668.435	96.88
668.638	84.88
668.841	72.88
669.043	77.88
669.246	79.88
669.449	74.88
669.651	86.88
669.854	87.88
670.057	79.88
670.259	88.88
670.462	83.88
670.665	82.88
670.867	87.88
671.07	85.88
671.272	87.88
671.475	84.88
671.677	83.88
671.88	67.88
672.082	61.88
672.284	85.88
672.487	75.88
672.689	90.88
672.892	73.88
