Data from 0.5MCu(NO3)2.Standard.Lamp.E10.CV._HRD10591_16-04-26-752.txt Node
Date: Mon Jul 22 16:04:26 EDT 2019
User: cochatt
Spectrometer: HR+D1059
Trigger mode: 1
Integration Time (sec): 1.000000E-1
Scans to average: 1
Electric dark correction enabled: true
Nonlinearity correction enabled: false
Boxcar width: 0
XAxis mode: Wavelengths
Number of Pixels in Spectrum: 2048
>>>>>Begin Spectral Data<<<<<
223.165	-21.12
223.4	-21.12
223.635	-21.12
223.869	-11.12
224.104	-13.12
224.338	-21.12
224.573	-12.12
224.808	6.88
225.042	-19.12
225.277	-11.12
225.511	0.88
225.746	10.88
225.98	7.88
226.215	14.88
226.449	1.88
226.683	11.88
226.918	20.88
227.152	32.88
227.387	32.88
227.621	44.88
227.856	64.88
228.09	45.88
228.324	44.88
228.559	53.88
228.793	70.88
229.027	56.88
229.262	69.88
229.496	81.88
229.73	67.88
229.964	85.88
230.199	73.88
230.433	84.88
230.667	99.88
230.901	83.88
231.136	90.88
231.37	82.88
231.604	82.88
231.838	98.88
232.072	94.88
232.306	95.88
232.541	96.88
232.775	84.88
233.009	85.88
233.243	83.88
233.477	84.88
233.711	88.88
233.945	96.88
234.179	99.88
234.413	92.88
234.647	99.88
234.881	84.88
235.115	86.88
235.349	91.88
235.583	97.88
235.817	98.88
236.051	76.88
236.285	81.88
236.519	86.88
236.753	90.88
236.987	92.88
237.221	91.88
237.455	88.88
237.689	106.88
237.922	86.88
238.156	86.88
238.39	85.88
238.624	66.88
238.858	94.88
239.091	88.88
239.325	92.88
239.559	93.88
239.793	91.88
240.027	90.88
240.26	88.88
240.494	84.88
240.728	97.88
240.961	95.88
241.195	99.88
241.429	99.88
241.662	87.88
241.896	99.88
242.13	85.88
242.363	96.88
242.597	80.88
242.83	103.88
243.064	104.88
243.298	117.88
243.531	94.88
243.765	91.88
243.998	108.88
244.232	100.88
244.465	96.88
244.699	96.88
244.932	107.88
245.166	105.88
245.399	92.88
245.633	101.88
245.866	97.88
246.099	97.88
246.333	88.88
246.566	98.88
246.8	105.88
247.033	106.88
247.266	98.88
247.5	95.88
247.733	105.88
247.966	101.88
248.2	120.88
248.433	94.88
248.666	109.88
248.899	112.88
249.133	97.88
249.366	108.88
249.599	101.88
249.832	117.88
250.066	101.88
250.299	106.88
250.532	126.88
250.765	104.88
250.998	112.88
251.231	103.88
251.465	122.88
251.698	122.88
251.931	125.88
252.164	113.88
252.397	115.88
252.63	128.88
252.863	114.88
253.096	119.88
253.329	104.88
253.562	132.88
253.795	103.88
254.028	124.88
254.261	109.88
254.494	116.88
254.727	114.88
254.96	122.88
255.193	114.88
255.426	115.88
255.659	109.88
255.892	124.88
256.124	121.88
256.357	125.88
256.59	130.88
256.823	114.88
257.056	123.88
257.289	119.88
257.521	106.88
257.754	113.88
257.987	114.88
258.22	119.88
258.452	134.88
258.685	120.88
258.918	114.88
259.151	125.88
259.383	127.88
259.616	109.88
259.849	128.88
260.081	120.88
260.314	129.88
260.547	130.88
260.779	133.88
261.012	116.88
261.244	125.88
261.477	114.88
261.71	116.88
261.942	126.88
262.175	125.88
262.407	132.88
262.64	140.88
262.872	118.88
263.105	134.88
263.337	147.88
263.57	141.88
263.802	128.88
264.035	132.88
264.267	120.88
264.499	129.88
264.732	134.88
264.964	120.88
265.197	140.88
265.429	154.88
265.661	134.88
265.894	108.88
266.126	126.88
266.358	134.88
266.591	128.88
266.823	126.88
267.055	126.88
267.287	125.88
267.52	135.88
267.752	129.88
267.984	136.88
268.216	141.88
268.448	136.88
268.681	133.88
268.913	127.88
269.145	130.88
269.377	139.88
269.609	151.88
269.841	139.88
270.073	120.88
270.306	153.88
270.538	134.88
270.77	128.88
271.002	144.88
271.234	135.88
271.466	130.88
271.698	134.88
271.93	137.88
272.162	137.88
272.394	151.88
272.626	140.88
272.858	146.88
273.09	136.88
273.322	142.88
273.553	151.88
273.785	145.88
274.017	159.88
274.249	142.88
274.481	138.88
274.713	161.88
274.945	150.88
275.176	150.88
275.408	141.88
275.64	150.88
275.872	136.88
276.104	164.88
276.335	135.88
276.567	144.88
276.799	151.88
277.031	152.88
277.262	143.88
277.494	150.88
277.726	149.88
277.957	148.88
278.189	158.88
278.421	150.88
278.652	153.88
278.884	173.88
279.115	162.88
279.347	164.88
279.579	153.88
279.81	145.88
280.042	166.88
280.273	160.88
280.505	158.88
280.736	168.88
280.968	172.88
281.199	151.88
281.431	141.88
281.662	155.88
281.894	164.88
282.125	149.88
282.356	154.88
282.588	162.88
282.819	176.88
283.051	161.88
283.282	163.88
283.513	169.88
283.745	186.88
283.976	164.88
284.207	168.88
284.439	170.88
284.67	167.88
284.901	183.88
285.132	180.88
285.364	165.88
285.595	174.88
285.826	180.88
286.057	157.88
286.288	165.88
286.52	169.88
286.751	160.88
286.982	161.88
287.213	165.88
287.444	160.88
287.675	155.88
287.906	162.88
288.138	171.88
288.369	167.88
288.6	176.88
288.831	172.88
289.062	161.88
289.293	180.88
289.524	172.88
289.755	192.88
289.986	182.88
290.217	165.88
290.448	162.88
290.679	170.88
290.91	192.88
291.141	173.88
291.371	159.88
291.602	186.88
291.833	172.88
292.064	183.88
292.295	164.88
292.526	169.88
292.757	161.88
292.987	157.88
293.218	187.88
293.449	176.88
293.68	168.88
293.91	178.88
294.141	176.88
294.372	184.88
294.603	177.88
294.833	167.88
295.064	190.88
295.295	173.88
295.525	180.88
295.756	182.88
295.987	169.88
296.217	180.88
296.448	178.88
296.679	182.88
296.909	184.88
297.14	187.88
297.37	173.88
297.601	192.88
297.831	180.88
298.062	188.88
298.292	202.88
298.523	196.88
298.753	193.88
298.984	183.88
299.214	185.88
299.445	187.88
299.675	179.88
299.905	197.88
300.136	198.88
300.366	190.88
300.597	205.88
300.827	195.88
301.057	205.88
301.288	200.88
301.518	192.88
301.748	199.88
301.979	184.88
302.209	199.88
302.439	192.88
302.669	187.88
302.9	188.88
303.13	197.88
303.36	195.88
303.59	216.88
303.82	202.88
304.051	201.88
304.281	193.88
304.511	191.88
304.741	198.88
304.971	162.88
305.201	202.88
305.431	202.88
305.661	195.88
305.891	200.88
306.121	194.88
306.352	199.88
306.582	197.88
306.812	193.88
307.042	193.88
307.272	195.88
307.502	195.88
307.731	189.88
307.961	213.88
308.191	189.88
308.421	196.88
308.651	195.88
308.881	188.88
309.111	173.88
309.341	197.88
309.571	208.88
309.8	193.88
310.03	191.88
310.26	200.88
310.49	189.88
310.72	192.88
310.949	214.88
311.179	197.88
311.409	188.88
311.639	183.88
311.868	204.88
312.098	204.88
312.328	192.88
312.557	221.88
312.787	214.88
313.017	204.88
313.246	211.88
313.476	191.88
313.706	198.88
313.935	210.88
314.165	219.88
314.394	217.88
314.624	197.88
314.853	208.88
315.083	220.88
315.312	202.88
315.542	198.88
315.771	200.88
316.001	192.88
316.23	202.88
316.46	198.88
316.689	188.88
316.919	190.88
317.148	204.88
317.377	196.88
317.607	180.88
317.836	197.88
318.065	205.88
318.295	194.88
318.524	202.88
318.753	191.88
318.983	201.88
319.212	194.88
319.441	192.88
319.67	188.88
319.9	203.88
320.129	206.88
320.358	213.88
320.587	198.88
320.816	217.88
321.046	199.88
321.275	203.88
321.504	185.88
321.733	206.88
321.962	210.88
322.191	202.88
322.42	201.88
322.649	192.88
322.878	206.88
323.108	204.88
323.337	196.88
323.566	205.88
323.795	213.88
324.024	201.88
324.253	208.88
324.482	198.88
324.71	219.88
324.939	204.88
325.168	196.88
325.397	202.88
325.626	209.88
325.855	210.88
326.084	215.88
326.313	218.88
326.542	213.88
326.77	220.88
326.999	211.88
327.228	216.88
327.457	219.88
327.686	213.88
327.914	210.88
328.143	221.88
328.372	212.88
328.6	212.88
328.829	224.88
329.058	200.88
329.287	218.88
329.515	223.88
329.744	213.88
329.972	218.88
330.201	197.88
330.43	222.88
330.658	230.88
330.887	203.88
331.115	199.88
331.344	213.88
331.572	211.88
331.801	221.88
332.03	218.88
332.258	231.88
332.486	228.88
332.715	228.88
332.943	258.88
333.172	255.88
333.4	269.88
333.629	264.88
333.857	280.88
334.085	270.88
334.314	284.88
334.542	267.88
334.771	251.88
334.999	236.88
335.227	259.88
335.455	252.88
335.684	251.88
335.912	256.88
336.14	237.88
336.369	243.88
336.597	242.88
336.825	230.88
337.053	241.88
337.281	237.88
337.51	240.88
337.738	240.88
337.966	226.88
338.194	236.88
338.422	204.88
338.65	217.88
338.878	212.88
339.106	215.88
339.334	234.88
339.562	198.88
339.79	235.88
340.018	231.88
340.246	208.88
340.474	199.88
340.702	209.88
340.93	231.88
341.158	223.88
341.386	222.88
341.614	214.88
341.842	218.88
342.07	217.88
342.298	231.88
342.526	207.88
342.754	213.88
342.981	210.88
343.209	232.88
343.437	228.88
343.665	242.88
343.893	269.88
344.12	268.88
344.348	247.88
344.576	228.88
344.804	227.88
345.031	218.88
345.259	227.88
345.487	226.88
345.714	208.88
345.942	223.88
346.17	232.88
346.397	211.88
346.625	218.88
346.853	229.88
347.08	219.88
347.308	225.88
347.535	220.88
347.763	221.88
347.99	228.88
348.218	239.88
348.445	212.88
348.673	208.88
348.9	207.88
349.128	199.88
349.355	220.88
349.583	225.88
349.81	211.88
350.037	202.88
350.265	219.88
350.492	212.88
350.72	225.88
350.947	220.88
351.174	195.88
351.402	220.88
351.629	209.88
351.856	206.88
352.083	216.88
352.311	195.88
352.538	214.88
352.765	220.88
352.992	203.88
353.22	205.88
353.447	209.88
353.674	212.88
353.901	196.88
354.128	230.88
354.355	190.88
354.583	201.88
354.81	209.88
355.037	211.88
355.264	226.88
355.491	209.88
355.718	208.88
355.945	204.88
356.172	216.88
356.399	219.88
356.626	200.88
356.853	204.88
357.08	215.88
357.307	210.88
357.534	204.88
357.761	193.88
357.988	200.88
358.215	202.88
358.441	236.88
358.668	205.88
358.895	204.88
359.122	206.88
359.349	209.88
359.576	202.88
359.802	202.88
360.029	214.88
360.256	210.88
360.483	192.88
360.709	210.88
360.936	218.88
361.163	209.88
361.39	204.88
361.616	192.88
361.843	209.88
362.07	202.88
362.296	198.88
362.523	194.88
362.749	198.88
362.976	194.88
363.203	199.88
363.429	233.88
363.656	215.88
363.882	198.88
364.109	194.88
364.335	203.88
364.562	216.88
364.788	204.88
365.015	205.88
365.241	201.88
365.468	214.88
365.694	187.88
365.92	217.88
366.147	209.88
366.373	208.88
366.599	207.88
366.826	201.88
367.052	190.88
367.278	213.88
367.505	198.88
367.731	201.88
367.957	197.88
368.184	203.88
368.41	212.88
368.636	211.88
368.862	215.88
369.089	200.88
369.315	221.88
369.541	202.88
369.767	216.88
369.993	212.88
370.219	215.88
370.445	200.88
370.672	202.88
370.898	198.88
371.124	211.88
371.35	218.88
371.576	204.88
371.802	211.88
372.028	230.88
372.254	220.88
372.48	221.88
372.706	212.88
372.932	208.88
373.158	249.88
373.384	219.88
373.61	219.88
373.835	224.88
374.061	213.88
374.287	224.88
374.513	213.88
374.739	222.88
374.965	245.88
375.191	220.88
375.416	234.88
375.642	208.88
375.868	216.88
376.094	238.88
376.319	217.88
376.545	214.88
376.771	229.88
376.997	227.88
377.222	216.88
377.448	239.88
377.674	224.88
377.899	215.88
378.125	218.88
378.35	226.88
378.576	227.88
378.802	214.88
379.027	224.88
379.253	212.88
379.478	210.88
379.704	232.88
379.929	213.88
380.155	220.88
380.38	203.88
380.606	230.88
380.831	206.88
381.057	222.88
381.282	205.88
381.507	213.88
381.733	204.88
381.958	210.88
382.184	210.88
382.409	224.88
382.634	219.88
382.86	225.88
383.085	242.88
383.31	236.88
383.535	233.88
383.761	226.88
383.986	216.88
384.211	243.88
384.436	244.88
384.662	252.88
384.887	237.88
385.112	262.88
385.337	251.88
385.562	244.88
385.787	245.88
386.013	238.88
386.238	260.88
386.463	244.88
386.688	251.88
386.913	232.88
387.138	248.88
387.363	229.88
387.588	226.88
387.813	257.88
388.038	247.88
388.263	230.88
388.488	256.88
388.713	246.88
388.938	237.88
389.163	241.88
389.387	240.88
389.612	245.88
389.837	247.88
390.062	238.88
390.287	258.88
390.512	237.88
390.736	229.88
390.961	256.88
391.186	246.88
391.411	267.88
391.636	268.88
391.86	269.88
392.085	278.88
392.31	272.88
392.534	272.88
392.759	269.88
392.984	270.88
393.208	271.88
393.433	280.88
393.658	280.88
393.882	259.88
394.107	253.88
394.331	258.88
394.556	261.88
394.78	258.88
395.005	252.88
395.229	265.88
395.454	256.88
395.678	276.88
395.903	286.88
396.127	268.88
396.352	262.88
396.576	240.88
396.801	242.88
397.025	273.88
397.249	271.88
397.474	264.88
397.698	282.88
397.922	262.88
398.147	275.88
398.371	281.88
398.595	288.88
398.82	278.88
399.044	292.88
399.268	314.88
399.492	358.88
399.717	396.88
399.941	416.88
400.165	350.88
400.389	325.88
400.613	312.88
400.837	297.88
401.062	284.88
401.286	286.88
401.51	272.88
401.734	292.88
401.958	293.88
402.182	291.88
402.406	292.88
402.63	308.88
402.854	319.88
403.078	311.88
403.302	320.88
403.526	322.88
403.75	322.88
403.974	322.88
404.198	330.88
404.422	346.88
404.645	325.88
404.869	347.88
405.093	333.88
405.317	309.88
405.541	321.88
405.765	313.88
405.988	313.88
406.212	322.88
406.436	291.88
406.66	326.88
406.883	318.88
407.107	349.88
407.331	348.88
407.555	361.88
407.778	373.88
408.002	343.88
408.226	342.88
408.449	357.88
408.673	298.88
408.896	344.88
409.12	323.88
409.344	322.88
409.567	309.88
409.791	341.88
410.014	327.88
410.238	323.88
410.461	308.88
410.685	315.88
410.908	325.88
411.132	298.88
411.355	298.88
411.578	289.88
411.802	301.88
412.025	283.88
412.249	307.88
412.472	293.88
412.695	286.88
412.919	291.88
413.142	284.88
413.365	284.88
413.589	296.88
413.812	291.88
414.035	288.88
414.258	279.88
414.482	273.88
414.705	298.88
414.928	296.88
415.151	317.88
415.374	284.88
415.597	280.88
415.821	280.88
416.044	284.88
416.267	282.88
416.49	270.88
416.713	283.88
416.936	291.88
417.159	292.88
417.382	270.88
417.605	300.88
417.828	293.88
418.051	297.88
418.274	292.88
418.497	304.88
418.72	293.88
418.943	293.88
419.166	317.88
419.389	339.88
419.611	316.88
419.834	296.88
420.057	285.88
420.28	276.88
420.503	279.88
420.726	290.88
420.948	288.88
421.171	268.88
421.394	261.88
421.617	285.88
421.839	294.88
422.062	286.88
422.285	278.88
422.507	271.88
422.73	300.88
422.953	301.88
423.175	295.88
423.398	323.88
423.621	302.88
423.843	311.88
424.066	294.88
424.288	307.88
424.511	288.88
424.733	284.88
424.956	270.88
425.178	292.88
425.401	276.88
425.623	291.88
425.846	278.88
426.068	267.88
426.291	270.88
426.513	260.88
426.735	263.88
426.958	270.88
427.18	274.88
427.402	255.88
427.625	267.88
427.847	266.88
428.069	274.88
428.292	266.88
428.514	265.88
428.736	256.88
428.958	260.88
429.181	261.88
429.403	231.88
429.625	249.88
429.847	240.88
430.069	264.88
430.292	259.88
430.514	258.88
430.736	268.88
430.958	246.88
431.18	256.88
431.402	259.88
431.624	266.88
431.846	249.88
432.068	284.88
432.29	278.88
432.512	265.88
432.734	254.88
432.956	251.88
433.178	254.88
433.4	246.88
433.622	268.88
433.844	260.88
434.066	264.88
434.287	265.88
434.509	257.88
434.731	297.88
434.953	293.88
435.175	283.88
435.397	302.88
435.618	280.88
435.84	265.88
436.062	270.88
436.284	255.88
436.505	266.88
436.727	266.88
436.949	277.88
437.17	284.88
437.392	245.88
437.614	240.88
437.835	242.88
438.057	237.88
438.278	240.88
438.5	248.88
438.721	256.88
438.943	238.88
439.165	265.88
439.386	258.88
439.608	251.88
439.829	258.88
440.05	264.88
440.272	248.88
440.493	271.88
440.715	257.88
440.936	270.88
441.158	266.88
441.379	304.88
441.6	285.88
441.822	293.88
442.043	308.88
442.264	267.88
442.486	277.88
442.707	280.88
442.928	264.88
443.149	266.88
443.371	283.88
443.592	269.88
443.813	285.88
444.034	295.88
444.255	297.88
444.476	315.88
444.698	322.88
444.919	329.88
445.14	442.88
445.361	370.88
445.582	304.88
445.803	289.88
446.024	295.88
446.245	269.88
446.466	269.88
446.687	242.88
446.908	252.88
447.129	256.88
447.35	254.88
447.571	268.88
447.792	231.88
448.013	261.88
448.234	266.88
448.455	248.88
448.675	245.88
448.896	233.88
449.117	270.88
449.338	258.88
449.559	247.88
449.779	244.88
450	237.88
450.221	242.88
450.442	260.88
450.662	250.88
450.883	232.88
451.104	269.88
451.324	247.88
451.545	230.88
451.766	266.88
451.986	245.88
452.207	247.88
452.428	245.88
452.648	234.88
452.869	231.88
453.089	250.88
453.31	227.88
453.53	246.88
453.751	256.88
453.971	232.88
454.192	249.88
454.412	241.88
454.633	225.88
454.853	252.88
455.073	217.88
455.294	214.88
455.514	246.88
455.734	229.88
455.955	222.88
456.175	214.88
456.395	221.88
456.616	209.88
456.836	224.88
457.056	224.88
457.276	222.88
457.497	241.88
457.717	235.88
457.937	244.88
458.157	230.88
458.377	252.88
458.598	234.88
458.818	237.88
459.038	251.88
459.258	249.88
459.478	271.88
459.698	274.88
459.918	271.88
460.138	286.88
460.358	292.88
460.578	317.88
460.798	318.88
461.018	312.88
461.238	301.88
461.458	296.88
461.678	299.88
461.898	318.88
462.118	320.88
462.338	334.88
462.558	326.88
462.777	337.88
462.997	361.88
463.217	398.88
463.437	396.88
463.657	373.88
463.876	357.88
464.096	348.88
464.316	338.88
464.536	353.88
464.755	333.88
464.975	317.88
465.195	289.88
465.414	292.88
465.634	269.88
465.854	268.88
466.073	263.88
466.293	261.88
466.512	270.88
466.732	256.88
466.951	243.88
467.171	259.88
467.391	251.88
467.61	249.88
467.829	253.88
468.049	254.88
468.268	244.88
468.488	257.88
468.707	239.88
468.927	267.88
469.146	257.88
469.365	244.88
469.585	243.88
469.804	268.88
470.023	250.88
470.243	250.88
470.462	268.88
470.681	261.88
470.901	256.88
471.12	251.88
471.339	258.88
471.558	246.88
471.777	252.88
471.997	246.88
472.216	269.88
472.435	250.88
472.654	228.88
472.873	234.88
473.092	229.88
473.311	237.88
473.53	247.88
473.749	264.88
473.968	237.88
474.187	242.88
474.406	250.88
474.625	248.88
474.844	254.88
475.063	233.88
475.282	247.88
475.501	253.88
475.72	257.88
475.939	230.88
476.158	244.88
476.377	267.88
476.596	266.88
476.814	262.88
477.033	252.88
477.252	237.88
477.471	254.88
477.69	280.88
477.908	279.88
478.127	282.88
478.346	289.88
478.564	293.88
478.783	277.88
479.002	289.88
479.22	292.88
479.439	301.88
479.658	282.88
479.876	283.88
480.095	301.88
480.313	314.88
480.532	294.88
480.751	318.88
480.969	303.88
481.188	293.88
481.406	297.88
481.624	284.88
481.843	286.88
482.061	266.88
482.28	268.88
482.498	272.88
482.717	278.88
482.935	278.88
483.153	267.88
483.372	289.88
483.59	286.88
483.808	298.88
484.027	264.88
484.245	286.88
484.463	269.88
484.681	299.88
484.9	282.88
485.118	296.88
485.336	293.88
485.554	296.88
485.772	297.88
485.99	284.88
486.209	293.88
486.427	304.88
486.645	308.88
486.863	301.88
487.081	292.88
487.299	306.88
487.517	312.88
487.735	316.88
487.953	297.88
488.171	292.88
488.389	283.88
488.607	294.88
488.825	284.88
489.043	285.88
489.261	276.88
489.479	300.88
489.696	296.88
489.914	297.88
490.132	300.88
490.35	310.88
490.568	284.88
490.786	291.88
491.003	304.88
491.221	304.88
491.439	291.88
491.657	304.88
491.874	283.88
492.092	297.88
492.31	306.88
492.527	311.88
492.745	307.88
492.963	308.88
493.18	316.88
493.398	308.88
493.615	284.88
493.833	279.88
494.05	294.88
494.268	299.88
494.485	299.88
494.703	309.88
494.92	309.88
495.138	318.88
495.355	313.88
495.573	321.88
495.79	319.88
496.008	315.88
496.225	297.88
496.442	308.88
496.66	317.88
496.877	313.88
497.094	312.88
497.312	320.88
497.529	332.88
497.746	344.88
497.963	334.88
498.181	347.88
498.398	361.88
498.615	390.88
498.832	392.88
499.049	442.88
499.267	462.88
499.484	524.88
499.701	534.88
499.918	596.88
500.135	665.88
500.352	788.88
500.569	834.88
500.786	817.88
501.003	747.88
501.22	695.88
501.437	608.88
501.654	528.88
501.871	487.88
502.088	447.88
502.305	437.88
502.522	411.88
502.739	406.88
502.956	374.88
503.172	359.88
503.389	357.88
503.606	336.88
503.823	331.88
504.04	336.88
504.256	339.88
504.473	337.88
504.69	352.88
504.907	363.88
505.123	314.88
505.34	316.88
505.557	301.88
505.773	274.88
505.99	287.88
506.207	304.88
506.423	300.88
506.64	286.88
506.856	283.88
507.073	265.88
507.289	280.88
507.506	286.88
507.722	290.88
507.939	279.88
508.155	284.88
508.372	279.88
508.588	292.88
508.805	273.88
509.021	263.88
509.238	289.88
509.454	263.88
509.67	254.88
509.887	236.88
510.103	256.88
510.319	258.88
510.536	277.88
510.752	267.88
510.968	276.88
511.184	274.88
511.401	259.88
511.617	261.88
511.833	244.88
512.049	270.88
512.265	245.88
512.481	248.88
512.698	265.88
512.914	251.88
513.13	249.88
513.346	273.88
513.562	261.88
513.778	264.88
513.994	252.88
514.21	251.88
514.426	266.88
514.642	261.88
514.858	254.88
515.074	281.88
515.29	276.88
515.506	271.88
515.721	281.88
515.937	295.88
516.153	285.88
516.369	293.88
516.585	297.88
516.801	317.88
517.016	313.88
517.232	324.88
517.448	334.88
517.664	332.88
517.879	343.88
518.095	337.88
518.311	340.88
518.527	329.88
518.742	322.88
518.958	293.88
519.173	296.88
519.389	300.88
519.605	287.88
519.82	280.88
520.036	275.88
520.251	283.88
520.467	271.88
520.682	264.88
520.898	271.88
521.113	262.88
521.329	254.88
521.544	248.88
521.76	261.88
521.975	257.88
522.19	252.88
522.406	254.88
522.621	257.88
522.836	250.88
523.052	270.88
523.267	232.88
523.482	258.88
523.698	258.88
523.913	251.88
524.128	265.88
524.343	262.88
524.559	244.88
524.774	264.88
524.989	232.88
525.204	248.88
525.419	243.88
525.634	234.88
525.849	248.88
526.064	247.88
526.28	249.88
526.495	233.88
526.71	224.88
526.925	247.88
527.14	245.88
527.355	236.88
527.57	234.88
527.785	247.88
527.999	240.88
528.214	236.88
528.429	222.88
528.644	235.88
528.859	247.88
529.074	232.88
529.289	243.88
529.503	246.88
529.718	233.88
529.933	260.88
530.148	249.88
530.363	244.88
530.577	248.88
530.792	231.88
531.007	234.88
531.221	259.88
531.436	251.88
531.651	258.88
531.865	243.88
532.08	252.88
532.295	241.88
532.509	253.88
532.724	262.88
532.938	241.88
533.153	240.88
533.367	259.88
533.582	242.88
533.796	242.88
534.011	243.88
534.225	242.88
534.44	264.88
534.654	240.88
534.868	247.88
535.083	256.88
535.297	239.88
535.511	244.88
535.726	220.88
535.94	223.88
536.154	244.88
536.369	232.88
536.583	225.88
536.797	233.88
537.011	229.88
537.225	227.88
537.44	242.88
537.654	241.88
537.868	223.88
538.082	233.88
538.296	241.88
538.51	232.88
538.724	222.88
538.938	221.88
539.153	231.88
539.367	229.88
539.581	228.88
539.795	224.88
540.009	229.88
540.222	242.88
540.436	223.88
540.65	233.88
540.864	214.88
541.078	236.88
541.292	233.88
541.506	227.88
541.72	216.88
541.934	231.88
542.147	224.88
542.361	240.88
542.575	221.88
542.789	222.88
543.002	229.88
543.216	231.88
543.43	218.88
543.644	233.88
543.857	253.88
544.071	201.88
544.285	248.88
544.498	234.88
544.712	217.88
544.925	220.88
545.139	230.88
545.352	222.88
545.566	248.88
545.779	236.88
545.993	242.88
546.206	230.88
546.42	247.88
546.633	229.88
546.847	238.88
547.06	238.88
547.274	242.88
547.487	228.88
547.7	230.88
547.914	247.88
548.127	224.88
548.34	234.88
548.554	242.88
548.767	231.88
548.98	225.88
549.193	237.88
549.407	247.88
549.62	236.88
549.833	247.88
550.046	244.88
550.259	230.88
550.473	251.88
550.686	250.88
550.899	220.88
551.112	234.88
551.325	238.88
551.538	232.88
551.751	226.88
551.964	240.88
552.177	241.88
552.39	232.88
552.603	249.88
552.816	254.88
553.029	253.88
553.242	251.88
553.455	255.88
553.667	269.88
553.88	246.88
554.093	244.88
554.306	253.88
554.519	226.88
554.732	242.88
554.944	228.88
555.157	233.88
555.37	228.88
555.583	223.88
555.795	244.88
556.008	235.88
556.221	210.88
556.433	220.88
556.646	210.88
556.859	200.88
557.071	182.88
557.284	208.88
557.496	206.88
557.709	221.88
557.921	221.88
558.134	218.88
558.346	216.88
558.559	198.88
558.771	201.88
558.984	201.88
559.196	212.88
559.409	202.88
559.621	210.88
559.833	201.88
560.046	210.88
560.258	213.88
560.47	196.88
560.683	195.88
560.895	210.88
561.107	202.88
561.32	212.88
561.532	210.88
561.744	224.88
561.956	205.88
562.168	214.88
562.381	227.88
562.593	197.88
562.805	218.88
563.017	198.88
563.229	217.88
563.441	201.88
563.653	204.88
563.865	200.88
564.077	214.88
564.289	206.88
564.501	195.88
564.713	218.88
564.925	208.88
565.137	218.88
565.349	212.88
565.561	228.88
565.773	244.88
565.985	264.88
566.197	247.88
566.408	264.88
566.62	297.88
566.832	315.88
567.044	309.88
567.255	293.88
567.467	316.88
567.679	346.88
567.891	366.88
568.102	368.88
568.314	366.88
568.526	312.88
568.737	312.88
568.949	276.88
569.161	260.88
569.372	244.88
569.584	223.88
569.795	215.88
570.007	214.88
570.218	226.88
570.43	220.88
570.641	219.88
570.853	203.88
571.064	213.88
571.276	224.88
571.487	233.88
571.698	208.88
571.91	214.88
572.121	201.88
572.333	202.88
572.544	197.88
572.755	200.88
572.966	187.88
573.178	192.88
573.389	167.88
573.6	186.88
573.811	184.88
574.023	179.88
574.234	183.88
574.445	194.88
574.656	165.88
574.867	179.88
575.078	176.88
575.289	193.88
575.501	176.88
575.712	182.88
575.923	180.88
576.134	186.88
576.345	175.88
576.556	185.88
576.767	193.88
576.978	193.88
577.188	197.88
577.399	158.88
577.61	164.88
577.821	170.88
578.032	178.88
578.243	173.88
578.454	170.88
578.665	156.88
578.875	169.88
579.086	170.88
579.297	172.88
579.508	159.88
579.718	172.88
579.929	170.88
580.14	189.88
580.35	170.88
580.561	184.88
580.772	166.88
580.982	176.88
581.193	146.88
581.403	158.88
581.614	179.88
581.825	174.88
582.035	160.88
582.246	182.88
582.456	151.88
582.667	158.88
582.877	174.88
583.087	150.88
583.298	185.88
583.508	171.88
583.719	160.88
583.929	181.88
584.139	162.88
584.35	165.88
584.56	172.88
584.77	166.88
584.981	176.88
585.191	178.88
585.401	156.88
585.611	176.88
585.821	171.88
586.032	162.88
586.242	162.88
586.452	154.88
586.662	162.88
586.872	148.88
587.082	170.88
587.292	162.88
587.502	165.88
587.713	161.88
587.923	169.88
588.133	164.88
588.343	168.88
588.553	145.88
588.762	155.88
588.972	168.88
589.182	176.88
589.392	167.88
589.602	143.88
589.812	169.88
590.022	158.88
590.232	170.88
590.441	156.88
590.651	165.88
590.861	150.88
591.071	167.88
591.281	166.88
591.49	173.88
591.7	165.88
591.91	173.88
592.119	172.88
592.329	180.88
592.539	176.88
592.748	204.88
592.958	182.88
593.167	189.88
593.377	198.88
593.587	202.88
593.796	205.88
594.006	199.88
594.215	214.88
594.424	213.88
594.634	186.88
594.843	200.88
595.053	180.88
595.262	172.88
595.472	170.88
595.681	186.88
595.89	156.88
596.1	166.88
596.309	166.88
596.518	181.88
596.727	160.88
596.937	162.88
597.146	149.88
597.355	166.88
597.564	152.88
597.774	157.88
597.983	158.88
598.192	150.88
598.401	135.88
598.61	164.88
598.819	142.88
599.028	161.88
599.237	150.88
599.446	160.88
599.655	143.88
599.864	154.88
600.073	145.88
600.282	145.88
600.491	149.88
600.7	151.88
600.909	157.88
601.118	142.88
601.327	146.88
601.536	152.88
601.745	158.88
601.953	152.88
602.162	151.88
602.371	153.88
602.58	138.88
602.789	143.88
602.997	164.88
603.206	129.88
603.415	151.88
603.623	146.88
603.832	146.88
604.041	147.88
604.249	141.88
604.458	153.88
604.666	150.88
604.875	163.88
605.084	155.88
605.292	144.88
605.501	139.88
605.709	129.88
605.918	140.88
606.126	155.88
606.334	149.88
606.543	139.88
606.751	149.88
606.96	129.88
607.168	140.88
607.376	142.88
607.585	137.88
607.793	135.88
608.001	144.88
608.21	142.88
608.418	146.88
608.626	157.88
608.834	160.88
609.043	137.88
609.251	145.88
609.459	148.88
609.667	146.88
609.875	145.88
610.083	152.88
610.291	138.88
610.499	144.88
610.707	141.88
610.916	124.88
611.124	142.88
611.332	150.88
611.54	142.88
611.748	148.88
611.955	153.88
612.163	120.88
612.371	136.88
612.579	140.88
612.787	136.88
612.995	142.88
613.203	134.88
613.411	127.88
613.618	145.88
613.826	136.88
614.034	132.88
614.242	138.88
614.449	149.88
614.657	139.88
614.865	126.88
615.072	149.88
615.28	164.88
615.488	142.88
615.695	134.88
615.903	137.88
616.111	137.88
616.318	162.88
616.526	128.88
616.733	144.88
616.941	140.88
617.148	150.88
617.356	145.88
617.563	148.88
617.771	141.88
617.978	153.88
618.185	128.88
618.393	144.88
618.6	135.88
618.807	140.88
619.015	153.88
619.222	137.88
619.429	139.88
619.637	146.88
619.844	148.88
620.051	154.88
620.258	142.88
620.466	134.88
620.673	123.88
620.88	132.88
621.087	123.88
621.294	128.88
621.501	133.88
621.708	126.88
621.915	134.88
622.122	130.88
622.329	143.88
622.536	133.88
622.743	144.88
622.95	128.88
623.157	132.88
623.364	133.88
623.571	126.88
623.778	126.88
623.985	140.88
624.192	124.88
624.399	136.88
624.606	135.88
624.812	135.88
625.019	154.88
625.226	114.88
625.433	136.88
625.639	132.88
625.846	118.88
626.053	151.88
626.259	124.88
626.466	124.88
626.673	142.88
626.879	142.88
627.086	138.88
627.293	134.88
627.499	139.88
627.706	128.88
627.912	121.88
628.119	130.88
628.325	116.88
628.532	124.88
628.738	122.88
628.945	125.88
629.151	122.88
629.357	119.88
629.564	117.88
629.77	138.88
629.976	116.88
630.183	132.88
630.389	121.88
630.595	124.88
630.802	109.88
631.008	128.88
631.214	131.88
631.42	112.88
631.627	104.88
631.833	126.88
632.039	125.88
632.245	122.88
632.451	122.88
632.657	133.88
632.863	121.88
633.069	126.88
633.275	106.88
633.481	117.88
633.688	134.88
633.893	124.88
634.099	133.88
634.305	110.88
634.511	114.88
634.717	136.88
634.923	123.88
635.129	123.88
635.335	102.88
635.541	115.88
635.747	114.88
635.952	123.88
636.158	120.88
636.364	113.88
636.57	127.88
636.775	128.88
636.981	116.88
637.187	126.88
637.392	124.88
637.598	139.88
637.804	130.88
638.009	131.88
638.215	108.88
638.421	124.88
638.626	108.88
638.832	122.88
639.037	112.88
639.243	118.88
639.448	104.88
639.654	128.88
639.859	116.88
640.065	116.88
640.27	111.88
640.475	127.88
640.681	120.88
640.886	122.88
641.091	127.88
641.297	113.88
641.502	104.88
641.707	122.88
641.913	115.88
642.118	119.88
642.323	111.88
642.528	125.88
642.733	128.88
642.939	104.88
643.144	100.88
643.349	120.88
643.554	121.88
643.759	116.88
643.964	105.88
644.169	116.88
644.374	107.88
644.579	102.88
644.784	117.88
644.989	119.88
645.194	106.88
645.399	109.88
645.604	101.88
645.809	117.88
646.014	121.88
646.219	128.88
646.423	120.88
646.628	109.88
646.833	118.88
647.038	104.88
647.243	130.88
647.447	120.88
647.652	114.88
647.857	132.88
648.062	117.88
648.266	126.88
648.471	108.88
648.676	124.88
648.88	126.88
649.085	121.88
649.289	110.88
649.494	110.88
649.698	115.88
649.903	123.88
650.107	108.88
650.312	126.88
650.516	109.88
650.721	120.88
650.925	126.88
651.13	104.88
651.334	116.88
651.539	108.88
651.743	116.88
651.947	108.88
652.152	110.88
652.356	117.88
652.56	90.88
652.764	111.88
652.969	118.88
653.173	112.88
653.377	100.88
653.581	107.88
653.785	102.88
653.99	96.88
654.194	113.88
654.398	115.88
654.602	107.88
654.806	112.88
655.01	113.88
655.214	96.88
655.418	99.88
655.622	109.88
655.826	107.88
656.03	108.88
656.234	110.88
656.438	111.88
656.642	93.88
656.846	109.88
657.049	117.88
657.253	109.88
657.457	90.88
657.661	100.88
657.865	102.88
658.068	107.88
658.272	91.88
658.476	100.88
658.68	81.88
658.883	100.88
659.087	93.88
659.291	99.88
659.494	91.88
659.698	91.88
659.901	89.88
660.105	95.88
660.309	84.88
660.512	72.88
660.716	92.88
660.919	90.88
661.123	74.88
661.326	66.88
661.53	84.88
661.733	82.88
661.936	77.88
662.14	86.88
662.343	83.88
662.546	85.88
662.75	92.88
662.953	84.88
663.156	82.88
663.36	83.88
663.563	83.88
663.766	82.88
663.969	85.88
664.173	74.88
664.376	81.88
664.579	55.88
664.782	79.88
664.985	90.88
665.188	82.88
665.391	83.88
665.594	75.88
665.797	84.88
666	76.88
666.203	76.88
666.406	88.88
666.609	87.88
666.812	79.88
667.015	77.88
667.218	82.88
667.421	70.88
667.624	85.88
667.827	70.88
668.03	75.88
668.232	88.88
668.435	74.88
668.638	77.88
668.841	92.88
669.043	82.88
669.246	74.88
669.449	71.88
669.651	89.88
669.854	78.88
670.057	78.88
670.259	88.88
670.462	89.88
670.665	93.88
670.867	89.88
671.07	87.88
671.272	101.88
671.475	85.88
671.677	76.88
671.88	74.88
672.082	87.88
672.284	86.88
672.487	81.88
672.689	87.88
672.892	90.88
