Data from copper.mounting.energy7_HRD10591_16-51-05-546.txt Node
Date: Thu Jul 11 16:51:05 EDT 2019
User: cochatt
Spectrometer: HR+D1059
Trigger mode: 1
Integration Time (sec): 1.000000E-1
Scans to average: 1
Electric dark correction enabled: true
Nonlinearity correction enabled: false
Boxcar width: 0
XAxis mode: Wavelengths
Number of Pixels in Spectrum: 2048
>>>>>Begin Spectral Data<<<<<
223.165	-5.25
223.4	-5.25
223.635	-5.25
223.869	-7.25
224.104	-24.25
224.338	-18.25
224.573	-15.25
224.808	-20.25
225.042	-4.25
225.277	-6.25
225.511	-0.25
225.746	1.75
225.98	10.75
226.215	-3.25
226.449	24.75
226.683	23.75
226.918	12.75
227.152	30.75
227.387	28.75
227.621	43.75
227.856	41.75
228.09	52.75
228.324	46.75
228.559	51.75
228.793	78.75
229.027	178.75
229.262	195.75
229.496	226.75
229.73	256.75
229.964	302.75
230.199	244.75
230.433	212.75
230.667	199.75
230.901	212.75
231.136	197.75
231.37	194.75
231.604	175.75
231.838	192.75
232.072	193.75
232.306	179.75
232.541	209.75
232.775	203.75
233.009	200.75
233.243	207.75
233.477	206.75
233.711	204.75
233.945	192.75
234.179	206.75
234.413	223.75
234.647	201.75
234.881	224.75
235.115	213.75
235.349	217.75
235.583	236.75
235.817	233.75
236.051	240.75
236.285	249.75
236.519	243.75
236.753	265.75
236.987	299.75
237.221	388.75
237.455	464.75
237.689	375.75
237.922	293.75
238.156	282.75
238.39	270.75
238.624	250.75
238.858	249.75
239.091	249.75
239.325	257.75
239.559	249.75
239.793	244.75
240.027	269.75
240.26	295.75
240.494	327.75
240.728	314.75
240.961	316.75
241.195	311.75
241.429	282.75
241.662	291.75
241.896	270.75
242.13	290.75
242.363	302.75
242.597	290.75
242.83	271.75
243.064	285.75
243.298	308.75
243.531	315.75
243.765	299.75
243.998	312.75
244.232	304.75
244.465	308.75
244.699	322.75
244.932	296.75
245.166	324.75
245.399	328.75
245.633	328.75
245.866	336.75
246.099	351.75
246.333	335.75
246.566	320.75
246.8	344.75
247.033	346.75
247.266	348.75
247.5	381.75
247.733	397.75
247.966	387.75
248.2	407.75
248.433	404.75
248.666	402.75
248.899	425.75
249.133	459.75
249.366	473.75
249.599	434.75
249.832	420.75
250.066	427.75
250.299	450.75
250.532	436.75
250.765	480.75
250.998	531.75
251.231	522.75
251.465	514.75
251.698	488.75
251.931	455.75
252.164	452.75
252.397	466.75
252.63	454.75
252.863	499.75
253.096	511.75
253.329	537.75
253.562	540.75
253.795	516.75
254.028	497.75
254.261	516.75
254.494	549.75
254.727	618.75
254.96	691.75
255.193	634.75
255.426	574.75
255.659	539.75
255.892	501.75
256.124	493.75
256.357	497.75
256.59	489.75
256.823	490.75
257.056	517.75
257.289	500.75
257.521	465.75
257.754	499.75
257.987	529.75
258.22	512.75
258.452	501.75
258.685	508.75
258.918	511.75
259.151	513.75
259.383	533.75
259.616	552.75
259.849	569.75
260.081	604.75
260.314	626.75
260.547	634.75
260.779	607.75
261.012	574.75
261.244	563.75
261.477	529.75
261.71	529.75
261.942	542.75
262.175	542.75
262.407	529.75
262.64	533.75
262.872	505.75
263.105	523.75
263.337	525.75
263.57	532.75
263.802	533.75
264.035	515.75
264.267	548.75
264.499	525.75
264.732	531.75
264.964	523.75
265.197	517.75
265.429	527.75
265.661	530.75
265.894	550.75
266.126	536.75
266.358	565.75
266.591	574.75
266.823	584.75
267.055	577.75
267.287	576.75
267.52	554.75
267.752	576.75
267.984	581.75
268.216	593.75
268.448	611.75
268.681	619.75
268.913	621.75
269.145	687.75
269.377	741.75
269.609	746.75
269.841	720.75
270.073	720.75
270.306	753.75
270.538	832.75
270.77	832.75
271.002	806.75
271.234	763.75
271.466	758.75
271.698	772.75
271.93	813.75
272.162	833.75
272.394	807.75
272.626	768.75
272.858	722.75
273.09	716.75
273.322	686.75
273.553	698.75
273.785	672.75
274.017	689.75
274.249	693.75
274.481	675.75
274.713	650.75
274.945	680.75
275.176	696.75
275.408	695.75
275.64	684.75
275.872	683.75
276.104	682.75
276.335	668.75
276.567	690.75
276.799	731.75
277.031	784.75
277.262	816.75
277.494	816.75
277.726	794.75
277.957	748.75
278.189	722.75
278.421	737.75
278.652	716.75
278.884	711.75
279.115	685.75
279.347	710.75
279.579	712.75
279.81	694.75
280.042	666.75
280.273	729.75
280.505	717.75
280.736	699.75
280.968	700.75
281.199	700.75
281.431	725.75
281.662	721.75
281.894	716.75
282.125	737.75
282.356	746.75
282.588	789.75
282.819	786.75
283.051	734.75
283.282	738.75
283.513	748.75
283.745	770.75
283.976	751.75
284.207	754.75
284.439	764.75
284.67	748.75
284.901	748.75
285.132	747.75
285.364	735.75
285.595	744.75
285.826	721.75
286.057	771.75
286.288	744.75
286.52	775.75
286.751	765.75
286.982	773.75
287.213	767.75
287.444	784.75
287.675	809.75
287.906	829.75
288.138	816.75
288.369	845.75
288.6	802.75
288.831	826.75
289.062	808.75
289.293	814.75
289.524	795.75
289.755	801.75
289.986	777.75
290.217	802.75
290.448	769.75
290.679	780.75
290.91	736.75
291.141	794.75
291.371	783.75
291.602	817.75
291.833	771.75
292.064	789.75
292.295	763.75
292.526	783.75
292.757	777.75
292.987	806.75
293.218	800.75
293.449	788.75
293.68	814.75
293.91	792.75
294.141	774.75
294.372	781.75
294.603	779.75
294.833	792.75
295.064	818.75
295.295	792.75
295.525	808.75
295.756	818.75
295.987	786.75
296.217	853.75
296.448	832.75
296.679	810.75
296.909	796.75
297.14	826.75
297.37	817.75
297.601	817.75
297.831	830.75
298.062	826.75
298.292	853.75
298.523	833.75
298.753	851.75
298.984	831.75
299.214	866.75
299.445	804.75
299.675	843.75
299.905	826.75
300.136	850.75
300.366	892.75
300.597	835.75
300.827	851.75
301.057	873.75
301.288	904.75
301.518	901.75
301.748	883.75
301.979	878.75
302.209	895.75
302.439	903.75
302.669	917.75
302.9	896.75
303.13	913.75
303.36	924.75
303.59	907.75
303.82	910.75
304.051	922.75
304.281	899.75
304.511	855.75
304.741	897.75
304.971	885.75
305.201	901.75
305.431	877.75
305.661	908.75
305.891	867.75
306.121	897.75
306.352	896.75
306.582	894.75
306.812	891.75
307.042	909.75
307.272	886.75
307.502	900.75
307.731	888.75
307.961	880.75
308.191	885.75
308.421	911.75
308.651	900.75
308.881	909.75
309.111	942.75
309.341	901.75
309.571	949.75
309.8	942.75
310.03	978.75
310.26	958.75
310.49	944.75
310.72	960.75
310.949	1006.75
311.179	1000.75
311.409	983.75
311.639	978.75
311.868	987.75
312.098	1002.75
312.328	1021.75
312.557	1018.75
312.787	1035.75
313.017	1060.75
313.246	1021.75
313.476	1003.75
313.706	1018.75
313.935	1054.75
314.165	1053.75
314.394	1032.75
314.624	1058.75
314.853	1032.75
315.083	1032.75
315.312	977.75
315.542	991.75
315.771	980.75
316.001	994.75
316.23	1004.75
316.46	984.75
316.689	989.75
316.919	1020.75
317.148	1049.75
317.377	1010.75
317.607	1022.75
317.836	1017.75
318.065	981.75
318.295	1002.75
318.524	989.75
318.753	979.75
318.983	978.75
319.212	1014.75
319.441	993.75
319.67	1025.75
319.9	990.75
320.129	985.75
320.358	988.75
320.587	987.75
320.816	1012.75
321.046	1044.75
321.275	1049.75
321.504	1010.75
321.733	1028.75
321.962	1021.75
322.191	1065.75
322.42	1066.75
322.649	1089.75
322.878	1125.75
323.108	1118.75
323.337	1183.75
323.566	1202.75
323.795	1241.75
324.024	1349.75
324.253	1616.75
324.482	2080.75
324.71	2975.75
324.939	3808.75
325.168	3063.75
325.397	1769.75
325.626	1368.75
325.855	1258.75
326.084	1203.75
326.313	1211.75
326.542	1219.75
326.77	1320.75
326.999	1520.75
327.228	1952.75
327.457	2639.75
327.686	2854.75
327.914	1936.75
328.143	1518.75
328.372	1365.75
328.6	1338.75
328.829	1292.75
329.058	1356.75
329.287	1328.75
329.515	1280.75
329.744	1197.75
329.972	1218.75
330.201	1209.75
330.43	1292.75
330.658	1331.75
330.887	1403.75
331.115	1332.75
331.344	1298.75
331.572	1233.75
331.801	1242.75
332.03	1260.75
332.258	1219.75
332.486	1205.75
332.715	1227.75
332.943	1243.75
333.172	1267.75
333.4	1322.75
333.629	1328.75
333.857	1353.75
334.085	1297.75
334.314	1291.75
334.542	1292.75
334.771	1291.75
334.999	1275.75
335.227	1258.75
335.455	1264.75
335.684	1276.75
335.912	1256.75
336.14	1219.75
336.369	1236.75
336.597	1258.75
336.825	1192.75
337.053	1246.75
337.281	1212.75
337.51	1185.75
337.738	1206.75
337.966	1178.75
338.194	1177.75
338.422	1187.75
338.65	1162.75
338.878	1162.75
339.106	1142.75
339.334	1165.75
339.562	1132.75
339.79	1164.75
340.018	1134.75
340.246	1128.75
340.474	1107.75
340.702	1110.75
340.93	1132.75
341.158	1169.75
341.386	1125.75
341.614	1150.75
341.842	1120.75
342.07	1122.75
342.298	1129.75
342.526	1112.75
342.754	1101.75
342.981	1097.75
343.209	1125.75
343.437	1152.75
343.665	1190.75
343.893	1228.75
344.12	1239.75
344.348	1178.75
344.576	1214.75
344.804	1183.75
345.031	1148.75
345.259	1160.75
345.487	1173.75
345.714	1117.75
345.942	1107.75
346.17	1088.75
346.397	1059.75
346.625	1060.75
346.853	1053.75
347.08	1034.75
347.308	1059.75
347.535	1080.75
347.763	1095.75
347.99	1078.75
348.218	1079.75
348.445	1044.75
348.673	1037.75
348.9	1080.75
349.128	1049.75
349.355	1052.75
349.583	1028.75
349.81	1028.75
350.037	1002.75
350.265	1050.75
350.492	1050.75
350.72	1039.75
350.947	1042.75
351.174	1037.75
351.402	1059.75
351.629	1056.75
351.856	1073.75
352.083	1091.75
352.311	1070.75
352.538	1093.75
352.765	1077.75
352.992	1061.75
353.22	1053.75
353.447	1039.75
353.674	1018.75
353.901	1012.75
354.128	1006.75
354.355	996.75
354.583	977.75
354.81	996.75
355.037	976.75
355.264	1013.75
355.491	1001.75
355.718	978.75
355.945	1001.75
356.172	1006.75
356.399	984.75
356.626	990.75
356.853	1001.75
357.08	1006.75
357.307	973.75
357.534	981.75
357.761	986.75
357.988	1006.75
358.215	973.75
358.441	979.75
358.668	998.75
358.895	1014.75
359.122	1012.75
359.349	1012.75
359.576	1065.75
359.802	1095.75
360.029	1121.75
360.256	1114.75
360.483	1069.75
360.709	1032.75
360.936	1042.75
361.163	1062.75
361.39	1040.75
361.616	1044.75
361.843	1005.75
362.07	1026.75
362.296	1033.75
362.523	1037.75
362.749	1018.75
362.976	1052.75
363.203	1023.75
363.429	993.75
363.656	1021.75
363.882	1003.75
364.109	1011.75
364.335	1009.75
364.562	975.75
364.788	977.75
365.015	1000.75
365.241	978.75
365.468	1017.75
365.694	1018.75
365.92	986.75
366.147	989.75
366.373	1000.75
366.599	974.75
366.826	1016.75
367.052	1004.75
367.278	1006.75
367.505	996.75
367.731	1021.75
367.957	1008.75
368.184	1008.75
368.41	1004.75
368.636	1005.75
368.862	1051.75
369.089	998.75
369.315	1010.75
369.541	1031.75
369.767	1010.75
369.993	1007.75
370.219	1036.75
370.445	1017.75
370.672	1008.75
370.898	1007.75
371.124	1019.75
371.35	1022.75
371.576	1016.75
371.802	1028.75
372.028	1052.75
372.254	1028.75
372.48	1012.75
372.706	1031.75
372.932	1039.75
373.158	1051.75
373.384	1094.75
373.61	1060.75
373.835	1029.75
374.061	1038.75
374.287	1040.75
374.513	1092.75
374.739	1074.75
374.965	1080.75
375.191	1041.75
375.416	1073.75
375.642	1057.75
375.868	1050.75
376.094	1055.75
376.319	1048.75
376.545	1028.75
376.771	1010.75
376.997	1024.75
377.222	1032.75
377.448	1036.75
377.674	1035.75
377.899	1013.75
378.125	1011.75
378.35	1026.75
378.576	998.75
378.802	996.75
379.027	1023.75
379.253	1019.75
379.478	1013.75
379.704	1023.75
379.929	1024.75
380.155	1043.75
380.38	1026.75
380.606	1018.75
380.831	1016.75
381.057	1021.75
381.282	1030.75
381.507	1006.75
381.733	996.75
381.958	1013.75
382.184	1011.75
382.409	1038.75
382.634	1042.75
382.86	1076.75
383.085	1065.75
383.31	1084.75
383.535	1092.75
383.761	1085.75
383.986	1095.75
384.211	1115.75
384.436	1110.75
384.662	1122.75
384.887	1128.75
385.112	1155.75
385.337	1159.75
385.562	1153.75
385.787	1166.75
386.013	1184.75
386.238	1179.75
386.463	1164.75
386.688	1194.75
386.913	1192.75
387.138	1182.75
387.363	1182.75
387.588	1128.75
387.813	1174.75
388.038	1126.75
388.263	1161.75
388.488	1178.75
388.713	1168.75
388.938	1155.75
389.163	1154.75
389.387	1146.75
389.612	1117.75
389.837	1188.75
390.062	1157.75
390.287	1166.75
390.512	1152.75
390.736	1168.75
390.961	1170.75
391.186	1198.75
391.411	1195.75
391.636	1196.75
391.86	1256.75
392.085	1269.75
392.31	1223.75
392.534	1223.75
392.759	1207.75
392.984	1188.75
393.208	1196.75
393.433	1218.75
393.658	1209.75
393.882	1190.75
394.107	1213.75
394.331	1221.75
394.556	1241.75
394.78	1221.75
395.005	1200.75
395.229	1228.75
395.454	1214.75
395.678	1297.75
395.903	1266.75
396.127	1330.75
396.352	1316.75
396.576	1247.75
396.801	1230.75
397.025	1217.75
397.249	1264.75
397.474	1276.75
397.698	1288.75
397.922	1375.75
398.147	1348.75
398.371	1360.75
398.595	1368.75
398.82	1390.75
399.044	1474.75
399.268	1568.75
399.492	1766.75
399.717	1886.75
399.941	1835.75
400.165	1824.75
400.389	1778.75
400.613	1587.75
400.837	1513.75
401.062	1455.75
401.286	1410.75
401.51	1427.75
401.734	1402.75
401.958	1443.75
402.182	1402.75
402.406	1449.75
402.63	1460.75
402.854	1449.75
403.078	1478.75
403.302	1519.75
403.526	1580.75
403.75	1515.75
403.974	1544.75
404.198	1486.75
404.422	1550.75
404.645	1496.75
404.869	1520.75
405.093	1538.75
405.317	1568.75
405.541	1574.75
405.765	1537.75
405.988	1503.75
406.212	1530.75
406.436	1539.75
406.66	1628.75
406.883	1611.75
407.107	1723.75
407.331	1817.75
407.555	1989.75
407.778	1942.75
408.002	1793.75
408.226	1688.75
408.449	1648.75
408.673	1657.75
408.896	1684.75
409.12	1738.75
409.344	1637.75
409.567	1506.75
409.791	1480.75
410.014	1468.75
410.238	1462.75
410.461	1463.75
410.685	1487.75
410.908	1539.75
411.132	1592.75
411.355	1621.75
411.578	1601.75
411.802	1486.75
412.025	1458.75
412.249	1442.75
412.472	1438.75
412.695	1433.75
412.919	1412.75
413.142	1410.75
413.365	1385.75
413.589	1406.75
413.812	1386.75
414.035	1354.75
414.258	1355.75
414.482	1325.75
414.705	1383.75
414.928	1372.75
415.151	1336.75
415.374	1390.75
415.597	1386.75
415.821	1348.75
416.044	1407.75
416.267	1386.75
416.49	1362.75
416.713	1346.75
416.936	1352.75
417.159	1370.75
417.382	1384.75
417.605	1394.75
417.828	1410.75
418.051	1462.75
418.274	1441.75
418.497	1396.75
418.72	1424.75
418.943	1428.75
419.166	1486.75
419.389	1522.75
419.611	1498.75
419.834	1462.75
420.057	1459.75
420.28	1421.75
420.503	1428.75
420.726	1399.75
420.948	1450.75
421.171	1548.75
421.394	1590.75
421.617	1445.75
421.839	1449.75
422.062	1452.75
422.285	1452.75
422.507	1627.75
422.73	1788.75
422.953	1670.75
423.175	1552.75
423.398	1537.75
423.621	1520.75
423.843	1571.75
424.066	1596.75
424.288	1572.75
424.511	1603.75
424.733	1740.75
424.956	1880.75
425.178	1756.75
425.401	1821.75
425.623	1795.75
425.846	1568.75
426.068	1491.75
426.291	1477.75
426.513	1453.75
426.735	1509.75
426.958	1589.75
427.18	1812.75
427.402	2126.75
427.625	2190.75
427.847	1796.75
428.069	1571.75
428.292	1516.75
428.514	1423.75
428.736	1380.75
428.958	1417.75
429.181	1308.75
429.403	1340.75
429.625	1381.75
429.847	1423.75
430.069	1621.75
430.292	1564.75
430.514	1405.75
430.736	1392.75
430.958	1340.75
431.18	1286.75
431.402	1298.75
431.624	1294.75
431.846	1322.75
432.068	1298.75
432.29	1329.75
432.512	1308.75
432.734	1353.75
432.956	1312.75
433.178	1347.75
433.4	1341.75
433.622	1326.75
433.844	1285.75
434.066	1321.75
434.287	1301.75
434.509	1340.75
434.731	1362.75
434.953	1393.75
435.175	1442.75
435.397	1506.75
435.618	1540.75
435.84	1598.75
436.062	1803.75
436.284	1880.75
436.505	1578.75
436.727	1442.75
436.949	1410.75
437.17	1361.75
437.392	1385.75
437.614	1406.75
437.835	1454.75
438.057	1679.75
438.278	1901.75
438.5	1868.75
438.721	2049.75
438.943	1888.75
439.165	1582.75
439.386	1481.75
439.608	1472.75
439.829	1480.75
440.05	1482.75
440.272	1613.75
440.493	1507.75
440.715	1438.75
440.936	1421.75
441.158	1411.75
441.379	1429.75
441.6	1416.75
441.822	1509.75
442.043	1613.75
442.264	1821.75
442.486	1827.75
442.707	1624.75
442.928	1520.75
443.149	1532.75
443.371	1578.75
443.592	1702.75
443.813	1956.75
444.034	2024.75
444.255	1723.75
444.476	1619.75
444.698	1578.75
444.919	1649.75
445.14	1705.75
445.361	1646.75
445.582	1688.75
445.803	1816.75
446.024	1932.75
446.245	1858.75
446.466	1763.75
446.687	1520.75
446.908	1465.75
447.129	1380.75
447.35	1380.75
447.571	1348.75
447.792	1310.75
448.013	1320.75
448.234	1342.75
448.455	1491.75
448.675	1786.75
448.896	1964.75
449.117	1664.75
449.338	1652.75
449.559	1910.75
449.779	2064.75
450	1644.75
450.221	1404.75
450.442	1351.75
450.662	1301.75
450.883	1296.75
451.104	1292.75
451.324	1297.75
451.545	1225.75
451.766	1220.75
451.986	1180.75
452.207	1156.75
452.428	1208.75
452.648	1178.75
452.869	1176.75
453.089	1194.75
453.31	1216.75
453.53	1199.75
453.751	1181.75
453.971	1185.75
454.192	1209.75
454.412	1186.75
454.633	1131.75
454.853	1149.75
455.073	1171.75
455.294	1260.75
455.514	1386.75
455.734	1309.75
455.955	1166.75
456.175	1097.75
456.395	1108.75
456.616	1049.75
456.836	1088.75
457.056	1087.75
457.276	1087.75
457.497	1089.75
457.717	1084.75
457.937	1124.75
458.157	1137.75
458.377	1157.75
458.598	1206.75
458.818	1355.75
459.038	1505.75
459.258	1510.75
459.478	1337.75
459.698	1306.75
459.918	1273.75
460.138	1320.75
460.358	1344.75
460.578	1371.75
460.798	1373.75
461.018	1370.75
461.238	1363.75
461.458	1347.75
461.678	1354.75
461.898	1341.75
462.118	1375.75
462.338	1420.75
462.558	1436.75
462.777	1478.75
462.997	1564.75
463.217	1616.75
463.437	1655.75
463.657	1537.75
463.876	1504.75
464.096	1529.75
464.316	1524.75
464.536	1498.75
464.755	1492.75
464.975	1467.75
465.195	1455.75
465.414	1524.75
465.634	1364.75
465.854	1324.75
466.073	1268.75
466.293	1222.75
466.512	1240.75
466.732	1216.75
466.951	1211.75
467.171	1186.75
467.391	1222.75
467.61	1219.75
467.829	1215.75
468.049	1182.75
468.268	1198.75
468.488	1179.75
468.707	1147.75
468.927	1163.75
469.146	1159.75
469.365	1174.75
469.585	1179.75
469.804	1194.75
470.023	1209.75
470.243	1223.75
470.462	1233.75
470.681	1270.75
470.901	1273.75
471.12	1214.75
471.339	1238.75
471.558	1246.75
471.777	1178.75
471.997	1184.75
472.216	1180.75
472.435	1136.75
472.654	1168.75
472.873	1149.75
473.092	1145.75
473.311	1142.75
473.53	1171.75
473.749	1208.75
473.968	1326.75
474.187	1532.75
474.406	1493.75
474.625	1283.75
474.844	1206.75
475.063	1210.75
475.282	1175.75
475.501	1198.75
475.72	1203.75
475.939	1165.75
476.158	1200.75
476.377	1213.75
476.596	1201.75
476.814	1234.75
477.033	1244.75
477.252	1288.75
477.471	1277.75
477.69	1308.75
477.908	1308.75
478.127	1345.75
478.346	1354.75
478.564	1372.75
478.783	1378.75
479.002	1389.75
479.22	1418.75
479.439	1439.75
479.658	1459.75
479.876	1466.75
480.095	1504.75
480.313	1600.75
480.532	1580.75
480.751	1558.75
480.969	1499.75
481.188	1517.75
481.406	1464.75
481.624	1435.75
481.843	1390.75
482.061	1384.75
482.28	1406.75
482.498	1362.75
482.717	1388.75
482.935	1378.75
483.153	1344.75
483.372	1380.75
483.59	1360.75
483.808	1392.75
484.027	1410.75
484.245	1392.75
484.463	1409.75
484.681	1420.75
484.9	1398.75
485.118	1433.75
485.336	1424.75
485.554	1422.75
485.772	1411.75
485.99	1425.75
486.209	1440.75
486.427	1462.75
486.645	1450.75
486.863	1518.75
487.081	1472.75
487.299	1449.75
487.517	1444.75
487.735	1474.75
487.953	1452.75
488.171	1485.75
488.389	1469.75
488.607	1513.75
488.825	1473.75
489.043	1487.75
489.261	1496.75
489.479	1500.75
489.696	1468.75
489.914	1517.75
490.132	1566.75
490.35	1531.75
490.568	1532.75
490.786	1593.75
491.003	1586.75
491.221	1614.75
491.439	1646.75
491.657	1648.75
491.874	1668.75
492.092	1679.75
492.31	1717.75
492.527	1704.75
492.745	1695.75
492.963	1737.75
493.18	1713.75
493.398	1743.75
493.615	1793.75
493.833	1754.75
494.05	1755.75
494.268	1722.75
494.485	1756.75
494.703	1771.75
494.92	1741.75
495.138	1746.75
495.355	1779.75
495.573	1758.75
495.79	1736.75
496.008	1777.75
496.225	1772.75
496.442	1741.75
496.66	1797.75
496.877	1786.75
497.094	1803.75
497.312	1805.75
497.529	1805.75
497.746	1878.75
497.963	1910.75
498.181	1996.75
498.398	2048.75
498.615	2079.75
498.832	2177.75
499.049	2258.75
499.267	2341.75
499.484	2466.75
499.701	2639.75
499.918	2760.75
500.135	3003.75
500.352	3136.75
500.569	3295.75
500.786	3254.75
501.003	3099.75
501.22	2984.75
501.437	2788.75
501.654	2625.75
501.871	2478.75
502.088	2349.75
502.305	2214.75
502.522	2086.75
502.739	2075.75
502.956	1969.75
503.172	1924.75
503.389	1878.75
503.606	1840.75
503.823	1861.75
504.04	1862.75
504.256	1809.75
504.473	1853.75
504.69	1867.75
504.907	1834.75
505.123	1780.75
505.34	1736.75
505.557	1704.75
505.773	1669.75
505.99	1657.75
506.207	1675.75
506.423	1638.75
506.64	1603.75
506.856	1591.75
507.073	1573.75
507.289	1598.75
507.506	1579.75
507.722	1577.75
507.939	1586.75
508.155	1554.75
508.372	1504.75
508.588	1517.75
508.805	1488.75
509.021	1518.75
509.238	1552.75
509.454	1547.75
509.67	1523.75
509.887	1510.75
510.103	1498.75
510.319	1478.75
510.536	1630.75
510.752	2125.75
510.968	1722.75
511.184	1470.75
511.401	1406.75
511.617	1412.75
511.833	1359.75
512.049	1376.75
512.265	1389.75
512.481	1378.75
512.698	1341.75
512.914	1356.75
513.13	1356.75
513.346	1346.75
513.562	1395.75
513.778	1372.75
513.994	1376.75
514.21	1398.75
514.426	1474.75
514.642	1513.75
514.858	1504.75
515.074	1567.75
515.29	1747.75
515.506	2124.75
515.721	1782.75
515.937	1541.75
516.153	1510.75
516.369	1518.75
516.585	1484.75
516.801	1530.75
517.016	1502.75
517.232	1566.75
517.448	1587.75
517.664	1640.75
517.879	1619.75
518.095	1634.75
518.311	1554.75
518.527	1567.75
518.742	1514.75
518.958	1516.75
519.173	1447.75
519.389	1444.75
519.605	1391.75
519.82	1432.75
520.036	1415.75
520.251	1463.75
520.467	1491.75
520.682	1461.75
520.898	1445.75
521.113	1465.75
521.329	1514.75
521.544	1586.75
521.76	1904.75
521.975	2535.75
522.19	2189.75
522.406	1554.75
522.621	1402.75
522.836	1339.75
523.052	1320.75
523.267	1253.75
523.482	1238.75
523.698	1245.75
523.913	1231.75
524.128	1221.75
524.343	1189.75
524.559	1181.75
524.774	1184.75
524.989	1168.75
525.204	1177.75
525.419	1197.75
525.634	1172.75
525.849	1134.75
526.064	1151.75
526.28	1132.75
526.495	1119.75
526.71	1128.75
526.925	1132.75
527.14	1103.75
527.355	1137.75
527.57	1108.75
527.785	1096.75
527.999	1115.75
528.214	1103.75
528.429	1098.75
528.644	1138.75
528.859	1158.75
529.074	1165.75
529.289	1134.75
529.503	1251.75
529.718	1224.75
529.933	1165.75
530.148	1141.75
530.363	1136.75
530.577	1124.75
530.792	1092.75
531.007	1105.75
531.221	1125.75
531.436	1078.75
531.651	1059.75
531.865	1120.75
532.08	1075.75
532.295	1109.75
532.509	1101.75
532.724	1084.75
532.938	1097.75
533.153	1081.75
533.367	1116.75
533.582	1109.75
533.796	1062.75
534.011	1086.75
534.225	1071.75
534.44	1088.75
534.654	1063.75
534.868	1025.75
535.083	1054.75
535.297	1069.75
535.511	1084.75
535.726	1070.75
535.94	1092.75
536.154	1073.75
536.369	1048.75
536.583	1020.75
536.797	1029.75
537.011	1044.75
537.225	1032.75
537.44	1034.75
537.654	1024.75
537.868	1013.75
538.082	995.75
538.296	1037.75
538.51	1045.75
538.724	1060.75
538.938	1073.75
539.153	1032.75
539.367	1057.75
539.581	1032.75
539.795	1007.75
540.009	1006.75
540.222	1036.75
540.436	1010.75
540.65	1054.75
540.864	1054.75
541.078	1057.75
541.292	1061.75
541.506	1048.75
541.72	1055.75
541.934	1052.75
542.147	1081.75
542.361	1017.75
542.575	1032.75
542.789	1034.75
543.002	1047.75
543.216	1038.75
543.43	1041.75
543.644	1044.75
543.857	1041.75
544.071	1058.75
544.285	1052.75
544.498	1048.75
544.712	1072.75
544.925	1075.75
545.139	1023.75
545.352	1028.75
545.566	1058.75
545.779	1025.75
545.993	1018.75
546.206	1073.75
546.42	1062.75
546.633	1038.75
546.847	1035.75
547.06	1015.75
547.274	1010.75
547.487	1038.75
547.7	1013.75
547.914	1040.75
548.127	1056.75
548.34	1035.75
548.554	1013.75
548.767	1074.75
548.98	1034.75
549.193	1037.75
549.407	1032.75
549.62	1051.75
549.833	1023.75
550.046	1024.75
550.259	1026.75
550.473	1026.75
550.686	993.75
550.899	1013.75
551.112	990.75
551.325	972.75
551.538	1000.75
551.751	974.75
551.964	973.75
552.177	1009.75
552.39	1026.75
552.603	1042.75
552.816	1056.75
553.029	1046.75
553.242	1069.75
553.455	1065.75
553.667	1086.75
553.88	1108.75
554.093	1066.75
554.306	1045.75
554.519	1019.75
554.732	1025.75
554.944	986.75
555.157	984.75
555.37	971.75
555.583	950.75
555.795	956.75
556.008	930.75
556.221	916.75
556.433	936.75
556.646	909.75
556.859	868.75
557.071	894.75
557.284	893.75
557.496	905.75
557.709	900.75
557.921	901.75
558.134	875.75
558.346	868.75
558.559	887.75
558.771	850.75
558.984	873.75
559.196	862.75
559.409	857.75
559.621	870.75
559.833	862.75
560.046	848.75
560.258	837.75
560.47	861.75
560.683	833.75
560.895	848.75
561.107	866.75
561.32	839.75
561.532	841.75
561.744	869.75
561.956	856.75
562.168	870.75
562.381	868.75
562.593	846.75
562.805	874.75
563.017	869.75
563.229	851.75
563.441	876.75
563.653	863.75
563.865	865.75
564.077	867.75
564.289	874.75
564.501	897.75
564.713	904.75
564.925	946.75
565.137	946.75
565.349	917.75
565.561	987.75
565.773	978.75
565.985	1024.75
566.197	1087.75
566.408	1093.75
566.62	1169.75
566.832	1193.75
567.044	1233.75
567.255	1246.75
567.467	1261.75
567.679	1331.75
567.891	1358.75
568.102	1371.75
568.314	1292.75
568.526	1216.75
568.737	1134.75
568.949	1030.75
569.161	996.75
569.372	954.75
569.584	932.75
569.795	908.75
570.007	892.75
570.218	921.75
570.43	920.75
570.641	868.75
570.853	877.75
571.064	873.75
571.276	856.75
571.487	848.75
571.698	830.75
571.91	795.75
572.121	819.75
572.333	809.75
572.544	778.75
572.755	759.75
572.966	751.75
573.178	749.75
573.389	729.75
573.6	715.75
573.811	699.75
574.023	702.75
574.234	697.75
574.445	705.75
574.656	690.75
574.867	698.75
575.078	716.75
575.289	723.75
575.501	699.75
575.712	698.75
575.923	670.75
576.134	672.75
576.345	705.75
576.556	700.75
576.767	683.75
576.978	708.75
577.188	670.75
577.399	677.75
577.61	658.75
577.821	664.75
578.032	668.75
578.243	718.75
578.454	891.75
578.665	734.75
578.875	655.75
579.086	662.75
579.297	614.75
579.508	643.75
579.718	632.75
579.929	642.75
580.14	636.75
580.35	621.75
580.561	619.75
580.772	641.75
580.982	614.75
581.193	620.75
581.403	609.75
581.614	629.75
581.825	635.75
582.035	626.75
582.246	610.75
582.456	628.75
582.667	622.75
582.877	612.75
583.087	624.75
583.298	625.75
583.508	589.75
583.719	602.75
583.929	611.75
584.139	624.75
584.35	588.75
584.56	592.75
584.77	606.75
584.981	608.75
585.191	626.75
585.401	594.75
585.611	590.75
585.821	591.75
586.032	587.75
586.242	605.75
586.452	613.75
586.662	586.75
586.872	585.75
587.082	564.75
587.292	596.75
587.502	579.75
587.713	591.75
587.923	594.75
588.133	602.75
588.343	604.75
588.553	575.75
588.762	606.75
588.972	603.75
589.182	613.75
589.392	605.75
589.602	589.75
589.812	592.75
590.022	587.75
590.232	581.75
590.441	594.75
590.651	609.75
590.861	597.75
591.071	602.75
591.281	608.75
591.49	608.75
591.7	600.75
591.91	618.75
592.119	640.75
592.329	628.75
592.539	647.75
592.748	669.75
592.958	684.75
593.167	670.75
593.377	714.75
593.587	736.75
593.796	675.75
594.006	706.75
594.215	738.75
594.424	709.75
594.634	685.75
594.843	673.75
595.053	670.75
595.262	651.75
595.472	649.75
595.681	623.75
595.89	597.75
596.1	594.75
596.309	566.75
596.518	581.75
596.727	574.75
596.937	561.75
597.146	558.75
597.355	557.75
597.564	556.75
597.774	550.75
597.983	526.75
598.192	522.75
598.401	540.75
598.61	534.75
598.819	524.75
599.028	523.75
599.237	523.75
599.446	536.75
599.655	522.75
599.864	499.75
600.073	506.75
600.282	494.75
600.491	498.75
600.7	514.75
600.909	508.75
601.118	526.75
601.327	524.75
601.536	504.75
601.745	509.75
601.953	494.75
602.162	520.75
602.371	515.75
602.58	505.75
602.789	502.75
602.997	501.75
603.206	515.75
603.415	506.75
603.623	492.75
603.832	500.75
604.041	512.75
604.249	494.75
604.458	464.75
604.666	474.75
604.875	498.75
605.084	464.75
605.292	486.75
605.501	494.75
605.709	491.75
605.918	510.75
606.126	498.75
606.334	482.75
606.543	475.75
606.751	486.75
606.96	508.75
607.168	508.75
607.376	485.75
607.585	500.75
607.793	479.75
608.001	490.75
608.21	501.75
608.418	491.75
608.626	482.75
608.834	490.75
609.043	497.75
609.251	518.75
609.459	494.75
609.667	476.75
609.875	473.75
610.083	492.75
610.291	474.75
610.499	488.75
610.707	495.75
610.916	476.75
611.124	492.75
611.332	518.75
611.54	524.75
611.748	502.75
611.955	498.75
612.163	486.75
612.371	486.75
612.579	480.75
612.787	484.75
612.995	477.75
613.203	487.75
613.411	458.75
613.618	476.75
613.826	473.75
614.034	494.75
614.242	500.75
614.449	468.75
614.657	506.75
614.865	486.75
615.072	499.75
615.28	461.75
615.488	477.75
615.695	488.75
615.903	478.75
616.111	478.75
616.318	481.75
616.526	480.75
616.733	513.75
616.941	478.75
617.148	496.75
617.356	467.75
617.563	468.75
617.771	475.75
617.978	464.75
618.185	469.75
618.393	476.75
618.6	478.75
618.807	484.75
619.015	451.75
619.222	466.75
619.429	458.75
619.637	463.75
619.844	437.75
620.051	446.75
620.258	461.75
620.466	445.75
620.673	451.75
620.88	430.75
621.087	450.75
621.294	427.75
621.501	456.75
621.708	442.75
621.915	457.75
622.122	435.75
622.329	439.75
622.536	438.75
622.743	456.75
622.95	435.75
623.157	412.75
623.364	434.75
623.571	400.75
623.778	421.75
623.985	406.75
624.192	420.75
624.399	436.75
624.606	427.75
624.812	408.75
625.019	421.75
625.226	403.75
625.433	412.75
625.639	380.75
625.846	386.75
626.053	392.75
626.259	394.75
626.466	381.75
626.673	378.75
626.879	400.75
627.086	381.75
627.293	396.75
627.499	410.75
627.706	394.75
627.912	412.75
628.119	413.75
628.325	403.75
628.532	414.75
628.738	409.75
628.945	397.75
629.151	375.75
629.357	414.75
629.564	374.75
629.77	381.75
629.976	378.75
630.183	356.75
630.389	372.75
630.595	382.75
630.802	396.75
631.008	371.75
631.214	345.75
631.42	353.75
631.627	367.75
631.833	353.75
632.039	348.75
632.245	366.75
632.451	366.75
632.657	352.75
632.863	326.75
633.069	352.75
633.275	346.75
633.481	347.75
633.688	359.75
633.893	345.75
634.099	349.75
634.305	334.75
634.511	358.75
634.717	329.75
634.923	338.75
635.129	330.75
635.335	340.75
635.541	349.75
635.747	341.75
635.952	332.75
636.158	347.75
636.364	347.75
636.57	323.75
636.775	342.75
636.981	354.75
637.187	345.75
637.392	345.75
637.598	317.75
637.804	328.75
638.009	328.75
638.215	338.75
638.421	336.75
638.626	331.75
638.832	328.75
639.037	326.75
639.243	317.75
639.448	323.75
639.654	322.75
639.859	348.75
640.065	305.75
640.27	331.75
640.475	309.75
640.681	309.75
640.886	326.75
641.091	335.75
641.297	330.75
641.502	321.75
641.707	319.75
641.913	310.75
642.118	320.75
642.323	320.75
642.528	326.75
642.733	302.75
642.939	331.75
643.144	304.75
643.349	314.75
643.554	313.75
643.759	310.75
643.964	302.75
644.169	313.75
644.374	298.75
644.579	322.75
644.784	303.75
644.989	294.75
645.194	300.75
645.399	298.75
645.604	289.75
645.809	296.75
646.014	308.75
646.219	298.75
646.423	297.75
646.628	324.75
646.833	309.75
647.038	319.75
647.243	303.75
647.447	320.75
647.652	324.75
647.857	306.75
648.062	309.75
648.266	313.75
648.471	336.75
648.676	338.75
648.88	314.75
649.085	322.75
649.289	324.75
649.494	309.75
649.698	344.75
649.903	309.75
650.107	304.75
650.312	308.75
650.516	296.75
650.721	283.75
650.925	283.75
651.13	274.75
651.334	268.75
651.539	259.75
651.743	260.75
651.947	277.75
652.152	269.75
652.356	254.75
652.56	247.75
652.764	235.75
652.969	258.75
653.173	238.75
653.377	232.75
653.581	219.75
653.785	232.75
653.99	240.75
654.194	225.75
654.398	228.75
654.602	238.75
654.806	234.75
655.01	228.75
655.214	209.75
655.418	232.75
655.622	237.75
655.826	230.75
656.03	241.75
656.234	228.75
656.438	227.75
656.642	241.75
656.846	224.75
657.049	222.75
657.253	208.75
657.457	200.75
657.661	205.75
657.865	183.75
658.068	189.75
658.272	173.75
658.476	170.75
658.68	145.75
658.883	153.75
659.087	143.75
659.291	171.75
659.494	148.75
659.698	121.75
659.901	126.75
660.105	136.75
660.309	132.75
660.512	117.75
660.716	128.75
660.919	133.75
661.123	110.75
661.326	118.75
661.53	114.75
661.733	105.75
661.936	96.75
662.14	88.75
662.343	90.75
662.546	97.75
662.75	95.75
662.953	105.75
663.156	93.75
663.36	81.75
663.563	88.75
663.766	94.75
663.969	108.75
664.173	89.75
664.376	84.75
664.579	94.75
664.782	85.75
664.985	92.75
665.188	81.75
665.391	97.75
665.594	81.75
665.797	82.75
666	82.75
666.203	88.75
666.406	86.75
666.609	88.75
666.812	94.75
667.015	82.75
667.218	107.75
667.421	88.75
667.624	89.75
667.827	98.75
668.03	78.75
668.232	86.75
668.435	78.75
668.638	82.75
668.841	94.75
669.043	101.75
669.246	90.75
669.449	85.75
669.651	81.75
669.854	79.75
670.057	88.75
670.259	80.75
670.462	101.75
670.665	102.75
670.867	89.75
671.07	94.75
671.272	74.75
671.475	74.75
671.677	99.75
671.88	79.75
672.082	76.75
672.284	83.75
672.487	79.75
672.689	90.75
672.892	84.75
