Data from copper.mounting.energy7_HRD10591_16-51-01-544.txt Node
Date: Thu Jul 11 16:51:01 EDT 2019
User: cochatt
Spectrometer: HR+D1059
Trigger mode: 1
Integration Time (sec): 1.000000E-1
Scans to average: 1
Electric dark correction enabled: true
Nonlinearity correction enabled: false
Boxcar width: 0
XAxis mode: Wavelengths
Number of Pixels in Spectrum: 2048
>>>>>Begin Spectral Data<<<<<
223.165	-13.44
223.4	-13.44
223.635	-13.44
223.869	-9.44
224.104	-15.44
224.338	0.56
224.573	-23.44
224.808	-3.44
225.042	-18.44
225.277	0.56
225.511	-12.44
225.746	-10.44
225.98	4.56
226.215	12.56
226.449	17.56
226.683	21.56
226.918	22.56
227.152	26.56
227.387	27.56
227.621	40.56
227.856	46.56
228.09	51.56
228.324	38.56
228.559	59.56
228.793	77.56
229.027	177.56
229.262	200.56
229.496	214.56
229.73	266.56
229.964	274.56
230.199	251.56
230.433	203.56
230.667	174.56
230.901	187.56
231.136	188.56
231.37	183.56
231.604	201.56
231.838	181.56
232.072	196.56
232.306	204.56
232.541	189.56
232.775	202.56
233.009	195.56
233.243	198.56
233.477	216.56
233.711	218.56
233.945	215.56
234.179	217.56
234.413	210.56
234.647	210.56
234.881	208.56
235.115	233.56
235.349	208.56
235.583	232.56
235.817	235.56
236.051	253.56
236.285	256.56
236.519	242.56
236.753	264.56
236.987	305.56
237.221	392.56
237.455	467.56
237.689	358.56
237.922	291.56
238.156	274.56
238.39	254.56
238.624	265.56
238.858	254.56
239.091	245.56
239.325	248.56
239.559	259.56
239.793	267.56
240.027	288.56
240.26	318.56
240.494	323.56
240.728	335.56
240.961	342.56
241.195	314.56
241.429	294.56
241.662	278.56
241.896	293.56
242.13	284.56
242.363	286.56
242.597	284.56
242.83	272.56
243.064	286.56
243.298	305.56
243.531	289.56
243.765	298.56
243.998	302.56
244.232	296.56
244.465	315.56
244.699	308.56
244.932	305.56
245.166	319.56
245.399	326.56
245.633	322.56
245.866	326.56
246.099	314.56
246.333	314.56
246.566	344.56
246.8	344.56
247.033	356.56
247.266	351.56
247.5	364.56
247.733	374.56
247.966	395.56
248.2	385.56
248.433	368.56
248.666	393.56
248.899	442.56
249.133	472.56
249.366	471.56
249.599	433.56
249.832	420.56
250.066	417.56
250.299	421.56
250.532	420.56
250.765	474.56
250.998	512.56
251.231	539.56
251.465	498.56
251.698	490.56
251.931	473.56
252.164	478.56
252.397	460.56
252.63	472.56
252.863	494.56
253.096	530.56
253.329	544.56
253.562	521.56
253.795	527.56
254.028	519.56
254.261	556.56
254.494	557.56
254.727	632.56
254.96	698.56
255.193	618.56
255.426	588.56
255.659	542.56
255.892	516.56
256.124	530.56
256.357	519.56
256.59	509.56
256.823	508.56
257.056	499.56
257.289	494.56
257.521	490.56
257.754	509.56
257.987	484.56
258.22	510.56
258.452	507.56
258.685	496.56
258.918	510.56
259.151	520.56
259.383	550.56
259.616	548.56
259.849	540.56
260.081	588.56
260.314	616.56
260.547	656.56
260.779	591.56
261.012	564.56
261.244	563.56
261.477	537.56
261.71	537.56
261.942	536.56
262.175	550.56
262.407	541.56
262.64	534.56
262.872	525.56
263.105	524.56
263.337	521.56
263.57	521.56
263.802	534.56
264.035	528.56
264.267	534.56
264.499	561.56
264.732	560.56
264.964	531.56
265.197	532.56
265.429	539.56
265.661	547.56
265.894	529.56
266.126	547.56
266.358	552.56
266.591	553.56
266.823	580.56
267.055	572.56
267.287	571.56
267.52	568.56
267.752	584.56
267.984	585.56
268.216	595.56
268.448	623.56
268.681	619.56
268.913	644.56
269.145	684.56
269.377	738.56
269.609	705.56
269.841	691.56
270.073	728.56
270.306	776.56
270.538	834.56
270.77	796.56
271.002	774.56
271.234	744.56
271.466	773.56
271.698	809.56
271.93	824.56
272.162	815.56
272.394	811.56
272.626	772.56
272.858	722.56
273.09	724.56
273.322	683.56
273.553	668.56
273.785	671.56
274.017	664.56
274.249	666.56
274.481	688.56
274.713	705.56
274.945	693.56
275.176	673.56
275.408	666.56
275.64	682.56
275.872	666.56
276.104	684.56
276.335	686.56
276.567	715.56
276.799	735.56
277.031	790.56
277.262	826.56
277.494	822.56
277.726	783.56
277.957	764.56
278.189	731.56
278.421	729.56
278.652	699.56
278.884	704.56
279.115	699.56
279.347	688.56
279.579	701.56
279.81	727.56
280.042	690.56
280.273	668.56
280.505	714.56
280.736	711.56
280.968	716.56
281.199	697.56
281.431	696.56
281.662	687.56
281.894	714.56
282.125	707.56
282.356	749.56
282.588	750.56
282.819	775.56
283.051	738.56
283.282	723.56
283.513	756.56
283.745	760.56
283.976	765.56
284.207	771.56
284.439	772.56
284.67	777.56
284.901	758.56
285.132	768.56
285.364	734.56
285.595	786.56
285.826	750.56
286.057	756.56
286.288	765.56
286.52	784.56
286.751	771.56
286.982	757.56
287.213	757.56
287.444	779.56
287.675	784.56
287.906	803.56
288.138	810.56
288.369	817.56
288.6	817.56
288.831	812.56
289.062	822.56
289.293	801.56
289.524	822.56
289.755	790.56
289.986	789.56
290.217	781.56
290.448	768.56
290.679	786.56
290.91	798.56
291.141	798.56
291.371	780.56
291.602	779.56
291.833	787.56
292.064	770.56
292.295	792.56
292.526	808.56
292.757	805.56
292.987	794.56
293.218	802.56
293.449	786.56
293.68	802.56
293.91	844.56
294.141	779.56
294.372	769.56
294.603	805.56
294.833	805.56
295.064	816.56
295.295	821.56
295.525	820.56
295.756	820.56
295.987	825.56
296.217	860.56
296.448	837.56
296.679	828.56
296.909	813.56
297.14	811.56
297.37	838.56
297.601	810.56
297.831	841.56
298.062	812.56
298.292	834.56
298.523	836.56
298.753	838.56
298.984	850.56
299.214	851.56
299.445	858.56
299.675	856.56
299.905	864.56
300.136	860.56
300.366	873.56
300.597	867.56
300.827	887.56
301.057	892.56
301.288	912.56
301.518	905.56
301.748	876.56
301.979	920.56
302.209	923.56
302.439	879.56
302.669	910.56
302.9	893.56
303.13	892.56
303.36	907.56
303.59	887.56
303.82	914.56
304.051	927.56
304.281	899.56
304.511	894.56
304.741	894.56
304.971	896.56
305.201	920.56
305.431	902.56
305.661	867.56
305.891	878.56
306.121	913.56
306.352	927.56
306.582	950.56
306.812	890.56
307.042	891.56
307.272	880.56
307.502	915.56
307.731	880.56
307.961	896.56
308.191	882.56
308.421	888.56
308.651	886.56
308.881	898.56
309.111	913.56
309.341	918.56
309.571	922.56
309.8	943.56
310.03	933.56
310.26	958.56
310.49	926.56
310.72	1007.56
310.949	1021.56
311.179	996.56
311.409	996.56
311.639	981.56
311.868	952.56
312.098	982.56
312.328	1004.56
312.557	1043.56
312.787	1037.56
313.017	1029.56
313.246	1006.56
313.476	990.56
313.706	1002.56
313.935	992.56
314.165	1035.56
314.394	1050.56
314.624	1056.56
314.853	1036.56
315.083	999.56
315.312	1046.56
315.542	1010.56
315.771	996.56
316.001	1003.56
316.23	968.56
316.46	1012.56
316.689	988.56
316.919	1002.56
317.148	1031.56
317.377	993.56
317.607	1044.56
317.836	1008.56
318.065	993.56
318.295	1012.56
318.524	1004.56
318.753	984.56
318.983	983.56
319.212	970.56
319.441	1008.56
319.67	1011.56
319.9	1036.56
320.129	1017.56
320.358	1017.56
320.587	1034.56
320.816	1016.56
321.046	1029.56
321.275	1039.56
321.504	1015.56
321.733	1042.56
321.962	1054.56
322.191	1052.56
322.42	1086.56
322.649	1101.56
322.878	1133.56
323.108	1117.56
323.337	1158.56
323.566	1160.56
323.795	1218.56
324.024	1317.56
324.253	1534.56
324.482	2030.56
324.71	2900.56
324.939	3726.56
325.168	2976.56
325.397	1721.56
325.626	1352.56
325.855	1208.56
326.084	1200.56
326.313	1183.56
326.542	1203.56
326.77	1306.56
326.999	1484.56
327.228	1912.56
327.457	2612.56
327.686	2763.56
327.914	1955.56
328.143	1440.56
328.372	1370.56
328.6	1312.56
328.829	1339.56
329.058	1326.56
329.287	1342.56
329.515	1293.56
329.744	1231.56
329.972	1242.56
330.201	1232.56
330.43	1254.56
330.658	1352.56
330.887	1399.56
331.115	1358.56
331.344	1309.56
331.572	1231.56
331.801	1253.56
332.03	1223.56
332.258	1241.56
332.486	1226.56
332.715	1248.56
332.943	1274.56
333.172	1295.56
333.4	1312.56
333.629	1314.56
333.857	1351.56
334.085	1325.56
334.314	1310.56
334.542	1317.56
334.771	1282.56
334.999	1285.56
335.227	1327.56
335.455	1296.56
335.684	1260.56
335.912	1233.56
336.14	1235.56
336.369	1228.56
336.597	1259.56
336.825	1231.56
337.053	1198.56
337.281	1209.56
337.51	1181.56
337.738	1227.56
337.966	1200.56
338.194	1158.56
338.422	1167.56
338.65	1166.56
338.878	1176.56
339.106	1150.56
339.334	1155.56
339.562	1134.56
339.79	1139.56
340.018	1155.56
340.246	1132.56
340.474	1130.56
340.702	1138.56
340.93	1129.56
341.158	1111.56
341.386	1124.56
341.614	1131.56
341.842	1137.56
342.07	1110.56
342.298	1124.56
342.526	1103.56
342.754	1105.56
342.981	1120.56
343.209	1116.56
343.437	1152.56
343.665	1194.56
343.893	1246.56
344.12	1232.56
344.348	1237.56
344.576	1204.56
344.804	1191.56
345.031	1164.56
345.259	1183.56
345.487	1122.56
345.714	1130.56
345.942	1096.56
346.17	1059.56
346.397	1071.56
346.625	1071.56
346.853	1073.56
347.08	1070.56
347.308	1072.56
347.535	1066.56
347.763	1089.56
347.99	1069.56
348.218	1090.56
348.445	1076.56
348.673	1081.56
348.9	1070.56
349.128	1048.56
349.355	1009.56
349.583	1028.56
349.81	1041.56
350.037	1042.56
350.265	1061.56
350.492	1041.56
350.72	1008.56
350.947	1040.56
351.174	1048.56
351.402	1028.56
351.629	1058.56
351.856	1059.56
352.083	1084.56
352.311	1057.56
352.538	1059.56
352.765	1068.56
352.992	1065.56
353.22	1040.56
353.447	1056.56
353.674	1020.56
353.901	1001.56
354.128	1014.56
354.355	1011.56
354.583	1030.56
354.81	1005.56
355.037	977.56
355.264	1001.56
355.491	1017.56
355.718	1005.56
355.945	1014.56
356.172	1012.56
356.399	1020.56
356.626	992.56
356.853	988.56
357.08	955.56
357.307	987.56
357.534	996.56
357.761	1010.56
357.988	1012.56
358.215	985.56
358.441	993.56
358.668	1021.56
358.895	1002.56
359.122	990.56
359.349	1031.56
359.576	1071.56
359.802	1085.56
360.029	1117.56
360.256	1118.56
360.483	1113.56
360.709	1065.56
360.936	1040.56
361.163	1035.56
361.39	1038.56
361.616	1059.56
361.843	1054.56
362.07	1032.56
362.296	1053.56
362.523	1016.56
362.749	1040.56
362.976	1026.56
363.203	1002.56
363.429	1037.56
363.656	1010.56
363.882	1012.56
364.109	983.56
364.335	998.56
364.562	975.56
364.788	987.56
365.015	972.56
365.241	1006.56
365.468	1001.56
365.694	1006.56
365.92	1035.56
366.147	1006.56
366.373	1000.56
366.599	1020.56
366.826	993.56
367.052	969.56
367.278	998.56
367.505	980.56
367.731	1007.56
367.957	1006.56
368.184	1007.56
368.41	1010.56
368.636	1026.56
368.862	1027.56
369.089	1017.56
369.315	1019.56
369.541	982.56
369.767	990.56
369.993	1010.56
370.219	1032.56
370.445	1031.56
370.672	1034.56
370.898	1027.56
371.124	1016.56
371.35	1012.56
371.576	1007.56
371.802	1031.56
372.028	1027.56
372.254	1050.56
372.48	1028.56
372.706	1058.56
372.932	1044.56
373.158	1064.56
373.384	1050.56
373.61	1039.56
373.835	1026.56
374.061	1031.56
374.287	1045.56
374.513	1058.56
374.739	1080.56
374.965	1077.56
375.191	1102.56
375.416	1103.56
375.642	1073.56
375.868	1032.56
376.094	1041.56
376.319	1053.56
376.545	1037.56
376.771	1036.56
376.997	1010.56
377.222	989.56
377.448	976.56
377.674	1002.56
377.899	1026.56
378.125	1001.56
378.35	1020.56
378.576	1011.56
378.802	1007.56
379.027	988.56
379.253	1018.56
379.478	1015.56
379.704	1035.56
379.929	1011.56
380.155	1020.56
380.38	1057.56
380.606	1027.56
380.831	1007.56
381.057	1032.56
381.282	1021.56
381.507	1007.56
381.733	1030.56
381.958	1039.56
382.184	1034.56
382.409	1063.56
382.634	1063.56
382.86	1055.56
383.085	1050.56
383.31	1109.56
383.535	1092.56
383.761	1094.56
383.986	1135.56
384.211	1109.56
384.436	1147.56
384.662	1131.56
384.887	1151.56
385.112	1144.56
385.337	1161.56
385.562	1143.56
385.787	1136.56
386.013	1185.56
386.238	1196.56
386.463	1208.56
386.688	1211.56
386.913	1187.56
387.138	1170.56
387.363	1157.56
387.588	1162.56
387.813	1182.56
388.038	1161.56
388.263	1181.56
388.488	1170.56
388.713	1197.56
388.938	1178.56
389.163	1142.56
389.387	1133.56
389.612	1172.56
389.837	1171.56
390.062	1162.56
390.287	1176.56
390.512	1177.56
390.736	1192.56
390.961	1229.56
391.186	1189.56
391.411	1240.56
391.636	1223.56
391.86	1258.56
392.085	1241.56
392.31	1290.56
392.534	1268.56
392.759	1225.56
392.984	1203.56
393.208	1190.56
393.433	1208.56
393.658	1196.56
393.882	1179.56
394.107	1223.56
394.331	1200.56
394.556	1244.56
394.78	1234.56
395.005	1220.56
395.229	1236.56
395.454	1251.56
395.678	1295.56
395.903	1307.56
396.127	1302.56
396.352	1297.56
396.576	1251.56
396.801	1210.56
397.025	1262.56
397.249	1229.56
397.474	1274.56
397.698	1312.56
397.922	1311.56
398.147	1332.56
398.371	1365.56
398.595	1355.56
398.82	1427.56
399.044	1461.56
399.268	1615.56
399.492	1767.56
399.717	1853.56
399.941	1914.56
400.165	1858.56
400.389	1785.56
400.613	1636.56
400.837	1538.56
401.062	1451.56
401.286	1425.56
401.51	1408.56
401.734	1400.56
401.958	1394.56
402.182	1414.56
402.406	1455.56
402.63	1459.56
402.854	1471.56
403.078	1459.56
403.302	1520.56
403.526	1549.56
403.75	1508.56
403.974	1505.56
404.198	1520.56
404.422	1555.56
404.645	1553.56
404.869	1542.56
405.093	1534.56
405.317	1600.56
405.541	1569.56
405.765	1544.56
405.988	1518.56
406.212	1566.56
406.436	1551.56
406.66	1637.56
406.883	1615.56
407.107	1707.56
407.331	1848.56
407.555	1993.56
407.778	1973.56
408.002	1806.56
408.226	1714.56
408.449	1640.56
408.673	1670.56
408.896	1675.56
409.12	1766.56
409.344	1686.56
409.567	1505.56
409.791	1558.56
410.014	1486.56
410.238	1458.56
410.461	1498.56
410.685	1512.56
410.908	1539.56
411.132	1610.56
411.355	1649.56
411.578	1554.56
411.802	1497.56
412.025	1442.56
412.249	1432.56
412.472	1476.56
412.695	1432.56
412.919	1406.56
413.142	1410.56
413.365	1411.56
413.589	1402.56
413.812	1439.56
414.035	1395.56
414.258	1373.56
414.482	1347.56
414.705	1396.56
414.928	1395.56
415.151	1404.56
415.374	1398.56
415.597	1370.56
415.821	1376.56
416.044	1371.56
416.267	1381.56
416.49	1418.56
416.713	1384.56
416.936	1395.56
417.159	1401.56
417.382	1437.56
417.605	1414.56
417.828	1415.56
418.051	1471.56
418.274	1410.56
418.497	1392.56
418.72	1382.56
418.943	1389.56
419.166	1476.56
419.389	1561.56
419.611	1520.56
419.834	1519.56
420.057	1468.56
420.28	1433.56
420.503	1403.56
420.726	1433.56
420.948	1417.56
421.171	1591.56
421.394	1619.56
421.617	1488.56
421.839	1465.56
422.062	1465.56
422.285	1482.56
422.507	1646.56
422.73	1794.56
422.953	1678.56
423.175	1552.56
423.398	1552.56
423.621	1563.56
423.843	1566.56
424.066	1628.56
424.288	1583.56
424.511	1641.56
424.733	1750.56
424.956	1858.56
425.178	1802.56
425.401	1795.56
425.623	1800.56
425.846	1576.56
426.068	1503.56
426.291	1503.56
426.513	1493.56
426.735	1528.56
426.958	1646.56
427.18	1814.56
427.402	2123.56
427.625	2176.56
427.847	1822.56
428.069	1578.56
428.292	1507.56
428.514	1398.56
428.736	1396.56
428.958	1404.56
429.181	1335.56
429.403	1323.56
429.625	1352.56
429.847	1491.56
430.069	1634.56
430.292	1564.56
430.514	1404.56
430.736	1391.56
430.958	1352.56
431.18	1312.56
431.402	1312.56
431.624	1294.56
431.846	1259.56
432.068	1291.56
432.29	1339.56
432.512	1309.56
432.734	1310.56
432.956	1338.56
433.178	1286.56
433.4	1325.56
433.622	1341.56
433.844	1367.56
434.066	1338.56
434.287	1352.56
434.509	1362.56
434.731	1368.56
434.953	1398.56
435.175	1464.56
435.397	1516.56
435.618	1516.56
435.84	1610.56
436.062	1817.56
436.284	1878.56
436.505	1574.56
436.727	1466.56
436.949	1396.56
437.17	1323.56
437.392	1349.56
437.614	1360.56
437.835	1453.56
438.057	1675.56
438.278	1868.56
438.5	1844.56
438.721	2095.56
438.943	1939.56
439.165	1581.56
439.386	1477.56
439.608	1484.56
439.829	1494.56
440.05	1528.56
440.272	1616.56
440.493	1522.56
440.715	1423.56
440.936	1444.56
441.158	1419.56
441.379	1367.56
441.6	1428.56
441.822	1513.56
442.043	1622.56
442.264	1824.56
442.486	1874.56
442.707	1600.56
442.928	1529.56
443.149	1564.56
443.371	1578.56
443.592	1758.56
443.813	1937.56
444.034	2004.56
444.255	1745.56
444.476	1634.56
444.698	1617.56
444.919	1663.56
445.14	1709.56
445.361	1665.56
445.582	1639.56
445.803	1781.56
446.024	1984.56
446.245	1951.56
446.466	1792.56
446.687	1530.56
446.908	1439.56
447.129	1358.56
447.35	1392.56
447.571	1357.56
447.792	1325.56
448.013	1332.56
448.234	1388.56
448.455	1510.56
448.675	1826.56
448.896	1963.56
449.117	1672.56
449.338	1646.56
449.559	1919.56
449.779	2054.56
450	1624.56
450.221	1400.56
450.442	1332.56
450.662	1281.56
450.883	1296.56
451.104	1293.56
451.324	1290.56
451.545	1223.56
451.766	1215.56
451.986	1178.56
452.207	1168.56
452.428	1146.56
452.648	1206.56
452.869	1189.56
453.089	1217.56
453.31	1218.56
453.53	1158.56
453.751	1171.56
453.971	1187.56
454.192	1210.56
454.412	1163.56
454.633	1147.56
454.853	1133.56
455.073	1149.56
455.294	1269.56
455.514	1415.56
455.734	1278.56
455.955	1124.56
456.175	1118.56
456.395	1088.56
456.616	1093.56
456.836	1106.56
457.056	1088.56
457.276	1078.56
457.497	1123.56
457.717	1126.56
457.937	1154.56
458.157	1154.56
458.377	1170.56
458.598	1204.56
458.818	1308.56
459.038	1508.56
459.258	1510.56
459.478	1341.56
459.698	1321.56
459.918	1281.56
460.138	1313.56
460.358	1335.56
460.578	1384.56
460.798	1386.56
461.018	1395.56
461.238	1373.56
461.458	1346.56
461.678	1366.56
461.898	1382.56
462.118	1353.56
462.338	1446.56
462.558	1458.56
462.777	1476.56
462.997	1568.56
463.217	1616.56
463.437	1628.56
463.657	1534.56
463.876	1509.56
464.096	1516.56
464.316	1535.56
464.536	1519.56
464.755	1466.56
464.975	1473.56
465.195	1478.56
465.414	1514.56
465.634	1386.56
465.854	1308.56
466.073	1294.56
466.293	1234.56
466.512	1242.56
466.732	1198.56
466.951	1218.56
467.171	1207.56
467.391	1189.56
467.61	1231.56
467.829	1235.56
468.049	1228.56
468.268	1166.56
468.488	1169.56
468.707	1165.56
468.927	1165.56
469.146	1196.56
469.365	1160.56
469.585	1189.56
469.804	1215.56
470.023	1223.56
470.243	1223.56
470.462	1263.56
470.681	1305.56
470.901	1258.56
471.12	1240.56
471.339	1239.56
471.558	1268.56
471.777	1199.56
471.997	1223.56
472.216	1163.56
472.435	1181.56
472.654	1183.56
472.873	1143.56
473.092	1184.56
473.311	1189.56
473.53	1178.56
473.749	1198.56
473.968	1359.56
474.187	1585.56
474.406	1510.56
474.625	1304.56
474.844	1207.56
475.063	1188.56
475.282	1178.56
475.501	1203.56
475.72	1218.56
475.939	1207.56
476.158	1215.56
476.377	1262.56
476.596	1217.56
476.814	1223.56
477.033	1252.56
477.252	1266.56
477.471	1294.56
477.69	1329.56
477.908	1329.56
478.127	1344.56
478.346	1316.56
478.564	1368.56
478.783	1369.56
479.002	1410.56
479.22	1420.56
479.439	1449.56
479.658	1475.56
479.876	1472.56
480.095	1492.56
480.313	1605.56
480.532	1561.56
480.751	1535.56
480.969	1529.56
481.188	1524.56
481.406	1494.56
481.624	1441.56
481.843	1410.56
482.061	1406.56
482.28	1394.56
482.498	1376.56
482.717	1368.56
482.935	1387.56
483.153	1383.56
483.372	1380.56
483.59	1379.56
483.808	1386.56
484.027	1380.56
484.245	1359.56
484.463	1386.56
484.681	1377.56
484.9	1413.56
485.118	1406.56
485.336	1433.56
485.554	1415.56
485.772	1442.56
485.99	1430.56
486.209	1442.56
486.427	1448.56
486.645	1475.56
486.863	1492.56
487.081	1498.56
487.299	1478.56
487.517	1466.56
487.735	1502.56
487.953	1465.56
488.171	1514.56
488.389	1457.56
488.607	1476.56
488.825	1488.56
489.043	1481.56
489.261	1502.56
489.479	1467.56
489.696	1534.56
489.914	1539.56
490.132	1515.56
490.35	1534.56
490.568	1581.56
490.786	1587.56
491.003	1616.56
491.221	1656.56
491.439	1686.56
491.657	1649.56
491.874	1700.56
492.092	1708.56
492.31	1712.56
492.527	1766.56
492.745	1746.56
492.963	1720.56
493.18	1757.56
493.398	1758.56
493.615	1787.56
493.833	1745.56
494.05	1772.56
494.268	1731.56
494.485	1763.56
494.703	1744.56
494.92	1746.56
495.138	1714.56
495.355	1770.56
495.573	1760.56
495.79	1776.56
496.008	1780.56
496.225	1753.56
496.442	1767.56
496.66	1762.56
496.877	1774.56
497.094	1800.56
497.312	1876.56
497.529	1871.56
497.746	1854.56
497.963	1932.56
498.181	2022.56
498.398	2050.56
498.615	2098.56
498.832	2148.56
499.049	2269.56
499.267	2335.56
499.484	2461.56
499.701	2594.56
499.918	2833.56
500.135	3016.56
500.352	3252.56
500.569	3286.56
500.786	3256.56
501.003	3161.56
501.22	2962.56
501.437	2780.56
501.654	2610.56
501.871	2502.56
502.088	2370.56
502.305	2264.56
502.522	2149.56
502.739	2093.56
502.956	1994.56
503.172	1925.56
503.389	1898.56
503.606	1866.56
503.823	1828.56
504.04	1820.56
504.256	1826.56
504.473	1863.56
504.69	1802.56
504.907	1829.56
505.123	1774.56
505.34	1698.56
505.557	1676.56
505.773	1714.56
505.99	1662.56
506.207	1715.56
506.423	1655.56
506.64	1627.56
506.856	1599.56
507.073	1582.56
507.289	1601.56
507.506	1584.56
507.722	1598.56
507.939	1587.56
508.155	1570.56
508.372	1515.56
508.588	1503.56
508.805	1528.56
509.021	1548.56
509.238	1538.56
509.454	1563.56
509.67	1509.56
509.887	1525.56
510.103	1505.56
510.319	1460.56
510.536	1617.56
510.752	2112.56
510.968	1694.56
511.184	1410.56
511.401	1423.56
511.617	1406.56
511.833	1381.56
512.049	1366.56
512.265	1360.56
512.481	1394.56
512.698	1398.56
512.914	1376.56
513.13	1351.56
513.346	1380.56
513.562	1368.56
513.778	1361.56
513.994	1376.56
514.21	1400.56
514.426	1443.56
514.642	1480.56
514.858	1464.56
515.074	1566.56
515.29	1769.56
515.506	2086.56
515.721	1800.56
515.937	1546.56
516.153	1493.56
516.369	1502.56
516.585	1512.56
516.801	1561.56
517.016	1534.56
517.232	1554.56
517.448	1613.56
517.664	1626.56
517.879	1631.56
518.095	1589.56
518.311	1576.56
518.527	1544.56
518.742	1533.56
518.958	1504.56
519.173	1479.56
519.389	1433.56
519.605	1414.56
519.82	1438.56
520.036	1462.56
520.251	1433.56
520.467	1472.56
520.682	1443.56
520.898	1435.56
521.113	1478.56
521.329	1480.56
521.544	1616.56
521.76	1803.56
521.975	2507.56
522.19	2216.56
522.406	1569.56
522.621	1414.56
522.836	1308.56
523.052	1273.56
523.267	1255.56
523.482	1230.56
523.698	1231.56
523.913	1222.56
524.128	1250.56
524.343	1194.56
524.559	1196.56
524.774	1170.56
524.989	1195.56
525.204	1184.56
525.419	1190.56
525.634	1172.56
525.849	1155.56
526.064	1161.56
526.28	1158.56
526.495	1111.56
526.71	1127.56
526.925	1082.56
527.14	1123.56
527.355	1126.56
527.57	1104.56
527.785	1120.56
527.999	1121.56
528.214	1104.56
528.429	1112.56
528.644	1111.56
528.859	1130.56
529.074	1126.56
529.289	1195.56
529.503	1276.56
529.718	1238.56
529.933	1139.56
530.148	1114.56
530.363	1134.56
530.577	1099.56
530.792	1120.56
531.007	1108.56
531.221	1081.56
531.436	1084.56
531.651	1102.56
531.865	1097.56
532.08	1104.56
532.295	1085.56
532.509	1074.56
532.724	1072.56
532.938	1098.56
533.153	1071.56
533.367	1103.56
533.582	1096.56
533.796	1110.56
534.011	1106.56
534.225	1078.56
534.44	1055.56
534.654	1063.56
534.868	1058.56
535.083	1058.56
535.297	1082.56
535.511	1078.56
535.726	1078.56
535.94	1082.56
536.154	1064.56
536.369	1070.56
536.583	1057.56
536.797	1038.56
537.011	1041.56
537.225	1017.56
537.44	1045.56
537.654	1031.56
537.868	1026.56
538.082	1040.56
538.296	1046.56
538.51	1048.56
538.724	1054.56
538.938	1034.56
539.153	1050.56
539.367	1057.56
539.581	1000.56
539.795	1018.56
540.009	1020.56
540.222	1015.56
540.436	1042.56
540.65	1038.56
540.864	1048.56
541.078	1042.56
541.292	1044.56
541.506	1081.56
541.72	1087.56
541.934	1049.56
542.147	1039.56
542.361	1048.56
542.575	1016.56
542.789	1032.56
543.002	1040.56
543.216	1033.56
543.43	1029.56
543.644	1041.56
543.857	1050.56
544.071	1046.56
544.285	1048.56
544.498	1032.56
544.712	1052.56
544.925	1070.56
545.139	1051.56
545.352	1022.56
545.566	1033.56
545.779	1067.56
545.993	1050.56
546.206	1056.56
546.42	1078.56
546.633	1063.56
546.847	1006.56
547.06	1029.56
547.274	1012.56
547.487	1051.56
547.7	1050.56
547.914	1038.56
548.127	1046.56
548.34	1051.56
548.554	1016.56
548.767	1043.56
548.98	1035.56
549.193	1072.56
549.407	1034.56
549.62	1062.56
549.833	1052.56
550.046	1039.56
550.259	1031.56
550.473	1018.56
550.686	992.56
550.899	1026.56
551.112	975.56
551.325	987.56
551.538	996.56
551.751	992.56
551.964	976.56
552.177	1038.56
552.39	1011.56
552.603	1068.56
552.816	1086.56
553.029	1042.56
553.242	1079.56
553.455	1073.56
553.667	1094.56
553.88	1120.56
554.093	1067.56
554.306	1050.56
554.519	1043.56
554.732	1026.56
554.944	1031.56
555.157	962.56
555.37	967.56
555.583	985.56
555.795	943.56
556.008	934.56
556.221	929.56
556.433	934.56
556.646	920.56
556.859	923.56
557.071	875.56
557.284	923.56
557.496	920.56
557.709	890.56
557.921	898.56
558.134	884.56
558.346	867.56
558.559	884.56
558.771	873.56
558.984	877.56
559.196	884.56
559.409	863.56
559.621	862.56
559.833	841.56
560.046	848.56
560.258	869.56
560.47	863.56
560.683	844.56
560.895	854.56
561.107	878.56
561.32	845.56
561.532	841.56
561.744	861.56
561.956	876.56
562.168	874.56
562.381	881.56
562.593	879.56
562.805	861.56
563.017	864.56
563.229	887.56
563.441	876.56
563.653	856.56
563.865	888.56
564.077	895.56
564.289	898.56
564.501	915.56
564.713	908.56
564.925	933.56
565.137	950.56
565.349	941.56
565.561	1018.56
565.773	996.56
565.985	1022.56
566.197	1053.56
566.408	1155.56
566.62	1177.56
566.832	1232.56
567.044	1266.56
567.255	1258.56
567.467	1288.56
567.679	1297.56
567.891	1338.56
568.102	1343.56
568.314	1304.56
568.526	1231.56
568.737	1165.56
568.949	1059.56
569.161	1003.56
569.372	990.56
569.584	923.56
569.795	927.56
570.007	903.56
570.218	940.56
570.43	894.56
570.641	881.56
570.853	903.56
571.064	858.56
571.276	842.56
571.487	809.56
571.698	826.56
571.91	787.56
572.121	816.56
572.333	812.56
572.544	779.56
572.755	763.56
572.966	764.56
573.178	763.56
573.389	769.56
573.6	739.56
573.811	722.56
574.023	713.56
574.234	726.56
574.445	721.56
574.656	710.56
574.867	722.56
575.078	756.56
575.289	698.56
575.501	702.56
575.712	689.56
575.923	706.56
576.134	686.56
576.345	695.56
576.556	683.56
576.767	680.56
576.978	701.56
577.188	686.56
577.399	682.56
577.61	662.56
577.821	662.56
578.032	665.56
578.243	724.56
578.454	920.56
578.665	735.56
578.875	654.56
579.086	660.56
579.297	656.56
579.508	634.56
579.718	658.56
579.929	623.56
580.14	643.56
580.35	620.56
580.561	620.56
580.772	631.56
580.982	626.56
581.193	634.56
581.403	638.56
581.614	639.56
581.825	620.56
582.035	632.56
582.246	632.56
582.456	636.56
582.667	615.56
582.877	610.56
583.087	594.56
583.298	606.56
583.508	614.56
583.719	612.56
583.929	612.56
584.139	602.56
584.35	612.56
584.56	606.56
584.77	607.56
584.981	621.56
585.191	623.56
585.401	612.56
585.611	602.56
585.821	608.56
586.032	604.56
586.242	602.56
586.452	583.56
586.662	596.56
586.872	572.56
587.082	602.56
587.292	596.56
587.502	591.56
587.713	602.56
587.923	606.56
588.133	610.56
588.343	591.56
588.553	591.56
588.762	591.56
588.972	614.56
589.182	614.56
589.392	596.56
589.602	599.56
589.812	587.56
590.022	620.56
590.232	586.56
590.441	605.56
590.651	604.56
590.861	600.56
591.071	584.56
591.281	611.56
591.49	591.56
591.7	607.56
591.91	647.56
592.119	642.56
592.329	646.56
592.539	694.56
592.748	670.56
592.958	692.56
593.167	705.56
593.377	703.56
593.587	719.56
593.796	690.56
594.006	695.56
594.215	738.56
594.424	692.56
594.634	708.56
594.843	678.56
595.053	668.56
595.262	651.56
595.472	647.56
595.681	637.56
595.89	612.56
596.1	588.56
596.309	598.56
596.518	576.56
596.727	589.56
596.937	547.56
597.146	580.56
597.355	556.56
597.564	527.56
597.774	537.56
597.983	534.56
598.192	520.56
598.401	541.56
598.61	534.56
598.819	535.56
599.028	527.56
599.237	523.56
599.446	541.56
599.655	531.56
599.864	553.56
600.073	527.56
600.282	500.56
600.491	508.56
600.7	506.56
600.909	498.56
601.118	498.56
601.327	520.56
601.536	514.56
601.745	509.56
601.953	519.56
602.162	515.56
602.371	518.56
602.58	520.56
602.789	495.56
602.997	510.56
603.206	498.56
603.415	504.56
603.623	496.56
603.832	505.56
604.041	491.56
604.249	483.56
604.458	472.56
604.666	487.56
604.875	483.56
605.084	489.56
605.292	474.56
605.501	483.56
605.709	487.56
605.918	500.56
606.126	493.56
606.334	500.56
606.543	491.56
606.751	490.56
606.96	477.56
607.168	501.56
607.376	472.56
607.585	474.56
607.793	473.56
608.001	492.56
608.21	490.56
608.418	498.56
608.626	478.56
608.834	472.56
609.043	498.56
609.251	482.56
609.459	502.56
609.667	486.56
609.875	489.56
610.083	473.56
610.291	488.56
610.499	501.56
610.707	500.56
610.916	512.56
611.124	510.56
611.332	498.56
611.54	520.56
611.748	488.56
611.955	495.56
612.163	505.56
612.371	482.56
612.579	484.56
612.787	474.56
612.995	471.56
613.203	504.56
613.411	478.56
613.618	486.56
613.826	476.56
614.034	477.56
614.242	474.56
614.449	506.56
614.657	506.56
614.865	472.56
615.072	476.56
615.28	469.56
615.488	460.56
615.695	488.56
615.903	484.56
616.111	489.56
616.318	481.56
616.526	482.56
616.733	503.56
616.941	486.56
617.148	493.56
617.356	474.56
617.563	466.56
617.771	495.56
617.978	473.56
618.185	470.56
618.393	474.56
618.6	468.56
618.807	470.56
619.015	449.56
619.222	481.56
619.429	466.56
619.637	474.56
619.844	437.56
620.051	448.56
620.258	447.56
620.466	449.56
620.673	433.56
620.88	431.56
621.087	445.56
621.294	445.56
621.501	439.56
621.708	424.56
621.915	447.56
622.122	450.56
622.329	442.56
622.536	444.56
622.743	440.56
622.95	449.56
623.157	432.56
623.364	427.56
623.571	428.56
623.778	426.56
623.985	412.56
624.192	434.56
624.399	432.56
624.606	434.56
624.812	418.56
625.019	426.56
625.226	431.56
625.433	437.56
625.639	416.56
625.846	400.56
626.053	391.56
626.259	407.56
626.466	399.56
626.673	392.56
626.879	406.56
627.086	413.56
627.293	407.56
627.499	387.56
627.706	408.56
627.912	396.56
628.119	391.56
628.325	391.56
628.532	385.56
628.738	397.56
628.945	387.56
629.151	372.56
629.357	388.56
629.564	380.56
629.77	380.56
629.976	364.56
630.183	382.56
630.389	373.56
630.595	377.56
630.802	369.56
631.008	368.56
631.214	376.56
631.42	373.56
631.627	395.56
631.833	358.56
632.039	360.56
632.245	356.56
632.451	375.56
632.657	360.56
632.863	355.56
633.069	364.56
633.275	370.56
633.481	361.56
633.688	352.56
633.893	355.56
634.099	354.56
634.305	346.56
634.511	355.56
634.717	351.56
634.923	349.56
635.129	332.56
635.335	316.56
635.541	338.56
635.747	330.56
635.952	348.56
636.158	327.56
636.364	344.56
636.57	329.56
636.775	339.56
636.981	335.56
637.187	344.56
637.392	332.56
637.598	336.56
637.804	356.56
638.009	336.56
638.215	339.56
638.421	339.56
638.626	340.56
638.832	345.56
639.037	322.56
639.243	331.56
639.448	311.56
639.654	323.56
639.859	322.56
640.065	332.56
640.27	322.56
640.475	321.56
640.681	318.56
640.886	322.56
641.091	319.56
641.297	329.56
641.502	322.56
641.707	327.56
641.913	300.56
642.118	307.56
642.323	328.56
642.528	311.56
642.733	304.56
642.939	305.56
643.144	312.56
643.349	316.56
643.554	314.56
643.759	322.56
643.964	318.56
644.169	301.56
644.374	290.56
644.579	306.56
644.784	305.56
644.989	321.56
645.194	307.56
645.399	306.56
645.604	297.56
645.809	302.56
646.014	313.56
646.219	294.56
646.423	314.56
646.628	294.56
646.833	299.56
647.038	295.56
647.243	308.56
647.447	311.56
647.652	310.56
647.857	315.56
648.062	318.56
648.266	323.56
648.471	338.56
648.676	329.56
648.88	328.56
649.085	319.56
649.289	313.56
649.494	340.56
649.698	366.56
649.903	323.56
650.107	308.56
650.312	294.56
650.516	288.56
650.721	283.56
650.925	285.56
651.13	291.56
651.334	274.56
651.539	266.56
651.743	270.56
651.947	253.56
652.152	239.56
652.356	259.56
652.56	251.56
652.764	241.56
652.969	242.56
653.173	225.56
653.377	233.56
653.581	211.56
653.785	243.56
653.99	237.56
654.194	238.56
654.398	250.56
654.602	230.56
654.806	224.56
655.01	219.56
655.214	232.56
655.418	210.56
655.622	234.56
655.826	235.56
656.03	220.56
656.234	219.56
656.438	232.56
656.642	239.56
656.846	218.56
657.049	209.56
657.253	209.56
657.457	193.56
657.661	172.56
657.865	177.56
658.068	165.56
658.272	171.56
658.476	165.56
658.68	160.56
658.883	176.56
659.087	134.56
659.291	145.56
659.494	148.56
659.698	143.56
659.901	136.56
660.105	131.56
660.309	111.56
660.512	119.56
660.716	105.56
660.919	126.56
661.123	113.56
661.326	126.56
661.53	122.56
661.733	111.56
661.936	110.56
662.14	101.56
662.343	106.56
662.546	96.56
662.75	106.56
662.953	106.56
663.156	96.56
663.36	108.56
663.563	96.56
663.766	92.56
663.969	91.56
664.173	98.56
664.376	79.56
664.579	96.56
664.782	87.56
664.985	74.56
665.188	85.56
665.391	86.56
665.594	75.56
665.797	86.56
666	82.56
666.203	79.56
666.406	94.56
666.609	63.56
666.812	98.56
667.015	94.56
667.218	97.56
667.421	76.56
667.624	82.56
667.827	92.56
668.03	92.56
668.232	95.56
668.435	79.56
668.638	88.56
668.841	77.56
669.043	98.56
669.246	81.56
669.449	98.56
669.651	92.56
669.854	74.56
670.057	83.56
670.259	76.56
670.462	87.56
670.665	79.56
670.867	92.56
671.07	84.56
671.272	95.56
671.475	96.56
671.677	83.56
671.88	83.56
672.082	90.56
672.284	91.56
672.487	88.56
672.689	86.56
672.892	81.56
