Data from copper_HRD10591_16-49-14-800.txt Node
Date: Thu Jul 11 16:49:14 EDT 2019
User: cochatt
Spectrometer: HR+D1059
Trigger mode: 1
Integration Time (sec): 1.000000E-1
Scans to average: 1
Electric dark correction enabled: true
Nonlinearity correction enabled: false
Boxcar width: 0
XAxis mode: Wavelengths
Number of Pixels in Spectrum: 2048
>>>>>Begin Spectral Data<<<<<
223.165	-8.38
223.4	-8.38
223.635	-8.38
223.869	-8.38
224.104	-18.38
224.338	-9.38
224.573	-11.38
224.808	1.62
225.042	-11.38
225.277	-17.38
225.511	-2.38
225.746	8.62
225.98	0.62
226.215	9.62
226.449	11.62
226.683	7.62
226.918	9.62
227.152	37.62
227.387	35.62
227.621	27.62
227.856	41.62
228.09	35.62
228.324	44.62
228.559	43.62
228.793	118.62
229.027	294.62
229.262	328.62
229.496	353.62
229.73	450.62
229.964	511.62
230.199	388.62
230.433	304.62
230.667	321.62
230.901	299.62
231.136	274.62
231.37	305.62
231.604	286.62
231.838	285.62
232.072	276.62
232.306	293.62
232.541	281.62
232.775	294.62
233.009	276.62
233.243	300.62
233.477	298.62
233.711	296.62
233.945	308.62
234.179	305.62
234.413	321.62
234.647	297.62
234.881	327.62
235.115	299.62
235.349	344.62
235.583	361.62
235.817	374.62
236.051	375.62
236.285	385.62
236.519	363.62
236.753	389.62
236.987	487.62
237.221	645.62
237.455	818.62
237.689	603.62
237.922	460.62
238.156	435.62
238.39	435.62
238.624	401.62
238.858	400.62
239.091	383.62
239.325	390.62
239.559	389.62
239.793	432.62
240.027	455.62
240.26	523.62
240.494	578.62
240.728	582.62
240.961	552.62
241.195	495.62
241.429	471.62
241.662	459.62
241.896	447.62
242.13	441.62
242.363	426.62
242.597	437.62
242.83	462.62
243.064	464.62
243.298	456.62
243.531	448.62
243.765	458.62
243.998	454.62
244.232	469.62
244.465	473.62
244.699	512.62
244.932	506.62
245.166	490.62
245.399	483.62
245.633	510.62
245.866	512.62
246.099	506.62
246.333	525.62
246.566	535.62
246.8	531.62
247.033	571.62
247.266	552.62
247.5	582.62
247.733	641.62
247.966	650.62
248.2	633.62
248.433	623.62
248.666	666.62
248.899	725.62
249.133	814.62
249.366	813.62
249.599	768.62
249.832	686.62
250.066	650.62
250.299	683.62
250.532	730.62
250.765	790.62
250.998	929.62
251.231	947.62
251.465	861.62
251.698	791.62
251.931	826.62
252.164	771.62
252.397	775.62
252.63	793.62
252.863	833.62
253.096	897.62
253.329	966.62
253.562	914.62
253.795	890.62
254.028	868.62
254.261	878.62
254.494	953.62
254.727	1166.62
254.96	1273.62
255.193	1153.62
255.426	988.62
255.659	915.62
255.892	871.62
256.124	867.62
256.357	802.62
256.59	810.62
256.823	797.62
257.056	799.62
257.289	805.62
257.521	802.62
257.754	822.62
257.987	790.62
258.22	844.62
258.452	803.62
258.685	809.62
258.918	810.62
259.151	813.62
259.383	882.62
259.616	908.62
259.849	939.62
260.081	991.62
260.314	1104.62
260.547	1117.62
260.779	1023.62
261.012	967.62
261.244	929.62
261.477	886.62
261.71	873.62
261.942	928.62
262.175	938.62
262.407	935.62
262.64	865.62
262.872	881.62
263.105	879.62
263.337	844.62
263.57	847.62
263.802	854.62
264.035	879.62
264.267	853.62
264.499	846.62
264.732	870.62
264.964	834.62
265.197	863.62
265.429	877.62
265.661	844.62
265.894	857.62
266.126	857.62
266.358	892.62
266.591	901.62
266.823	911.62
267.055	981.62
267.287	1002.62
267.52	963.62
267.752	957.62
267.984	943.62
268.216	969.62
268.448	954.62
268.681	1007.62
268.913	1085.62
269.145	1166.62
269.377	1308.62
269.609	1226.62
269.841	1170.62
270.073	1232.62
270.306	1367.62
270.538	1482.62
270.77	1417.62
271.002	1329.62
271.234	1301.62
271.466	1339.62
271.698	1466.62
271.93	1465.62
272.162	1494.62
272.394	1408.62
272.626	1360.62
272.858	1267.62
273.09	1196.62
273.322	1165.62
273.553	1172.62
273.785	1116.62
274.017	1132.62
274.249	1140.62
274.481	1167.62
274.713	1135.62
274.945	1144.62
275.176	1133.62
275.408	1157.62
275.64	1136.62
275.872	1125.62
276.104	1131.62
276.335	1159.62
276.567	1166.62
276.799	1279.62
277.031	1417.62
277.262	1484.62
277.494	1435.62
277.726	1355.62
277.957	1291.62
278.189	1214.62
278.421	1168.62
278.652	1158.62
278.884	1168.62
279.115	1159.62
279.347	1163.62
279.579	1189.62
279.81	1195.62
280.042	1161.62
280.273	1161.62
280.505	1213.62
280.736	1179.62
280.968	1123.62
281.199	1145.62
281.431	1151.62
281.662	1151.62
281.894	1174.62
282.125	1189.62
282.356	1253.62
282.588	1334.62
282.819	1321.62
283.051	1255.62
283.282	1183.62
283.513	1203.62
283.745	1221.62
283.976	1257.62
284.207	1225.62
284.439	1231.62
284.67	1271.62
284.901	1216.62
285.132	1222.62
285.364	1200.62
285.595	1234.62
285.826	1202.62
286.057	1226.62
286.288	1224.62
286.52	1231.62
286.751	1210.62
286.982	1217.62
287.213	1234.62
287.444	1255.62
287.675	1285.62
287.906	1353.62
288.138	1349.62
288.369	1349.62
288.6	1368.62
288.831	1307.62
289.062	1287.62
289.293	1286.62
289.524	1297.62
289.755	1291.62
289.986	1277.62
290.217	1294.62
290.448	1251.62
290.679	1266.62
290.91	1280.62
291.141	1273.62
291.371	1279.62
291.602	1259.62
291.833	1263.62
292.064	1253.62
292.295	1275.62
292.526	1263.62
292.757	1256.62
292.987	1263.62
293.218	1259.62
293.449	1247.62
293.68	1256.62
293.91	1253.62
294.141	1279.62
294.372	1282.62
294.603	1257.62
294.833	1287.62
295.064	1276.62
295.295	1294.62
295.525	1282.62
295.756	1318.62
295.987	1338.62
296.217	1437.62
296.448	1482.62
296.679	1340.62
296.909	1319.62
297.14	1334.62
297.37	1315.62
297.601	1371.62
297.831	1306.62
298.062	1313.62
298.292	1348.62
298.523	1369.62
298.753	1360.62
298.984	1409.62
299.214	1344.62
299.445	1357.62
299.675	1402.62
299.905	1388.62
300.136	1382.62
300.366	1365.62
300.597	1355.62
300.827	1435.62
301.057	1443.62
301.288	1505.62
301.518	1433.62
301.748	1432.62
301.979	1475.62
302.209	1442.62
302.439	1473.62
302.669	1470.62
302.9	1475.62
303.13	1457.62
303.36	1457.62
303.59	1457.62
303.82	1476.62
304.051	1480.62
304.281	1454.62
304.511	1450.62
304.741	1435.62
304.971	1435.62
305.201	1426.62
305.431	1446.62
305.661	1455.62
305.891	1459.62
306.121	1436.62
306.352	1461.62
306.582	1457.62
306.812	1422.62
307.042	1444.62
307.272	1456.62
307.502	1439.62
307.731	1460.62
307.961	1460.62
308.191	1388.62
308.421	1427.62
308.651	1472.62
308.881	1442.62
309.111	1507.62
309.341	1492.62
309.571	1518.62
309.8	1637.62
310.03	1616.62
310.26	1648.62
310.49	1641.62
310.72	1726.62
310.949	1830.62
311.179	1834.62
311.409	1691.62
311.639	1633.62
311.868	1662.62
312.098	1647.62
312.328	1723.62
312.557	1821.62
312.787	1915.62
313.017	1853.62
313.246	1731.62
313.476	1685.62
313.706	1699.62
313.935	1746.62
314.165	1767.62
314.394	1845.62
314.624	1828.62
314.853	1754.62
315.083	1679.62
315.312	1651.62
315.542	1668.62
315.771	1630.62
316.001	1630.62
316.23	1630.62
316.46	1642.62
316.689	1662.62
316.919	1713.62
317.148	1719.62
317.377	1726.62
317.607	1697.62
317.836	1722.62
318.065	1650.62
318.295	1627.62
318.524	1657.62
318.753	1639.62
318.983	1614.62
319.212	1635.62
319.441	1699.62
319.67	1664.62
319.9	1661.62
320.129	1622.62
320.358	1634.62
320.587	1691.62
320.816	1714.62
321.046	1727.62
321.275	1690.62
321.504	1687.62
321.733	1708.62
321.962	1742.62
322.191	1761.62
322.42	1885.62
322.649	1937.62
322.878	1942.62
323.108	2053.62
323.337	2125.62
323.566	2218.62
323.795	2355.62
324.024	2507.62
324.253	3123.62
324.482	4529.62
324.71	6713.62
324.939	8965.62
325.168	6935.62
325.397	3550.62
325.626	2493.62
325.855	2183.62
326.084	2075.62
326.313	2083.62
326.542	2174.62
326.77	2444.62
326.999	2885.62
327.228	3978.62
327.457	5876.62
327.686	6498.62
327.914	4032.62
328.143	2859.62
328.372	2624.62
328.6	2527.62
328.829	2517.62
329.058	2687.62
329.287	2773.62
329.515	2437.62
329.744	2219.62
329.972	2125.62
330.201	2165.62
330.43	2353.62
330.658	2632.62
330.887	2927.62
331.115	2839.62
331.344	2375.62
331.572	2199.62
331.801	2206.62
332.03	2214.62
332.258	2095.62
332.486	2026.62
332.715	2033.62
332.943	2053.62
333.172	2098.62
333.4	2117.62
333.629	2157.62
333.857	2203.62
334.085	2215.62
334.314	2129.62
334.542	2137.62
334.771	2120.62
334.999	2130.62
335.227	2116.62
335.455	2088.62
335.684	2056.62
335.912	2044.62
336.14	2014.62
336.369	2025.62
336.597	2069.62
336.825	2120.62
337.053	2042.62
337.281	1953.62
337.51	1996.62
337.738	1990.62
337.966	2017.62
338.194	1992.62
338.422	1957.62
338.65	1940.62
338.878	1943.62
339.106	1895.62
339.334	1883.62
339.562	1883.62
339.79	1825.62
340.018	1871.62
340.246	1943.62
340.474	1945.62
340.702	1925.62
340.93	1890.62
341.158	1874.62
341.386	1900.62
341.614	1917.62
341.842	1879.62
342.07	1859.62
342.298	1862.62
342.526	1830.62
342.754	1818.62
342.981	1756.62
343.209	1806.62
343.437	1868.62
343.665	1904.62
343.893	1978.62
344.12	2025.62
344.348	1980.62
344.576	1941.62
344.804	1919.62
345.031	2014.62
345.259	2009.62
345.487	1956.62
345.714	1918.62
345.942	1831.62
346.17	1789.62
346.397	1778.62
346.625	1790.62
346.853	1758.62
347.08	1760.62
347.308	1790.62
347.535	1823.62
347.763	1823.62
347.99	1844.62
348.218	1853.62
348.445	1893.62
348.673	1899.62
348.9	1780.62
349.128	1714.62
349.355	1692.62
349.583	1687.62
349.81	1656.62
350.037	1695.62
350.265	1677.62
350.492	1676.62
350.72	1694.62
350.947	1740.62
351.174	1806.62
351.402	1807.62
351.629	1772.62
351.856	1767.62
352.083	1863.62
352.311	1855.62
352.538	1891.62
352.765	1879.62
352.992	1756.62
353.22	1762.62
353.447	1735.62
353.674	1721.62
353.901	1634.62
354.128	1634.62
354.355	1676.62
354.583	1679.62
354.81	1611.62
355.037	1597.62
355.264	1569.62
355.491	1579.62
355.718	1584.62
355.945	1578.62
356.172	1567.62
356.399	1566.62
356.626	1598.62
356.853	1579.62
357.08	1557.62
357.307	1549.62
357.534	1554.62
357.761	1596.62
357.988	1544.62
358.215	1559.62
358.441	1625.62
358.668	1566.62
358.895	1615.62
359.122	1604.62
359.349	1690.62
359.576	1763.62
359.802	1918.62
360.029	2058.62
360.256	2122.62
360.483	1951.62
360.709	1780.62
360.936	1722.62
361.163	1739.62
361.39	1751.62
361.616	1785.62
361.843	1741.62
362.07	1737.62
362.296	1786.62
362.523	1735.62
362.749	1764.62
362.976	1726.62
363.203	1673.62
363.429	1667.62
363.656	1638.62
363.882	1643.62
364.109	1567.62
364.335	1602.62
364.562	1643.62
364.788	1605.62
365.015	1630.62
365.241	1682.62
365.468	1644.62
365.694	1663.62
365.92	1669.62
366.147	1654.62
366.373	1657.62
366.599	1617.62
366.826	1602.62
367.052	1600.62
367.278	1636.62
367.505	1623.62
367.731	1631.62
367.957	1648.62
368.184	1630.62
368.41	1645.62
368.636	1696.62
368.862	1706.62
369.089	1651.62
369.315	1623.62
369.541	1588.62
369.767	1645.62
369.993	1639.62
370.219	1605.62
370.445	1632.62
370.672	1631.62
370.898	1581.62
371.124	1621.62
371.35	1634.62
371.576	1630.62
371.802	1592.62
372.028	1558.62
372.254	1632.62
372.48	1608.62
372.706	1622.62
372.932	1647.62
373.158	1639.62
373.384	1607.62
373.61	1662.62
373.835	1693.62
374.061	1647.62
374.287	1673.62
374.513	1673.62
374.739	1640.62
374.965	1697.62
375.191	1738.62
375.416	1724.62
375.642	1682.62
375.868	1676.62
376.094	1637.62
376.319	1637.62
376.545	1627.62
376.771	1635.62
376.997	1640.62
377.222	1623.62
377.448	1591.62
377.674	1582.62
377.899	1624.62
378.125	1607.62
378.35	1580.62
378.576	1565.62
378.802	1625.62
379.027	1610.62
379.253	1597.62
379.478	1561.62
379.704	1585.62
379.929	1571.62
380.155	1625.62
380.38	1626.62
380.606	1618.62
380.831	1589.62
381.057	1612.62
381.282	1615.62
381.507	1613.62
381.733	1609.62
381.958	1628.62
382.184	1669.62
382.409	1687.62
382.634	1637.62
382.86	1632.62
383.085	1667.62
383.31	1703.62
383.535	1689.62
383.761	1693.62
383.986	1703.62
384.211	1727.62
384.436	1763.62
384.662	1759.62
384.887	1807.62
385.112	1773.62
385.337	1786.62
385.562	1835.62
385.787	1803.62
386.013	1898.62
386.238	1916.62
386.463	1907.62
386.688	1853.62
386.913	1838.62
387.138	1803.62
387.363	1827.62
387.588	1782.62
387.813	1809.62
388.038	1793.62
388.263	1809.62
388.488	1826.62
388.713	1824.62
388.938	1801.62
389.163	1862.62
389.387	1856.62
389.612	1782.62
389.837	1752.62
390.062	1775.62
390.287	1803.62
390.512	1778.62
390.736	1791.62
390.961	1805.62
391.186	1790.62
391.411	1870.62
391.636	1890.62
391.86	1932.62
392.085	1928.62
392.31	1945.62
392.534	1913.62
392.759	1899.62
392.984	1898.62
393.208	1938.62
393.433	2045.62
393.658	2007.62
393.882	1835.62
394.107	1872.62
394.331	1877.62
394.556	1861.62
394.78	1873.62
395.005	1878.62
395.229	1893.62
395.454	1925.62
395.678	1931.62
395.903	1999.62
396.127	2089.62
396.352	2092.62
396.576	1919.62
396.801	1962.62
397.025	1995.62
397.249	2004.62
397.474	2013.62
397.698	1992.62
397.922	2079.62
398.147	2121.62
398.371	2107.62
398.595	2086.62
398.82	2106.62
399.044	2287.62
399.268	2433.62
399.492	2650.62
399.717	2802.62
399.941	2914.62
400.165	2868.62
400.389	2749.62
400.613	2480.62
400.837	2311.62
401.062	2268.62
401.286	2181.62
401.51	2182.62
401.734	2147.62
401.958	2236.62
402.182	2252.62
402.406	2293.62
402.63	2349.62
402.854	2338.62
403.078	2287.62
403.302	2364.62
403.526	2430.62
403.75	2382.62
403.974	2407.62
404.198	2353.62
404.422	2379.62
404.645	2405.62
404.869	2378.62
405.093	2444.62
405.317	2519.62
405.541	2578.62
405.765	2444.62
405.988	2427.62
406.212	2514.62
406.436	2636.62
406.66	2665.62
406.883	2583.62
407.107	2759.62
407.331	2919.62
407.555	3211.62
407.778	3156.62
408.002	2825.62
408.226	2624.62
408.449	2549.62
408.673	2558.62
408.896	2655.62
409.12	2750.62
409.344	2575.62
409.567	2418.62
409.791	2327.62
410.014	2283.62
410.238	2291.62
410.461	2308.62
410.685	2360.62
410.908	2371.62
411.132	2500.62
411.355	2599.62
411.578	2506.62
411.802	2286.62
412.025	2229.62
412.249	2241.62
412.472	2273.62
412.695	2225.62
412.919	2149.62
413.142	2155.62
413.365	2147.62
413.589	2199.62
413.812	2171.62
414.035	2095.62
414.258	2113.62
414.482	2095.62
414.705	2110.62
414.928	2101.62
415.151	2133.62
415.374	2158.62
415.597	2093.62
415.821	2131.62
416.044	2120.62
416.267	2197.62
416.49	2137.62
416.713	2116.62
416.936	2139.62
417.159	2122.62
417.382	2173.62
417.605	2194.62
417.828	2266.62
418.051	2354.62
418.274	2277.62
418.497	2185.62
418.72	2218.62
418.943	2222.62
419.166	2287.62
419.389	2380.62
419.611	2384.62
419.834	2311.62
420.057	2351.62
420.28	2293.62
420.503	2239.62
420.726	2209.62
420.948	2267.62
421.171	2482.62
421.394	2573.62
421.617	2344.62
421.839	2243.62
422.062	2234.62
422.285	2390.62
422.507	2585.62
422.73	2866.62
422.953	2675.62
423.175	2458.62
423.398	2403.62
423.621	2421.62
423.843	2527.62
424.066	2503.62
424.288	2483.62
424.511	2506.62
424.733	2810.62
424.956	3045.62
425.178	2925.62
425.401	2929.62
425.623	2981.62
425.846	2553.62
426.068	2409.62
426.291	2371.62
426.513	2416.62
426.735	2443.62
426.958	2604.62
427.18	3019.62
427.402	3490.62
427.625	3783.62
427.847	3291.62
428.069	2669.62
428.292	2421.62
428.514	2288.62
428.736	2237.62
428.958	2180.62
429.181	2128.62
429.403	2110.62
429.625	2222.62
429.847	2351.62
430.069	2647.62
430.292	2547.62
430.514	2241.62
430.736	2214.62
430.958	2129.62
431.18	2066.62
431.402	2032.62
431.624	2035.62
431.846	2054.62
432.068	2055.62
432.29	2090.62
432.512	2112.62
432.734	2169.62
432.956	2132.62
433.178	2113.62
433.4	2139.62
433.622	2049.62
433.844	2049.62
434.066	2022.62
434.287	2042.62
434.509	2109.62
434.731	2169.62
434.953	2226.62
435.175	2355.62
435.397	2433.62
435.618	2456.62
435.84	2610.62
436.062	2939.62
436.284	3090.62
436.505	2612.62
436.727	2377.62
436.949	2219.62
437.17	2152.62
437.392	2185.62
437.614	2253.62
437.835	2440.62
438.057	2895.62
438.278	3193.62
438.5	3199.62
438.721	3468.62
438.943	3187.62
439.165	2550.62
439.386	2434.62
439.608	2419.62
439.829	2457.62
440.05	2657.62
440.272	2795.62
440.493	2618.62
440.715	2373.62
440.936	2259.62
441.158	2284.62
441.379	2279.62
441.6	2403.62
441.822	2483.62
442.043	2636.62
442.264	3042.62
442.486	3021.62
442.707	2605.62
442.928	2504.62
443.149	2627.62
443.371	2739.62
443.592	2868.62
443.813	3259.62
444.034	3296.62
444.255	2789.62
444.476	2566.62
444.698	2575.62
444.919	2585.62
445.14	2720.62
445.361	2678.62
445.582	2744.62
445.803	3117.62
446.024	3501.62
446.245	3322.62
446.466	2967.62
446.687	2559.62
446.908	2378.62
447.129	2178.62
447.35	2178.62
447.571	2099.62
447.792	2103.62
448.013	2137.62
448.234	2269.62
448.455	2514.62
448.675	2993.62
448.896	3277.62
449.117	2661.62
449.338	2674.62
449.559	3123.62
449.779	3418.62
450	2704.62
450.221	2349.62
450.442	2157.62
450.662	2170.62
450.883	2176.62
451.104	2248.62
451.324	2183.62
451.545	2089.62
451.766	1926.62
451.986	1901.62
452.207	1896.62
452.428	1937.62
452.648	1945.62
452.869	1938.62
453.089	2011.62
453.31	2042.62
453.53	1934.62
453.751	1911.62
453.971	1935.62
454.192	2050.62
454.412	1951.62
454.633	1892.62
454.853	1860.62
455.073	1870.62
455.294	2069.62
455.514	2301.62
455.734	2193.62
455.955	1896.62
456.175	1835.62
456.395	1751.62
456.616	1738.62
456.836	1707.62
457.056	1739.62
457.276	1677.62
457.497	1762.62
457.717	1738.62
457.937	1808.62
458.157	1821.62
458.377	1869.62
458.598	2020.62
458.818	2401.62
459.038	2815.62
459.258	2730.62
459.478	2256.62
459.698	2096.62
459.918	2065.62
460.138	2078.62
460.358	2135.62
460.578	2119.62
460.798	2176.62
461.018	2148.62
461.238	2082.62
461.458	2081.62
461.678	2070.62
461.898	2122.62
462.118	2111.62
462.338	2198.62
462.558	2209.62
462.777	2294.62
462.997	2335.62
463.217	2470.62
463.437	2446.62
463.657	2351.62
463.876	2273.62
464.096	2319.62
464.316	2296.62
464.536	2387.62
464.755	2340.62
464.975	2327.62
465.195	2678.62
465.414	2952.62
465.634	2474.62
465.854	2175.62
466.073	2061.62
466.293	1968.62
466.512	1861.62
466.732	1889.62
466.951	1889.62
467.171	1847.62
467.391	1935.62
467.61	2001.62
467.829	2013.62
468.049	1948.62
468.268	1896.62
468.488	1869.62
468.707	1819.62
468.927	1804.62
469.146	1806.62
469.365	1882.62
469.585	1847.62
469.804	1937.62
470.023	2032.62
470.243	2014.62
470.462	2054.62
470.681	2128.62
470.901	2074.62
471.12	1984.62
471.339	1957.62
471.558	2008.62
471.777	1942.62
471.997	1869.62
472.216	1807.62
472.435	1828.62
472.654	1821.62
472.873	1802.62
473.092	1850.62
473.311	1847.62
473.53	1846.62
473.749	1937.62
473.968	2187.62
474.187	2629.62
474.406	2597.62
474.625	2095.62
474.844	1996.62
475.063	1897.62
475.282	1861.62
475.501	1941.62
475.72	1942.62
475.939	1945.62
476.158	1944.62
476.377	1917.62
476.596	1944.62
476.814	2010.62
477.033	2031.62
477.252	1995.62
477.471	2043.62
477.69	2033.62
477.908	2073.62
478.127	2113.62
478.346	2114.62
478.564	2137.62
478.783	2223.62
479.002	2258.62
479.22	2287.62
479.439	2322.62
479.658	2431.62
479.876	2476.62
480.095	2453.62
480.313	2662.62
480.532	2570.62
480.751	2501.62
480.969	2511.62
481.188	2460.62
481.406	2369.62
481.624	2323.62
481.843	2254.62
482.061	2201.62
482.28	2204.62
482.498	2182.62
482.717	2193.62
482.935	2169.62
483.153	2206.62
483.372	2171.62
483.59	2218.62
483.808	2207.62
484.027	2207.62
484.245	2187.62
484.463	2204.62
484.681	2226.62
484.9	2262.62
485.118	2260.62
485.336	2285.62
485.554	2311.62
485.772	2310.62
485.99	2314.62
486.209	2294.62
486.427	2391.62
486.645	2440.62
486.863	2522.62
487.081	2501.62
487.299	2433.62
487.517	2407.62
487.735	2388.62
487.953	2381.62
488.171	2369.62
488.389	2372.62
488.607	2397.62
488.825	2390.62
489.043	2421.62
489.261	2463.62
489.479	2421.62
489.696	2443.62
489.914	2448.62
490.132	2434.62
490.35	2512.62
490.568	2565.62
490.786	2624.62
491.003	2669.62
491.221	2734.62
491.439	2776.62
491.657	2833.62
491.874	2829.62
492.092	2828.62
492.31	2886.62
492.527	2855.62
492.745	2855.62
492.963	2853.62
493.18	2842.62
493.398	2874.62
493.615	2925.62
493.833	2987.62
494.05	2954.62
494.268	2923.62
494.485	2888.62
494.703	2904.62
494.92	2918.62
495.138	2952.62
495.355	2965.62
495.573	2917.62
495.79	2891.62
496.008	2928.62
496.225	2871.62
496.442	2875.62
496.66	2905.62
496.877	2969.62
497.094	2882.62
497.312	2970.62
497.529	3045.62
497.746	3144.62
497.963	3135.62
498.181	3362.62
498.398	3340.62
498.615	3359.62
498.832	3486.62
499.049	3546.62
499.267	3699.62
499.484	3903.62
499.701	4065.62
499.918	4313.62
500.135	4557.62
500.352	4910.62
500.569	4998.62
500.786	4921.62
501.003	4741.62
501.22	4556.62
501.437	4385.62
501.654	4287.62
501.871	4109.62
502.088	3902.62
502.305	3625.62
502.522	3443.62
502.739	3359.62
502.956	3263.62
503.172	3084.62
503.389	3066.62
503.606	3076.62
503.823	3049.62
504.04	3001.62
504.256	2959.62
504.473	2984.62
504.69	2957.62
504.907	2919.62
505.123	2863.62
505.34	2823.62
505.557	2810.62
505.773	2801.62
505.99	2797.62
506.207	2751.62
506.423	2785.62
506.64	2723.62
506.856	2733.62
507.073	2691.62
507.289	2646.62
507.506	2636.62
507.722	2781.62
507.939	2837.62
508.155	2657.62
508.372	2572.62
508.588	2553.62
508.805	2533.62
509.021	2573.62
509.238	2657.62
509.454	2724.62
509.67	2629.62
509.887	2510.62
510.103	2507.62
510.319	2594.62
510.536	3046.62
510.752	5088.62
510.968	3519.62
511.184	2453.62
511.401	2355.62
511.617	2347.62
511.833	2299.62
512.049	2270.62
512.265	2319.62
512.481	2303.62
512.698	2326.62
512.914	2281.62
513.13	2250.62
513.346	2290.62
513.562	2314.62
513.778	2361.62
513.994	2347.62
514.21	2447.62
514.426	2581.62
514.642	2846.62
514.858	2884.62
515.074	3133.62
515.29	4044.62
515.506	6261.62
515.721	4344.62
515.937	2944.62
516.153	2763.62
516.369	2619.62
516.585	2570.62
516.801	2555.62
517.016	2580.62
517.232	2583.62
517.448	2684.62
517.664	2685.62
517.879	2634.62
518.095	2650.62
518.311	2545.62
518.527	2552.62
518.742	2525.62
518.958	2446.62
519.173	2417.62
519.389	2365.62
519.605	2411.62
519.82	2423.62
520.036	2478.62
520.251	2633.62
520.467	2756.62
520.682	2679.62
520.898	2653.62
521.113	2734.62
521.329	3063.62
521.544	3567.62
521.76	4818.62
521.975	8513.62
522.19	7075.62
522.406	3620.62
522.621	2685.62
522.836	2466.62
523.052	2307.62
523.267	2247.62
523.482	2161.62
523.698	2066.62
523.913	2119.62
524.128	2104.62
524.343	1985.62
524.559	1962.62
524.774	1941.62
524.989	1952.62
525.204	1961.62
525.419	2051.62
525.634	1905.62
525.849	1870.62
526.064	1867.62
526.28	1846.62
526.495	1835.62
526.71	1833.62
526.925	1820.62
527.14	1797.62
527.355	1822.62
527.57	1755.62
527.785	1774.62
527.999	1745.62
528.214	1789.62
528.429	1809.62
528.644	1805.62
528.859	1826.62
529.074	1889.62
529.289	2028.62
529.503	2515.62
529.718	2267.62
529.933	1973.62
530.148	1863.62
530.363	1824.62
530.577	1794.62
530.792	1786.62
531.007	1776.62
531.221	1777.62
531.436	1787.62
531.651	1759.62
531.865	1759.62
532.08	1692.62
532.295	1736.62
532.509	1717.62
532.724	1736.62
532.938	1739.62
533.153	1710.62
533.367	1723.62
533.582	1735.62
533.796	1694.62
534.011	1693.62
534.225	1694.62
534.44	1722.62
534.654	1667.62
534.868	1705.62
535.083	1697.62
535.297	1707.62
535.511	1702.62
535.726	1747.62
535.94	1719.62
536.154	1710.62
536.369	1688.62
536.583	1665.62
536.797	1637.62
537.011	1637.62
537.225	1640.62
537.44	1649.62
537.654	1637.62
537.868	1630.62
538.082	1649.62
538.296	1687.62
538.51	1673.62
538.724	1673.62
538.938	1689.62
539.153	1673.62
539.367	1749.62
539.581	1733.62
539.795	1648.62
540.009	1623.62
540.222	1633.62
540.436	1671.62
540.65	1677.62
540.864	1672.62
541.078	1706.62
541.292	1678.62
541.506	1644.62
541.72	1623.62
541.934	1665.62
542.147	1651.62
542.361	1609.62
542.575	1593.62
542.789	1600.62
543.002	1611.62
543.216	1645.62
543.43	1641.62
543.644	1646.62
543.857	1629.62
544.071	1637.62
544.285	1660.62
544.498	1665.62
544.712	1610.62
544.925	1647.62
545.139	1621.62
545.352	1591.62
545.566	1565.62
545.779	1577.62
545.993	1614.62
546.206	1643.62
546.42	1624.62
546.633	1599.62
546.847	1575.62
547.06	1523.62
547.274	1562.62
547.487	1559.62
547.7	1540.62
547.914	1581.62
548.127	1559.62
548.34	1588.62
548.554	1574.62
548.767	1583.62
548.98	1627.62
549.193	1601.62
549.407	1539.62
549.62	1594.62
549.833	1597.62
550.046	1593.62
550.259	1583.62
550.473	1550.62
550.686	1534.62
550.899	1523.62
551.112	1510.62
551.325	1533.62
551.538	1527.62
551.751	1520.62
551.964	1520.62
552.177	1529.62
552.39	1577.62
552.603	1578.62
552.816	1615.62
553.029	1629.62
553.242	1640.62
553.455	1673.62
553.667	1722.62
553.88	1773.62
554.093	1669.62
554.306	1665.62
554.519	1621.62
554.732	1559.62
554.944	1551.62
555.157	1498.62
555.37	1497.62
555.583	1510.62
555.795	1490.62
556.008	1443.62
556.221	1436.62
556.433	1414.62
556.646	1379.62
556.859	1378.62
557.071	1423.62
557.284	1362.62
557.496	1383.62
557.709	1370.62
557.921	1402.62
558.134	1362.62
558.346	1334.62
558.559	1335.62
558.771	1326.62
558.984	1336.62
559.196	1304.62
559.409	1337.62
559.621	1330.62
559.833	1308.62
560.046	1338.62
560.258	1312.62
560.47	1306.62
560.683	1320.62
560.895	1342.62
561.107	1344.62
561.32	1320.62
561.532	1290.62
561.744	1331.62
561.956	1319.62
562.168	1294.62
562.381	1291.62
562.593	1299.62
562.805	1318.62
563.017	1343.62
563.229	1347.62
563.441	1314.62
563.653	1323.62
563.865	1354.62
564.077	1342.62
564.289	1370.62
564.501	1351.62
564.713	1365.62
564.925	1413.62
565.137	1497.62
565.349	1475.62
565.561	1478.62
565.773	1513.62
565.985	1569.62
566.197	1638.62
566.408	1703.62
566.62	1768.62
566.832	1824.62
567.044	1865.62
567.255	1857.62
567.467	1893.62
567.679	1974.62
567.891	2059.62
568.102	2041.62
568.314	1962.62
568.526	1822.62
568.737	1720.62
568.949	1632.62
569.161	1553.62
569.372	1455.62
569.584	1431.62
569.795	1373.62
570.007	1397.62
570.218	1621.62
570.43	1499.62
570.641	1331.62
570.853	1297.62
571.064	1336.62
571.276	1310.62
571.487	1274.62
571.698	1238.62
571.91	1193.62
572.121	1168.62
572.333	1196.62
572.544	1189.62
572.755	1168.62
572.966	1129.62
573.178	1138.62
573.389	1127.62
573.6	1134.62
573.811	1102.62
574.023	1071.62
574.234	1075.62
574.445	1136.62
574.656	1085.62
574.867	1077.62
575.078	1103.62
575.289	1088.62
575.501	1057.62
575.712	1052.62
575.923	1049.62
576.134	1068.62
576.345	1061.62
576.556	1052.62
576.767	1063.62
576.978	1075.62
577.188	1072.62
577.399	1053.62
577.61	1042.62
577.821	1027.62
578.032	1039.62
578.243	1189.62
578.454	2152.62
578.665	1372.62
578.875	1053.62
579.086	1009.62
579.297	974.62
579.508	958.62
579.718	979.62
579.929	981.62
580.14	977.62
580.35	984.62
580.561	961.62
580.772	938.62
580.982	960.62
581.193	949.62
581.403	942.62
581.614	933.62
581.825	919.62
582.035	947.62
582.246	922.62
582.456	905.62
582.667	941.62
582.877	919.62
583.087	933.62
583.298	929.62
583.508	935.62
583.719	909.62
583.929	939.62
584.139	935.62
584.35	914.62
584.56	931.62
584.77	933.62
584.981	944.62
585.191	913.62
585.401	930.62
585.611	936.62
585.821	906.62
586.032	929.62
586.242	879.62
586.452	895.62
586.662	888.62
586.872	876.62
587.082	901.62
587.292	897.62
587.502	903.62
587.713	895.62
587.923	886.62
588.133	849.62
588.343	909.62
588.553	907.62
588.762	915.62
588.972	909.62
589.182	1063.62
589.392	1037.62
589.602	951.62
589.812	1010.62
590.022	961.62
590.232	910.62
590.441	914.62
590.651	912.62
590.861	904.62
591.071	931.62
591.281	922.62
591.49	922.62
591.7	928.62
591.91	952.62
592.119	953.62
592.329	982.62
592.539	1020.62
592.748	997.62
592.958	1041.62
593.167	1031.62
593.377	1071.62
593.587	1089.62
593.796	1078.62
594.006	1067.62
594.215	1056.62
594.424	1077.62
594.634	1047.62
594.843	1029.62
595.053	992.62
595.262	963.62
595.472	961.62
595.681	937.62
595.89	904.62
596.1	907.62
596.309	907.62
596.518	884.62
596.727	879.62
596.937	869.62
597.146	846.62
597.355	843.62
597.564	881.62
597.774	825.62
597.983	813.62
598.192	825.62
598.401	816.62
598.61	830.62
598.819	808.62
599.028	795.62
599.237	797.62
599.446	783.62
599.655	789.62
599.864	782.62
600.073	793.62
600.282	750.62
600.491	800.62
600.7	759.62
600.909	771.62
601.118	786.62
601.327	808.62
601.536	763.62
601.745	767.62
601.953	771.62
602.162	810.62
602.371	770.62
602.58	774.62
602.789	775.62
602.997	756.62
603.206	766.62
603.415	773.62
603.623	750.62
603.832	764.62
604.041	765.62
604.249	742.62
604.458	732.62
604.666	718.62
604.875	726.62
605.084	722.62
605.292	738.62
605.501	746.62
605.709	716.62
605.918	711.62
606.126	742.62
606.334	741.62
606.543	740.62
606.751	738.62
606.96	731.62
607.168	733.62
607.376	749.62
607.585	738.62
607.793	730.62
608.001	711.62
608.21	738.62
608.418	727.62
608.626	743.62
608.834	744.62
609.043	721.62
609.251	718.62
609.459	717.62
609.667	718.62
609.875	738.62
610.083	735.62
610.291	725.62
610.499	713.62
610.707	718.62
610.916	712.62
611.124	744.62
611.332	730.62
611.54	756.62
611.748	764.62
611.955	755.62
612.163	735.62
612.371	696.62
612.579	707.62
612.787	701.62
612.995	684.62
613.203	718.62
613.411	698.62
613.618	717.62
613.826	705.62
614.034	717.62
614.242	708.62
614.449	691.62
614.657	726.62
614.865	713.62
615.072	697.62
615.28	701.62
615.488	720.62
615.695	718.62
615.903	716.62
616.111	714.62
616.318	725.62
616.526	710.62
616.733	732.62
616.941	718.62
617.148	718.62
617.356	691.62
617.563	713.62
617.771	705.62
617.978	694.62
618.185	727.62
618.393	703.62
618.6	712.62
618.807	719.62
619.015	732.62
619.222	691.62
619.429	694.62
619.637	678.62
619.844	685.62
620.051	699.62
620.258	694.62
620.466	664.62
620.673	638.62
620.88	683.62
621.087	654.62
621.294	665.62
621.501	669.62
621.708	662.62
621.915	678.62
622.122	666.62
622.329	661.62
622.536	673.62
622.743	675.62
622.95	621.62
623.157	649.62
623.364	667.62
623.571	637.62
623.778	642.62
623.985	637.62
624.192	636.62
624.399	651.62
624.606	655.62
624.812	617.62
625.019	616.62
625.226	627.62
625.433	632.62
625.639	601.62
625.846	585.62
626.053	588.62
626.259	595.62
626.466	589.62
626.673	583.62
626.879	564.62
627.086	568.62
627.293	600.62
627.499	586.62
627.706	603.62
627.912	593.62
628.119	609.62
628.325	605.62
628.532	593.62
628.738	587.62
628.945	571.62
629.151	563.62
629.357	578.62
629.564	566.62
629.77	575.62
629.976	562.62
630.183	559.62
630.389	551.62
630.595	566.62
630.802	565.62
631.008	568.62
631.214	559.62
631.42	535.62
631.627	541.62
631.833	534.62
632.039	509.62
632.245	553.62
632.451	542.62
632.657	525.62
632.863	515.62
633.069	528.62
633.275	522.62
633.481	525.62
633.688	526.62
633.893	513.62
634.099	502.62
634.305	505.62
634.511	501.62
634.717	503.62
634.923	509.62
635.129	490.62
635.335	491.62
635.541	475.62
635.747	509.62
635.952	507.62
636.158	494.62
636.364	490.62
636.57	488.62
636.775	470.62
636.981	495.62
637.187	490.62
637.392	497.62
637.598	461.62
637.804	494.62
638.009	490.62
638.215	501.62
638.421	476.62
638.626	486.62
638.832	474.62
639.037	475.62
639.243	465.62
639.448	448.62
639.654	459.62
639.859	459.62
640.065	464.62
640.27	465.62
640.475	440.62
640.681	479.62
640.886	470.62
641.091	457.62
641.297	480.62
641.502	440.62
641.707	454.62
641.913	436.62
642.118	434.62
642.323	432.62
642.528	437.62
642.733	443.62
642.939	422.62
643.144	435.62
643.349	440.62
643.554	450.62
643.759	444.62
643.964	428.62
644.169	419.62
644.374	451.62
644.579	418.62
644.784	428.62
644.989	449.62
645.194	450.62
645.399	431.62
645.604	421.62
645.809	431.62
646.014	415.62
646.219	446.62
646.423	445.62
646.628	438.62
646.833	441.62
647.038	441.62
647.243	430.62
647.447	449.62
647.652	445.62
647.857	441.62
648.062	474.62
648.266	458.62
648.471	471.62
648.676	479.62
648.88	466.62
649.085	450.62
649.289	476.62
649.494	469.62
649.698	527.62
649.903	496.62
650.107	467.62
650.312	418.62
650.516	421.62
650.721	411.62
650.925	415.62
651.13	408.62
651.334	379.62
651.539	364.62
651.743	365.62
651.947	377.62
652.152	357.62
652.356	364.62
652.56	343.62
652.764	344.62
652.969	345.62
653.173	342.62
653.377	360.62
653.581	329.62
653.785	331.62
653.99	346.62
654.194	307.62
654.398	327.62
654.602	315.62
654.806	322.62
655.01	349.62
655.214	331.62
655.418	316.62
655.622	301.62
655.826	315.62
656.03	304.62
656.234	345.62
656.438	347.62
656.642	341.62
656.846	302.62
657.049	303.62
657.253	258.62
657.457	279.62
657.661	249.62
657.865	241.62
658.068	230.62
658.272	211.62
658.476	203.62
658.68	206.62
658.883	185.62
659.087	176.62
659.291	170.62
659.494	177.62
659.698	159.62
659.901	152.62
660.105	149.62
660.309	151.62
660.512	141.62
660.716	123.62
660.919	145.62
661.123	143.62
661.326	118.62
661.53	119.62
661.733	121.62
661.936	127.62
662.14	115.62
662.343	124.62
662.546	91.62
662.75	96.62
662.953	113.62
663.156	102.62
663.36	110.62
663.563	98.62
663.766	85.62
663.969	78.62
664.173	88.62
664.376	86.62
664.579	99.62
664.782	89.62
664.985	103.62
665.188	86.62
665.391	86.62
665.594	74.62
665.797	83.62
666	81.62
666.203	89.62
666.406	87.62
666.609	81.62
666.812	93.62
667.015	74.62
667.218	99.62
667.421	61.62
667.624	74.62
667.827	83.62
668.03	80.62
668.232	74.62
668.435	78.62
668.638	76.62
668.841	82.62
669.043	78.62
669.246	64.62
669.449	89.62
669.651	81.62
669.854	65.62
670.057	78.62
670.259	78.62
670.462	86.62
670.665	78.62
670.867	94.62
671.07	87.62
671.272	77.62
671.475	77.62
671.677	94.62
671.88	81.62
672.082	83.62
672.284	90.62
672.487	64.62
672.689	105.62
672.892	88.62
