Data from copper.mounting.energy7_HRD10591_16-51-02-544.txt Node
Date: Thu Jul 11 16:51:02 EDT 2019
User: cochatt
Spectrometer: HR+D1059
Trigger mode: 1
Integration Time (sec): 1.000000E-1
Scans to average: 1
Electric dark correction enabled: true
Nonlinearity correction enabled: false
Boxcar width: 0
XAxis mode: Wavelengths
Number of Pixels in Spectrum: 2048
>>>>>Begin Spectral Data<<<<<
223.165	-16.31
223.4	-16.31
223.635	-16.31
223.869	-12.31
224.104	-19.31
224.338	-11.31
224.573	-19.31
224.808	2.69
225.042	-7.31
225.277	11.69
225.511	-14.31
225.746	-1.31
225.98	8.69
226.215	4.69
226.449	9.69
226.683	22.69
226.918	17.69
227.152	23.69
227.387	31.69
227.621	25.69
227.856	46.69
228.09	33.69
228.324	41.69
228.559	58.69
228.793	80.69
229.027	155.69
229.262	202.69
229.496	216.69
229.73	254.69
229.964	297.69
230.199	227.69
230.433	180.69
230.667	198.69
230.901	187.69
231.136	183.69
231.37	207.69
231.604	183.69
231.838	187.69
232.072	200.69
232.306	197.69
232.541	196.69
232.775	210.69
233.009	188.69
233.243	205.69
233.477	196.69
233.711	208.69
233.945	208.69
234.179	215.69
234.413	211.69
234.647	220.69
234.881	259.69
235.115	231.69
235.349	235.69
235.583	223.69
235.817	235.69
236.051	249.69
236.285	250.69
236.519	245.69
236.753	255.69
236.987	309.69
237.221	368.69
237.455	446.69
237.689	369.69
237.922	287.69
238.156	292.69
238.39	277.69
238.624	268.69
238.858	259.69
239.091	266.69
239.325	249.69
239.559	244.69
239.793	279.69
240.027	264.69
240.26	313.69
240.494	347.69
240.728	332.69
240.961	325.69
241.195	302.69
241.429	288.69
241.662	259.69
241.896	299.69
242.13	271.69
242.363	295.69
242.597	281.69
242.83	308.69
243.064	287.69
243.298	319.69
243.531	322.69
243.765	291.69
243.998	316.69
244.232	303.69
244.465	318.69
244.699	316.69
244.932	320.69
245.166	315.69
245.399	318.69
245.633	312.69
245.866	328.69
246.099	316.69
246.333	343.69
246.566	348.69
246.8	330.69
247.033	355.69
247.266	341.69
247.5	367.69
247.733	375.69
247.966	396.69
248.2	389.69
248.433	384.69
248.666	408.69
248.899	451.69
249.133	461.69
249.366	463.69
249.599	451.69
249.832	431.69
250.066	385.69
250.299	404.69
250.532	422.69
250.765	478.69
250.998	503.69
251.231	530.69
251.465	499.69
251.698	468.69
251.931	462.69
252.164	473.69
252.397	467.69
252.63	469.69
252.863	483.69
253.096	532.69
253.329	530.69
253.562	543.69
253.795	524.69
254.028	509.69
254.261	525.69
254.494	536.69
254.727	594.69
254.96	672.69
255.193	647.69
255.426	605.69
255.659	555.69
255.892	537.69
256.124	516.69
256.357	507.69
256.59	463.69
256.823	485.69
257.056	505.69
257.289	482.69
257.521	481.69
257.754	497.69
257.987	511.69
258.22	495.69
258.452	483.69
258.685	491.69
258.918	503.69
259.151	511.69
259.383	538.69
259.616	537.69
259.849	541.69
260.081	574.69
260.314	628.69
260.547	618.69
260.779	599.69
261.012	582.69
261.244	565.69
261.477	538.69
261.71	545.69
261.942	527.69
262.175	533.69
262.407	533.69
262.64	524.69
262.872	515.69
263.105	519.69
263.337	513.69
263.57	520.69
263.802	543.69
264.035	529.69
264.267	524.69
264.499	528.69
264.732	528.69
264.964	548.69
265.197	541.69
265.429	513.69
265.661	517.69
265.894	536.69
266.126	544.69
266.358	568.69
266.591	555.69
266.823	545.69
267.055	564.69
267.287	586.69
267.52	578.69
267.752	571.69
267.984	576.69
268.216	579.69
268.448	606.69
268.681	612.69
268.913	635.69
269.145	688.69
269.377	695.69
269.609	693.69
269.841	689.69
270.073	708.69
270.306	742.69
270.538	788.69
270.77	789.69
271.002	813.69
271.234	755.69
271.466	776.69
271.698	811.69
271.93	807.69
272.162	789.69
272.394	787.69
272.626	771.69
272.858	707.69
273.09	719.69
273.322	684.69
273.553	675.69
273.785	656.69
274.017	663.69
274.249	680.69
274.481	673.69
274.713	671.69
274.945	688.69
275.176	670.69
275.408	665.69
275.64	675.69
275.872	684.69
276.104	683.69
276.335	684.69
276.567	691.69
276.799	733.69
277.031	763.69
277.262	784.69
277.494	784.69
277.726	770.69
277.957	741.69
278.189	727.69
278.421	698.69
278.652	709.69
278.884	681.69
279.115	698.69
279.347	704.69
279.579	683.69
279.81	698.69
280.042	689.69
280.273	714.69
280.505	709.69
280.736	679.69
280.968	689.69
281.199	705.69
281.431	741.69
281.662	713.69
281.894	708.69
282.125	701.69
282.356	740.69
282.588	786.69
282.819	796.69
283.051	724.69
283.282	722.69
283.513	738.69
283.745	745.69
283.976	771.69
284.207	747.69
284.439	739.69
284.67	757.69
284.901	743.69
285.132	737.69
285.364	765.69
285.595	741.69
285.826	764.69
286.057	787.69
286.288	750.69
286.52	751.69
286.751	741.69
286.982	745.69
287.213	769.69
287.444	768.69
287.675	776.69
287.906	801.69
288.138	813.69
288.369	787.69
288.6	830.69
288.831	818.69
289.062	807.69
289.293	761.69
289.524	795.69
289.755	783.69
289.986	813.69
290.217	785.69
290.448	788.69
290.679	819.69
290.91	816.69
291.141	785.69
291.371	813.69
291.602	813.69
291.833	779.69
292.064	797.69
292.295	778.69
292.526	794.69
292.757	794.69
292.987	786.69
293.218	798.69
293.449	795.69
293.68	771.69
293.91	777.69
294.141	777.69
294.372	798.69
294.603	777.69
294.833	783.69
295.064	799.69
295.295	823.69
295.525	787.69
295.756	797.69
295.987	812.69
296.217	848.69
296.448	847.69
296.679	828.69
296.909	814.69
297.14	818.69
297.37	822.69
297.601	819.69
297.831	832.69
298.062	814.69
298.292	830.69
298.523	836.69
298.753	837.69
298.984	848.69
299.214	866.69
299.445	850.69
299.675	859.69
299.905	847.69
300.136	859.69
300.366	855.69
300.597	850.69
300.827	878.69
301.057	909.69
301.288	894.69
301.518	891.69
301.748	859.69
301.979	914.69
302.209	906.69
302.439	884.69
302.669	909.69
302.9	896.69
303.13	897.69
303.36	914.69
303.59	893.69
303.82	926.69
304.051	916.69
304.281	906.69
304.511	907.69
304.741	867.69
304.971	868.69
305.201	875.69
305.431	894.69
305.661	891.69
305.891	889.69
306.121	919.69
306.352	908.69
306.582	927.69
306.812	868.69
307.042	888.69
307.272	908.69
307.502	900.69
307.731	878.69
307.961	893.69
308.191	896.69
308.421	888.69
308.651	886.69
308.881	898.69
309.111	935.69
309.341	915.69
309.571	920.69
309.8	923.69
310.03	946.69
310.26	979.69
310.49	977.69
310.72	970.69
310.949	995.69
311.179	984.69
311.409	1004.69
311.639	963.69
311.868	980.69
312.098	986.69
312.328	1012.69
312.557	1030.69
312.787	1036.69
313.017	1041.69
313.246	1000.69
313.476	990.69
313.706	998.69
313.935	1017.69
314.165	1036.69
314.394	1055.69
314.624	1051.69
314.853	1011.69
315.083	1010.69
315.312	1008.69
315.542	1001.69
315.771	1004.69
316.001	984.69
316.23	986.69
316.46	971.69
316.689	976.69
316.919	1012.69
317.148	1027.69
317.377	1026.69
317.607	999.69
317.836	991.69
318.065	1000.69
318.295	998.69
318.524	993.69
318.753	967.69
318.983	966.69
319.212	1013.69
319.441	984.69
319.67	976.69
319.9	983.69
320.129	999.69
320.358	995.69
320.587	984.69
320.816	1033.69
321.046	1045.69
321.275	1051.69
321.504	1005.69
321.733	1020.69
321.962	1024.69
322.191	1049.69
322.42	1063.69
322.649	1079.69
322.878	1106.69
323.108	1116.69
323.337	1140.69
323.566	1182.69
323.795	1199.69
324.024	1359.69
324.253	1531.69
324.482	2000.69
324.71	2864.69
324.939	3642.69
325.168	2884.69
325.397	1684.69
325.626	1331.69
325.855	1228.69
326.084	1188.69
326.313	1197.69
326.542	1201.69
326.77	1295.69
326.999	1443.69
327.228	1858.69
327.457	2491.69
327.686	2692.69
327.914	1905.69
328.143	1443.69
328.372	1320.69
328.6	1284.69
328.829	1286.69
329.058	1323.69
329.287	1331.69
329.515	1236.69
329.744	1212.69
329.972	1213.69
330.201	1207.69
330.43	1265.69
330.658	1311.69
330.887	1372.69
331.115	1364.69
331.344	1245.69
331.572	1259.69
331.801	1242.69
332.03	1226.69
332.258	1261.69
332.486	1217.69
332.715	1226.69
332.943	1255.69
333.172	1296.69
333.4	1289.69
333.629	1327.69
333.857	1308.69
334.085	1305.69
334.314	1301.69
334.542	1325.69
334.771	1274.69
334.999	1286.69
335.227	1281.69
335.455	1280.69
335.684	1237.69
335.912	1254.69
336.14	1204.69
336.369	1218.69
336.597	1249.69
336.825	1220.69
337.053	1217.69
337.281	1208.69
337.51	1208.69
337.738	1193.69
337.966	1181.69
338.194	1180.69
338.422	1198.69
338.65	1162.69
338.878	1156.69
339.106	1147.69
339.334	1172.69
339.562	1141.69
339.79	1128.69
340.018	1135.69
340.246	1155.69
340.474	1147.69
340.702	1136.69
340.93	1094.69
341.158	1130.69
341.386	1109.69
341.614	1155.69
341.842	1122.69
342.07	1105.69
342.298	1096.69
342.526	1083.69
342.754	1129.69
342.981	1095.69
343.209	1104.69
343.437	1188.69
343.665	1199.69
343.893	1212.69
344.12	1259.69
344.348	1188.69
344.576	1190.69
344.804	1183.69
345.031	1168.69
345.259	1158.69
345.487	1122.69
345.714	1133.69
345.942	1097.69
346.17	1081.69
346.397	1101.69
346.625	1031.69
346.853	1051.69
347.08	1061.69
347.308	1053.69
347.535	1039.69
347.763	1068.69
347.99	1080.69
348.218	1093.69
348.445	1060.69
348.673	1082.69
348.9	1039.69
349.128	1044.69
349.355	1018.69
349.583	1031.69
349.81	1031.69
350.037	986.69
350.265	1022.69
350.492	1048.69
350.72	992.69
350.947	1044.69
351.174	1044.69
351.402	1061.69
351.629	1060.69
351.856	1039.69
352.083	1049.69
352.311	1029.69
352.538	1068.69
352.765	1034.69
352.992	1030.69
353.22	1042.69
353.447	1043.69
353.674	997.69
353.901	1023.69
354.128	1002.69
354.355	1013.69
354.583	987.69
354.81	1019.69
355.037	993.69
355.264	970.69
355.491	983.69
355.718	993.69
355.945	978.69
356.172	999.69
356.399	957.69
356.626	978.69
356.853	1001.69
357.08	962.69
357.307	1005.69
357.534	1009.69
357.761	1005.69
357.988	1011.69
358.215	1011.69
358.441	998.69
358.668	1005.69
358.895	1029.69
359.122	1029.69
359.349	1025.69
359.576	1028.69
359.802	1091.69
360.029	1109.69
360.256	1116.69
360.483	1048.69
360.709	1023.69
360.936	1028.69
361.163	1052.69
361.39	1049.69
361.616	1021.69
361.843	1026.69
362.07	1034.69
362.296	1012.69
362.523	1029.69
362.749	1023.69
362.976	991.69
363.203	987.69
363.429	1019.69
363.656	962.69
363.882	983.69
364.109	973.69
364.335	1011.69
364.562	1000.69
364.788	979.69
365.015	991.69
365.241	985.69
365.468	998.69
365.694	987.69
365.92	1007.69
366.147	999.69
366.373	994.69
366.599	976.69
366.826	991.69
367.052	988.69
367.278	995.69
367.505	986.69
367.731	1007.69
367.957	995.69
368.184	989.69
368.41	1038.69
368.636	1014.69
368.862	1023.69
369.089	1007.69
369.315	993.69
369.541	1021.69
369.767	1041.69
369.993	1017.69
370.219	1012.69
370.445	1030.69
370.672	1017.69
370.898	1036.69
371.124	1000.69
371.35	1017.69
371.576	1037.69
371.802	1045.69
372.028	988.69
372.254	1016.69
372.48	1029.69
372.706	1046.69
372.932	1061.69
373.158	1090.69
373.384	1027.69
373.61	1029.69
373.835	1042.69
374.061	1018.69
374.287	1031.69
374.513	1044.69
374.739	1057.69
374.965	1082.69
375.191	1090.69
375.416	1095.69
375.642	1073.69
375.868	1070.69
376.094	1032.69
376.319	1009.69
376.545	992.69
376.771	1019.69
376.997	1022.69
377.222	1039.69
377.448	1039.69
377.674	1005.69
377.899	1045.69
378.125	1030.69
378.35	999.69
378.576	991.69
378.802	996.69
379.027	1008.69
379.253	1019.69
379.478	996.69
379.704	1013.69
379.929	1001.69
380.155	1026.69
380.38	1023.69
380.606	1025.69
380.831	1032.69
381.057	1007.69
381.282	1000.69
381.507	1020.69
381.733	993.69
381.958	1034.69
382.184	1027.69
382.409	1056.69
382.634	1039.69
382.86	1041.69
383.085	1074.69
383.31	1051.69
383.535	1096.69
383.761	1089.69
383.986	1141.69
384.211	1077.69
384.436	1131.69
384.662	1133.69
384.887	1142.69
385.112	1139.69
385.337	1151.69
385.562	1147.69
385.787	1167.69
386.013	1176.69
386.238	1181.69
386.463	1221.69
386.688	1147.69
386.913	1170.69
387.138	1129.69
387.363	1183.69
387.588	1178.69
387.813	1139.69
388.038	1108.69
388.263	1172.69
388.488	1136.69
388.713	1171.69
388.938	1155.69
389.163	1139.69
389.387	1167.69
389.612	1159.69
389.837	1136.69
390.062	1171.69
390.287	1162.69
390.512	1137.69
390.736	1170.69
390.961	1172.69
391.186	1165.69
391.411	1235.69
391.636	1243.69
391.86	1247.69
392.085	1245.69
392.31	1252.69
392.534	1246.69
392.759	1225.69
392.984	1205.69
393.208	1216.69
393.433	1200.69
393.658	1175.69
393.882	1187.69
394.107	1155.69
394.331	1193.69
394.556	1205.69
394.78	1237.69
395.005	1222.69
395.229	1182.69
395.454	1251.69
395.678	1260.69
395.903	1303.69
396.127	1355.69
396.352	1301.69
396.576	1262.69
396.801	1237.69
397.025	1232.69
397.249	1275.69
397.474	1257.69
397.698	1291.69
397.922	1299.69
398.147	1369.69
398.371	1358.69
398.595	1369.69
398.82	1415.69
399.044	1507.69
399.268	1562.69
399.492	1746.69
399.717	1901.69
399.941	1890.69
400.165	1825.69
400.389	1785.69
400.613	1601.69
400.837	1484.69
401.062	1428.69
401.286	1416.69
401.51	1407.69
401.734	1424.69
401.958	1432.69
402.182	1431.69
402.406	1412.69
402.63	1441.69
402.854	1452.69
403.078	1497.69
403.302	1552.69
403.526	1525.69
403.75	1527.69
403.974	1537.69
404.198	1517.69
404.422	1533.69
404.645	1525.69
404.869	1487.69
405.093	1519.69
405.317	1552.69
405.541	1609.69
405.765	1517.69
405.988	1524.69
406.212	1532.69
406.436	1579.69
406.66	1604.69
406.883	1626.69
407.107	1718.69
407.331	1829.69
407.555	1973.69
407.778	1908.69
408.002	1819.69
408.226	1681.69
408.449	1633.69
408.673	1601.69
408.896	1652.69
409.12	1793.69
409.344	1691.69
409.567	1544.69
409.791	1485.69
410.014	1488.69
410.238	1468.69
410.461	1464.69
410.685	1517.69
410.908	1515.69
411.132	1599.69
411.355	1636.69
411.578	1578.69
411.802	1460.69
412.025	1454.69
412.249	1455.69
412.472	1468.69
412.695	1412.69
412.919	1416.69
413.142	1411.69
413.365	1400.69
413.589	1415.69
413.812	1379.69
414.035	1378.69
414.258	1350.69
414.482	1372.69
414.705	1381.69
414.928	1395.69
415.151	1406.69
415.374	1388.69
415.597	1364.69
415.821	1370.69
416.044	1357.69
416.267	1388.69
416.49	1367.69
416.713	1353.69
416.936	1382.69
417.159	1376.69
417.382	1381.69
417.605	1395.69
417.828	1413.69
418.051	1450.69
418.274	1407.69
418.497	1414.69
418.72	1445.69
418.943	1413.69
419.166	1479.69
419.389	1560.69
419.611	1528.69
419.834	1491.69
420.057	1458.69
420.28	1432.69
420.503	1408.69
420.726	1430.69
420.948	1472.69
421.171	1550.69
421.394	1595.69
421.617	1432.69
421.839	1450.69
422.062	1435.69
422.285	1505.69
422.507	1589.69
422.73	1767.69
422.953	1640.69
423.175	1564.69
423.398	1503.69
423.621	1474.69
423.843	1581.69
424.066	1567.69
424.288	1551.69
424.511	1600.69
424.733	1747.69
424.956	1876.69
425.178	1803.69
425.401	1837.69
425.623	1801.69
425.846	1532.69
426.068	1540.69
426.291	1510.69
426.513	1453.69
426.735	1517.69
426.958	1614.69
427.18	1799.69
427.402	2068.69
427.625	2130.69
427.847	1816.69
428.069	1561.69
428.292	1454.69
428.514	1387.69
428.736	1403.69
428.958	1401.69
429.181	1316.69
429.403	1333.69
429.625	1358.69
429.847	1469.69
430.069	1569.69
430.292	1528.69
430.514	1374.69
430.736	1359.69
430.958	1351.69
431.18	1334.69
431.402	1300.69
431.624	1279.69
431.846	1300.69
432.068	1318.69
432.29	1338.69
432.512	1320.69
432.734	1339.69
432.956	1285.69
433.178	1323.69
433.4	1318.69
433.622	1308.69
433.844	1292.69
434.066	1340.69
434.287	1314.69
434.509	1304.69
434.731	1334.69
434.953	1414.69
435.175	1470.69
435.397	1517.69
435.618	1507.69
435.84	1543.69
436.062	1770.69
436.284	1861.69
436.505	1546.69
436.727	1451.69
436.949	1386.69
437.17	1343.69
437.392	1315.69
437.614	1386.69
437.835	1451.69
438.057	1636.69
438.278	1845.69
438.5	1845.69
438.721	2003.69
438.943	1859.69
439.165	1566.69
439.386	1486.69
439.608	1423.69
439.829	1464.69
440.05	1529.69
440.272	1542.69
440.493	1512.69
440.715	1433.69
440.936	1405.69
441.158	1380.69
441.379	1423.69
441.6	1467.69
441.822	1526.69
442.043	1622.69
442.264	1845.69
442.486	1806.69
442.707	1598.69
442.928	1509.69
443.149	1548.69
443.371	1582.69
443.592	1729.69
443.813	1943.69
444.034	1973.69
444.255	1727.69
444.476	1657.69
444.698	1610.69
444.919	1596.69
445.14	1700.69
445.361	1618.69
445.582	1603.69
445.803	1818.69
446.024	1918.69
446.245	1870.69
446.466	1716.69
446.687	1529.69
446.908	1457.69
447.129	1361.69
447.35	1319.69
447.571	1347.69
447.792	1336.69
448.013	1340.69
448.234	1355.69
448.455	1463.69
448.675	1791.69
448.896	1947.69
449.117	1635.69
449.338	1617.69
449.559	1877.69
449.779	1983.69
450	1602.69
450.221	1374.69
450.442	1330.69
450.662	1289.69
450.883	1297.69
451.104	1267.69
451.324	1284.69
451.545	1231.69
451.766	1216.69
451.986	1154.69
452.207	1191.69
452.428	1186.69
452.648	1200.69
452.869	1205.69
453.089	1203.69
453.31	1226.69
453.53	1172.69
453.751	1181.69
453.971	1174.69
454.192	1161.69
454.412	1129.69
454.633	1119.69
454.853	1171.69
455.073	1177.69
455.294	1237.69
455.514	1398.69
455.734	1307.69
455.955	1139.69
456.175	1115.69
456.395	1093.69
456.616	1089.69
456.836	1085.69
457.056	1092.69
457.276	1085.69
457.497	1100.69
457.717	1114.69
457.937	1147.69
458.157	1136.69
458.377	1149.69
458.598	1202.69
458.818	1297.69
459.038	1456.69
459.258	1514.69
459.478	1331.69
459.698	1284.69
459.918	1277.69
460.138	1288.69
460.358	1321.69
460.578	1381.69
460.798	1395.69
461.018	1391.69
461.238	1356.69
461.458	1340.69
461.678	1347.69
461.898	1385.69
462.118	1363.69
462.338	1396.69
462.558	1435.69
462.777	1481.69
462.997	1552.69
463.217	1628.69
463.437	1649.69
463.657	1580.69
463.876	1507.69
464.096	1516.69
464.316	1505.69
464.536	1501.69
464.755	1476.69
464.975	1476.69
465.195	1467.69
465.414	1524.69
465.634	1348.69
465.854	1308.69
466.073	1275.69
466.293	1263.69
466.512	1180.69
466.732	1177.69
466.951	1213.69
467.171	1217.69
467.391	1207.69
467.61	1231.69
467.829	1185.69
468.049	1214.69
468.268	1180.69
468.488	1183.69
468.707	1172.69
468.927	1131.69
469.146	1145.69
469.365	1182.69
469.585	1183.69
469.804	1224.69
470.023	1236.69
470.243	1221.69
470.462	1261.69
470.681	1259.69
470.901	1262.69
471.12	1267.69
471.339	1211.69
471.558	1225.69
471.777	1221.69
471.997	1204.69
472.216	1172.69
472.435	1178.69
472.654	1153.69
472.873	1136.69
473.092	1172.69
473.311	1158.69
473.53	1160.69
473.749	1201.69
473.968	1321.69
474.187	1546.69
474.406	1525.69
474.625	1301.69
474.844	1204.69
475.063	1177.69
475.282	1188.69
475.501	1178.69
475.72	1215.69
475.939	1216.69
476.158	1259.69
476.377	1209.69
476.596	1233.69
476.814	1274.69
477.033	1256.69
477.252	1267.69
477.471	1282.69
477.69	1303.69
477.908	1320.69
478.127	1330.69
478.346	1350.69
478.564	1383.69
478.783	1374.69
479.002	1427.69
479.22	1401.69
479.439	1390.69
479.658	1443.69
479.876	1432.69
480.095	1496.69
480.313	1597.69
480.532	1560.69
480.751	1547.69
480.969	1535.69
481.188	1490.69
481.406	1469.69
481.624	1444.69
481.843	1406.69
482.061	1391.69
482.28	1379.69
482.498	1348.69
482.717	1355.69
482.935	1340.69
483.153	1363.69
483.372	1383.69
483.59	1384.69
483.808	1393.69
484.027	1395.69
484.245	1378.69
484.463	1378.69
484.681	1417.69
484.9	1396.69
485.118	1404.69
485.336	1389.69
485.554	1428.69
485.772	1439.69
485.99	1399.69
486.209	1429.69
486.427	1432.69
486.645	1438.69
486.863	1504.69
487.081	1449.69
487.299	1463.69
487.517	1469.69
487.735	1465.69
487.953	1490.69
488.171	1479.69
488.389	1450.69
488.607	1469.69
488.825	1440.69
489.043	1464.69
489.261	1479.69
489.479	1496.69
489.696	1480.69
489.914	1488.69
490.132	1523.69
490.35	1560.69
490.568	1507.69
490.786	1556.69
491.003	1543.69
491.221	1624.69
491.439	1652.69
491.657	1668.69
491.874	1717.69
492.092	1679.69
492.31	1723.69
492.527	1699.69
492.745	1705.69
492.963	1711.69
493.18	1719.69
493.398	1708.69
493.615	1764.69
493.833	1780.69
494.05	1741.69
494.268	1728.69
494.485	1745.69
494.703	1740.69
494.92	1767.69
495.138	1770.69
495.355	1761.69
495.573	1748.69
495.79	1753.69
496.008	1809.69
496.225	1747.69
496.442	1777.69
496.66	1767.69
496.877	1744.69
497.094	1820.69
497.312	1807.69
497.529	1879.69
497.746	1857.69
497.963	1861.69
498.181	2008.69
498.398	2029.69
498.615	2118.69
498.832	2180.69
499.049	2246.69
499.267	2306.69
499.484	2485.69
499.701	2621.69
499.918	2785.69
500.135	3043.69
500.352	3169.69
500.569	3285.69
500.786	3301.69
501.003	3160.69
501.22	3011.69
501.437	2765.69
501.654	2584.69
501.871	2515.69
502.088	2344.69
502.305	2206.69
502.522	2116.69
502.739	2067.69
502.956	1992.69
503.172	1928.69
503.389	1855.69
503.606	1843.69
503.823	1788.69
504.04	1837.69
504.256	1820.69
504.473	1821.69
504.69	1831.69
504.907	1805.69
505.123	1761.69
505.34	1711.69
505.557	1689.69
505.773	1672.69
505.99	1635.69
506.207	1635.69
506.423	1627.69
506.64	1628.69
506.856	1585.69
507.073	1569.69
507.289	1550.69
507.506	1554.69
507.722	1577.69
507.939	1553.69
508.155	1512.69
508.372	1481.69
508.588	1493.69
508.805	1492.69
509.021	1492.69
509.238	1542.69
509.454	1551.69
509.67	1513.69
509.887	1480.69
510.103	1467.69
510.319	1443.69
510.536	1574.69
510.752	2068.69
510.968	1671.69
511.184	1431.69
511.401	1404.69
511.617	1402.69
511.833	1403.69
512.049	1371.69
512.265	1320.69
512.481	1320.69
512.698	1368.69
512.914	1375.69
513.13	1397.69
513.346	1381.69
513.562	1342.69
513.778	1332.69
513.994	1391.69
514.21	1345.69
514.426	1451.69
514.642	1461.69
514.858	1502.69
515.074	1564.69
515.29	1683.69
515.506	2066.69
515.721	1729.69
515.937	1518.69
516.153	1457.69
516.369	1461.69
516.585	1498.69
516.801	1500.69
517.016	1517.69
517.232	1548.69
517.448	1598.69
517.664	1593.69
517.879	1622.69
518.095	1615.69
518.311	1614.69
518.527	1550.69
518.742	1497.69
518.958	1488.69
519.173	1442.69
519.389	1438.69
519.605	1413.69
519.82	1414.69
520.036	1423.69
520.251	1460.69
520.467	1488.69
520.682	1455.69
520.898	1425.69
521.113	1449.69
521.329	1453.69
521.544	1580.69
521.76	1797.69
521.975	2369.69
522.19	2117.69
522.406	1557.69
522.621	1353.69
522.836	1319.69
523.052	1314.69
523.267	1233.69
523.482	1234.69
523.698	1250.69
523.913	1228.69
524.128	1224.69
524.343	1193.69
524.559	1199.69
524.774	1191.69
524.989	1170.69
525.204	1209.69
525.419	1183.69
525.634	1141.69
525.849	1162.69
526.064	1152.69
526.28	1134.69
526.495	1140.69
526.71	1128.69
526.925	1125.69
527.14	1111.69
527.355	1124.69
527.57	1118.69
527.785	1135.69
527.999	1100.69
528.214	1092.69
528.429	1120.69
528.644	1129.69
528.859	1124.69
529.074	1121.69
529.289	1147.69
529.503	1267.69
529.718	1203.69
529.933	1182.69
530.148	1144.69
530.363	1156.69
530.577	1074.69
530.792	1091.69
531.007	1101.69
531.221	1083.69
531.436	1110.69
531.651	1086.69
531.865	1069.69
532.08	1066.69
532.295	1102.69
532.509	1082.69
532.724	1082.69
532.938	1105.69
533.153	1069.69
533.367	1084.69
533.582	1097.69
533.796	1109.69
534.011	1097.69
534.225	1096.69
534.44	1083.69
534.654	1041.69
534.868	1058.69
535.083	1051.69
535.297	1051.69
535.511	1067.69
535.726	1072.69
535.94	1072.69
536.154	1075.69
536.369	1028.69
536.583	981.69
536.797	1019.69
537.011	1006.69
537.225	1014.69
537.44	1012.69
537.654	1031.69
537.868	1027.69
538.082	1045.69
538.296	1047.69
538.51	1053.69
538.724	1045.69
538.938	1043.69
539.153	1040.69
539.367	1031.69
539.581	1048.69
539.795	1053.69
540.009	1018.69
540.222	992.69
540.436	1038.69
540.65	1049.69
540.864	1028.69
541.078	1060.69
541.292	1069.69
541.506	1028.69
541.72	1041.69
541.934	1050.69
542.147	1049.69
542.361	1039.69
542.575	1057.69
542.789	1018.69
543.002	1037.69
543.216	1015.69
543.43	1025.69
543.644	1024.69
543.857	1019.69
544.071	1049.69
544.285	1055.69
544.498	1051.69
544.712	1032.69
544.925	1094.69
545.139	1040.69
545.352	1020.69
545.566	1036.69
545.779	1041.69
545.993	1043.69
546.206	1058.69
546.42	1026.69
546.633	1038.69
546.847	1035.69
547.06	1041.69
547.274	1044.69
547.487	1057.69
547.7	1007.69
547.914	1022.69
548.127	1026.69
548.34	1038.69
548.554	1025.69
548.767	1006.69
548.98	1001.69
549.193	1028.69
549.407	1026.69
549.62	1024.69
549.833	1036.69
550.046	1054.69
550.259	1023.69
550.473	1002.69
550.686	1040.69
550.899	989.69
551.112	983.69
551.325	1010.69
551.538	1014.69
551.751	983.69
551.964	993.69
552.177	991.69
552.39	1009.69
552.603	1052.69
552.816	1051.69
553.029	1064.69
553.242	1081.69
553.455	1081.69
553.667	1105.69
553.88	1092.69
554.093	1057.69
554.306	1043.69
554.519	1038.69
554.732	1010.69
554.944	998.69
555.157	994.69
555.37	980.69
555.583	965.69
555.795	956.69
556.008	924.69
556.221	926.69
556.433	912.69
556.646	910.69
556.859	905.69
557.071	909.69
557.284	886.69
557.496	889.69
557.709	864.69
557.921	887.69
558.134	869.69
558.346	871.69
558.559	895.69
558.771	873.69
558.984	866.69
559.196	883.69
559.409	873.69
559.621	879.69
559.833	860.69
560.046	849.69
560.258	856.69
560.47	875.69
560.683	871.69
560.895	840.69
561.107	841.69
561.32	844.69
561.532	844.69
561.744	866.69
561.956	855.69
562.168	873.69
562.381	876.69
562.593	859.69
562.805	871.69
563.017	857.69
563.229	894.69
563.441	883.69
563.653	867.69
563.865	867.69
564.077	890.69
564.289	876.69
564.501	883.69
564.713	909.69
564.925	933.69
565.137	969.69
565.349	961.69
565.561	987.69
565.773	993.69
565.985	1054.69
566.197	1090.69
566.408	1100.69
566.62	1184.69
566.832	1231.69
567.044	1269.69
567.255	1269.69
567.467	1259.69
567.679	1313.69
567.891	1349.69
568.102	1344.69
568.314	1310.69
568.526	1208.69
568.737	1129.69
568.949	1065.69
569.161	1014.69
569.372	973.69
569.584	904.69
569.795	915.69
570.007	879.69
570.218	928.69
570.43	898.69
570.641	875.69
570.853	838.69
571.064	860.69
571.276	875.69
571.487	852.69
571.698	791.69
571.91	791.69
572.121	784.69
572.333	783.69
572.544	779.69
572.755	751.69
572.966	734.69
573.178	759.69
573.389	727.69
573.6	718.69
573.811	730.69
574.023	736.69
574.234	711.69
574.445	727.69
574.656	748.69
574.867	705.69
575.078	703.69
575.289	704.69
575.501	685.69
575.712	675.69
575.923	695.69
576.134	698.69
576.345	663.69
576.556	701.69
576.767	697.69
576.978	710.69
577.188	670.69
577.399	661.69
577.61	656.69
577.821	666.69
578.032	647.69
578.243	711.69
578.454	868.69
578.665	725.69
578.875	666.69
579.086	649.69
579.297	662.69
579.508	659.69
579.718	648.69
579.929	644.69
580.14	633.69
580.35	619.69
580.561	617.69
580.772	635.69
580.982	637.69
581.193	642.69
581.403	641.69
581.614	622.69
581.825	626.69
582.035	609.69
582.246	622.69
582.456	603.69
582.667	641.69
582.877	611.69
583.087	633.69
583.298	608.69
583.508	610.69
583.719	604.69
583.929	609.69
584.139	611.69
584.35	607.69
584.56	616.69
584.77	606.69
584.981	594.69
585.191	594.69
585.401	618.69
585.611	589.69
585.821	609.69
586.032	603.69
586.242	594.69
586.452	579.69
586.662	591.69
586.872	585.69
587.082	596.69
587.292	599.69
587.502	602.69
587.713	606.69
587.923	580.69
588.133	601.69
588.343	583.69
588.553	574.69
588.762	583.69
588.972	598.69
589.182	593.69
589.392	583.69
589.602	573.69
589.812	611.69
590.022	583.69
590.232	602.69
590.441	599.69
590.651	602.69
590.861	599.69
591.071	609.69
591.281	617.69
591.49	623.69
591.7	632.69
591.91	619.69
592.119	630.69
592.329	656.69
592.539	672.69
592.748	668.69
592.958	684.69
593.167	707.69
593.377	698.69
593.587	705.69
593.796	735.69
594.006	709.69
594.215	711.69
594.424	719.69
594.634	689.69
594.843	689.69
595.053	653.69
595.262	657.69
595.472	644.69
595.681	611.69
595.89	615.69
596.1	586.69
596.309	594.69
596.518	583.69
596.727	620.69
596.937	564.69
597.146	574.69
597.355	557.69
597.564	551.69
597.774	546.69
597.983	549.69
598.192	531.69
598.401	542.69
598.61	525.69
598.819	518.69
599.028	537.69
599.237	527.69
599.446	515.69
599.655	531.69
599.864	510.69
600.073	541.69
600.282	519.69
600.491	529.69
600.7	514.69
600.909	513.69
601.118	510.69
601.327	534.69
601.536	518.69
601.745	513.69
601.953	512.69
602.162	528.69
602.371	520.69
602.58	507.69
602.789	521.69
602.997	533.69
603.206	527.69
603.415	504.69
603.623	515.69
603.832	507.69
604.041	490.69
604.249	490.69
604.458	490.69
604.666	488.69
604.875	477.69
605.084	474.69
605.292	475.69
605.501	496.69
605.709	503.69
605.918	495.69
606.126	498.69
606.334	475.69
606.543	485.69
606.751	503.69
606.96	501.69
607.168	493.69
607.376	492.69
607.585	489.69
607.793	484.69
608.001	477.69
608.21	493.69
608.418	500.69
608.626	489.69
608.834	490.69
609.043	497.69
609.251	500.69
609.459	487.69
609.667	494.69
609.875	486.69
610.083	484.69
610.291	489.69
610.499	494.69
610.707	460.69
610.916	498.69
611.124	519.69
611.332	510.69
611.54	501.69
611.748	507.69
611.955	499.69
612.163	471.69
612.371	483.69
612.579	480.69
612.787	477.69
612.995	493.69
613.203	467.69
613.411	454.69
613.618	489.69
613.826	492.69
614.034	482.69
614.242	477.69
614.449	463.69
614.657	489.69
614.865	465.69
615.072	463.69
615.28	478.69
615.488	471.69
615.695	491.69
615.903	479.69
616.111	472.69
616.318	485.69
616.526	474.69
616.733	500.69
616.941	469.69
617.148	473.69
617.356	478.69
617.563	488.69
617.771	487.69
617.978	465.69
618.185	477.69
618.393	466.69
618.6	455.69
618.807	483.69
619.015	472.69
619.222	477.69
619.429	457.69
619.637	437.69
619.844	461.69
620.051	447.69
620.258	450.69
620.466	439.69
620.673	436.69
620.88	426.69
621.087	445.69
621.294	440.69
621.501	444.69
621.708	428.69
621.915	450.69
622.122	433.69
622.329	445.69
622.536	426.69
622.743	439.69
622.95	447.69
623.157	435.69
623.364	449.69
623.571	442.69
623.778	441.69
623.985	421.69
624.192	426.69
624.399	429.69
624.606	433.69
624.812	426.69
625.019	413.69
625.226	389.69
625.433	411.69
625.639	403.69
625.846	397.69
626.053	397.69
626.259	405.69
626.466	394.69
626.673	382.69
626.879	393.69
627.086	397.69
627.293	383.69
627.499	400.69
627.706	409.69
627.912	410.69
628.119	409.69
628.325	390.69
628.532	373.69
628.738	385.69
628.945	361.69
629.151	379.69
629.357	379.69
629.564	388.69
629.77	388.69
629.976	388.69
630.183	373.69
630.389	376.69
630.595	379.69
630.802	401.69
631.008	362.69
631.214	381.69
631.42	374.69
631.627	355.69
631.833	373.69
632.039	355.69
632.245	380.69
632.451	374.69
632.657	366.69
632.863	343.69
633.069	362.69
633.275	351.69
633.481	363.69
633.688	348.69
633.893	343.69
634.099	339.69
634.305	350.69
634.511	357.69
634.717	340.69
634.923	335.69
635.129	336.69
635.335	334.69
635.541	341.69
635.747	340.69
635.952	352.69
636.158	337.69
636.364	335.69
636.57	338.69
636.775	351.69
636.981	349.69
637.187	345.69
637.392	353.69
637.598	330.69
637.804	343.69
638.009	338.69
638.215	357.69
638.421	345.69
638.626	331.69
638.832	327.69
639.037	318.69
639.243	304.69
639.448	328.69
639.654	326.69
639.859	325.69
640.065	319.69
640.27	330.69
640.475	313.69
640.681	329.69
640.886	336.69
641.091	311.69
641.297	326.69
641.502	316.69
641.707	323.69
641.913	305.69
642.118	327.69
642.323	297.69
642.528	317.69
642.733	315.69
642.939	313.69
643.144	297.69
643.349	300.69
643.554	280.69
643.759	299.69
643.964	309.69
644.169	300.69
644.374	303.69
644.579	328.69
644.784	321.69
644.989	285.69
645.194	299.69
645.399	331.69
645.604	308.69
645.809	312.69
646.014	323.69
646.219	307.69
646.423	299.69
646.628	309.69
646.833	318.69
647.038	301.69
647.243	305.69
647.447	313.69
647.652	300.69
647.857	297.69
648.062	318.69
648.266	320.69
648.471	315.69
648.676	324.69
648.88	331.69
649.085	332.69
649.289	331.69
649.494	317.69
649.698	344.69
649.903	324.69
650.107	313.69
650.312	299.69
650.516	277.69
650.721	274.69
650.925	269.69
651.13	275.69
651.334	279.69
651.539	279.69
651.743	263.69
651.947	268.69
652.152	267.69
652.356	245.69
652.56	256.69
652.764	246.69
652.969	232.69
653.173	263.69
653.377	236.69
653.581	243.69
653.785	242.69
653.99	219.69
654.194	234.69
654.398	210.69
654.602	221.69
654.806	231.69
655.01	245.69
655.214	233.69
655.418	212.69
655.622	215.69
655.826	219.69
656.03	241.69
656.234	240.69
656.438	247.69
656.642	235.69
656.846	226.69
657.049	217.69
657.253	196.69
657.457	206.69
657.661	179.69
657.865	171.69
658.068	159.69
658.272	154.69
658.476	159.69
658.68	161.69
658.883	142.69
659.087	129.69
659.291	129.69
659.494	136.69
659.698	131.69
659.901	139.69
660.105	136.69
660.309	132.69
660.512	130.69
660.716	121.69
660.919	119.69
661.123	111.69
661.326	124.69
661.53	111.69
661.733	107.69
661.936	100.69
662.14	101.69
662.343	91.69
662.546	103.69
662.75	90.69
662.953	91.69
663.156	101.69
663.36	91.69
663.563	103.69
663.766	88.69
663.969	93.69
664.173	88.69
664.376	93.69
664.579	83.69
664.782	107.69
664.985	81.69
665.188	83.69
665.391	66.69
665.594	72.69
665.797	85.69
666	96.69
666.203	81.69
666.406	83.69
666.609	75.69
666.812	77.69
667.015	81.69
667.218	88.69
667.421	91.69
667.624	85.69
667.827	79.69
668.03	81.69
668.232	93.69
668.435	84.69
668.638	97.69
668.841	75.69
669.043	87.69
669.246	99.69
669.449	97.69
669.651	91.69
669.854	79.69
670.057	70.69
670.259	96.69
670.462	87.69
670.665	87.69
670.867	89.69
671.07	87.69
671.272	83.69
671.475	81.69
671.677	78.69
671.88	94.69
672.082	91.69
672.284	75.69
672.487	84.69
672.689	87.69
672.892	89.69
