Data from copper_HRD10591_16-49-15-820.txt Node
Date: Thu Jul 11 16:49:15 EDT 2019
User: cochatt
Spectrometer: HR+D1059
Trigger mode: 1
Integration Time (sec): 1.000000E-1
Scans to average: 1
Electric dark correction enabled: true
Nonlinearity correction enabled: false
Boxcar width: 0
XAxis mode: Wavelengths
Number of Pixels in Spectrum: 2048
>>>>>Begin Spectral Data<<<<<
223.165	-7.5
223.4	-7.5
223.635	-7.5
223.869	-12.5
224.104	-31.5
224.338	12.5
224.573	-12.5
224.808	-12.5
225.042	-12.5
225.277	-11.5
225.511	-11.5
225.746	-2.5
225.98	11.5
226.215	18.5
226.449	16.5
226.683	18.5
226.918	18.5
227.152	18.5
227.387	31.5
227.621	38.5
227.856	39.5
228.09	46.5
228.324	57.5
228.559	62.5
228.793	119.5
229.027	315.5
229.262	344.5
229.496	374.5
229.73	476.5
229.964	565.5
230.199	421.5
230.433	347.5
230.667	307.5
230.901	326.5
231.136	293.5
231.37	278.5
231.604	295.5
231.838	287.5
232.072	292.5
232.306	306.5
232.541	294.5
232.775	306.5
233.009	288.5
233.243	305.5
233.477	321.5
233.711	312.5
233.945	307.5
234.179	330.5
234.413	317.5
234.647	318.5
234.881	336.5
235.115	339.5
235.349	329.5
235.583	352.5
235.817	363.5
236.051	402.5
236.285	383.5
236.519	376.5
236.753	402.5
236.987	497.5
237.221	664.5
237.455	879.5
237.689	637.5
237.922	467.5
238.156	445.5
238.39	441.5
238.624	405.5
238.858	403.5
239.091	387.5
239.325	389.5
239.559	400.5
239.793	418.5
240.027	461.5
240.26	515.5
240.494	615.5
240.728	611.5
240.961	567.5
241.195	503.5
241.429	456.5
241.662	449.5
241.896	438.5
242.13	445.5
242.363	448.5
242.597	437.5
242.83	489.5
243.064	485.5
243.298	479.5
243.531	492.5
243.765	466.5
243.998	483.5
244.232	475.5
244.465	508.5
244.699	518.5
244.932	518.5
245.166	528.5
245.399	503.5
245.633	509.5
245.866	501.5
246.099	505.5
246.333	512.5
246.566	562.5
246.8	562.5
247.033	578.5
247.266	607.5
247.5	621.5
247.733	624.5
247.966	679.5
248.2	648.5
248.433	658.5
248.666	676.5
248.899	756.5
249.133	832.5
249.366	854.5
249.599	806.5
249.832	707.5
250.066	694.5
250.299	717.5
250.532	754.5
250.765	817.5
250.998	945.5
251.231	999.5
251.465	873.5
251.698	826.5
251.931	809.5
252.164	789.5
252.397	812.5
252.63	813.5
252.863	843.5
253.096	941.5
253.329	1028.5
253.562	963.5
253.795	884.5
254.028	853.5
254.261	911.5
254.494	980.5
254.727	1173.5
254.96	1323.5
255.193	1184.5
255.426	1027.5
255.659	911.5
255.892	881.5
256.124	849.5
256.357	819.5
256.59	822.5
256.823	807.5
257.056	821.5
257.289	835.5
257.521	804.5
257.754	825.5
257.987	816.5
258.22	813.5
258.452	783.5
258.685	828.5
258.918	833.5
259.151	878.5
259.383	915.5
259.616	928.5
259.849	965.5
260.081	1029.5
260.314	1141.5
260.547	1140.5
260.779	1039.5
261.012	963.5
261.244	950.5
261.477	928.5
261.71	909.5
261.942	958.5
262.175	994.5
262.407	970.5
262.64	888.5
262.872	879.5
263.105	881.5
263.337	863.5
263.57	884.5
263.802	860.5
264.035	867.5
264.267	876.5
264.499	863.5
264.732	886.5
264.964	871.5
265.197	862.5
265.429	868.5
265.661	899.5
265.894	902.5
266.126	870.5
266.358	907.5
266.591	921.5
266.823	939.5
267.055	989.5
267.287	1004.5
267.52	958.5
267.752	963.5
267.984	954.5
268.216	981.5
268.448	976.5
268.681	1031.5
268.913	1149.5
269.145	1223.5
269.377	1302.5
269.609	1290.5
269.841	1229.5
270.073	1278.5
270.306	1405.5
270.538	1567.5
270.77	1509.5
271.002	1413.5
271.234	1328.5
271.466	1403.5
271.698	1501.5
271.93	1494.5
272.162	1532.5
272.394	1496.5
272.626	1376.5
272.858	1289.5
273.09	1207.5
273.322	1179.5
273.553	1146.5
273.785	1166.5
274.017	1140.5
274.249	1151.5
274.481	1142.5
274.713	1148.5
274.945	1151.5
275.176	1174.5
275.408	1183.5
275.64	1157.5
275.872	1135.5
276.104	1146.5
276.335	1183.5
276.567	1194.5
276.799	1314.5
277.031	1462.5
277.262	1533.5
277.494	1509.5
277.726	1372.5
277.957	1303.5
278.189	1259.5
278.421	1216.5
278.652	1162.5
278.884	1184.5
279.115	1179.5
279.347	1198.5
279.579	1221.5
279.81	1196.5
280.042	1197.5
280.273	1187.5
280.505	1215.5
280.736	1169.5
280.968	1168.5
281.199	1182.5
281.431	1215.5
281.662	1178.5
281.894	1181.5
282.125	1173.5
282.356	1296.5
282.588	1394.5
282.819	1383.5
283.051	1220.5
283.282	1170.5
283.513	1240.5
283.745	1259.5
283.976	1266.5
284.207	1289.5
284.439	1263.5
284.67	1259.5
284.901	1220.5
285.132	1247.5
285.364	1216.5
285.595	1259.5
285.826	1240.5
286.057	1262.5
286.288	1235.5
286.52	1272.5
286.751	1254.5
286.982	1224.5
287.213	1245.5
287.444	1309.5
287.675	1282.5
287.906	1357.5
288.138	1425.5
288.369	1405.5
288.6	1382.5
288.831	1349.5
289.062	1311.5
289.293	1296.5
289.524	1291.5
289.755	1290.5
289.986	1315.5
290.217	1297.5
290.448	1277.5
290.679	1294.5
290.91	1277.5
291.141	1246.5
291.371	1315.5
291.602	1280.5
291.833	1249.5
292.064	1282.5
292.295	1289.5
292.526	1296.5
292.757	1311.5
292.987	1295.5
293.218	1283.5
293.449	1296.5
293.68	1305.5
293.91	1296.5
294.141	1285.5
294.372	1299.5
294.603	1320.5
294.833	1339.5
295.064	1276.5
295.295	1334.5
295.525	1324.5
295.756	1364.5
295.987	1358.5
296.217	1462.5
296.448	1507.5
296.679	1365.5
296.909	1300.5
297.14	1295.5
297.37	1355.5
297.601	1363.5
297.831	1362.5
298.062	1355.5
298.292	1363.5
298.523	1388.5
298.753	1405.5
298.984	1392.5
299.214	1401.5
299.445	1399.5
299.675	1397.5
299.905	1429.5
300.136	1422.5
300.366	1421.5
300.597	1416.5
300.827	1469.5
301.057	1495.5
301.288	1508.5
301.518	1526.5
301.748	1483.5
301.979	1519.5
302.209	1486.5
302.439	1531.5
302.669	1471.5
302.9	1480.5
303.13	1481.5
303.36	1490.5
303.59	1538.5
303.82	1484.5
304.051	1498.5
304.281	1484.5
304.511	1453.5
304.741	1487.5
304.971	1455.5
305.201	1447.5
305.431	1464.5
305.661	1479.5
305.891	1462.5
306.121	1457.5
306.352	1477.5
306.582	1518.5
306.812	1459.5
307.042	1487.5
307.272	1459.5
307.502	1494.5
307.731	1444.5
307.961	1424.5
308.191	1436.5
308.421	1463.5
308.651	1477.5
308.881	1486.5
309.111	1539.5
309.341	1491.5
309.571	1565.5
309.8	1645.5
310.03	1699.5
310.26	1714.5
310.49	1716.5
310.72	1767.5
310.949	1872.5
311.179	1884.5
311.409	1755.5
311.639	1720.5
311.868	1706.5
312.098	1734.5
312.328	1796.5
312.557	1849.5
312.787	1956.5
313.017	1885.5
313.246	1788.5
313.476	1719.5
313.706	1708.5
313.935	1757.5
314.165	1867.5
314.394	1904.5
314.624	1847.5
314.853	1732.5
315.083	1764.5
315.312	1693.5
315.542	1643.5
315.771	1673.5
316.001	1662.5
316.23	1659.5
316.46	1668.5
316.689	1681.5
316.919	1716.5
317.148	1749.5
317.377	1789.5
317.607	1736.5
317.836	1729.5
318.065	1688.5
318.295	1661.5
318.524	1686.5
318.753	1625.5
318.983	1640.5
319.212	1661.5
319.441	1702.5
319.67	1727.5
319.9	1666.5
320.129	1650.5
320.358	1665.5
320.587	1695.5
320.816	1707.5
321.046	1752.5
321.275	1758.5
321.504	1751.5
321.733	1750.5
321.962	1793.5
322.191	1855.5
322.42	1919.5
322.649	2038.5
322.878	2038.5
323.108	2082.5
323.337	2224.5
323.566	2300.5
323.795	2427.5
324.024	2661.5
324.253	3323.5
324.482	4932.5
324.71	7411.5
324.939	9696.5
325.168	7307.5
325.397	3629.5
325.626	2564.5
325.855	2233.5
326.084	2171.5
326.313	2163.5
326.542	2208.5
326.77	2483.5
326.999	3014.5
327.228	4231.5
327.457	6286.5
327.686	6924.5
327.914	4252.5
328.143	2971.5
328.372	2751.5
328.6	2669.5
328.829	2607.5
329.058	2828.5
329.287	2887.5
329.515	2531.5
329.744	2252.5
329.972	2223.5
330.201	2214.5
330.43	2433.5
330.658	2789.5
330.887	3128.5
331.115	3010.5
331.344	2459.5
331.572	2263.5
331.801	2296.5
332.03	2319.5
332.258	2229.5
332.486	2111.5
332.715	2102.5
332.943	2105.5
333.172	2119.5
333.4	2159.5
333.629	2159.5
333.857	2263.5
334.085	2242.5
334.314	2165.5
334.542	2127.5
334.771	2163.5
334.999	2178.5
335.227	2225.5
335.455	2144.5
335.684	2062.5
335.912	2085.5
336.14	2079.5
336.369	2085.5
336.597	2159.5
336.825	2153.5
337.053	2113.5
337.281	2044.5
337.51	2012.5
337.738	2010.5
337.966	1998.5
338.194	2083.5
338.422	2046.5
338.65	1943.5
338.878	1960.5
339.106	1935.5
339.334	1895.5
339.562	1906.5
339.79	1921.5
340.018	1912.5
340.246	1910.5
340.474	1972.5
340.702	1918.5
340.93	1952.5
341.158	1912.5
341.386	1940.5
341.614	1967.5
341.842	1903.5
342.07	1859.5
342.298	1872.5
342.526	1867.5
342.754	1777.5
342.981	1808.5
343.209	1832.5
343.437	1851.5
343.665	1956.5
343.893	1983.5
344.12	2025.5
344.348	1963.5
344.576	1965.5
344.804	1998.5
345.031	2056.5
345.259	2077.5
345.487	2028.5
345.714	1910.5
345.942	1840.5
346.17	1838.5
346.397	1816.5
346.625	1793.5
346.853	1775.5
347.08	1772.5
347.308	1841.5
347.535	1910.5
347.763	1934.5
347.99	1899.5
348.218	1867.5
348.445	1972.5
348.673	1870.5
348.9	1783.5
349.128	1755.5
349.355	1707.5
349.583	1742.5
349.81	1714.5
350.037	1728.5
350.265	1708.5
350.492	1728.5
350.72	1688.5
350.947	1774.5
351.174	1821.5
351.402	1873.5
351.629	1808.5
351.856	1852.5
352.083	1872.5
352.311	1879.5
352.538	1947.5
352.765	1933.5
352.992	1819.5
353.22	1785.5
353.447	1730.5
353.674	1769.5
353.901	1643.5
354.128	1624.5
354.355	1637.5
354.583	1641.5
354.81	1639.5
355.037	1601.5
355.264	1608.5
355.491	1549.5
355.718	1595.5
355.945	1605.5
356.172	1557.5
356.399	1604.5
356.626	1590.5
356.853	1575.5
357.08	1547.5
357.307	1583.5
357.534	1599.5
357.761	1580.5
357.988	1588.5
358.215	1616.5
358.441	1653.5
358.668	1612.5
358.895	1665.5
359.122	1673.5
359.349	1699.5
359.576	1782.5
359.802	2016.5
360.029	2213.5
360.256	2217.5
360.483	2044.5
360.709	1827.5
360.936	1769.5
361.163	1785.5
361.39	1804.5
361.616	1816.5
361.843	1753.5
362.07	1786.5
362.296	1834.5
362.523	1815.5
362.749	1783.5
362.976	1710.5
363.203	1687.5
363.429	1659.5
363.656	1648.5
363.882	1608.5
364.109	1643.5
364.335	1651.5
364.562	1657.5
364.788	1637.5
365.015	1671.5
365.241	1639.5
365.468	1655.5
365.694	1695.5
365.92	1707.5
366.147	1703.5
366.373	1644.5
366.599	1632.5
366.826	1590.5
367.052	1612.5
367.278	1629.5
367.505	1672.5
367.731	1657.5
367.957	1675.5
368.184	1646.5
368.41	1684.5
368.636	1735.5
368.862	1739.5
369.089	1689.5
369.315	1656.5
369.541	1630.5
369.767	1599.5
369.993	1649.5
370.219	1650.5
370.445	1651.5
370.672	1615.5
370.898	1624.5
371.124	1688.5
371.35	1672.5
371.576	1676.5
371.802	1677.5
372.028	1651.5
372.254	1637.5
372.48	1639.5
372.706	1630.5
372.932	1675.5
373.158	1669.5
373.384	1682.5
373.61	1701.5
373.835	1664.5
374.061	1662.5
374.287	1679.5
374.513	1711.5
374.739	1746.5
374.965	1727.5
375.191	1762.5
375.416	1734.5
375.642	1694.5
375.868	1663.5
376.094	1705.5
376.319	1661.5
376.545	1648.5
376.771	1667.5
376.997	1643.5
377.222	1636.5
377.448	1645.5
377.674	1642.5
377.899	1593.5
378.125	1627.5
378.35	1561.5
378.576	1597.5
378.802	1598.5
379.027	1586.5
379.253	1593.5
379.478	1610.5
379.704	1638.5
379.929	1609.5
380.155	1631.5
380.38	1635.5
380.606	1624.5
380.831	1639.5
381.057	1625.5
381.282	1643.5
381.507	1663.5
381.733	1648.5
381.958	1641.5
382.184	1673.5
382.409	1668.5
382.634	1669.5
382.86	1680.5
383.085	1693.5
383.31	1687.5
383.535	1691.5
383.761	1725.5
383.986	1808.5
384.211	1750.5
384.436	1764.5
384.662	1802.5
384.887	1801.5
385.112	1787.5
385.337	1825.5
385.562	1818.5
385.787	1844.5
386.013	1926.5
386.238	1966.5
386.463	1947.5
386.688	1887.5
386.913	1816.5
387.138	1820.5
387.363	1850.5
387.588	1811.5
387.813	1849.5
388.038	1855.5
388.263	1848.5
388.488	1836.5
388.713	1802.5
388.938	1858.5
389.163	1879.5
389.387	1864.5
389.612	1806.5
389.837	1821.5
390.062	1820.5
390.287	1853.5
390.512	1808.5
390.736	1793.5
390.961	1846.5
391.186	1872.5
391.411	1882.5
391.636	1939.5
391.86	1927.5
392.085	1991.5
392.31	1951.5
392.534	1967.5
392.759	1922.5
392.984	1921.5
393.208	1982.5
393.433	1998.5
393.658	2032.5
393.882	1899.5
394.107	1912.5
394.331	1915.5
394.556	1955.5
394.78	1933.5
395.005	1886.5
395.229	1905.5
395.454	1952.5
395.678	2005.5
395.903	2044.5
396.127	2095.5
396.352	2064.5
396.576	1957.5
396.801	1947.5
397.025	2037.5
397.249	1999.5
397.474	2006.5
397.698	2016.5
397.922	2086.5
398.147	2134.5
398.371	2159.5
398.595	2126.5
398.82	2215.5
399.044	2287.5
399.268	2489.5
399.492	2662.5
399.717	2914.5
399.941	2955.5
400.165	2887.5
400.389	2851.5
400.613	2525.5
400.837	2371.5
401.062	2260.5
401.286	2253.5
401.51	2228.5
401.734	2209.5
401.958	2248.5
402.182	2309.5
402.406	2365.5
402.63	2398.5
402.854	2361.5
403.078	2339.5
403.302	2384.5
403.526	2451.5
403.75	2425.5
403.974	2442.5
404.198	2385.5
404.422	2419.5
404.645	2414.5
404.869	2422.5
405.093	2480.5
405.317	2564.5
405.541	2618.5
405.765	2523.5
405.988	2469.5
406.212	2573.5
406.436	2718.5
406.66	2779.5
406.883	2671.5
407.107	2797.5
407.331	3059.5
407.555	3276.5
407.778	3201.5
408.002	2919.5
408.226	2760.5
408.449	2657.5
408.673	2617.5
408.896	2731.5
409.12	2803.5
409.344	2688.5
409.567	2421.5
409.791	2384.5
410.014	2376.5
410.238	2351.5
410.461	2360.5
410.685	2327.5
410.908	2416.5
411.132	2503.5
411.355	2674.5
411.578	2499.5
411.802	2333.5
412.025	2272.5
412.249	2305.5
412.472	2318.5
412.695	2248.5
412.919	2183.5
413.142	2159.5
413.365	2169.5
413.589	2225.5
413.812	2207.5
414.035	2136.5
414.258	2155.5
414.482	2160.5
414.705	2181.5
414.928	2165.5
415.151	2145.5
415.374	2171.5
415.597	2154.5
415.821	2130.5
416.044	2196.5
416.267	2208.5
416.49	2163.5
416.713	2146.5
416.936	2183.5
417.159	2213.5
417.382	2256.5
417.605	2237.5
417.828	2321.5
418.051	2430.5
418.274	2284.5
418.497	2231.5
418.72	2237.5
418.943	2201.5
419.166	2300.5
419.389	2420.5
419.611	2380.5
419.834	2349.5
420.057	2354.5
420.28	2313.5
420.503	2222.5
420.726	2261.5
420.948	2337.5
421.171	2519.5
421.394	2588.5
421.617	2371.5
421.839	2305.5
422.062	2311.5
422.285	2382.5
422.507	2637.5
422.73	2929.5
422.953	2829.5
423.175	2565.5
423.398	2460.5
423.621	2468.5
423.843	2638.5
424.066	2547.5
424.288	2564.5
424.511	2652.5
424.733	2847.5
424.956	3123.5
425.178	3013.5
425.401	3041.5
425.623	3046.5
425.846	2633.5
426.068	2467.5
426.291	2411.5
426.513	2443.5
426.735	2489.5
426.958	2719.5
427.18	3072.5
427.402	3607.5
427.625	3951.5
427.847	3415.5
428.069	2741.5
428.292	2473.5
428.514	2354.5
428.736	2247.5
428.958	2256.5
429.181	2150.5
429.403	2213.5
429.625	2248.5
429.847	2373.5
430.069	2709.5
430.292	2559.5
430.514	2271.5
430.736	2238.5
430.958	2199.5
431.18	2148.5
431.402	2087.5
431.624	2063.5
431.846	2094.5
432.068	2087.5
432.29	2114.5
432.512	2129.5
432.734	2161.5
432.956	2153.5
433.178	2228.5
433.4	2212.5
433.622	2104.5
433.844	2105.5
434.066	2085.5
434.287	2072.5
434.509	2115.5
434.731	2201.5
434.953	2272.5
435.175	2423.5
435.397	2494.5
435.618	2487.5
435.84	2632.5
436.062	2974.5
436.284	3193.5
436.505	2660.5
436.727	2491.5
436.949	2281.5
437.17	2235.5
437.392	2254.5
437.614	2255.5
437.835	2469.5
438.057	3010.5
438.278	3290.5
438.5	3251.5
438.721	3531.5
438.943	3225.5
439.165	2593.5
439.386	2541.5
439.608	2506.5
439.829	2526.5
440.05	2740.5
440.272	2971.5
440.493	2675.5
440.715	2377.5
440.936	2318.5
441.158	2287.5
441.379	2310.5
441.6	2465.5
441.822	2553.5
442.043	2726.5
442.264	3155.5
442.486	3164.5
442.707	2675.5
442.928	2574.5
443.149	2760.5
443.371	2888.5
443.592	3042.5
443.813	3387.5
444.034	3454.5
444.255	2881.5
444.476	2675.5
444.698	2640.5
444.919	2645.5
445.14	2822.5
445.361	2705.5
445.582	2829.5
445.803	3274.5
446.024	3601.5
446.245	3515.5
446.466	3059.5
446.687	2595.5
446.908	2412.5
447.129	2258.5
447.35	2213.5
447.571	2236.5
447.792	2152.5
448.013	2229.5
448.234	2274.5
448.455	2548.5
448.675	3099.5
448.896	3405.5
449.117	2792.5
449.338	2737.5
449.559	3272.5
449.779	3463.5
450	2790.5
450.221	2358.5
450.442	2225.5
450.662	2125.5
450.883	2291.5
451.104	2373.5
451.324	2258.5
451.545	2090.5
451.766	2012.5
451.986	1949.5
452.207	1954.5
452.428	1894.5
452.648	2005.5
452.869	1963.5
453.089	2070.5
453.31	2112.5
453.53	1996.5
453.751	1941.5
453.971	1975.5
454.192	2123.5
454.412	2028.5
454.633	1879.5
454.853	1870.5
455.073	1903.5
455.294	2048.5
455.514	2391.5
455.734	2224.5
455.955	1901.5
456.175	1777.5
456.395	1795.5
456.616	1711.5
456.836	1768.5
457.056	1718.5
457.276	1698.5
457.497	1786.5
457.717	1801.5
457.937	1826.5
458.157	1852.5
458.377	1864.5
458.598	2080.5
458.818	2476.5
459.038	3001.5
459.258	2847.5
459.478	2322.5
459.698	2159.5
459.918	2086.5
460.138	2084.5
460.358	2191.5
460.578	2154.5
460.798	2182.5
461.018	2186.5
461.238	2175.5
461.458	2131.5
461.678	2109.5
461.898	2151.5
462.118	2089.5
462.338	2201.5
462.558	2272.5
462.777	2293.5
462.997	2391.5
463.217	2482.5
463.437	2504.5
463.657	2367.5
463.876	2368.5
464.096	2388.5
464.316	2364.5
464.536	2454.5
464.755	2400.5
464.975	2467.5
465.195	2755.5
465.414	3107.5
465.634	2516.5
465.854	2252.5
466.073	2107.5
466.293	2024.5
466.512	1986.5
466.732	1913.5
466.951	1944.5
467.171	1907.5
467.391	1977.5
467.61	2067.5
467.829	2120.5
468.049	1968.5
468.268	1901.5
468.488	1871.5
468.707	1804.5
468.927	1837.5
469.146	1831.5
469.365	1882.5
469.585	1871.5
469.804	1974.5
470.023	2050.5
470.243	2031.5
470.462	2080.5
470.681	2212.5
470.901	2139.5
471.12	2016.5
471.339	1974.5
471.558	1995.5
471.777	1952.5
471.997	1897.5
472.216	1804.5
472.435	1823.5
472.654	1821.5
472.873	1826.5
473.092	1854.5
473.311	1874.5
473.53	1908.5
473.749	1959.5
473.968	2210.5
474.187	2733.5
474.406	2606.5
474.625	2101.5
474.844	1970.5
475.063	1925.5
475.282	1886.5
475.501	1964.5
475.72	1944.5
475.939	1967.5
476.158	1935.5
476.377	1948.5
476.596	1959.5
476.814	2016.5
477.033	2067.5
477.252	2041.5
477.471	2079.5
477.69	2072.5
477.908	2134.5
478.127	2177.5
478.346	2142.5
478.564	2190.5
478.783	2258.5
479.002	2298.5
479.22	2291.5
479.439	2363.5
479.658	2487.5
479.876	2487.5
480.095	2611.5
480.313	2700.5
480.532	2609.5
480.751	2469.5
480.969	2523.5
481.188	2508.5
481.406	2364.5
481.624	2331.5
481.843	2301.5
482.061	2240.5
482.28	2244.5
482.498	2206.5
482.717	2163.5
482.935	2212.5
483.153	2223.5
483.372	2250.5
483.59	2186.5
483.808	2190.5
484.027	2212.5
484.245	2214.5
484.463	2265.5
484.681	2265.5
484.9	2269.5
485.118	2316.5
485.336	2318.5
485.554	2317.5
485.772	2352.5
485.99	2332.5
486.209	2367.5
486.427	2383.5
486.645	2454.5
486.863	2620.5
487.081	2521.5
487.299	2485.5
487.517	2408.5
487.735	2459.5
487.953	2405.5
488.171	2417.5
488.389	2419.5
488.607	2408.5
488.825	2446.5
489.043	2453.5
489.261	2471.5
489.479	2447.5
489.696	2449.5
489.914	2489.5
490.132	2518.5
490.35	2535.5
490.568	2621.5
490.786	2657.5
491.003	2675.5
491.221	2847.5
491.439	2847.5
491.657	2847.5
491.874	2866.5
492.092	2904.5
492.31	2924.5
492.527	2909.5
492.745	2903.5
492.963	2922.5
493.18	2936.5
493.398	2989.5
493.615	2991.5
493.833	2999.5
494.05	2977.5
494.268	2962.5
494.485	2939.5
494.703	2959.5
494.92	2975.5
495.138	2995.5
495.355	2980.5
495.573	2976.5
495.79	3007.5
496.008	2986.5
496.225	2961.5
496.442	2919.5
496.66	2937.5
496.877	2925.5
497.094	2958.5
497.312	3071.5
497.529	3101.5
497.746	3150.5
497.963	3131.5
498.181	3397.5
498.398	3345.5
498.615	3395.5
498.832	3477.5
499.049	3653.5
499.267	3742.5
499.484	3903.5
499.701	4120.5
499.918	4375.5
500.135	4630.5
500.352	4976.5
500.569	5115.5
500.786	5078.5
501.003	4940.5
501.22	4716.5
501.437	4492.5
501.654	4269.5
501.871	4218.5
502.088	3967.5
502.305	3691.5
502.522	3486.5
502.739	3421.5
502.956	3277.5
503.172	3178.5
503.389	3100.5
503.606	3121.5
503.823	3134.5
504.04	2995.5
504.256	2979.5
504.473	3026.5
504.69	3000.5
504.907	2978.5
505.123	2907.5
505.34	2869.5
505.557	2853.5
505.773	2836.5
505.99	2845.5
506.207	2854.5
506.423	2819.5
506.64	2761.5
506.856	2754.5
507.073	2722.5
507.289	2694.5
507.506	2701.5
507.722	2819.5
507.939	2866.5
508.155	2693.5
508.372	2625.5
508.588	2557.5
508.805	2529.5
509.021	2603.5
509.238	2766.5
509.454	2790.5
509.67	2644.5
509.887	2569.5
510.103	2541.5
510.319	2600.5
510.536	3029.5
510.752	5074.5
510.968	3493.5
511.184	2544.5
511.401	2436.5
511.617	2396.5
511.833	2372.5
512.049	2331.5
512.265	2316.5
512.481	2291.5
512.698	2383.5
512.914	2360.5
513.13	2312.5
513.346	2301.5
513.562	2361.5
513.778	2327.5
513.994	2377.5
514.21	2476.5
514.426	2646.5
514.642	2917.5
514.858	3061.5
515.074	3335.5
515.29	4307.5
515.506	6517.5
515.721	4451.5
515.937	3075.5
516.153	2768.5
516.369	2665.5
516.585	2585.5
516.801	2602.5
517.016	2573.5
517.232	2612.5
517.448	2669.5
517.664	2749.5
517.879	2687.5
518.095	2676.5
518.311	2644.5
518.527	2543.5
518.742	2540.5
518.958	2473.5
519.173	2435.5
519.389	2472.5
519.605	2395.5
519.82	2445.5
520.036	2558.5
520.251	2711.5
520.467	2826.5
520.682	2702.5
520.898	2802.5
521.113	2911.5
521.329	3173.5
521.544	3772.5
521.76	5277.5
521.975	9074.5
522.19	7390.5
522.406	3827.5
522.621	2815.5
522.836	2545.5
523.052	2299.5
523.267	2189.5
523.482	2140.5
523.698	2128.5
523.913	2165.5
524.128	2125.5
524.343	2077.5
524.559	2004.5
524.774	2019.5
524.989	2035.5
525.204	2045.5
525.419	2052.5
525.634	1982.5
525.849	1888.5
526.064	1877.5
526.28	1847.5
526.495	1833.5
526.71	1825.5
526.925	1806.5
527.14	1835.5
527.355	1817.5
527.57	1795.5
527.785	1787.5
527.999	1794.5
528.214	1810.5
528.429	1792.5
528.644	1839.5
528.859	1822.5
529.074	1912.5
529.289	2109.5
529.503	2605.5
529.718	2367.5
529.933	1999.5
530.148	1873.5
530.363	1853.5
530.577	1809.5
530.792	1823.5
531.007	1774.5
531.221	1809.5
531.436	1755.5
531.651	1772.5
531.865	1750.5
532.08	1660.5
532.295	1712.5
532.509	1753.5
532.724	1718.5
532.938	1751.5
533.153	1741.5
533.367	1734.5
533.582	1721.5
533.796	1777.5
534.011	1698.5
534.225	1738.5
534.44	1715.5
534.654	1665.5
534.868	1722.5
535.083	1713.5
535.297	1739.5
535.511	1774.5
535.726	1819.5
535.94	1803.5
536.154	1749.5
536.369	1737.5
536.583	1661.5
536.797	1643.5
537.011	1600.5
537.225	1687.5
537.44	1606.5
537.654	1634.5
537.868	1651.5
538.082	1676.5
538.296	1693.5
538.51	1637.5
538.724	1672.5
538.938	1638.5
539.153	1683.5
539.367	1768.5
539.581	1744.5
539.795	1684.5
540.009	1672.5
540.222	1608.5
540.436	1653.5
540.65	1713.5
540.864	1707.5
541.078	1750.5
541.292	1701.5
541.506	1674.5
541.72	1681.5
541.934	1650.5
542.147	1667.5
542.361	1641.5
542.575	1605.5
542.789	1598.5
543.002	1639.5
543.216	1625.5
543.43	1655.5
543.644	1655.5
543.857	1657.5
544.071	1648.5
544.285	1649.5
544.498	1656.5
544.712	1670.5
544.925	1645.5
545.139	1611.5
545.352	1619.5
545.566	1579.5
545.779	1553.5
545.993	1592.5
546.206	1623.5
546.42	1591.5
546.633	1632.5
546.847	1595.5
547.06	1611.5
547.274	1608.5
547.487	1607.5
547.7	1585.5
547.914	1599.5
548.127	1587.5
548.34	1601.5
548.554	1603.5
548.767	1585.5
548.98	1569.5
549.193	1572.5
549.407	1643.5
549.62	1586.5
549.833	1567.5
550.046	1613.5
550.259	1569.5
550.473	1546.5
550.686	1544.5
550.899	1578.5
551.112	1572.5
551.325	1539.5
551.538	1510.5
551.751	1511.5
551.964	1542.5
552.177	1587.5
552.39	1552.5
552.603	1610.5
552.816	1636.5
553.029	1669.5
553.242	1655.5
553.455	1701.5
553.667	1757.5
553.88	1814.5
554.093	1743.5
554.306	1682.5
554.519	1675.5
554.732	1611.5
554.944	1597.5
555.157	1529.5
555.37	1529.5
555.583	1479.5
555.795	1510.5
556.008	1461.5
556.221	1443.5
556.433	1435.5
556.646	1383.5
556.859	1383.5
557.071	1372.5
557.284	1395.5
557.496	1378.5
557.709	1334.5
557.921	1381.5
558.134	1361.5
558.346	1357.5
558.559	1375.5
558.771	1342.5
558.984	1329.5
559.196	1328.5
559.409	1322.5
559.621	1328.5
559.833	1289.5
560.046	1334.5
560.258	1329.5
560.47	1315.5
560.683	1304.5
560.895	1337.5
561.107	1305.5
561.32	1303.5
561.532	1319.5
561.744	1327.5
561.956	1330.5
562.168	1331.5
562.381	1304.5
562.593	1323.5
562.805	1339.5
563.017	1337.5
563.229	1328.5
563.441	1297.5
563.653	1345.5
563.865	1366.5
564.077	1338.5
564.289	1354.5
564.501	1379.5
564.713	1397.5
564.925	1471.5
565.137	1516.5
565.349	1489.5
565.561	1475.5
565.773	1539.5
565.985	1586.5
566.197	1639.5
566.408	1705.5
566.62	1790.5
566.832	1874.5
567.044	1865.5
567.255	1934.5
567.467	1947.5
567.679	1989.5
567.891	2026.5
568.102	2046.5
568.314	1998.5
568.526	1854.5
568.737	1733.5
568.949	1652.5
569.161	1517.5
569.372	1465.5
569.584	1448.5
569.795	1414.5
570.007	1422.5
570.218	1545.5
570.43	1461.5
570.641	1341.5
570.853	1328.5
571.064	1337.5
571.276	1352.5
571.487	1304.5
571.698	1236.5
571.91	1209.5
572.121	1169.5
572.333	1187.5
572.544	1176.5
572.755	1137.5
572.966	1147.5
573.178	1135.5
573.389	1135.5
573.6	1131.5
573.811	1104.5
574.023	1091.5
574.234	1117.5
574.445	1091.5
574.656	1134.5
574.867	1081.5
575.078	1092.5
575.289	1111.5
575.501	1076.5
575.712	1079.5
575.923	1035.5
576.134	1085.5
576.345	1088.5
576.556	1081.5
576.767	1067.5
576.978	1062.5
577.188	1038.5
577.399	1029.5
577.61	1036.5
577.821	1057.5
578.032	1063.5
578.243	1202.5
578.454	2044.5
578.665	1345.5
578.875	1048.5
579.086	999.5
579.297	995.5
579.508	962.5
579.718	978.5
579.929	967.5
580.14	969.5
580.35	996.5
580.561	992.5
580.772	1007.5
580.982	958.5
581.193	942.5
581.403	977.5
581.614	961.5
581.825	962.5
582.035	963.5
582.246	961.5
582.456	944.5
582.667	947.5
582.877	931.5
583.087	958.5
583.298	927.5
583.508	928.5
583.719	936.5
583.929	939.5
584.139	954.5
584.35	936.5
584.56	931.5
584.77	928.5
584.981	941.5
585.191	956.5
585.401	953.5
585.611	939.5
585.821	913.5
586.032	916.5
586.242	939.5
586.452	934.5
586.662	925.5
586.872	916.5
587.082	918.5
587.292	872.5
587.502	919.5
587.713	885.5
587.923	895.5
588.133	889.5
588.343	887.5
588.553	903.5
588.762	896.5
588.972	902.5
589.182	1040.5
589.392	976.5
589.602	922.5
589.812	1007.5
590.022	949.5
590.232	917.5
590.441	910.5
590.651	905.5
590.861	903.5
591.071	935.5
591.281	928.5
591.49	927.5
591.7	934.5
591.91	989.5
592.119	992.5
592.329	976.5
592.539	1028.5
592.748	1024.5
592.958	1052.5
593.167	1051.5
593.377	1046.5
593.587	1104.5
593.796	1081.5
594.006	1088.5
594.215	1106.5
594.424	1097.5
594.634	1063.5
594.843	1019.5
595.053	1005.5
595.262	1002.5
595.472	943.5
595.681	936.5
595.89	910.5
596.1	919.5
596.309	853.5
596.518	897.5
596.727	885.5
596.937	883.5
597.146	868.5
597.355	847.5
597.564	836.5
597.774	831.5
597.983	843.5
598.192	803.5
598.401	810.5
598.61	799.5
598.819	808.5
599.028	800.5
599.237	815.5
599.446	790.5
599.655	775.5
599.864	798.5
600.073	812.5
600.282	777.5
600.491	782.5
600.7	784.5
600.909	759.5
601.118	777.5
601.327	781.5
601.536	782.5
601.745	790.5
601.953	778.5
602.162	781.5
602.371	771.5
602.58	779.5
602.789	752.5
602.997	750.5
603.206	748.5
603.415	746.5
603.623	772.5
603.832	744.5
604.041	737.5
604.249	738.5
604.458	732.5
604.666	708.5
604.875	724.5
605.084	720.5
605.292	749.5
605.501	737.5
605.709	709.5
605.918	760.5
606.126	760.5
606.334	713.5
606.543	709.5
606.751	732.5
606.96	737.5
607.168	724.5
607.376	727.5
607.585	750.5
607.793	765.5
608.001	764.5
608.21	706.5
608.418	722.5
608.626	718.5
608.834	725.5
609.043	715.5
609.251	712.5
609.459	749.5
609.667	731.5
609.875	716.5
610.083	716.5
610.291	716.5
610.499	726.5
610.707	723.5
610.916	737.5
611.124	737.5
611.332	755.5
611.54	735.5
611.748	731.5
611.955	717.5
612.163	710.5
612.371	743.5
612.579	725.5
612.787	715.5
612.995	726.5
613.203	727.5
613.411	731.5
613.618	732.5
613.826	709.5
614.034	706.5
614.242	721.5
614.449	695.5
614.657	706.5
614.865	715.5
615.072	708.5
615.28	715.5
615.488	703.5
615.695	719.5
615.903	727.5
616.111	706.5
616.318	724.5
616.526	727.5
616.733	748.5
616.941	724.5
617.148	731.5
617.356	703.5
617.563	700.5
617.771	715.5
617.978	685.5
618.185	693.5
618.393	695.5
618.6	728.5
618.807	700.5
619.015	694.5
619.222	681.5
619.429	680.5
619.637	690.5
619.844	677.5
620.051	663.5
620.258	678.5
620.466	670.5
620.673	642.5
620.88	661.5
621.087	657.5
621.294	651.5
621.501	667.5
621.708	661.5
621.915	667.5
622.122	658.5
622.329	651.5
622.536	689.5
622.743	663.5
622.95	651.5
623.157	652.5
623.364	659.5
623.571	660.5
623.778	645.5
623.985	628.5
624.192	641.5
624.399	641.5
624.606	629.5
624.812	619.5
625.019	612.5
625.226	625.5
625.433	643.5
625.639	621.5
625.846	610.5
626.053	603.5
626.259	591.5
626.466	580.5
626.673	587.5
626.879	607.5
627.086	612.5
627.293	610.5
627.499	586.5
627.706	603.5
627.912	611.5
628.119	600.5
628.325	610.5
628.532	611.5
628.738	588.5
628.945	560.5
629.151	568.5
629.357	601.5
629.564	583.5
629.77	578.5
629.976	565.5
630.183	583.5
630.389	566.5
630.595	534.5
630.802	552.5
631.008	561.5
631.214	532.5
631.42	549.5
631.627	541.5
631.833	533.5
632.039	542.5
632.245	539.5
632.451	556.5
632.657	535.5
632.863	525.5
633.069	525.5
633.275	529.5
633.481	531.5
633.688	512.5
633.893	515.5
634.099	528.5
634.305	501.5
634.511	488.5
634.717	494.5
634.923	510.5
635.129	495.5
635.335	499.5
635.541	502.5
635.747	506.5
635.952	491.5
636.158	495.5
636.364	489.5
636.57	494.5
636.775	523.5
636.981	490.5
637.187	506.5
637.392	480.5
637.598	476.5
637.804	479.5
638.009	493.5
638.215	498.5
638.421	473.5
638.626	492.5
638.832	476.5
639.037	477.5
639.243	458.5
639.448	453.5
639.654	469.5
639.859	459.5
640.065	467.5
640.27	471.5
640.475	448.5
640.681	466.5
640.886	471.5
641.091	470.5
641.297	479.5
641.502	465.5
641.707	467.5
641.913	447.5
642.118	439.5
642.323	446.5
642.528	453.5
642.733	427.5
642.939	449.5
643.144	436.5
643.349	452.5
643.554	447.5
643.759	430.5
643.964	444.5
644.169	444.5
644.374	450.5
644.579	447.5
644.784	442.5
644.989	452.5
645.194	464.5
645.399	436.5
645.604	414.5
645.809	412.5
646.014	422.5
646.219	433.5
646.423	448.5
646.628	444.5
646.833	420.5
647.038	434.5
647.243	423.5
647.447	455.5
647.652	452.5
647.857	441.5
648.062	495.5
648.266	476.5
648.471	456.5
648.676	465.5
648.88	483.5
649.085	463.5
649.289	465.5
649.494	492.5
649.698	534.5
649.903	512.5
650.107	447.5
650.312	422.5
650.516	431.5
650.721	428.5
650.925	411.5
651.13	398.5
651.334	373.5
651.539	382.5
651.743	360.5
651.947	386.5
652.152	371.5
652.356	339.5
652.56	347.5
652.764	348.5
652.969	344.5
653.173	328.5
653.377	326.5
653.581	318.5
653.785	319.5
653.99	347.5
654.194	334.5
654.398	319.5
654.602	316.5
654.806	334.5
655.01	357.5
655.214	375.5
655.418	329.5
655.622	321.5
655.826	329.5
656.03	324.5
656.234	318.5
656.438	330.5
656.642	317.5
656.846	322.5
657.049	320.5
657.253	293.5
657.457	265.5
657.661	250.5
657.865	232.5
658.068	232.5
658.272	218.5
658.476	220.5
658.68	199.5
658.883	176.5
659.087	186.5
659.291	198.5
659.494	173.5
659.698	148.5
659.901	167.5
660.105	165.5
660.309	155.5
660.512	149.5
660.716	160.5
660.919	130.5
661.123	145.5
661.326	135.5
661.53	128.5
661.733	139.5
661.936	141.5
662.14	118.5
662.343	105.5
662.546	126.5
662.75	108.5
662.953	77.5
663.156	111.5
663.36	111.5
663.563	108.5
663.766	109.5
663.969	84.5
664.173	84.5
664.376	97.5
664.579	87.5
664.782	86.5
664.985	91.5
665.188	93.5
665.391	100.5
665.594	83.5
665.797	82.5
666	83.5
666.203	83.5
666.406	88.5
666.609	87.5
666.812	91.5
667.015	104.5
667.218	104.5
667.421	85.5
667.624	84.5
667.827	104.5
668.03	101.5
668.232	85.5
668.435	85.5
668.638	84.5
668.841	94.5
669.043	91.5
669.246	97.5
669.449	94.5
669.651	100.5
669.854	93.5
670.057	103.5
670.259	83.5
670.462	101.5
670.665	92.5
670.867	98.5
671.07	99.5
671.272	88.5
671.475	92.5
671.677	101.5
671.88	94.5
672.082	93.5
672.284	91.5
672.487	74.5
672.689	96.5
672.892	87.5
