Data from copper_HRD10591_16-49-17-820.txt Node
Date: Thu Jul 11 16:49:17 EDT 2019
User: cochatt
Spectrometer: HR+D1059
Trigger mode: 1
Integration Time (sec): 1.000000E-1
Scans to average: 1
Electric dark correction enabled: true
Nonlinearity correction enabled: false
Boxcar width: 0
XAxis mode: Wavelengths
Number of Pixels in Spectrum: 2048
>>>>>Begin Spectral Data<<<<<
223.165	-10.25
223.4	-10.25
223.635	-10.25
223.869	-13.25
224.104	-18.25
224.338	-5.25
224.573	-21.25
224.808	-12.25
225.042	4.75
225.277	-10.25
225.511	-4.25
225.746	-3.25
225.98	10.75
226.215	6.75
226.449	14.75
226.683	8.75
226.918	23.75
227.152	28.75
227.387	41.75
227.621	37.75
227.856	50.75
228.09	46.75
228.324	62.75
228.559	44.75
228.793	123.75
229.027	296.75
229.262	343.75
229.496	368.75
229.73	461.75
229.964	561.75
230.199	422.75
230.433	346.75
230.667	333.75
230.901	315.75
231.136	309.75
231.37	313.75
231.604	293.75
231.838	283.75
232.072	292.75
232.306	295.75
232.541	298.75
232.775	311.75
233.009	306.75
233.243	293.75
233.477	311.75
233.711	311.75
233.945	318.75
234.179	331.75
234.413	323.75
234.647	336.75
234.881	333.75
235.115	340.75
235.349	353.75
235.583	368.75
235.817	361.75
236.051	392.75
236.285	401.75
236.519	390.75
236.753	416.75
236.987	506.75
237.221	709.75
237.455	880.75
237.689	652.75
237.922	486.75
238.156	450.75
238.39	427.75
238.624	396.75
238.858	385.75
239.091	392.75
239.325	403.75
239.559	417.75
239.793	424.75
240.027	434.75
240.26	530.75
240.494	602.75
240.728	591.75
240.961	576.75
241.195	508.75
241.429	486.75
241.662	461.75
241.896	466.75
242.13	453.75
242.363	451.75
242.597	472.75
242.83	492.75
243.064	483.75
243.298	474.75
243.531	445.75
243.765	484.75
243.998	482.75
244.232	494.75
244.465	512.75
244.699	512.75
244.932	513.75
245.166	524.75
245.399	534.75
245.633	528.75
245.866	536.75
246.099	507.75
246.333	539.75
246.566	540.75
246.8	566.75
247.033	590.75
247.266	588.75
247.5	636.75
247.733	666.75
247.966	672.75
248.2	652.75
248.433	654.75
248.666	704.75
248.899	761.75
249.133	838.75
249.366	852.75
249.599	779.75
249.832	721.75
250.066	704.75
250.299	694.75
250.532	729.75
250.765	796.75
250.998	946.75
251.231	988.75
251.465	878.75
251.698	822.75
251.931	803.75
252.164	761.75
252.397	785.75
252.63	785.75
252.863	838.75
253.096	946.75
253.329	988.75
253.562	988.75
253.795	901.75
254.028	867.75
254.261	915.75
254.494	1002.75
254.727	1180.75
254.96	1316.75
255.193	1173.75
255.426	1000.75
255.659	928.75
255.892	895.75
256.124	868.75
256.357	851.75
256.59	837.75
256.823	820.75
257.056	820.75
257.289	828.75
257.521	847.75
257.754	826.75
257.987	831.75
258.22	813.75
258.452	809.75
258.685	852.75
258.918	813.75
259.151	896.75
259.383	902.75
259.616	951.75
259.849	970.75
260.081	1060.75
260.314	1165.75
260.547	1171.75
260.779	1070.75
261.012	995.75
261.244	948.75
261.477	906.75
261.71	907.75
261.942	969.75
262.175	1021.75
262.407	993.75
262.64	881.75
262.872	865.75
263.105	875.75
263.337	873.75
263.57	899.75
263.802	909.75
264.035	874.75
264.267	876.75
264.499	862.75
264.732	876.75
264.964	878.75
265.197	894.75
265.429	887.75
265.661	892.75
265.894	893.75
266.126	870.75
266.358	906.75
266.591	917.75
266.823	944.75
267.055	1000.75
267.287	969.75
267.52	970.75
267.752	954.75
267.984	987.75
268.216	994.75
268.448	1005.75
268.681	1041.75
268.913	1123.75
269.145	1249.75
269.377	1294.75
269.609	1254.75
269.841	1236.75
270.073	1265.75
270.306	1417.75
270.538	1576.75
270.77	1490.75
271.002	1419.75
271.234	1371.75
271.466	1410.75
271.698	1487.75
271.93	1539.75
272.162	1533.75
272.394	1501.75
272.626	1404.75
272.858	1308.75
273.09	1245.75
273.322	1210.75
273.553	1176.75
273.785	1150.75
274.017	1135.75
274.249	1148.75
274.481	1157.75
274.713	1172.75
274.945	1171.75
275.176	1193.75
275.408	1165.75
275.64	1172.75
275.872	1120.75
276.104	1190.75
276.335	1185.75
276.567	1236.75
276.799	1340.75
277.031	1489.75
277.262	1547.75
277.494	1493.75
277.726	1393.75
277.957	1325.75
278.189	1215.75
278.421	1201.75
278.652	1198.75
278.884	1189.75
279.115	1195.75
279.347	1204.75
279.579	1203.75
279.81	1208.75
280.042	1227.75
280.273	1220.75
280.505	1184.75
280.736	1166.75
280.968	1196.75
281.199	1165.75
281.431	1170.75
281.662	1176.75
281.894	1190.75
282.125	1240.75
282.356	1292.75
282.588	1408.75
282.819	1365.75
283.051	1290.75
283.282	1226.75
283.513	1205.75
283.745	1258.75
283.976	1284.75
284.207	1280.75
284.439	1266.75
284.67	1247.75
284.901	1274.75
285.132	1258.75
285.364	1227.75
285.595	1279.75
285.826	1259.75
286.057	1236.75
286.288	1264.75
286.52	1243.75
286.751	1278.75
286.982	1297.75
287.213	1267.75
287.444	1295.75
287.675	1352.75
287.906	1374.75
288.138	1424.75
288.369	1432.75
288.6	1403.75
288.831	1374.75
289.062	1336.75
289.293	1361.75
289.524	1316.75
289.755	1300.75
289.986	1340.75
290.217	1320.75
290.448	1296.75
290.679	1323.75
290.91	1340.75
291.141	1269.75
291.371	1321.75
291.602	1299.75
291.833	1300.75
292.064	1314.75
292.295	1323.75
292.526	1334.75
292.757	1344.75
292.987	1316.75
293.218	1314.75
293.449	1318.75
293.68	1315.75
293.91	1317.75
294.141	1334.75
294.372	1300.75
294.603	1330.75
294.833	1335.75
295.064	1328.75
295.295	1317.75
295.525	1310.75
295.756	1344.75
295.987	1400.75
296.217	1496.75
296.448	1519.75
296.679	1408.75
296.909	1358.75
297.14	1376.75
297.37	1357.75
297.601	1358.75
297.831	1385.75
298.062	1368.75
298.292	1401.75
298.523	1440.75
298.753	1420.75
298.984	1396.75
299.214	1421.75
299.445	1407.75
299.675	1388.75
299.905	1420.75
300.136	1383.75
300.366	1404.75
300.597	1416.75
300.827	1503.75
301.057	1506.75
301.288	1544.75
301.518	1508.75
301.748	1516.75
301.979	1522.75
302.209	1519.75
302.439	1542.75
302.669	1548.75
302.9	1512.75
303.13	1499.75
303.36	1512.75
303.59	1520.75
303.82	1562.75
304.051	1528.75
304.281	1486.75
304.511	1449.75
304.741	1476.75
304.971	1430.75
305.201	1462.75
305.431	1471.75
305.661	1494.75
305.891	1449.75
306.121	1480.75
306.352	1507.75
306.582	1512.75
306.812	1462.75
307.042	1491.75
307.272	1473.75
307.502	1513.75
307.731	1485.75
307.961	1461.75
308.191	1471.75
308.421	1472.75
308.651	1550.75
308.881	1524.75
309.111	1531.75
309.341	1566.75
309.571	1572.75
309.8	1628.75
310.03	1698.75
310.26	1732.75
310.49	1708.75
310.72	1757.75
310.949	1873.75
311.179	1902.75
311.409	1746.75
311.639	1722.75
311.868	1743.75
312.098	1723.75
312.328	1794.75
312.557	1889.75
312.787	1965.75
313.017	1915.75
313.246	1789.75
313.476	1736.75
313.706	1735.75
313.935	1771.75
314.165	1878.75
314.394	1932.75
314.624	1893.75
314.853	1786.75
315.083	1784.75
315.312	1707.75
315.542	1696.75
315.771	1657.75
316.001	1663.75
316.23	1658.75
316.46	1647.75
316.689	1724.75
316.919	1738.75
317.148	1765.75
317.377	1809.75
317.607	1768.75
317.836	1736.75
318.065	1679.75
318.295	1691.75
318.524	1692.75
318.753	1658.75
318.983	1642.75
319.212	1669.75
319.441	1705.75
319.67	1768.75
319.9	1674.75
320.129	1668.75
320.358	1699.75
320.587	1695.75
320.816	1756.75
321.046	1755.75
321.275	1747.75
321.504	1772.75
321.733	1770.75
321.962	1802.75
322.191	1883.75
322.42	1965.75
322.649	2020.75
322.878	2040.75
323.108	2072.75
323.337	2200.75
323.566	2290.75
323.795	2436.75
324.024	2654.75
324.253	3290.75
324.482	4822.75
324.71	7260.75
324.939	9680.75
325.168	7522.75
325.397	3630.75
325.626	2565.75
325.855	2284.75
326.084	2136.75
326.313	2156.75
326.542	2200.75
326.77	2504.75
326.999	2976.75
327.228	4240.75
327.457	6312.75
327.686	7050.75
327.914	4328.75
328.143	2971.75
328.372	2779.75
328.6	2604.75
328.829	2614.75
329.058	2800.75
329.287	2882.75
329.515	2581.75
329.744	2241.75
329.972	2181.75
330.201	2249.75
330.43	2419.75
330.658	2707.75
330.887	3136.75
331.115	2933.75
331.344	2482.75
331.572	2286.75
331.801	2300.75
332.03	2359.75
332.258	2230.75
332.486	2136.75
332.715	2112.75
332.943	2145.75
333.172	2176.75
333.4	2200.75
333.629	2264.75
333.857	2272.75
334.085	2278.75
334.314	2198.75
334.542	2147.75
334.771	2235.75
334.999	2206.75
335.227	2193.75
335.455	2144.75
335.684	2129.75
335.912	2102.75
336.14	2072.75
336.369	2095.75
336.597	2163.75
336.825	2173.75
337.053	2086.75
337.281	2032.75
337.51	2007.75
337.738	2083.75
337.966	2028.75
338.194	2116.75
338.422	2111.75
338.65	1970.75
338.878	2001.75
339.106	1941.75
339.334	1928.75
339.562	1954.75
339.79	1924.75
340.018	1910.75
340.246	1991.75
340.474	2069.75
340.702	1969.75
340.93	1956.75
341.158	1936.75
341.386	1936.75
341.614	1993.75
341.842	1955.75
342.07	1897.75
342.298	1876.75
342.526	1846.75
342.754	1833.75
342.981	1822.75
343.209	1836.75
343.437	1898.75
343.665	1942.75
343.893	2048.75
344.12	2043.75
344.348	2021.75
344.576	2003.75
344.804	2011.75
345.031	2075.75
345.259	2130.75
345.487	2033.75
345.714	1923.75
345.942	1865.75
346.17	1836.75
346.397	1855.75
346.625	1852.75
346.853	1832.75
347.08	1797.75
347.308	1856.75
347.535	1905.75
347.763	1946.75
347.99	1929.75
348.218	1924.75
348.445	1964.75
348.673	1926.75
348.9	1840.75
349.128	1759.75
349.355	1743.75
349.583	1717.75
349.81	1764.75
350.037	1733.75
350.265	1722.75
350.492	1746.75
350.72	1749.75
350.947	1790.75
351.174	1809.75
351.402	1876.75
351.629	1862.75
351.856	1875.75
352.083	1902.75
352.311	1948.75
352.538	1939.75
352.765	1910.75
352.992	1844.75
353.22	1808.75
353.447	1797.75
353.674	1778.75
353.901	1696.75
354.128	1630.75
354.355	1648.75
354.583	1679.75
354.81	1658.75
355.037	1630.75
355.264	1625.75
355.491	1630.75
355.718	1562.75
355.945	1638.75
356.172	1644.75
356.399	1640.75
356.626	1602.75
356.853	1619.75
357.08	1600.75
357.307	1627.75
357.534	1598.75
357.761	1607.75
357.988	1597.75
358.215	1588.75
358.441	1637.75
358.668	1654.75
358.895	1702.75
359.122	1677.75
359.349	1740.75
359.576	1830.75
359.802	1960.75
360.029	2200.75
360.256	2185.75
360.483	2042.75
360.709	1881.75
360.936	1776.75
361.163	1772.75
361.39	1810.75
361.616	1825.75
361.843	1781.75
362.07	1810.75
362.296	1824.75
362.523	1814.75
362.749	1770.75
362.976	1761.75
363.203	1717.75
363.429	1651.75
363.656	1676.75
363.882	1700.75
364.109	1633.75
364.335	1649.75
364.562	1683.75
364.788	1690.75
365.015	1667.75
365.241	1682.75
365.468	1695.75
365.694	1757.75
365.92	1729.75
366.147	1708.75
366.373	1690.75
366.599	1670.75
366.826	1637.75
367.052	1624.75
367.278	1699.75
367.505	1641.75
367.731	1659.75
367.957	1635.75
368.184	1659.75
368.41	1708.75
368.636	1743.75
368.862	1781.75
369.089	1688.75
369.315	1642.75
369.541	1678.75
369.767	1660.75
369.993	1665.75
370.219	1688.75
370.445	1653.75
370.672	1682.75
370.898	1621.75
371.124	1685.75
371.35	1711.75
371.576	1688.75
371.802	1635.75
372.028	1657.75
372.254	1668.75
372.48	1652.75
372.706	1712.75
372.932	1700.75
373.158	1685.75
373.384	1699.75
373.61	1702.75
373.835	1678.75
374.061	1651.75
374.287	1721.75
374.513	1714.75
374.739	1786.75
374.965	1741.75
375.191	1770.75
375.416	1781.75
375.642	1722.75
375.868	1747.75
376.094	1705.75
376.319	1711.75
376.545	1662.75
376.771	1656.75
376.997	1657.75
377.222	1644.75
377.448	1621.75
377.674	1595.75
377.899	1627.75
378.125	1647.75
378.35	1616.75
378.576	1615.75
378.802	1627.75
379.027	1632.75
379.253	1628.75
379.478	1620.75
379.704	1632.75
379.929	1652.75
380.155	1652.75
380.38	1651.75
380.606	1645.75
380.831	1662.75
381.057	1672.75
381.282	1652.75
381.507	1667.75
381.733	1669.75
381.958	1666.75
382.184	1685.75
382.409	1712.75
382.634	1675.75
382.86	1711.75
383.085	1727.75
383.31	1725.75
383.535	1740.75
383.761	1782.75
383.986	1755.75
384.211	1816.75
384.436	1820.75
384.662	1840.75
384.887	1831.75
385.112	1808.75
385.337	1828.75
385.562	1884.75
385.787	1857.75
386.013	1972.75
386.238	1979.75
386.463	1962.75
386.688	1914.75
386.913	1869.75
387.138	1845.75
387.363	1861.75
387.588	1873.75
387.813	1873.75
388.038	1854.75
388.263	1865.75
388.488	1872.75
388.713	1887.75
388.938	1886.75
389.163	1878.75
389.387	1893.75
389.612	1836.75
389.837	1820.75
390.062	1821.75
390.287	1807.75
390.512	1830.75
390.736	1882.75
390.961	1850.75
391.186	1897.75
391.411	1944.75
391.636	1987.75
391.86	1992.75
392.085	2001.75
392.31	2030.75
392.534	1989.75
392.759	1939.75
392.984	1938.75
393.208	2013.75
393.433	2053.75
393.658	2048.75
393.882	1931.75
394.107	1888.75
394.331	1939.75
394.556	1887.75
394.78	1922.75
395.005	1926.75
395.229	1965.75
395.454	1959.75
395.678	2004.75
395.903	2053.75
396.127	2117.75
396.352	2120.75
396.576	2045.75
396.801	1993.75
397.025	2044.75
397.249	2038.75
397.474	2034.75
397.698	2099.75
397.922	2130.75
398.147	2149.75
398.371	2233.75
398.595	2174.75
398.82	2284.75
399.044	2369.75
399.268	2472.75
399.492	2735.75
399.717	2970.75
399.941	3020.75
400.165	3021.75
400.389	2838.75
400.613	2586.75
400.837	2394.75
401.062	2364.75
401.286	2251.75
401.51	2270.75
401.734	2268.75
401.958	2278.75
402.182	2339.75
402.406	2426.75
402.63	2403.75
402.854	2438.75
403.078	2453.75
403.302	2458.75
403.526	2534.75
403.75	2493.75
403.974	2494.75
404.198	2427.75
404.422	2509.75
404.645	2486.75
404.869	2529.75
405.093	2529.75
405.317	2616.75
405.541	2669.75
405.765	2525.75
405.988	2502.75
406.212	2605.75
406.436	2733.75
406.66	2818.75
406.883	2717.75
407.107	2829.75
407.331	3122.75
407.555	3376.75
407.778	3337.75
408.002	2984.75
408.226	2800.75
408.449	2717.75
408.673	2673.75
408.896	2797.75
409.12	2873.75
409.344	2688.75
409.567	2508.75
409.791	2470.75
410.014	2401.75
410.238	2372.75
410.461	2413.75
410.685	2398.75
410.908	2469.75
411.132	2655.75
411.355	2744.75
411.578	2558.75
411.802	2375.75
412.025	2332.75
412.249	2350.75
412.472	2332.75
412.695	2308.75
412.919	2306.75
413.142	2233.75
413.365	2241.75
413.589	2220.75
413.812	2189.75
414.035	2237.75
414.258	2218.75
414.482	2208.75
414.705	2242.75
414.928	2230.75
415.151	2163.75
415.374	2190.75
415.597	2185.75
415.821	2217.75
416.044	2270.75
416.267	2248.75
416.49	2238.75
416.713	2192.75
416.936	2229.75
417.159	2217.75
417.382	2267.75
417.605	2296.75
417.828	2356.75
418.051	2412.75
418.274	2331.75
418.497	2294.75
418.72	2273.75
418.943	2257.75
419.166	2384.75
419.389	2486.75
419.611	2438.75
419.834	2433.75
420.057	2399.75
420.28	2379.75
420.503	2286.75
420.726	2341.75
420.948	2394.75
421.171	2604.75
421.394	2658.75
421.617	2421.75
421.839	2283.75
422.062	2344.75
422.285	2445.75
422.507	2717.75
422.73	2997.75
422.953	2862.75
423.175	2569.75
423.398	2498.75
423.621	2547.75
423.843	2653.75
424.066	2656.75
424.288	2551.75
424.511	2687.75
424.733	2886.75
424.956	3266.75
425.178	3097.75
425.401	3102.75
425.623	3077.75
425.846	2658.75
426.068	2506.75
426.291	2456.75
426.513	2460.75
426.735	2513.75
426.958	2746.75
427.18	3130.75
427.402	3737.75
427.625	4049.75
427.847	3445.75
428.069	2781.75
428.292	2479.75
428.514	2377.75
428.736	2278.75
428.958	2293.75
429.181	2165.75
429.403	2223.75
429.625	2233.75
429.847	2474.75
430.069	2784.75
430.292	2639.75
430.514	2266.75
430.736	2248.75
430.958	2194.75
431.18	2128.75
431.402	2086.75
431.624	2111.75
431.846	2093.75
432.068	2076.75
432.29	2162.75
432.512	2139.75
432.734	2175.75
432.956	2215.75
433.178	2237.75
433.4	2215.75
433.622	2166.75
433.844	2138.75
434.066	2108.75
434.287	2117.75
434.509	2264.75
434.731	2264.75
434.953	2305.75
435.175	2437.75
435.397	2547.75
435.618	2562.75
435.84	2725.75
436.062	3083.75
436.284	3308.75
436.505	2640.75
436.727	2486.75
436.949	2283.75
437.17	2244.75
437.392	2238.75
437.614	2314.75
437.835	2533.75
438.057	3061.75
438.278	3394.75
438.5	3298.75
438.721	3599.75
438.943	3337.75
439.165	2698.75
439.386	2568.75
439.608	2584.75
439.829	2543.75
440.05	2765.75
440.272	3009.75
440.493	2714.75
440.715	2468.75
440.936	2387.75
441.158	2335.75
441.379	2357.75
441.6	2471.75
441.822	2629.75
442.043	2784.75
442.264	3181.75
442.486	3200.75
442.707	2771.75
442.928	2626.75
443.149	2802.75
443.371	2886.75
443.592	3033.75
443.813	3454.75
444.034	3553.75
444.255	2922.75
444.476	2678.75
444.698	2699.75
444.919	2689.75
445.14	2798.75
445.361	2814.75
445.582	2937.75
445.803	3318.75
446.024	3689.75
446.245	3538.75
446.466	3193.75
446.687	2672.75
446.908	2440.75
447.129	2352.75
447.35	2300.75
447.571	2230.75
447.792	2176.75
448.013	2243.75
448.234	2341.75
448.455	2623.75
448.675	3156.75
448.896	3472.75
449.117	2878.75
449.338	2826.75
449.559	3382.75
449.779	3647.75
450	2808.75
450.221	2382.75
450.442	2253.75
450.662	2198.75
450.883	2248.75
451.104	2363.75
451.324	2295.75
451.545	2169.75
451.766	2028.75
451.986	1962.75
452.207	1950.75
452.428	1965.75
452.648	1964.75
452.869	2023.75
453.089	2113.75
453.31	2150.75
453.53	2035.75
453.751	2000.75
453.971	2005.75
454.192	2169.75
454.412	2053.75
454.633	1946.75
454.853	1932.75
455.073	1899.75
455.294	2154.75
455.514	2461.75
455.734	2269.75
455.955	1950.75
456.175	1847.75
456.395	1798.75
456.616	1770.75
456.836	1780.75
457.056	1719.75
457.276	1762.75
457.497	1801.75
457.717	1820.75
457.937	1874.75
458.157	1870.75
458.377	1904.75
458.598	2066.75
458.818	2453.75
459.038	2999.75
459.258	2869.75
459.478	2365.75
459.698	2144.75
459.918	2101.75
460.138	2132.75
460.358	2223.75
460.578	2219.75
460.798	2229.75
461.018	2231.75
461.238	2145.75
461.458	2156.75
461.678	2133.75
461.898	2188.75
462.118	2175.75
462.338	2245.75
462.558	2319.75
462.777	2367.75
462.997	2485.75
463.217	2618.75
463.437	2605.75
463.657	2434.75
463.876	2396.75
464.096	2417.75
464.316	2417.75
464.536	2467.75
464.755	2432.75
464.975	2476.75
465.195	2813.75
465.414	3124.75
465.634	2541.75
465.854	2280.75
466.073	2105.75
466.293	2024.75
466.512	1962.75
466.732	1983.75
466.951	1956.75
467.171	1933.75
467.391	1997.75
467.61	2053.75
467.829	2131.75
468.049	2001.75
468.268	1931.75
468.488	1876.75
468.707	1860.75
468.927	1868.75
469.146	1873.75
469.365	1915.75
469.585	1920.75
469.804	2006.75
470.023	2080.75
470.243	2068.75
470.462	2107.75
470.681	2220.75
470.901	2144.75
471.12	2057.75
471.339	2030.75
471.558	2041.75
471.777	1991.75
471.997	1921.75
472.216	1898.75
472.435	1868.75
472.654	1891.75
472.873	1864.75
473.092	1880.75
473.311	1872.75
473.53	1920.75
473.749	1977.75
473.968	2225.75
474.187	2749.75
474.406	2654.75
474.625	2138.75
474.844	1993.75
475.063	1955.75
475.282	1946.75
475.501	1974.75
475.72	2014.75
475.939	2016.75
476.158	2005.75
476.377	1978.75
476.596	1976.75
476.814	2040.75
477.033	2073.75
477.252	2064.75
477.471	2068.75
477.69	2137.75
477.908	2154.75
478.127	2178.75
478.346	2238.75
478.564	2220.75
478.783	2321.75
479.002	2282.75
479.22	2344.75
479.439	2386.75
479.658	2473.75
479.876	2506.75
480.095	2527.75
480.313	2805.75
480.532	2620.75
480.751	2514.75
480.969	2539.75
481.188	2548.75
481.406	2433.75
481.624	2378.75
481.843	2340.75
482.061	2292.75
482.28	2277.75
482.498	2272.75
482.717	2260.75
482.935	2257.75
483.153	2280.75
483.372	2285.75
483.59	2315.75
483.808	2249.75
484.027	2238.75
484.245	2271.75
484.463	2260.75
484.681	2343.75
484.9	2352.75
485.118	2362.75
485.336	2334.75
485.554	2370.75
485.772	2360.75
485.99	2365.75
486.209	2389.75
486.427	2445.75
486.645	2504.75
486.863	2607.75
487.081	2578.75
487.299	2479.75
487.517	2470.75
487.735	2468.75
487.953	2465.75
488.171	2452.75
488.389	2430.75
488.607	2498.75
488.825	2478.75
489.043	2494.75
489.261	2536.75
489.479	2510.75
489.696	2465.75
489.914	2541.75
490.132	2573.75
490.35	2577.75
490.568	2625.75
490.786	2698.75
491.003	2764.75
491.221	2822.75
491.439	2895.75
491.657	2883.75
491.874	2876.75
492.092	2920.75
492.31	2876.75
492.527	2955.75
492.745	2928.75
492.963	2932.75
493.18	2956.75
493.398	3025.75
493.615	3068.75
493.833	3017.75
494.05	2992.75
494.268	3000.75
494.485	3010.75
494.703	2997.75
494.92	3008.75
495.138	3023.75
495.355	3023.75
495.573	3053.75
495.79	3013.75
496.008	3012.75
496.225	2975.75
496.442	2988.75
496.66	3021.75
496.877	3023.75
497.094	3023.75
497.312	3050.75
497.529	3200.75
497.746	3172.75
497.963	3284.75
498.181	3410.75
498.398	3422.75
498.615	3484.75
498.832	3620.75
499.049	3708.75
499.267	3895.75
499.484	4060.75
499.701	4229.75
499.918	4450.75
500.135	4832.75
500.352	5107.75
500.569	5256.75
500.786	5144.75
501.003	4987.75
501.22	4824.75
501.437	4644.75
501.654	4451.75
501.871	4293.75
502.088	4018.75
502.305	3731.75
502.522	3603.75
502.739	3453.75
502.956	3304.75
503.172	3267.75
503.389	3208.75
503.606	3232.75
503.823	3174.75
504.04	3085.75
504.256	3087.75
504.473	3072.75
504.69	3050.75
504.907	3029.75
505.123	2925.75
505.34	2929.75
505.557	2864.75
505.773	2842.75
505.99	2867.75
506.207	2891.75
506.423	2820.75
506.64	2832.75
506.856	2764.75
507.073	2737.75
507.289	2703.75
507.506	2754.75
507.722	2888.75
507.939	2911.75
508.155	2764.75
508.372	2636.75
508.588	2575.75
508.805	2574.75
509.021	2645.75
509.238	2839.75
509.454	2772.75
509.67	2670.75
509.887	2600.75
510.103	2588.75
510.319	2650.75
510.536	3073.75
510.752	5074.75
510.968	3533.75
511.184	2551.75
511.401	2472.75
511.617	2421.75
511.833	2387.75
512.049	2362.75
512.265	2305.75
512.481	2346.75
512.698	2385.75
512.914	2350.75
513.13	2394.75
513.346	2367.75
513.562	2369.75
513.778	2371.75
513.994	2434.75
514.21	2526.75
514.426	2642.75
514.642	2958.75
514.858	3035.75
515.074	3276.75
515.29	4184.75
515.506	6419.75
515.721	4362.75
515.937	3102.75
516.153	2784.75
516.369	2683.75
516.585	2621.75
516.801	2606.75
517.016	2625.75
517.232	2738.75
517.448	2680.75
517.664	2758.75
517.879	2761.75
518.095	2711.75
518.311	2716.75
518.527	2635.75
518.742	2570.75
518.958	2504.75
519.173	2516.75
519.389	2498.75
519.605	2453.75
519.82	2469.75
520.036	2600.75
520.251	2726.75
520.467	2801.75
520.682	2786.75
520.898	2742.75
521.113	2876.75
521.329	3138.75
521.544	3763.75
521.76	5080.75
521.975	8797.75
522.19	7238.75
522.406	3712.75
522.621	2814.75
522.836	2559.75
523.052	2349.75
523.267	2230.75
523.482	2175.75
523.698	2147.75
523.913	2204.75
524.128	2192.75
524.343	2106.75
524.559	2016.75
524.774	2017.75
524.989	2023.75
525.204	2024.75
525.419	2042.75
525.634	2027.75
525.849	1934.75
526.064	1903.75
526.28	1903.75
526.495	1884.75
526.71	1828.75
526.925	1834.75
527.14	1832.75
527.355	1887.75
527.57	1840.75
527.785	1840.75
527.999	1851.75
528.214	1826.75
528.429	1837.75
528.644	1856.75
528.859	1811.75
529.074	1892.75
529.289	2086.75
529.503	2645.75
529.718	2338.75
529.933	2046.75
530.148	1943.75
530.363	1906.75
530.577	1819.75
530.792	1796.75
531.007	1776.75
531.221	1782.75
531.436	1776.75
531.651	1770.75
531.865	1766.75
532.08	1780.75
532.295	1746.75
532.509	1787.75
532.724	1758.75
532.938	1756.75
533.153	1775.75
533.367	1761.75
533.582	1765.75
533.796	1761.75
534.011	1733.75
534.225	1746.75
534.44	1764.75
534.654	1728.75
534.868	1728.75
535.083	1725.75
535.297	1756.75
535.511	1744.75
535.726	1832.75
535.94	1849.75
536.154	1740.75
536.369	1737.75
536.583	1689.75
536.797	1677.75
537.011	1685.75
537.225	1633.75
537.44	1652.75
537.654	1665.75
537.868	1649.75
538.082	1700.75
538.296	1708.75
538.51	1676.75
538.724	1689.75
538.938	1701.75
539.153	1732.75
539.367	1762.75
539.581	1772.75
539.795	1652.75
540.009	1697.75
540.222	1640.75
540.436	1688.75
540.65	1706.75
540.864	1746.75
541.078	1736.75
541.292	1698.75
541.506	1691.75
541.72	1714.75
541.934	1639.75
542.147	1652.75
542.361	1649.75
542.575	1672.75
542.789	1634.75
543.002	1672.75
543.216	1706.75
543.43	1700.75
543.644	1680.75
543.857	1670.75
544.071	1692.75
544.285	1706.75
544.498	1685.75
544.712	1651.75
544.925	1630.75
545.139	1627.75
545.352	1654.75
545.566	1609.75
545.779	1666.75
545.993	1634.75
546.206	1664.75
546.42	1669.75
546.633	1670.75
546.847	1628.75
547.06	1624.75
547.274	1668.75
547.487	1630.75
547.7	1627.75
547.914	1601.75
548.127	1613.75
548.34	1653.75
548.554	1621.75
548.767	1609.75
548.98	1627.75
549.193	1611.75
549.407	1632.75
549.62	1604.75
549.833	1627.75
550.046	1605.75
550.259	1628.75
550.473	1564.75
550.686	1581.75
550.899	1584.75
551.112	1543.75
551.325	1566.75
551.538	1538.75
551.751	1532.75
551.964	1574.75
552.177	1585.75
552.39	1578.75
552.603	1619.75
552.816	1651.75
553.029	1686.75
553.242	1684.75
553.455	1756.75
553.667	1786.75
553.88	1811.75
554.093	1755.75
554.306	1736.75
554.519	1655.75
554.732	1633.75
554.944	1569.75
555.157	1557.75
555.37	1515.75
555.583	1493.75
555.795	1517.75
556.008	1476.75
556.221	1456.75
556.433	1432.75
556.646	1440.75
556.859	1426.75
557.071	1430.75
557.284	1426.75
557.496	1379.75
557.709	1370.75
557.921	1407.75
558.134	1397.75
558.346	1366.75
558.559	1353.75
558.771	1362.75
558.984	1352.75
559.196	1347.75
559.409	1322.75
559.621	1331.75
559.833	1347.75
560.046	1333.75
560.258	1344.75
560.47	1315.75
560.683	1323.75
560.895	1335.75
561.107	1365.75
561.32	1371.75
561.532	1325.75
561.744	1344.75
561.956	1330.75
562.168	1340.75
562.381	1369.75
562.593	1368.75
562.805	1352.75
563.017	1340.75
563.229	1347.75
563.441	1353.75
563.653	1407.75
563.865	1349.75
564.077	1386.75
564.289	1377.75
564.501	1403.75
564.713	1425.75
564.925	1452.75
565.137	1506.75
565.349	1518.75
565.561	1549.75
565.773	1575.75
565.985	1612.75
566.197	1656.75
566.408	1741.75
566.62	1827.75
566.832	1933.75
567.044	1939.75
567.255	1949.75
567.467	2017.75
567.679	2066.75
567.891	2133.75
568.102	2110.75
568.314	2038.75
568.526	1884.75
568.737	1784.75
568.949	1684.75
569.161	1541.75
569.372	1484.75
569.584	1467.75
569.795	1447.75
570.007	1425.75
570.218	1600.75
570.43	1474.75
570.641	1317.75
570.853	1349.75
571.064	1364.75
571.276	1346.75
571.487	1314.75
571.698	1277.75
571.91	1258.75
572.121	1211.75
572.333	1237.75
572.544	1212.75
572.755	1139.75
572.966	1156.75
573.178	1142.75
573.389	1129.75
573.6	1152.75
573.811	1144.75
574.023	1090.75
574.234	1152.75
574.445	1126.75
574.656	1114.75
574.867	1117.75
575.078	1092.75
575.289	1122.75
575.501	1117.75
575.712	1091.75
575.923	1088.75
576.134	1088.75
576.345	1071.75
576.556	1103.75
576.767	1061.75
576.978	1092.75
577.188	1050.75
577.399	1067.75
577.61	1036.75
577.821	1024.75
578.032	1051.75
578.243	1210.75
578.454	2084.75
578.665	1356.75
578.875	1064.75
579.086	1010.75
579.297	999.75
579.508	981.75
579.718	973.75
579.929	1025.75
580.14	972.75
580.35	989.75
580.561	956.75
580.772	986.75
580.982	987.75
581.193	966.75
581.403	975.75
581.614	969.75
581.825	960.75
582.035	959.75
582.246	942.75
582.456	947.75
582.667	963.75
582.877	981.75
583.087	977.75
583.298	957.75
583.508	918.75
583.719	950.75
583.929	953.75
584.139	956.75
584.35	914.75
584.56	965.75
584.77	936.75
584.981	950.75
585.191	984.75
585.401	965.75
585.611	951.75
585.821	916.75
586.032	952.75
586.242	898.75
586.452	926.75
586.662	928.75
586.872	916.75
587.082	924.75
587.292	910.75
587.502	915.75
587.713	941.75
587.923	898.75
588.133	909.75
588.343	933.75
588.553	921.75
588.762	926.75
588.972	938.75
589.182	1053.75
589.392	984.75
589.602	947.75
589.812	1000.75
590.022	948.75
590.232	912.75
590.441	905.75
590.651	948.75
590.861	932.75
591.071	943.75
591.281	917.75
591.49	956.75
591.7	945.75
591.91	977.75
592.119	1005.75
592.329	1018.75
592.539	1029.75
592.748	1061.75
592.958	1054.75
593.167	1115.75
593.377	1089.75
593.587	1121.75
593.796	1085.75
594.006	1118.75
594.215	1125.75
594.424	1100.75
594.634	1081.75
594.843	1048.75
595.053	1058.75
595.262	1039.75
595.472	981.75
595.681	1010.75
595.89	930.75
596.1	931.75
596.309	924.75
596.518	893.75
596.727	887.75
596.937	881.75
597.146	885.75
597.355	874.75
597.564	857.75
597.774	832.75
597.983	825.75
598.192	821.75
598.401	836.75
598.61	840.75
598.819	826.75
599.028	812.75
599.237	800.75
599.446	819.75
599.655	788.75
599.864	812.75
600.073	791.75
600.282	797.75
600.491	799.75
600.7	786.75
600.909	809.75
601.118	790.75
601.327	781.75
601.536	789.75
601.745	785.75
601.953	757.75
602.162	800.75
602.371	800.75
602.58	811.75
602.789	780.75
602.997	792.75
603.206	786.75
603.415	800.75
603.623	752.75
603.832	762.75
604.041	756.75
604.249	736.75
604.458	739.75
604.666	772.75
604.875	740.75
605.084	737.75
605.292	730.75
605.501	748.75
605.709	772.75
605.918	729.75
606.126	766.75
606.334	760.75
606.543	778.75
606.751	730.75
606.96	755.75
607.168	744.75
607.376	740.75
607.585	745.75
607.793	761.75
608.001	750.75
608.21	769.75
608.418	751.75
608.626	749.75
608.834	741.75
609.043	741.75
609.251	725.75
609.459	725.75
609.667	714.75
609.875	740.75
610.083	732.75
610.291	738.75
610.499	726.75
610.707	752.75
610.916	748.75
611.124	748.75
611.332	760.75
611.54	762.75
611.748	776.75
611.955	725.75
612.163	750.75
612.371	731.75
612.579	716.75
612.787	698.75
612.995	725.75
613.203	726.75
613.411	730.75
613.618	711.75
613.826	713.75
614.034	707.75
614.242	719.75
614.449	721.75
614.657	707.75
614.865	715.75
615.072	736.75
615.28	714.75
615.488	703.75
615.695	741.75
615.903	738.75
616.111	713.75
616.318	748.75
616.526	748.75
616.733	745.75
616.941	728.75
617.148	720.75
617.356	698.75
617.563	709.75
617.771	741.75
617.978	682.75
618.185	710.75
618.393	704.75
618.6	720.75
618.807	715.75
619.015	723.75
619.222	730.75
619.429	690.75
619.637	689.75
619.844	696.75
620.051	700.75
620.258	686.75
620.466	683.75
620.673	646.75
620.88	679.75
621.087	668.75
621.294	664.75
621.501	647.75
621.708	679.75
621.915	716.75
622.122	678.75
622.329	684.75
622.536	659.75
622.743	636.75
622.95	664.75
623.157	658.75
623.364	674.75
623.571	653.75
623.778	648.75
623.985	658.75
624.192	652.75
624.399	638.75
624.606	654.75
624.812	631.75
625.019	652.75
625.226	623.75
625.433	632.75
625.639	612.75
625.846	629.75
626.053	583.75
626.259	605.75
626.466	597.75
626.673	620.75
626.879	619.75
627.086	614.75
627.293	617.75
627.499	603.75
627.706	609.75
627.912	612.75
628.119	596.75
628.325	614.75
628.532	588.75
628.738	598.75
628.945	584.75
629.151	590.75
629.357	581.75
629.564	582.75
629.77	587.75
629.976	587.75
630.183	555.75
630.389	560.75
630.595	578.75
630.802	562.75
631.008	563.75
631.214	530.75
631.42	556.75
631.627	546.75
631.833	546.75
632.039	521.75
632.245	540.75
632.451	547.75
632.657	537.75
632.863	527.75
633.069	520.75
633.275	531.75
633.481	518.75
633.688	522.75
633.893	520.75
634.099	540.75
634.305	505.75
634.511	516.75
634.717	508.75
634.923	486.75
635.129	512.75
635.335	494.75
635.541	499.75
635.747	519.75
635.952	496.75
636.158	491.75
636.364	508.75
636.57	501.75
636.775	502.75
636.981	506.75
637.187	496.75
637.392	492.75
637.598	479.75
637.804	495.75
638.009	491.75
638.215	495.75
638.421	476.75
638.626	490.75
638.832	491.75
639.037	512.75
639.243	467.75
639.448	465.75
639.654	460.75
639.859	439.75
640.065	452.75
640.27	466.75
640.475	465.75
640.681	458.75
640.886	456.75
641.091	462.75
641.297	468.75
641.502	470.75
641.707	465.75
641.913	472.75
642.118	463.75
642.323	451.75
642.528	456.75
642.733	448.75
642.939	434.75
643.144	452.75
643.349	444.75
643.554	435.75
643.759	428.75
643.964	420.75
644.169	427.75
644.374	449.75
644.579	435.75
644.784	457.75
644.989	450.75
645.194	435.75
645.399	437.75
645.604	423.75
645.809	471.75
646.014	447.75
646.219	448.75
646.423	422.75
646.628	428.75
646.833	435.75
647.038	433.75
647.243	427.75
647.447	450.75
647.652	450.75
647.857	436.75
648.062	461.75
648.266	462.75
648.471	477.75
648.676	441.75
648.88	458.75
649.085	455.75
649.289	454.75
649.494	497.75
649.698	532.75
649.903	514.75
650.107	463.75
650.312	439.75
650.516	403.75
650.721	410.75
650.925	412.75
651.13	408.75
651.334	384.75
651.539	382.75
651.743	380.75
651.947	369.75
652.152	360.75
652.356	352.75
652.56	363.75
652.764	346.75
652.969	337.75
653.173	339.75
653.377	335.75
653.581	337.75
653.785	344.75
653.99	333.75
654.194	325.75
654.398	321.75
654.602	320.75
654.806	337.75
655.01	346.75
655.214	352.75
655.418	328.75
655.622	320.75
655.826	329.75
656.03	328.75
656.234	340.75
656.438	338.75
656.642	338.75
656.846	324.75
657.049	300.75
657.253	290.75
657.457	282.75
657.661	274.75
657.865	253.75
658.068	232.75
658.272	225.75
658.476	207.75
658.68	202.75
658.883	189.75
659.087	188.75
659.291	189.75
659.494	178.75
659.698	175.75
659.901	166.75
660.105	160.75
660.309	155.75
660.512	146.75
660.716	148.75
660.919	138.75
661.123	146.75
661.326	133.75
661.53	121.75
661.733	123.75
661.936	110.75
662.14	109.75
662.343	122.75
662.546	109.75
662.75	114.75
662.953	122.75
663.156	115.75
663.36	104.75
663.563	93.75
663.766	97.75
663.969	84.75
664.173	98.75
664.376	102.75
664.579	98.75
664.782	82.75
664.985	97.75
665.188	104.75
665.391	90.75
665.594	91.75
665.797	89.75
666	82.75
666.203	88.75
666.406	107.75
666.609	92.75
666.812	93.75
667.015	90.75
667.218	90.75
667.421	85.75
667.624	70.75
667.827	87.75
668.03	78.75
668.232	64.75
668.435	96.75
668.638	89.75
668.841	103.75
669.043	74.75
669.246	87.75
669.449	89.75
669.651	84.75
669.854	92.75
670.057	93.75
670.259	85.75
670.462	88.75
670.665	97.75
670.867	89.75
671.07	82.75
671.272	80.75
671.475	84.75
671.677	105.75
671.88	74.75
672.082	80.75
672.284	102.75
672.487	88.75
672.689	90.75
672.892	90.75
