Data from copper.mounting.energy7_HRD10591_16-51-04-545.txt Node
Date: Thu Jul 11 16:51:04 EDT 2019
User: cochatt
Spectrometer: HR+D1059
Trigger mode: 1
Integration Time (sec): 1.000000E-1
Scans to average: 1
Electric dark correction enabled: true
Nonlinearity correction enabled: false
Boxcar width: 0
XAxis mode: Wavelengths
Number of Pixels in Spectrum: 2048
>>>>>Begin Spectral Data<<<<<
223.165	2.06
223.4	2.06
223.635	2.06
223.869	-7.94
224.104	-11.94
224.338	-14.94
224.573	-14.94
224.808	-14.94
225.042	-16.94
225.277	-10.94
225.511	11.06
225.746	-12.94
225.98	14.06
226.215	-3.94
226.449	3.06
226.683	33.06
226.918	17.06
227.152	29.06
227.387	31.06
227.621	31.06
227.856	46.06
228.09	45.06
228.324	50.06
228.559	56.06
228.793	81.06
229.027	186.06
229.262	191.06
229.496	233.06
229.73	281.06
229.964	293.06
230.199	244.06
230.433	203.06
230.667	203.06
230.901	205.06
231.136	188.06
231.37	192.06
231.604	201.06
231.838	200.06
232.072	192.06
232.306	209.06
232.541	216.06
232.775	208.06
233.009	196.06
233.243	200.06
233.477	201.06
233.711	199.06
233.945	211.06
234.179	222.06
234.413	216.06
234.647	209.06
234.881	214.06
235.115	217.06
235.349	229.06
235.583	249.06
235.817	239.06
236.051	233.06
236.285	245.06
236.519	234.06
236.753	279.06
236.987	331.06
237.221	397.06
237.455	466.06
237.689	373.06
237.922	293.06
238.156	279.06
238.39	267.06
238.624	256.06
238.858	257.06
239.091	268.06
239.325	230.06
239.559	259.06
239.793	266.06
240.027	305.06
240.26	325.06
240.494	356.06
240.728	346.06
240.961	328.06
241.195	332.06
241.429	290.06
241.662	280.06
241.896	283.06
242.13	288.06
242.363	279.06
242.597	284.06
242.83	314.06
243.064	294.06
243.298	298.06
243.531	307.06
243.765	306.06
243.998	316.06
244.232	322.06
244.465	300.06
244.699	313.06
244.932	348.06
245.166	333.06
245.399	337.06
245.633	330.06
245.866	318.06
246.099	316.06
246.333	329.06
246.566	344.06
246.8	354.06
247.033	378.06
247.266	384.06
247.5	379.06
247.733	390.06
247.966	408.06
248.2	375.06
248.433	400.06
248.666	420.06
248.899	425.06
249.133	474.06
249.366	486.06
249.599	457.06
249.832	420.06
250.066	408.06
250.299	427.06
250.532	444.06
250.765	476.06
250.998	543.06
251.231	563.06
251.465	524.06
251.698	500.06
251.931	503.06
252.164	495.06
252.397	496.06
252.63	488.06
252.863	516.06
253.096	518.06
253.329	551.06
253.562	542.06
253.795	535.06
254.028	515.06
254.261	539.06
254.494	563.06
254.727	644.06
254.96	695.06
255.193	673.06
255.426	603.06
255.659	573.06
255.892	528.06
256.124	529.06
256.357	516.06
256.59	526.06
256.823	498.06
257.056	501.06
257.289	502.06
257.521	489.06
257.754	487.06
257.987	528.06
258.22	493.06
258.452	490.06
258.685	518.06
258.918	502.06
259.151	527.06
259.383	530.06
259.616	547.06
259.849	567.06
260.081	603.06
260.314	640.06
260.547	658.06
260.779	622.06
261.012	585.06
261.244	564.06
261.477	562.06
261.71	554.06
261.942	567.06
262.175	564.06
262.407	567.06
262.64	545.06
262.872	521.06
263.105	561.06
263.337	559.06
263.57	547.06
263.802	533.06
264.035	546.06
264.267	545.06
264.499	531.06
264.732	555.06
264.964	546.06
265.197	534.06
265.429	552.06
265.661	520.06
265.894	536.06
266.126	557.06
266.358	536.06
266.591	561.06
266.823	573.06
267.055	572.06
267.287	584.06
267.52	583.06
267.752	568.06
267.984	579.06
268.216	601.06
268.448	612.06
268.681	614.06
268.913	668.06
269.145	700.06
269.377	742.06
269.609	702.06
269.841	678.06
270.073	733.06
270.306	778.06
270.538	830.06
270.77	812.06
271.002	780.06
271.234	767.06
271.466	793.06
271.698	815.06
271.93	825.06
272.162	845.06
272.394	836.06
272.626	799.06
272.858	754.06
273.09	758.06
273.322	718.06
273.553	697.06
273.785	712.06
274.017	687.06
274.249	688.06
274.481	683.06
274.713	700.06
274.945	711.06
275.176	691.06
275.408	672.06
275.64	676.06
275.872	704.06
276.104	700.06
276.335	714.06
276.567	708.06
276.799	741.06
277.031	797.06
277.262	840.06
277.494	839.06
277.726	774.06
277.957	721.06
278.189	740.06
278.421	714.06
278.652	730.06
278.884	708.06
279.115	692.06
279.347	729.06
279.579	694.06
279.81	722.06
280.042	711.06
280.273	727.06
280.505	711.06
280.736	711.06
280.968	729.06
281.199	703.06
281.431	709.06
281.662	710.06
281.894	736.06
282.125	752.06
282.356	783.06
282.588	802.06
282.819	802.06
283.051	756.06
283.282	748.06
283.513	768.06
283.745	744.06
283.976	775.06
284.207	766.06
284.439	770.06
284.67	769.06
284.901	746.06
285.132	756.06
285.364	754.06
285.595	769.06
285.826	771.06
286.057	777.06
286.288	746.06
286.52	793.06
286.751	778.06
286.982	771.06
287.213	783.06
287.444	780.06
287.675	797.06
287.906	822.06
288.138	817.06
288.369	804.06
288.6	840.06
288.831	824.06
289.062	800.06
289.293	796.06
289.524	798.06
289.755	785.06
289.986	792.06
290.217	819.06
290.448	799.06
290.679	808.06
290.91	803.06
291.141	771.06
291.371	802.06
291.602	803.06
291.833	797.06
292.064	808.06
292.295	781.06
292.526	784.06
292.757	792.06
292.987	792.06
293.218	769.06
293.449	807.06
293.68	813.06
293.91	770.06
294.141	808.06
294.372	805.06
294.603	830.06
294.833	811.06
295.064	824.06
295.295	832.06
295.525	825.06
295.756	827.06
295.987	825.06
296.217	871.06
296.448	868.06
296.679	847.06
296.909	821.06
297.14	820.06
297.37	852.06
297.601	866.06
297.831	852.06
298.062	824.06
298.292	828.06
298.523	852.06
298.753	878.06
298.984	839.06
299.214	854.06
299.445	864.06
299.675	880.06
299.905	867.06
300.136	888.06
300.366	868.06
300.597	842.06
300.827	894.06
301.057	897.06
301.288	902.06
301.518	916.06
301.748	894.06
301.979	932.06
302.209	937.06
302.439	909.06
302.669	927.06
302.9	924.06
303.13	910.06
303.36	920.06
303.59	922.06
303.82	929.06
304.051	963.06
304.281	915.06
304.511	898.06
304.741	880.06
304.971	886.06
305.201	918.06
305.431	903.06
305.661	924.06
305.891	924.06
306.121	887.06
306.352	894.06
306.582	880.06
306.812	914.06
307.042	914.06
307.272	893.06
307.502	913.06
307.731	929.06
307.961	894.06
308.191	900.06
308.421	896.06
308.651	922.06
308.881	915.06
309.111	906.06
309.341	924.06
309.571	957.06
309.8	963.06
310.03	971.06
310.26	983.06
310.49	988.06
310.72	1012.06
310.949	1028.06
311.179	1030.06
311.409	1005.06
311.639	1016.06
311.868	993.06
312.098	998.06
312.328	1019.06
312.557	1065.06
312.787	1051.06
313.017	1060.06
313.246	1051.06
313.476	999.06
313.706	1021.06
313.935	1025.06
314.165	1056.06
314.394	1055.06
314.624	1062.06
314.853	1026.06
315.083	1059.06
315.312	1030.06
315.542	1043.06
315.771	1017.06
316.001	999.06
316.23	1027.06
316.46	1003.06
316.689	1050.06
316.919	1040.06
317.148	1033.06
317.377	1046.06
317.607	1013.06
317.836	1022.06
318.065	989.06
318.295	1021.06
318.524	1015.06
318.753	988.06
318.983	1028.06
319.212	986.06
319.441	1008.06
319.67	1032.06
319.9	1016.06
320.129	1020.06
320.358	1035.06
320.587	1019.06
320.816	1039.06
321.046	1065.06
321.275	1053.06
321.504	1032.06
321.733	1028.06
321.962	1058.06
322.191	1098.06
322.42	1114.06
322.649	1128.06
322.878	1131.06
323.108	1135.06
323.337	1214.06
323.566	1208.06
323.795	1282.06
324.024	1331.06
324.253	1619.06
324.482	2149.06
324.71	3009.06
324.939	3904.06
325.168	3102.06
325.397	1801.06
325.626	1415.06
325.855	1247.06
326.084	1229.06
326.313	1246.06
326.542	1254.06
326.77	1334.06
326.999	1523.06
327.228	1961.06
327.457	2655.06
327.686	2883.06
327.914	1981.06
328.143	1523.06
328.372	1402.06
328.6	1376.06
328.829	1331.06
329.058	1373.06
329.287	1342.06
329.515	1334.06
329.744	1265.06
329.972	1249.06
330.201	1265.06
330.43	1310.06
330.658	1387.06
330.887	1468.06
331.115	1418.06
331.344	1318.06
331.572	1262.06
331.801	1268.06
332.03	1290.06
332.258	1261.06
332.486	1256.06
332.715	1236.06
332.943	1248.06
333.172	1295.06
333.4	1323.06
333.629	1346.06
333.857	1339.06
334.085	1345.06
334.314	1337.06
334.542	1303.06
334.771	1310.06
334.999	1322.06
335.227	1282.06
335.455	1307.06
335.684	1265.06
335.912	1246.06
336.14	1240.06
336.369	1260.06
336.597	1258.06
336.825	1235.06
337.053	1262.06
337.281	1214.06
337.51	1223.06
337.738	1259.06
337.966	1220.06
338.194	1220.06
338.422	1206.06
338.65	1191.06
338.878	1179.06
339.106	1173.06
339.334	1175.06
339.562	1137.06
339.79	1122.06
340.018	1135.06
340.246	1179.06
340.474	1148.06
340.702	1151.06
340.93	1138.06
341.158	1096.06
341.386	1137.06
341.614	1140.06
341.842	1123.06
342.07	1134.06
342.298	1124.06
342.526	1105.06
342.754	1122.06
342.981	1118.06
343.209	1132.06
343.437	1187.06
343.665	1195.06
343.893	1233.06
344.12	1282.06
344.348	1238.06
344.576	1242.06
344.804	1215.06
345.031	1178.06
345.259	1191.06
345.487	1154.06
345.714	1134.06
345.942	1108.06
346.17	1110.06
346.397	1105.06
346.625	1090.06
346.853	1095.06
347.08	1068.06
347.308	1099.06
347.535	1103.06
347.763	1091.06
347.99	1071.06
348.218	1076.06
348.445	1084.06
348.673	1087.06
348.9	1075.06
349.128	1072.06
349.355	1066.06
349.583	1037.06
349.81	1058.06
350.037	1052.06
350.265	1058.06
350.492	1030.06
350.72	1039.06
350.947	1051.06
351.174	1084.06
351.402	1089.06
351.629	1071.06
351.856	1078.06
352.083	1113.06
352.311	1080.06
352.538	1096.06
352.765	1059.06
352.992	1067.06
353.22	1049.06
353.447	1033.06
353.674	1016.06
353.901	1051.06
354.128	1034.06
354.355	1000.06
354.583	1034.06
354.81	1009.06
355.037	990.06
355.264	984.06
355.491	984.06
355.718	1028.06
355.945	1003.06
356.172	1012.06
356.399	1003.06
356.626	1014.06
356.853	1016.06
357.08	1014.06
357.307	1005.06
357.534	982.06
357.761	995.06
357.988	999.06
358.215	992.06
358.441	1007.06
358.668	1010.06
358.895	1022.06
359.122	1027.06
359.349	1022.06
359.576	1077.06
359.802	1088.06
360.029	1157.06
360.256	1167.06
360.483	1087.06
360.709	1080.06
360.936	1075.06
361.163	1025.06
361.39	1066.06
361.616	1064.06
361.843	1049.06
362.07	1026.06
362.296	1040.06
362.523	1020.06
362.749	1038.06
362.976	1033.06
363.203	1020.06
363.429	992.06
363.656	1030.06
363.882	1031.06
364.109	1016.06
364.335	1032.06
364.562	1012.06
364.788	1036.06
365.015	1003.06
365.241	1010.06
365.468	1024.06
365.694	1054.06
365.92	1027.06
366.147	1009.06
366.373	1018.06
366.599	1006.06
366.826	982.06
367.052	1021.06
367.278	1009.06
367.505	1026.06
367.731	998.06
367.957	1037.06
368.184	1002.06
368.41	1019.06
368.636	1043.06
368.862	1043.06
369.089	1041.06
369.315	1027.06
369.541	1021.06
369.767	1018.06
369.993	1019.06
370.219	1016.06
370.445	1027.06
370.672	1010.06
370.898	1028.06
371.124	1041.06
371.35	1054.06
371.576	1046.06
371.802	1051.06
372.028	1041.06
372.254	1034.06
372.48	1073.06
372.706	1082.06
372.932	1090.06
373.158	1089.06
373.384	1057.06
373.61	1031.06
373.835	1028.06
374.061	1067.06
374.287	1069.06
374.513	1074.06
374.739	1084.06
374.965	1128.06
375.191	1117.06
375.416	1104.06
375.642	1097.06
375.868	1083.06
376.094	1024.06
376.319	1039.06
376.545	1071.06
376.771	1011.06
376.997	1027.06
377.222	1019.06
377.448	1037.06
377.674	1048.06
377.899	1024.06
378.125	1030.06
378.35	1020.06
378.576	993.06
378.802	1042.06
379.027	1030.06
379.253	1030.06
379.478	1008.06
379.704	1046.06
379.929	1056.06
380.155	1017.06
380.38	1002.06
380.606	1054.06
380.831	1042.06
381.057	1044.06
381.282	1009.06
381.507	1042.06
381.733	1009.06
381.958	1011.06
382.184	1059.06
382.409	1087.06
382.634	1095.06
382.86	1058.06
383.085	1084.06
383.31	1081.06
383.535	1091.06
383.761	1121.06
383.986	1090.06
384.211	1131.06
384.436	1132.06
384.662	1150.06
384.887	1214.06
385.112	1180.06
385.337	1168.06
385.562	1160.06
385.787	1193.06
386.013	1185.06
386.238	1180.06
386.463	1194.06
386.688	1230.06
386.913	1181.06
387.138	1183.06
387.363	1166.06
387.588	1195.06
387.813	1182.06
388.038	1176.06
388.263	1189.06
388.488	1202.06
388.713	1200.06
388.938	1191.06
389.163	1199.06
389.387	1181.06
389.612	1175.06
389.837	1179.06
390.062	1175.06
390.287	1194.06
390.512	1167.06
390.736	1192.06
390.961	1176.06
391.186	1214.06
391.411	1240.06
391.636	1243.06
391.86	1249.06
392.085	1274.06
392.31	1270.06
392.534	1247.06
392.759	1229.06
392.984	1201.06
393.208	1205.06
393.433	1203.06
393.658	1204.06
393.882	1238.06
394.107	1204.06
394.331	1203.06
394.556	1201.06
394.78	1250.06
395.005	1255.06
395.229	1256.06
395.454	1260.06
395.678	1307.06
395.903	1289.06
396.127	1330.06
396.352	1268.06
396.576	1267.06
396.801	1256.06
397.025	1260.06
397.249	1276.06
397.474	1268.06
397.698	1323.06
397.922	1314.06
398.147	1326.06
398.371	1410.06
398.595	1406.06
398.82	1443.06
399.044	1512.06
399.268	1588.06
399.492	1752.06
399.717	1848.06
399.941	1912.06
400.165	1880.06
400.389	1796.06
400.613	1638.06
400.837	1527.06
401.062	1472.06
401.286	1434.06
401.51	1437.06
401.734	1384.06
401.958	1454.06
402.182	1474.06
402.406	1451.06
402.63	1443.06
402.854	1478.06
403.078	1528.06
403.302	1528.06
403.526	1540.06
403.75	1520.06
403.974	1523.06
404.198	1527.06
404.422	1549.06
404.645	1568.06
404.869	1556.06
405.093	1561.06
405.317	1582.06
405.541	1622.06
405.765	1548.06
405.988	1544.06
406.212	1538.06
406.436	1604.06
406.66	1635.06
406.883	1646.06
407.107	1772.06
407.331	1852.06
407.555	1994.06
407.778	1988.06
408.002	1822.06
408.226	1700.06
408.449	1674.06
408.673	1666.06
408.896	1691.06
409.12	1750.06
409.344	1704.06
409.567	1567.06
409.791	1524.06
410.014	1479.06
410.238	1474.06
410.461	1500.06
410.685	1514.06
410.908	1568.06
411.132	1623.06
411.355	1649.06
411.578	1559.06
411.802	1500.06
412.025	1471.06
412.249	1470.06
412.472	1466.06
412.695	1455.06
412.919	1436.06
413.142	1417.06
413.365	1393.06
413.589	1438.06
413.812	1411.06
414.035	1394.06
414.258	1427.06
414.482	1382.06
414.705	1375.06
414.928	1373.06
415.151	1401.06
415.374	1423.06
415.597	1376.06
415.821	1400.06
416.044	1405.06
416.267	1372.06
416.49	1400.06
416.713	1370.06
416.936	1405.06
417.159	1378.06
417.382	1392.06
417.605	1398.06
417.828	1470.06
418.051	1500.06
418.274	1473.06
418.497	1420.06
418.72	1430.06
418.943	1436.06
419.166	1501.06
419.389	1569.06
419.611	1543.06
419.834	1485.06
420.057	1491.06
420.28	1459.06
420.503	1446.06
420.726	1426.06
420.948	1491.06
421.171	1578.06
421.394	1599.06
421.617	1495.06
421.839	1476.06
422.062	1459.06
422.285	1538.06
422.507	1696.06
422.73	1794.06
422.953	1699.06
423.175	1566.06
423.398	1571.06
423.621	1576.06
423.843	1630.06
424.066	1617.06
424.288	1583.06
424.511	1671.06
424.733	1763.06
424.956	1898.06
425.178	1788.06
425.401	1807.06
425.623	1827.06
425.846	1613.06
426.068	1548.06
426.291	1499.06
426.513	1530.06
426.735	1534.06
426.958	1657.06
427.18	1837.06
427.402	2099.06
427.625	2217.06
427.847	1873.06
428.069	1661.06
428.292	1546.06
428.514	1440.06
428.736	1390.06
428.958	1421.06
429.181	1381.06
429.403	1357.06
429.625	1416.06
429.847	1497.06
430.069	1646.06
430.292	1592.06
430.514	1418.06
430.736	1388.06
430.958	1355.06
431.18	1314.06
431.402	1332.06
431.624	1323.06
431.846	1346.06
432.068	1293.06
432.29	1297.06
432.512	1326.06
432.734	1364.06
432.956	1352.06
433.178	1347.06
433.4	1352.06
433.622	1322.06
433.844	1331.06
434.066	1345.06
434.287	1373.06
434.509	1374.06
434.731	1409.06
434.953	1434.06
435.175	1542.06
435.397	1545.06
435.618	1539.06
435.84	1635.06
436.062	1841.06
436.284	1939.06
436.505	1618.06
436.727	1500.06
436.949	1434.06
437.17	1382.06
437.392	1362.06
437.614	1398.06
437.835	1467.06
438.057	1714.06
438.278	1894.06
438.5	1898.06
438.721	2101.06
438.943	1935.06
439.165	1604.06
439.386	1519.06
439.608	1499.06
439.829	1483.06
440.05	1555.06
440.272	1628.06
440.493	1522.06
440.715	1459.06
440.936	1419.06
441.158	1418.06
441.379	1433.06
441.6	1505.06
441.822	1569.06
442.043	1636.06
442.264	1849.06
442.486	1886.06
442.707	1624.06
442.928	1576.06
443.149	1600.06
443.371	1633.06
443.592	1772.06
443.813	2046.06
444.034	2063.06
444.255	1770.06
444.476	1651.06
444.698	1667.06
444.919	1688.06
445.14	1706.06
445.361	1632.06
445.582	1691.06
445.803	1830.06
446.024	2032.06
446.245	1987.06
446.466	1771.06
446.687	1563.06
446.908	1479.06
447.129	1426.06
447.35	1391.06
447.571	1391.06
447.792	1331.06
448.013	1349.06
448.234	1419.06
448.455	1507.06
448.675	1811.06
448.896	2058.06
449.117	1694.06
449.338	1707.06
449.559	1907.06
449.779	2096.06
450	1686.06
450.221	1442.06
450.442	1355.06
450.662	1317.06
450.883	1312.06
451.104	1340.06
451.324	1314.06
451.545	1278.06
451.766	1260.06
451.986	1220.06
452.207	1182.06
452.428	1160.06
452.648	1212.06
452.869	1213.06
453.089	1225.06
453.31	1259.06
453.53	1250.06
453.751	1193.06
453.971	1167.06
454.192	1222.06
454.412	1179.06
454.633	1149.06
454.853	1172.06
455.073	1161.06
455.294	1296.06
455.514	1425.06
455.734	1339.06
455.955	1205.06
456.175	1134.06
456.395	1111.06
456.616	1114.06
456.836	1120.06
457.056	1085.06
457.276	1103.06
457.497	1140.06
457.717	1134.06
457.937	1154.06
458.157	1144.06
458.377	1172.06
458.598	1228.06
458.818	1362.06
459.038	1549.06
459.258	1562.06
459.478	1371.06
459.698	1346.06
459.918	1308.06
460.138	1347.06
460.358	1354.06
460.578	1377.06
460.798	1377.06
461.018	1408.06
461.238	1375.06
461.458	1368.06
461.678	1341.06
461.898	1368.06
462.118	1410.06
462.338	1427.06
462.558	1454.06
462.777	1499.06
462.997	1577.06
463.217	1641.06
463.437	1632.06
463.657	1554.06
463.876	1558.06
464.096	1515.06
464.316	1542.06
464.536	1543.06
464.755	1500.06
464.975	1474.06
465.195	1546.06
465.414	1559.06
465.634	1418.06
465.854	1349.06
466.073	1270.06
466.293	1244.06
466.512	1233.06
466.732	1188.06
466.951	1213.06
467.171	1222.06
467.391	1202.06
467.61	1248.06
467.829	1243.06
468.049	1225.06
468.268	1225.06
468.488	1174.06
468.707	1160.06
468.927	1166.06
469.146	1155.06
469.365	1165.06
469.585	1198.06
469.804	1241.06
470.023	1244.06
470.243	1254.06
470.462	1246.06
470.681	1249.06
470.901	1269.06
471.12	1258.06
471.339	1236.06
471.558	1275.06
471.777	1239.06
471.997	1212.06
472.216	1202.06
472.435	1207.06
472.654	1150.06
472.873	1180.06
473.092	1162.06
473.311	1162.06
473.53	1209.06
473.749	1216.06
473.968	1348.06
474.187	1594.06
474.406	1582.06
474.625	1328.06
474.844	1265.06
475.063	1194.06
475.282	1196.06
475.501	1235.06
475.72	1260.06
475.939	1213.06
476.158	1243.06
476.377	1233.06
476.596	1206.06
476.814	1260.06
477.033	1288.06
477.252	1264.06
477.471	1308.06
477.69	1318.06
477.908	1339.06
478.127	1422.06
478.346	1352.06
478.564	1380.06
478.783	1419.06
479.002	1435.06
479.22	1459.06
479.439	1483.06
479.658	1509.06
479.876	1523.06
480.095	1559.06
480.313	1637.06
480.532	1607.06
480.751	1536.06
480.969	1525.06
481.188	1513.06
481.406	1482.06
481.624	1449.06
481.843	1394.06
482.061	1400.06
482.28	1400.06
482.498	1389.06
482.717	1402.06
482.935	1411.06
483.153	1409.06
483.372	1394.06
483.59	1414.06
483.808	1392.06
484.027	1417.06
484.245	1389.06
484.463	1375.06
484.681	1421.06
484.9	1428.06
485.118	1432.06
485.336	1422.06
485.554	1472.06
485.772	1458.06
485.99	1432.06
486.209	1422.06
486.427	1484.06
486.645	1474.06
486.863	1495.06
487.081	1530.06
487.299	1477.06
487.517	1470.06
487.735	1499.06
487.953	1515.06
488.171	1485.06
488.389	1489.06
488.607	1476.06
488.825	1514.06
489.043	1508.06
489.261	1539.06
489.479	1510.06
489.696	1518.06
489.914	1526.06
490.132	1560.06
490.35	1573.06
490.568	1604.06
490.786	1606.06
491.003	1612.06
491.221	1651.06
491.439	1672.06
491.657	1682.06
491.874	1699.06
492.092	1718.06
492.31	1751.06
492.527	1748.06
492.745	1770.06
492.963	1728.06
493.18	1733.06
493.398	1782.06
493.615	1786.06
493.833	1808.06
494.05	1760.06
494.268	1773.06
494.485	1785.06
494.703	1774.06
494.92	1811.06
495.138	1774.06
495.355	1777.06
495.573	1809.06
495.79	1823.06
496.008	1834.06
496.225	1791.06
496.442	1811.06
496.66	1835.06
496.877	1821.06
497.094	1859.06
497.312	1838.06
497.529	1880.06
497.746	1922.06
497.963	1924.06
498.181	2049.06
498.398	2070.06
498.615	2112.06
498.832	2180.06
499.049	2309.06
499.267	2420.06
499.484	2542.06
499.701	2691.06
499.918	2838.06
500.135	3054.06
500.352	3240.06
500.569	3302.06
500.786	3307.06
501.003	3163.06
501.22	2952.06
501.437	2844.06
501.654	2677.06
501.871	2523.06
502.088	2376.06
502.305	2256.06
502.522	2210.06
502.739	2103.06
502.956	2035.06
503.172	1967.06
503.389	1957.06
503.606	1912.06
503.823	1855.06
504.04	1891.06
504.256	1834.06
504.473	1882.06
504.69	1853.06
504.907	1835.06
505.123	1786.06
505.34	1762.06
505.557	1749.06
505.773	1680.06
505.99	1672.06
506.207	1693.06
506.423	1627.06
506.64	1626.06
506.856	1636.06
507.073	1598.06
507.289	1592.06
507.506	1620.06
507.722	1610.06
507.939	1610.06
508.155	1611.06
508.372	1563.06
508.588	1525.06
508.805	1504.06
509.021	1512.06
509.238	1558.06
509.454	1607.06
509.67	1571.06
509.887	1536.06
510.103	1521.06
510.319	1514.06
510.536	1658.06
510.752	2187.06
510.968	1730.06
511.184	1449.06
511.401	1457.06
511.617	1444.06
511.833	1440.06
512.049	1412.06
512.265	1394.06
512.481	1397.06
512.698	1425.06
512.914	1410.06
513.13	1417.06
513.346	1392.06
513.562	1375.06
513.778	1407.06
513.994	1383.06
514.21	1435.06
514.426	1466.06
514.642	1555.06
514.858	1555.06
515.074	1616.06
515.29	1811.06
515.506	2206.06
515.721	1866.06
515.937	1576.06
516.153	1507.06
516.369	1536.06
516.585	1532.06
516.801	1540.06
517.016	1571.06
517.232	1590.06
517.448	1636.06
517.664	1645.06
517.879	1651.06
518.095	1627.06
518.311	1617.06
518.527	1593.06
518.742	1563.06
518.958	1489.06
519.173	1453.06
519.389	1496.06
519.605	1452.06
519.82	1447.06
520.036	1463.06
520.251	1467.06
520.467	1490.06
520.682	1478.06
520.898	1479.06
521.113	1462.06
521.329	1531.06
521.544	1649.06
521.76	1946.06
521.975	2634.06
522.19	2222.06
522.406	1594.06
522.621	1417.06
522.836	1312.06
523.052	1329.06
523.267	1260.06
523.482	1262.06
523.698	1279.06
523.913	1256.06
524.128	1239.06
524.343	1227.06
524.559	1214.06
524.774	1196.06
524.989	1222.06
525.204	1228.06
525.419	1237.06
525.634	1198.06
525.849	1149.06
526.064	1159.06
526.28	1135.06
526.495	1141.06
526.71	1125.06
526.925	1116.06
527.14	1161.06
527.355	1146.06
527.57	1122.06
527.785	1143.06
527.999	1119.06
528.214	1149.06
528.429	1156.06
528.644	1154.06
528.859	1171.06
529.074	1173.06
529.289	1212.06
529.503	1297.06
529.718	1254.06
529.933	1153.06
530.148	1136.06
530.363	1126.06
530.577	1135.06
530.792	1092.06
531.007	1096.06
531.221	1102.06
531.436	1121.06
531.651	1132.06
531.865	1116.06
532.08	1117.06
532.295	1064.06
532.509	1110.06
532.724	1105.06
532.938	1114.06
533.153	1113.06
533.367	1134.06
533.582	1101.06
533.796	1107.06
534.011	1105.06
534.225	1077.06
534.44	1094.06
534.654	1090.06
534.868	1055.06
535.083	1064.06
535.297	1115.06
535.511	1061.06
535.726	1085.06
535.94	1074.06
536.154	1064.06
536.369	1076.06
536.583	1038.06
536.797	1027.06
537.011	1059.06
537.225	1031.06
537.44	1034.06
537.654	1051.06
537.868	1051.06
538.082	1032.06
538.296	1049.06
538.51	1019.06
538.724	1043.06
538.938	1046.06
539.153	1048.06
539.367	1074.06
539.581	1080.06
539.795	1029.06
540.009	1030.06
540.222	1024.06
540.436	1052.06
540.65	1046.06
540.864	1045.06
541.078	1086.06
541.292	1083.06
541.506	1047.06
541.72	1083.06
541.934	1049.06
542.147	1075.06
542.361	1079.06
542.575	1026.06
542.789	1041.06
543.002	1025.06
543.216	1040.06
543.43	1060.06
543.644	1016.06
543.857	1072.06
544.071	1067.06
544.285	1061.06
544.498	1057.06
544.712	1025.06
544.925	1055.06
545.139	1062.06
545.352	1054.06
545.566	1066.06
545.779	1067.06
545.993	1075.06
546.206	1051.06
546.42	1059.06
546.633	1067.06
546.847	1055.06
547.06	1027.06
547.274	1041.06
547.487	1058.06
547.7	1065.06
547.914	1072.06
548.127	1054.06
548.34	1019.06
548.554	1033.06
548.767	1025.06
548.98	1056.06
549.193	1056.06
549.407	1026.06
549.62	1050.06
549.833	1018.06
550.046	1057.06
550.259	1059.06
550.473	1018.06
550.686	1035.06
550.899	1022.06
551.112	1048.06
551.325	1015.06
551.538	970.06
551.751	973.06
551.964	1024.06
552.177	1018.06
552.39	1014.06
552.603	1065.06
552.816	1036.06
553.029	1046.06
553.242	1102.06
553.455	1106.06
553.667	1104.06
553.88	1112.06
554.093	1095.06
554.306	1091.06
554.519	1057.06
554.732	1052.06
554.944	1011.06
555.157	984.06
555.37	1023.06
555.583	982.06
555.795	977.06
556.008	935.06
556.221	953.06
556.433	930.06
556.646	911.06
556.859	924.06
557.071	938.06
557.284	931.06
557.496	905.06
557.709	905.06
557.921	916.06
558.134	890.06
558.346	870.06
558.559	871.06
558.771	893.06
558.984	850.06
559.196	857.06
559.409	856.06
559.621	868.06
559.833	854.06
560.046	875.06
560.258	871.06
560.47	852.06
560.683	854.06
560.895	843.06
561.107	862.06
561.32	878.06
561.532	859.06
561.744	866.06
561.956	844.06
562.168	878.06
562.381	849.06
562.593	852.06
562.805	875.06
563.017	879.06
563.229	866.06
563.441	890.06
563.653	870.06
563.865	899.06
564.077	877.06
564.289	880.06
564.501	931.06
564.713	911.06
564.925	924.06
565.137	954.06
565.349	954.06
565.561	948.06
565.773	1010.06
565.985	1058.06
566.197	1093.06
566.408	1118.06
566.62	1206.06
566.832	1235.06
567.044	1268.06
567.255	1290.06
567.467	1311.06
567.679	1327.06
567.891	1368.06
568.102	1350.06
568.314	1287.06
568.526	1242.06
568.737	1158.06
568.949	1075.06
569.161	1010.06
569.372	985.06
569.584	948.06
569.795	890.06
570.007	904.06
570.218	924.06
570.43	901.06
570.641	884.06
570.853	896.06
571.064	861.06
571.276	884.06
571.487	854.06
571.698	826.06
571.91	822.06
572.121	814.06
572.333	777.06
572.544	740.06
572.755	792.06
572.966	763.06
573.178	758.06
573.389	726.06
573.6	738.06
573.811	698.06
574.023	721.06
574.234	695.06
574.445	724.06
574.656	754.06
574.867	743.06
575.078	715.06
575.289	729.06
575.501	714.06
575.712	708.06
575.923	702.06
576.134	664.06
576.345	698.06
576.556	688.06
576.767	681.06
576.978	708.06
577.188	701.06
577.399	667.06
577.61	652.06
577.821	686.06
578.032	675.06
578.243	725.06
578.454	914.06
578.665	768.06
578.875	662.06
579.086	651.06
579.297	656.06
579.508	668.06
579.718	634.06
579.929	640.06
580.14	633.06
580.35	652.06
580.561	664.06
580.772	637.06
580.982	638.06
581.193	648.06
581.403	622.06
581.614	635.06
581.825	641.06
582.035	656.06
582.246	610.06
582.456	616.06
582.667	628.06
582.877	621.06
583.087	621.06
583.298	602.06
583.508	608.06
583.719	611.06
583.929	613.06
584.139	616.06
584.35	620.06
584.56	616.06
584.77	619.06
584.981	634.06
585.191	593.06
585.401	616.06
585.611	571.06
585.821	622.06
586.032	620.06
586.242	611.06
586.452	617.06
586.662	607.06
586.872	608.06
587.082	591.06
587.292	600.06
587.502	601.06
587.713	622.06
587.923	593.06
588.133	583.06
588.343	620.06
588.553	598.06
588.762	612.06
588.972	574.06
589.182	605.06
589.392	600.06
589.602	594.06
589.812	585.06
590.022	592.06
590.232	604.06
590.441	605.06
590.651	638.06
590.861	602.06
591.071	600.06
591.281	618.06
591.49	622.06
591.7	611.06
591.91	645.06
592.119	658.06
592.329	662.06
592.539	672.06
592.748	675.06
592.958	692.06
593.167	697.06
593.377	695.06
593.587	699.06
593.796	715.06
594.006	707.06
594.215	728.06
594.424	723.06
594.634	706.06
594.843	681.06
595.053	668.06
595.262	686.06
595.472	641.06
595.681	628.06
595.89	604.06
596.1	608.06
596.309	568.06
596.518	602.06
596.727	595.06
596.937	585.06
597.146	572.06
597.355	543.06
597.564	524.06
597.774	553.06
597.983	567.06
598.192	536.06
598.401	542.06
598.61	546.06
598.819	536.06
599.028	517.06
599.237	524.06
599.446	528.06
599.655	540.06
599.864	518.06
600.073	526.06
600.282	521.06
600.491	527.06
600.7	524.06
600.909	518.06
601.118	520.06
601.327	543.06
601.536	546.06
601.745	521.06
601.953	496.06
602.162	536.06
602.371	543.06
602.58	500.06
602.789	529.06
602.997	511.06
603.206	512.06
603.415	512.06
603.623	504.06
603.832	504.06
604.041	500.06
604.249	495.06
604.458	465.06
604.666	479.06
604.875	465.06
605.084	495.06
605.292	501.06
605.501	512.06
605.709	512.06
605.918	500.06
606.126	491.06
606.334	498.06
606.543	486.06
606.751	482.06
606.96	496.06
607.168	472.06
607.376	515.06
607.585	490.06
607.793	509.06
608.001	476.06
608.21	500.06
608.418	510.06
608.626	495.06
608.834	506.06
609.043	494.06
609.251	488.06
609.459	482.06
609.667	506.06
609.875	507.06
610.083	474.06
610.291	483.06
610.499	488.06
610.707	490.06
610.916	494.06
611.124	480.06
611.332	497.06
611.54	520.06
611.748	518.06
611.955	491.06
612.163	480.06
612.371	475.06
612.579	494.06
612.787	483.06
612.995	477.06
613.203	487.06
613.411	512.06
613.618	501.06
613.826	483.06
614.034	482.06
614.242	492.06
614.449	496.06
614.657	487.06
614.865	496.06
615.072	480.06
615.28	468.06
615.488	490.06
615.695	485.06
615.903	496.06
616.111	505.06
616.318	472.06
616.526	500.06
616.733	473.06
616.941	511.06
617.148	488.06
617.356	501.06
617.563	486.06
617.771	476.06
617.978	463.06
618.185	474.06
618.393	472.06
618.6	480.06
618.807	467.06
619.015	470.06
619.222	488.06
619.429	486.06
619.637	446.06
619.844	439.06
620.051	449.06
620.258	457.06
620.466	458.06
620.673	442.06
620.88	451.06
621.087	429.06
621.294	426.06
621.501	448.06
621.708	439.06
621.915	458.06
622.122	435.06
622.329	470.06
622.536	428.06
622.743	451.06
622.95	439.06
623.157	444.06
623.364	450.06
623.571	443.06
623.778	435.06
623.985	446.06
624.192	440.06
624.399	425.06
624.606	430.06
624.812	419.06
625.019	414.06
625.226	439.06
625.433	415.06
625.639	408.06
625.846	394.06
626.053	382.06
626.259	402.06
626.466	408.06
626.673	394.06
626.879	400.06
627.086	424.06
627.293	416.06
627.499	398.06
627.706	391.06
627.912	399.06
628.119	406.06
628.325	414.06
628.532	402.06
628.738	434.06
628.945	378.06
629.151	388.06
629.357	385.06
629.564	372.06
629.77	376.06
629.976	366.06
630.183	370.06
630.389	381.06
630.595	379.06
630.802	381.06
631.008	374.06
631.214	377.06
631.42	366.06
631.627	372.06
631.833	376.06
632.039	353.06
632.245	362.06
632.451	360.06
632.657	365.06
632.863	344.06
633.069	367.06
633.275	376.06
633.481	348.06
633.688	350.06
633.893	359.06
634.099	366.06
634.305	362.06
634.511	359.06
634.717	358.06
634.923	335.06
635.129	342.06
635.335	329.06
635.541	337.06
635.747	327.06
635.952	330.06
636.158	352.06
636.364	344.06
636.57	326.06
636.775	352.06
636.981	342.06
637.187	330.06
637.392	358.06
637.598	343.06
637.804	340.06
638.009	360.06
638.215	349.06
638.421	329.06
638.626	314.06
638.832	346.06
639.037	353.06
639.243	335.06
639.448	320.06
639.654	332.06
639.859	324.06
640.065	307.06
640.27	327.06
640.475	308.06
640.681	316.06
640.886	304.06
641.091	327.06
641.297	316.06
641.502	320.06
641.707	321.06
641.913	325.06
642.118	305.06
642.323	313.06
642.528	318.06
642.733	305.06
642.939	307.06
643.144	324.06
643.349	300.06
643.554	322.06
643.759	301.06
643.964	310.06
644.169	300.06
644.374	307.06
644.579	301.06
644.784	313.06
644.989	314.06
645.194	298.06
645.399	301.06
645.604	306.06
645.809	312.06
646.014	288.06
646.219	297.06
646.423	309.06
646.628	290.06
646.833	287.06
647.038	330.06
647.243	300.06
647.447	304.06
647.652	319.06
647.857	319.06
648.062	314.06
648.266	317.06
648.471	316.06
648.676	339.06
648.88	322.06
649.085	323.06
649.289	318.06
649.494	315.06
649.698	337.06
649.903	317.06
650.107	302.06
650.312	299.06
650.516	286.06
650.721	289.06
650.925	266.06
651.13	275.06
651.334	268.06
651.539	267.06
651.743	278.06
651.947	258.06
652.152	270.06
652.356	266.06
652.56	251.06
652.764	256.06
652.969	255.06
653.173	233.06
653.377	245.06
653.581	236.06
653.785	254.06
653.99	242.06
654.194	241.06
654.398	228.06
654.602	244.06
654.806	222.06
655.01	233.06
655.214	233.06
655.418	222.06
655.622	232.06
655.826	231.06
656.03	226.06
656.234	241.06
656.438	251.06
656.642	240.06
656.846	213.06
657.049	202.06
657.253	188.06
657.457	205.06
657.661	191.06
657.865	179.06
658.068	181.06
658.272	170.06
658.476	166.06
658.68	161.06
658.883	140.06
659.087	150.06
659.291	154.06
659.494	135.06
659.698	134.06
659.901	135.06
660.105	130.06
660.309	110.06
660.512	116.06
660.716	106.06
660.919	108.06
661.123	114.06
661.326	108.06
661.53	121.06
661.733	106.06
661.936	100.06
662.14	98.06
662.343	100.06
662.546	91.06
662.75	97.06
662.953	105.06
663.156	106.06
663.36	89.06
663.563	103.06
663.766	102.06
663.969	95.06
664.173	96.06
664.376	81.06
664.579	98.06
664.782	75.06
664.985	87.06
665.188	79.06
665.391	84.06
665.594	82.06
665.797	88.06
666	87.06
666.203	65.06
666.406	98.06
666.609	90.06
666.812	90.06
667.015	91.06
667.218	80.06
667.421	86.06
667.624	83.06
667.827	84.06
668.03	83.06
668.232	79.06
668.435	74.06
668.638	83.06
668.841	91.06
669.043	80.06
669.246	81.06
669.449	82.06
669.651	88.06
669.854	92.06
670.057	93.06
670.259	82.06
670.462	102.06
670.665	88.06
670.867	90.06
671.07	91.06
671.272	92.06
671.475	87.06
671.677	62.06
671.88	83.06
672.082	87.06
672.284	101.06
672.487	93.06
672.689	86.06
672.892	89.06
