Data from Fe(NO3)3@0.0125M.TitratingCurve.Agarose3%dH2O.NegLispCup.LampEnergy10.LIBS07252019_HRD10591_16-59-34-338.txt Node
Date: Thu Jul 25 16:59:34 EDT 2019
User: cochatt
Spectrometer: HR+D1059
Trigger mode: 1
Integration Time (sec): 1.000000E-1
Scans to average: 1
Electric dark correction enabled: true
Nonlinearity correction enabled: false
Boxcar width: 0
XAxis mode: Wavelengths
Number of Pixels in Spectrum: 2048
>>>>>Begin Spectral Data<<<<<
223.165	-20.56
223.4	-20.56
223.635	-20.56
223.869	-18.56
224.104	-17.56
224.338	-9.56
224.573	-12.56
224.808	-23.56
225.042	-8.56
225.277	5.44
225.511	4.44
225.746	12.44
225.98	-5.56
226.215	4.44
226.449	17.44
226.683	12.44
226.918	20.44
227.152	39.44
227.387	32.44
227.621	34.44
227.856	31.44
228.09	25.44
228.324	37.44
228.559	62.44
228.793	57.44
229.027	86.44
229.262	70.44
229.496	87.44
229.73	82.44
229.964	93.44
230.199	85.44
230.433	83.44
230.667	98.44
230.901	94.44
231.136	88.44
231.37	95.44
231.604	84.44
231.838	99.44
232.072	92.44
232.306	99.44
232.541	90.44
232.775	102.44
233.009	101.44
233.243	87.44
233.477	92.44
233.711	85.44
233.945	94.44
234.179	99.44
234.413	97.44
234.647	101.44
234.881	91.44
235.115	86.44
235.349	93.44
235.583	101.44
235.817	107.44
236.051	108.44
236.285	97.44
236.519	87.44
236.753	100.44
236.987	84.44
237.221	99.44
237.455	104.44
237.689	97.44
237.922	94.44
238.156	95.44
238.39	97.44
238.624	108.44
238.858	93.44
239.091	98.44
239.325	102.44
239.559	121.44
239.793	114.44
240.027	114.44
240.26	115.44
240.494	110.44
240.728	99.44
240.961	106.44
241.195	105.44
241.429	106.44
241.662	110.44
241.896	104.44
242.13	104.44
242.363	105.44
242.597	128.44
242.83	104.44
243.064	106.44
243.298	101.44
243.531	119.44
243.765	118.44
243.998	115.44
244.232	105.44
244.465	120.44
244.699	118.44
244.932	125.44
245.166	119.44
245.399	114.44
245.633	124.44
245.866	124.44
246.099	102.44
246.333	124.44
246.566	110.44
246.8	116.44
247.033	118.44
247.266	113.44
247.5	116.44
247.733	114.44
247.966	128.44
248.2	133.44
248.433	134.44
248.666	134.44
248.899	135.44
249.133	122.44
249.366	131.44
249.599	139.44
249.832	142.44
250.066	125.44
250.299	135.44
250.532	121.44
250.765	126.44
250.998	137.44
251.231	135.44
251.465	125.44
251.698	144.44
251.931	130.44
252.164	123.44
252.397	136.44
252.63	130.44
252.863	122.44
253.096	128.44
253.329	152.44
253.562	143.44
253.795	145.44
254.028	147.44
254.261	130.44
254.494	139.44
254.727	128.44
254.96	147.44
255.193	138.44
255.426	126.44
255.659	133.44
255.892	134.44
256.124	134.44
256.357	134.44
256.59	141.44
256.823	155.44
257.056	145.44
257.289	151.44
257.521	153.44
257.754	162.44
257.987	148.44
258.22	163.44
258.452	158.44
258.685	141.44
258.918	152.44
259.151	152.44
259.383	146.44
259.616	148.44
259.849	158.44
260.081	153.44
260.314	150.44
260.547	157.44
260.779	156.44
261.012	171.44
261.244	159.44
261.477	193.44
261.71	155.44
261.942	166.44
262.175	172.44
262.407	163.44
262.64	165.44
262.872	169.44
263.105	155.44
263.337	165.44
263.57	175.44
263.802	170.44
264.035	149.44
264.267	162.44
264.499	168.44
264.732	182.44
264.964	188.44
265.197	172.44
265.429	158.44
265.661	161.44
265.894	166.44
266.126	180.44
266.358	178.44
266.591	181.44
266.823	171.44
267.055	188.44
267.287	193.44
267.52	197.44
267.752	169.44
267.984	193.44
268.216	193.44
268.448	190.44
268.681	165.44
268.913	182.44
269.145	180.44
269.377	189.44
269.609	185.44
269.841	197.44
270.073	178.44
270.306	168.44
270.538	187.44
270.77	187.44
271.002	199.44
271.234	205.44
271.466	194.44
271.698	205.44
271.93	230.44
272.162	205.44
272.394	204.44
272.626	201.44
272.858	204.44
273.09	215.44
273.322	201.44
273.553	209.44
273.785	213.44
274.017	206.44
274.249	222.44
274.481	213.44
274.713	210.44
274.945	214.44
275.176	228.44
275.408	214.44
275.64	219.44
275.872	208.44
276.104	214.44
276.335	213.44
276.567	216.44
276.799	210.44
277.031	213.44
277.262	233.44
277.494	227.44
277.726	225.44
277.957	233.44
278.189	226.44
278.421	242.44
278.652	244.44
278.884	232.44
279.115	214.44
279.347	221.44
279.579	240.44
279.81	217.44
280.042	237.44
280.273	256.44
280.505	253.44
280.736	246.44
280.968	247.44
281.199	235.44
281.431	247.44
281.662	236.44
281.894	245.44
282.125	242.44
282.356	255.44
282.588	269.44
282.819	266.44
283.051	267.44
283.282	264.44
283.513	262.44
283.745	271.44
283.976	269.44
284.207	274.44
284.439	270.44
284.67	270.44
284.901	284.44
285.132	253.44
285.364	269.44
285.595	261.44
285.826	270.44
286.057	254.44
286.288	274.44
286.52	277.44
286.751	279.44
286.982	266.44
287.213	283.44
287.444	291.44
287.675	278.44
287.906	282.44
288.138	290.44
288.369	278.44
288.6	277.44
288.831	291.44
289.062	295.44
289.293	292.44
289.524	301.44
289.755	302.44
289.986	285.44
290.217	302.44
290.448	291.44
290.679	293.44
290.91	285.44
291.141	309.44
291.371	299.44
291.602	318.44
291.833	326.44
292.064	316.44
292.295	320.44
292.526	287.44
292.757	308.44
292.987	321.44
293.218	306.44
293.449	295.44
293.68	305.44
293.91	298.44
294.141	302.44
294.372	306.44
294.603	314.44
294.833	309.44
295.064	321.44
295.295	317.44
295.525	296.44
295.756	318.44
295.987	327.44
296.217	318.44
296.448	320.44
296.679	323.44
296.909	325.44
297.14	315.44
297.37	329.44
297.601	342.44
297.831	328.44
298.062	330.44
298.292	334.44
298.523	340.44
298.753	315.44
298.984	339.44
299.214	356.44
299.445	360.44
299.675	347.44
299.905	342.44
300.136	338.44
300.366	343.44
300.597	345.44
300.827	350.44
301.057	365.44
301.288	352.44
301.518	352.44
301.748	342.44
301.979	347.44
302.209	355.44
302.439	362.44
302.669	362.44
302.9	364.44
303.13	386.44
303.36	380.44
303.59	355.44
303.82	372.44
304.051	372.44
304.281	366.44
304.511	386.44
304.741	380.44
304.971	382.44
305.201	377.44
305.431	390.44
305.661	384.44
305.891	394.44
306.121	384.44
306.352	397.44
306.582	370.44
306.812	374.44
307.042	381.44
307.272	390.44
307.502	383.44
307.731	404.44
307.961	378.44
308.191	386.44
308.421	384.44
308.651	397.44
308.881	392.44
309.111	391.44
309.341	388.44
309.571	385.44
309.8	382.44
310.03	397.44
310.26	378.44
310.49	383.44
310.72	404.44
310.949	404.44
311.179	417.44
311.409	400.44
311.639	401.44
311.868	404.44
312.098	417.44
312.328	421.44
312.557	422.44
312.787	412.44
313.017	414.44
313.246	424.44
313.476	425.44
313.706	429.44
313.935	412.44
314.165	418.44
314.394	422.44
314.624	437.44
314.853	442.44
315.083	423.44
315.312	448.44
315.542	442.44
315.771	436.44
316.001	442.44
316.23	447.44
316.46	452.44
316.689	438.44
316.919	452.44
317.148	462.44
317.377	449.44
317.607	452.44
317.836	454.44
318.065	445.44
318.295	452.44
318.524	460.44
318.753	455.44
318.983	460.44
319.212	477.44
319.441	470.44
319.67	452.44
319.9	457.44
320.129	454.44
320.358	470.44
320.587	467.44
320.816	484.44
321.046	464.44
321.275	466.44
321.504	472.44
321.733	467.44
321.962	481.44
322.191	477.44
322.42	458.44
322.649	479.44
322.878	494.44
323.108	480.44
323.337	474.44
323.566	478.44
323.795	484.44
324.024	472.44
324.253	491.44
324.482	488.44
324.71	498.44
324.939	500.44
325.168	476.44
325.397	482.44
325.626	514.44
325.855	508.44
326.084	512.44
326.313	493.44
326.542	491.44
326.77	524.44
326.999	522.44
327.228	528.44
327.457	531.44
327.686	498.44
327.914	510.44
328.143	508.44
328.372	497.44
328.6	496.44
328.829	514.44
329.058	512.44
329.287	505.44
329.515	523.44
329.744	510.44
329.972	510.44
330.201	512.44
330.43	493.44
330.658	518.44
330.887	535.44
331.115	526.44
331.344	522.44
331.572	535.44
331.801	514.44
332.03	533.44
332.258	520.44
332.486	514.44
332.715	524.44
332.943	502.44
333.172	533.44
333.4	531.44
333.629	525.44
333.857	532.44
334.085	522.44
334.314	540.44
334.542	540.44
334.771	533.44
334.999	549.44
335.227	524.44
335.455	526.44
335.684	537.44
335.912	554.44
336.14	582.44
336.369	539.44
336.597	539.44
336.825	552.44
337.053	540.44
337.281	553.44
337.51	551.44
337.738	546.44
337.966	538.44
338.194	549.44
338.422	573.44
338.65	562.44
338.878	549.44
339.106	552.44
339.334	559.44
339.562	543.44
339.79	556.44
340.018	561.44
340.246	540.44
340.474	556.44
340.702	541.44
340.93	554.44
341.158	558.44
341.386	577.44
341.614	554.44
341.842	545.44
342.07	532.44
342.298	532.44
342.526	555.44
342.754	552.44
342.981	554.44
343.209	554.44
343.437	558.44
343.665	574.44
343.893	561.44
344.12	572.44
344.348	564.44
344.576	558.44
344.804	549.44
345.031	553.44
345.259	557.44
345.487	562.44
345.714	556.44
345.942	560.44
346.17	558.44
346.397	550.44
346.625	550.44
346.853	552.44
347.08	553.44
347.308	548.44
347.535	579.44
347.763	554.44
347.99	578.44
348.218	552.44
348.445	552.44
348.673	559.44
348.9	551.44
349.128	539.44
349.355	561.44
349.583	554.44
349.81	552.44
350.037	573.44
350.265	552.44
350.492	551.44
350.72	567.44
350.947	541.44
351.174	543.44
351.402	540.44
351.629	556.44
351.856	530.44
352.083	542.44
352.311	539.44
352.538	557.44
352.765	544.44
352.992	557.44
353.22	569.44
353.447	555.44
353.674	568.44
353.901	560.44
354.128	539.44
354.355	547.44
354.583	555.44
354.81	552.44
355.037	588.44
355.264	572.44
355.491	552.44
355.718	550.44
355.945	578.44
356.172	566.44
356.399	552.44
356.626	548.44
356.853	560.44
357.08	568.44
357.307	561.44
357.534	571.44
357.761	563.44
357.988	550.44
358.215	578.44
358.441	565.44
358.668	550.44
358.895	554.44
359.122	569.44
359.349	554.44
359.576	580.44
359.802	573.44
360.029	573.44
360.256	589.44
360.483	567.44
360.709	583.44
360.936	566.44
361.163	571.44
361.39	573.44
361.616	579.44
361.843	584.44
362.07	571.44
362.296	562.44
362.523	589.44
362.749	621.44
362.976	556.44
363.203	576.44
363.429	568.44
363.656	590.44
363.882	595.44
364.109	557.44
364.335	565.44
364.562	565.44
364.788	578.44
365.015	593.44
365.241	580.44
365.468	563.44
365.694	594.44
365.92	603.44
366.147	604.44
366.373	597.44
366.599	606.44
366.826	586.44
367.052	601.44
367.278	603.44
367.505	597.44
367.731	627.44
367.957	586.44
368.184	584.44
368.41	589.44
368.636	608.44
368.862	610.44
369.089	597.44
369.315	600.44
369.541	613.44
369.767	628.44
369.993	589.44
370.219	605.44
370.445	582.44
370.672	598.44
370.898	604.44
371.124	613.44
371.35	615.44
371.576	605.44
371.802	613.44
372.028	625.44
372.254	634.44
372.48	591.44
372.706	635.44
372.932	638.44
373.158	609.44
373.384	619.44
373.61	608.44
373.835	608.44
374.061	604.44
374.287	620.44
374.513	616.44
374.739	628.44
374.965	634.44
375.191	613.44
375.416	624.44
375.642	622.44
375.868	624.44
376.094	616.44
376.319	620.44
376.545	592.44
376.771	626.44
376.997	598.44
377.222	615.44
377.448	620.44
377.674	632.44
377.899	605.44
378.125	604.44
378.35	617.44
378.576	576.44
378.802	613.44
379.027	615.44
379.253	597.44
379.478	608.44
379.704	624.44
379.929	605.44
380.155	612.44
380.38	617.44
380.606	616.44
380.831	618.44
381.057	620.44
381.282	604.44
381.507	604.44
381.733	618.44
381.958	610.44
382.184	630.44
382.409	629.44
382.634	627.44
382.86	614.44
383.085	624.44
383.31	620.44
383.535	650.44
383.761	652.44
383.986	630.44
384.211	641.44
384.436	630.44
384.662	626.44
384.887	641.44
385.112	641.44
385.337	663.44
385.562	634.44
385.787	652.44
386.013	651.44
386.238	661.44
386.463	648.44
386.688	650.44
386.913	654.44
387.138	659.44
387.363	671.44
387.588	654.44
387.813	669.44
388.038	665.44
388.263	684.44
388.488	675.44
388.713	682.44
388.938	669.44
389.163	650.44
389.387	654.44
389.612	678.44
389.837	677.44
390.062	663.44
390.287	662.44
390.512	668.44
390.736	655.44
390.961	650.44
391.186	662.44
391.411	673.44
391.636	656.44
391.86	663.44
392.085	639.44
392.31	670.44
392.534	656.44
392.759	672.44
392.984	676.44
393.208	673.44
393.433	650.44
393.658	672.44
393.882	656.44
394.107	664.44
394.331	672.44
394.556	678.44
394.78	653.44
395.005	680.44
395.229	652.44
395.454	688.44
395.678	679.44
395.903	690.44
396.127	687.44
396.352	661.44
396.576	668.44
396.801	698.44
397.025	698.44
397.249	699.44
397.474	692.44
397.698	681.44
397.922	698.44
398.147	683.44
398.371	704.44
398.595	679.44
398.82	705.44
399.044	686.44
399.268	712.44
399.492	724.44
399.717	733.44
399.941	710.44
400.165	765.44
400.389	708.44
400.613	733.44
400.837	711.44
401.062	709.44
401.286	709.44
401.51	732.44
401.734	720.44
401.958	704.44
402.182	718.44
402.406	710.44
402.63	729.44
402.854	733.44
403.078	712.44
403.302	743.44
403.526	717.44
403.75	705.44
403.974	732.44
404.198	706.44
404.422	735.44
404.645	744.44
404.869	742.44
405.093	725.44
405.317	691.44
405.541	718.44
405.765	739.44
405.988	734.44
406.212	747.44
406.436	746.44
406.66	757.44
406.883	747.44
407.107	757.44
407.331	736.44
407.555	746.44
407.778	725.44
408.002	736.44
408.226	742.44
408.449	746.44
408.673	772.44
408.896	768.44
409.12	745.44
409.344	742.44
409.567	721.44
409.791	755.44
410.014	777.44
410.238	752.44
410.461	727.44
410.685	750.44
410.908	746.44
411.132	745.44
411.355	712.44
411.578	736.44
411.802	738.44
412.025	744.44
412.249	731.44
412.472	721.44
412.695	698.44
412.919	720.44
413.142	736.44
413.365	699.44
413.589	734.44
413.812	726.44
414.035	693.44
414.258	721.44
414.482	726.44
414.705	736.44
414.928	734.44
415.151	729.44
415.374	706.44
415.597	730.44
415.821	717.44
416.044	696.44
416.267	701.44
416.49	692.44
416.713	699.44
416.936	704.44
417.159	695.44
417.382	698.44
417.605	689.44
417.828	681.44
418.051	681.44
418.274	663.44
418.497	702.44
418.72	696.44
418.943	691.44
419.166	720.44
419.389	756.44
419.611	720.44
419.834	709.44
420.057	703.44
420.28	684.44
420.503	689.44
420.726	669.44
420.948	697.44
421.171	700.44
421.394	696.44
421.617	680.44
421.839	697.44
422.062	701.44
422.285	673.44
422.507	688.44
422.73	674.44
422.953	705.44
423.175	692.44
423.398	685.44
423.621	655.44
423.843	707.44
424.066	679.44
424.288	664.44
424.511	668.44
424.733	688.44
424.956	682.44
425.178	684.44
425.401	692.44
425.623	706.44
425.846	669.44
426.068	676.44
426.291	679.44
426.513	691.44
426.735	708.44
426.958	687.44
427.18	674.44
427.402	683.44
427.625	692.44
427.847	674.44
428.069	672.44
428.292	681.44
428.514	668.44
428.736	673.44
428.958	684.44
429.181	679.44
429.403	667.44
429.625	690.44
429.847	677.44
430.069	712.44
430.292	680.44
430.514	714.44
430.736	674.44
430.958	693.44
431.18	663.44
431.402	715.44
431.624	677.44
431.846	682.44
432.068	667.44
432.29	675.44
432.512	662.44
432.734	704.44
432.956	680.44
433.178	689.44
433.4	670.44
433.622	682.44
433.844	694.44
434.066	669.44
434.287	689.44
434.509	693.44
434.731	713.44
434.953	700.44
435.175	685.44
435.397	713.44
435.618	687.44
435.84	692.44
436.062	675.44
436.284	693.44
436.505	715.44
436.727	692.44
436.949	677.44
437.17	695.44
437.392	686.44
437.614	673.44
437.835	668.44
438.057	682.44
438.278	708.44
438.5	669.44
438.721	685.44
438.943	674.44
439.165	649.44
439.386	690.44
439.608	691.44
439.829	697.44
440.05	682.44
440.272	670.44
440.493	672.44
440.715	682.44
440.936	667.44
441.158	693.44
441.379	672.44
441.6	672.44
441.822	666.44
442.043	662.44
442.264	664.44
442.486	679.44
442.707	680.44
442.928	694.44
443.149	681.44
443.371	661.44
443.592	655.44
443.813	676.44
444.034	681.44
444.255	672.44
444.476	656.44
444.698	662.44
444.919	687.44
445.14	772.44
445.361	714.44
445.582	662.44
445.803	688.44
446.024	665.44
446.245	681.44
446.466	684.44
446.687	670.44
446.908	685.44
447.129	678.44
447.35	653.44
447.571	661.44
447.792	655.44
448.013	672.44
448.234	644.44
448.455	667.44
448.675	632.44
448.896	665.44
449.117	649.44
449.338	653.44
449.559	661.44
449.779	650.44
450	633.44
450.221	652.44
450.442	646.44
450.662	646.44
450.883	638.44
451.104	642.44
451.324	656.44
451.545	641.44
451.766	636.44
451.986	644.44
452.207	614.44
452.428	654.44
452.648	627.44
452.869	650.44
453.089	622.44
453.31	631.44
453.53	662.44
453.751	666.44
453.971	636.44
454.192	644.44
454.412	615.44
454.633	619.44
454.853	640.44
455.073	616.44
455.294	640.44
455.514	634.44
455.734	622.44
455.955	632.44
456.175	662.44
456.395	628.44
456.616	636.44
456.836	649.44
457.056	621.44
457.276	625.44
457.497	639.44
457.717	633.44
457.937	650.44
458.157	645.44
458.377	625.44
458.598	660.44
458.818	648.44
459.038	636.44
459.258	627.44
459.478	660.44
459.698	642.44
459.918	633.44
460.138	639.44
460.358	683.44
460.578	665.44
460.798	697.44
461.018	687.44
461.238	684.44
461.458	676.44
461.678	690.44
461.898	698.44
462.118	665.44
462.338	678.44
462.558	663.44
462.777	671.44
462.997	690.44
463.217	682.44
463.437	710.44
463.657	689.44
463.876	694.44
464.096	695.44
464.316	678.44
464.536	690.44
464.755	685.44
464.975	699.44
465.195	691.44
465.414	660.44
465.634	674.44
465.854	680.44
466.073	658.44
466.293	680.44
466.512	667.44
466.732	689.44
466.951	690.44
467.171	667.44
467.391	694.44
467.61	692.44
467.829	686.44
468.049	684.44
468.268	677.44
468.488	663.44
468.707	672.44
468.927	672.44
469.146	681.44
469.365	711.44
469.585	662.44
469.804	664.44
470.023	682.44
470.243	707.44
470.462	674.44
470.681	698.44
470.901	704.44
471.12	695.44
471.339	718.44
471.558	660.44
471.777	690.44
471.997	700.44
472.216	705.44
472.435	704.44
472.654	701.44
472.873	719.44
473.092	699.44
473.311	698.44
473.53	712.44
473.749	701.44
473.968	715.44
474.187	721.44
474.406	704.44
474.625	741.44
474.844	727.44
475.063	739.44
475.282	741.44
475.501	726.44
475.72	748.44
475.939	752.44
476.158	752.44
476.377	769.44
476.596	753.44
476.814	760.44
477.033	782.44
477.252	785.44
477.471	772.44
477.69	758.44
477.908	791.44
478.127	805.44
478.346	808.44
478.564	827.44
478.783	799.44
479.002	774.44
479.22	836.44
479.439	830.44
479.658	817.44
479.876	847.44
480.095	800.44
480.313	822.44
480.532	854.44
480.751	818.44
480.969	861.44
481.188	862.44
481.406	846.44
481.624	879.44
481.843	852.44
482.061	856.44
482.28	873.44
482.498	877.44
482.717	835.44
482.935	853.44
483.153	884.44
483.372	854.44
483.59	866.44
483.808	872.44
484.027	885.44
484.245	874.44
484.463	866.44
484.681	890.44
484.9	886.44
485.118	901.44
485.336	864.44
485.554	884.44
485.772	882.44
485.99	887.44
486.209	866.44
486.427	884.44
486.645	911.44
486.863	881.44
487.081	883.44
487.299	916.44
487.517	889.44
487.735	880.44
487.953	906.44
488.171	902.44
488.389	893.44
488.607	906.44
488.825	900.44
489.043	901.44
489.261	880.44
489.479	907.44
489.696	895.44
489.914	895.44
490.132	908.44
490.35	900.44
490.568	914.44
490.786	928.44
491.003	906.44
491.221	923.44
491.439	924.44
491.657	934.44
491.874	917.44
492.092	906.44
492.31	940.44
492.527	929.44
492.745	930.44
492.963	921.44
493.18	931.44
493.398	904.44
493.615	905.44
493.833	924.44
494.05	926.44
494.268	914.44
494.485	949.44
494.703	937.44
494.92	927.44
495.138	942.44
495.355	953.44
495.573	943.44
495.79	922.44
496.008	934.44
496.225	919.44
496.442	939.44
496.66	940.44
496.877	959.44
497.094	957.44
497.312	970.44
497.529	948.44
497.746	963.44
497.963	953.44
498.181	986.44
498.398	987.44
498.615	996.44
498.832	998.44
499.049	1011.44
499.267	973.44
499.484	1019.44
499.701	1009.44
499.918	1029.44
500.135	1030.44
500.352	1059.44
500.569	1054.44
500.786	1040.44
501.003	1048.44
501.22	1062.44
501.437	1031.44
501.654	1014.44
501.871	1018.44
502.088	1025.44
502.305	997.44
502.522	978.44
502.739	986.44
502.956	994.44
503.172	989.44
503.389	956.44
503.606	939.44
503.823	950.44
504.04	934.44
504.256	941.44
504.473	913.44
504.69	876.44
504.907	940.44
505.123	896.44
505.34	917.44
505.557	878.44
505.773	904.44
505.99	892.44
506.207	900.44
506.423	901.44
506.64	875.44
506.856	877.44
507.073	853.44
507.289	854.44
507.506	876.44
507.722	885.44
507.939	862.44
508.155	858.44
508.372	828.44
508.588	858.44
508.805	843.44
509.021	840.44
509.238	850.44
509.454	836.44
509.67	843.44
509.887	833.44
510.103	846.44
510.319	823.44
510.536	824.44
510.752	811.44
510.968	809.44
511.184	785.44
511.401	858.44
511.617	811.44
511.833	804.44
512.049	790.44
512.265	798.44
512.481	800.44
512.698	812.44
512.914	823.44
513.13	809.44
513.346	808.44
513.562	809.44
513.778	821.44
513.994	813.44
514.21	822.44
514.426	805.44
514.642	816.44
514.858	795.44
515.074	800.44
515.29	808.44
515.506	806.44
515.721	821.44
515.937	821.44
516.153	783.44
516.369	832.44
516.585	819.44
516.801	798.44
517.016	809.44
517.232	824.44
517.448	805.44
517.664	800.44
517.879	814.44
518.095	801.44
518.311	788.44
518.527	808.44
518.742	824.44
518.958	796.44
519.173	828.44
519.389	818.44
519.605	796.44
519.82	813.44
520.036	832.44
520.251	789.44
520.467	805.44
520.682	763.44
520.898	800.44
521.113	780.44
521.329	791.44
521.544	803.44
521.76	795.44
521.975	764.44
522.19	772.44
522.406	792.44
522.621	746.44
522.836	777.44
523.052	796.44
523.267	775.44
523.482	760.44
523.698	778.44
523.913	774.44
524.128	780.44
524.343	749.44
524.559	750.44
524.774	786.44
524.989	758.44
525.204	749.44
525.419	739.44
525.634	759.44
525.849	758.44
526.064	759.44
526.28	759.44
526.495	777.44
526.71	768.44
526.925	772.44
527.14	748.44
527.355	754.44
527.57	768.44
527.785	764.44
527.999	743.44
528.214	744.44
528.429	742.44
528.644	750.44
528.859	747.44
529.074	741.44
529.289	749.44
529.503	749.44
529.718	771.44
529.933	747.44
530.148	731.44
530.363	720.44
530.577	736.44
530.792	742.44
531.007	753.44
531.221	753.44
531.436	746.44
531.651	735.44
531.865	714.44
532.08	728.44
532.295	756.44
532.509	710.44
532.724	711.44
532.938	734.44
533.153	741.44
533.367	731.44
533.582	737.44
533.796	742.44
534.011	732.44
534.225	707.44
534.44	705.44
534.654	713.44
534.868	701.44
535.083	716.44
535.297	736.44
535.511	683.44
535.726	724.44
535.94	686.44
536.154	697.44
536.369	717.44
536.583	692.44
536.797	706.44
537.011	678.44
537.225	681.44
537.44	699.44
537.654	701.44
537.868	684.44
538.082	677.44
538.296	680.44
538.51	668.44
538.724	675.44
538.938	715.44
539.153	657.44
539.367	704.44
539.581	678.44
539.795	685.44
540.009	681.44
540.222	668.44
540.436	668.44
540.65	674.44
540.864	693.44
541.078	698.44
541.292	706.44
541.506	682.44
541.72	690.44
541.934	692.44
542.147	689.44
542.361	685.44
542.575	697.44
542.789	676.44
543.002	690.44
543.216	676.44
543.43	675.44
543.644	660.44
543.857	679.44
544.071	658.44
544.285	656.44
544.498	665.44
544.712	650.44
544.925	658.44
545.139	676.44
545.352	668.44
545.566	655.44
545.779	667.44
545.993	668.44
546.206	678.44
546.42	639.44
546.633	688.44
546.847	655.44
547.06	652.44
547.274	679.44
547.487	665.44
547.7	666.44
547.914	661.44
548.127	672.44
548.34	659.44
548.554	665.44
548.767	630.44
548.98	695.44
549.193	653.44
549.407	655.44
549.62	653.44
549.833	659.44
550.046	660.44
550.259	644.44
550.473	643.44
550.686	658.44
550.899	644.44
551.112	650.44
551.325	655.44
551.538	642.44
551.751	628.44
551.964	638.44
552.177	638.44
552.39	612.44
552.603	613.44
552.816	641.44
553.029	633.44
553.242	644.44
553.455	628.44
553.667	628.44
553.88	637.44
554.093	630.44
554.306	620.44
554.519	616.44
554.732	644.44
554.944	604.44
555.157	621.44
555.37	601.44
555.583	619.44
555.795	608.44
556.008	606.44
556.221	605.44
556.433	609.44
556.646	599.44
556.859	576.44
557.071	587.44
557.284	593.44
557.496	624.44
557.709	610.44
557.921	607.44
558.134	581.44
558.346	595.44
558.559	597.44
558.771	603.44
558.984	570.44
559.196	606.44
559.409	601.44
559.621	626.44
559.833	568.44
560.046	584.44
560.258	578.44
560.47	565.44
560.683	583.44
560.895	572.44
561.107	556.44
561.32	554.44
561.532	577.44
561.744	598.44
561.956	554.44
562.168	564.44
562.381	570.44
562.593	592.44
562.805	572.44
563.017	551.44
563.229	598.44
563.441	587.44
563.653	558.44
563.865	569.44
564.077	585.44
564.289	570.44
564.501	579.44
564.713	565.44
564.925	559.44
565.137	579.44
565.349	564.44
565.561	571.44
565.773	570.44
565.985	584.44
566.197	557.44
566.408	556.44
566.62	566.44
566.832	587.44
567.044	584.44
567.255	576.44
567.467	571.44
567.679	575.44
567.891	581.44
568.102	537.44
568.314	568.44
568.526	573.44
568.737	549.44
568.949	540.44
569.161	526.44
569.372	549.44
569.584	555.44
569.795	536.44
570.007	520.44
570.218	496.44
570.43	504.44
570.641	524.44
570.853	526.44
571.064	513.44
571.276	518.44
571.487	498.44
571.698	502.44
571.91	510.44
572.121	508.44
572.333	502.44
572.544	484.44
572.755	484.44
572.966	496.44
573.178	484.44
573.389	493.44
573.6	482.44
573.811	486.44
574.023	499.44
574.234	480.44
574.445	471.44
574.656	472.44
574.867	462.44
575.078	462.44
575.289	449.44
575.501	462.44
575.712	453.44
575.923	448.44
576.134	469.44
576.345	473.44
576.556	475.44
576.767	436.44
576.978	457.44
577.188	458.44
577.399	461.44
577.61	443.44
577.821	437.44
578.032	444.44
578.243	425.44
578.454	439.44
578.665	447.44
578.875	441.44
579.086	447.44
579.297	435.44
579.508	462.44
579.718	442.44
579.929	439.44
580.14	445.44
580.35	444.44
580.561	437.44
580.772	418.44
580.982	427.44
581.193	411.44
581.403	428.44
581.614	434.44
581.825	435.44
582.035	430.44
582.246	416.44
582.456	414.44
582.667	418.44
582.877	403.44
583.087	407.44
583.298	425.44
583.508	401.44
583.719	425.44
583.929	411.44
584.139	420.44
584.35	406.44
584.56	412.44
584.77	402.44
584.981	398.44
585.191	411.44
585.401	401.44
585.611	444.44
585.821	413.44
586.032	404.44
586.242	405.44
586.452	421.44
586.662	387.44
586.872	394.44
587.082	374.44
587.292	388.44
587.502	397.44
587.713	399.44
587.923	391.44
588.133	386.44
588.343	394.44
588.553	413.44
588.762	405.44
588.972	396.44
589.182	384.44
589.392	386.44
589.602	397.44
589.812	405.44
590.022	384.44
590.232	384.44
590.441	388.44
590.651	377.44
590.861	361.44
591.071	370.44
591.281	360.44
591.49	368.44
591.7	382.44
591.91	374.44
592.119	376.44
592.329	366.44
592.539	365.44
592.748	383.44
592.958	368.44
593.167	372.44
593.377	371.44
593.587	389.44
593.796	376.44
594.006	379.44
594.215	385.44
594.424	370.44
594.634	370.44
594.843	344.44
595.053	364.44
595.262	364.44
595.472	362.44
595.681	339.44
595.89	346.44
596.1	347.44
596.309	358.44
596.518	345.44
596.727	351.44
596.937	363.44
597.146	354.44
597.355	360.44
597.564	364.44
597.774	333.44
597.983	340.44
598.192	327.44
598.401	333.44
598.61	352.44
598.819	359.44
599.028	346.44
599.237	345.44
599.446	327.44
599.655	325.44
599.864	341.44
600.073	329.44
600.282	326.44
600.491	342.44
600.7	349.44
600.909	332.44
601.118	350.44
601.327	333.44
601.536	349.44
601.745	346.44
601.953	324.44
602.162	339.44
602.371	322.44
602.58	324.44
602.789	337.44
602.997	338.44
603.206	346.44
603.415	317.44
603.623	330.44
603.832	317.44
604.041	322.44
604.249	333.44
604.458	307.44
604.666	292.44
604.875	312.44
605.084	310.44
605.292	312.44
605.501	323.44
605.709	316.44
605.918	309.44
606.126	298.44
606.334	329.44
606.543	324.44
606.751	316.44
606.96	306.44
607.168	313.44
607.376	314.44
607.585	313.44
607.793	321.44
608.001	306.44
608.21	327.44
608.418	307.44
608.626	299.44
608.834	309.44
609.043	304.44
609.251	320.44
609.459	297.44
609.667	292.44
609.875	317.44
610.083	292.44
610.291	310.44
610.499	306.44
610.707	329.44
610.916	314.44
611.124	304.44
611.332	310.44
611.54	302.44
611.748	295.44
611.955	317.44
612.163	311.44
612.371	323.44
612.579	300.44
612.787	301.44
612.995	307.44
613.203	297.44
613.411	323.44
613.618	317.44
613.826	300.44
614.034	308.44
614.242	297.44
614.449	299.44
614.657	293.44
614.865	277.44
615.072	295.44
615.28	292.44
615.488	284.44
615.695	301.44
615.903	294.44
616.111	312.44
616.318	299.44
616.526	284.44
616.733	270.44
616.941	288.44
617.148	276.44
617.356	278.44
617.563	296.44
617.771	301.44
617.978	291.44
618.185	283.44
618.393	264.44
618.6	279.44
618.807	315.44
619.015	278.44
619.222	280.44
619.429	275.44
619.637	274.44
619.844	282.44
620.051	262.44
620.258	282.44
620.466	288.44
620.673	270.44
620.88	262.44
621.087	270.44
621.294	266.44
621.501	259.44
621.708	273.44
621.915	275.44
622.122	268.44
622.329	290.44
622.536	287.44
622.743	280.44
622.95	280.44
623.157	268.44
623.364	262.44
623.571	283.44
623.778	259.44
623.985	252.44
624.192	259.44
624.399	285.44
624.606	261.44
624.812	269.44
625.019	261.44
625.226	261.44
625.433	278.44
625.639	271.44
625.846	268.44
626.053	269.44
626.259	261.44
626.466	244.44
626.673	268.44
626.879	258.44
627.086	290.44
627.293	261.44
627.499	245.44
627.706	270.44
627.912	257.44
628.119	262.44
628.325	251.44
628.532	258.44
628.738	241.44
628.945	251.44
629.151	238.44
629.357	247.44
629.564	252.44
629.77	251.44
629.976	238.44
630.183	233.44
630.389	255.44
630.595	236.44
630.802	255.44
631.008	229.44
631.214	253.44
631.42	256.44
631.627	248.44
631.833	253.44
632.039	237.44
632.245	228.44
632.451	238.44
632.657	235.44
632.863	224.44
633.069	251.44
633.275	243.44
633.481	231.44
633.688	240.44
633.893	229.44
634.099	236.44
634.305	224.44
634.511	231.44
634.717	230.44
634.923	245.44
635.129	227.44
635.335	233.44
635.541	228.44
635.747	233.44
635.952	209.44
636.158	218.44
636.364	229.44
636.57	235.44
636.775	227.44
636.981	234.44
637.187	221.44
637.392	223.44
637.598	229.44
637.804	211.44
638.009	228.44
638.215	229.44
638.421	228.44
638.626	244.44
638.832	210.44
639.037	231.44
639.243	219.44
639.448	206.44
639.654	224.44
639.859	222.44
640.065	220.44
640.27	242.44
640.475	216.44
640.681	227.44
640.886	218.44
641.091	217.44
641.297	222.44
641.502	234.44
641.707	216.44
641.913	230.44
642.118	247.44
642.323	206.44
642.528	226.44
642.733	214.44
642.939	220.44
643.144	225.44
643.349	213.44
643.554	228.44
643.759	225.44
643.964	220.44
644.169	225.44
644.374	221.44
644.579	203.44
644.784	222.44
644.989	231.44
645.194	222.44
645.399	229.44
645.604	221.44
645.809	227.44
646.014	221.44
646.219	226.44
646.423	197.44
646.628	209.44
646.833	210.44
647.038	212.44
647.243	214.44
647.447	208.44
647.652	210.44
647.857	201.44
648.062	197.44
648.266	206.44
648.471	232.44
648.676	220.44
648.88	217.44
649.085	208.44
649.289	231.44
649.494	225.44
649.698	230.44
649.903	208.44
650.107	212.44
650.312	229.44
650.516	214.44
650.721	215.44
650.925	214.44
651.13	203.44
651.334	216.44
651.539	204.44
651.743	220.44
651.947	190.44
652.152	208.44
652.356	191.44
652.56	214.44
652.764	212.44
652.969	187.44
653.173	204.44
653.377	192.44
653.581	198.44
653.785	190.44
653.99	197.44
654.194	189.44
654.398	192.44
654.602	186.44
654.806	186.44
655.01	185.44
655.214	181.44
655.418	173.44
655.622	190.44
655.826	174.44
656.03	191.44
656.234	174.44
656.438	179.44
656.642	176.44
656.846	171.44
657.049	174.44
657.253	146.44
657.457	159.44
657.661	150.44
657.865	146.44
658.068	142.44
658.272	139.44
658.476	156.44
658.68	121.44
658.883	125.44
659.087	136.44
659.291	124.44
659.494	114.44
659.698	120.44
659.901	115.44
660.105	106.44
660.309	106.44
660.512	94.44
660.716	109.44
660.919	117.44
661.123	108.44
661.326	101.44
661.53	96.44
661.733	101.44
661.936	93.44
662.14	92.44
662.343	75.44
662.546	104.44
662.75	89.44
662.953	92.44
663.156	86.44
663.36	82.44
663.563	92.44
663.766	74.44
663.969	73.44
664.173	78.44
664.376	79.44
664.579	93.44
664.782	70.44
664.985	86.44
665.188	83.44
665.391	76.44
665.594	73.44
665.797	78.44
666	94.44
666.203	79.44
666.406	76.44
666.609	92.44
666.812	85.44
667.015	95.44
667.218	88.44
667.421	77.44
667.624	82.44
667.827	86.44
668.03	67.44
668.232	79.44
668.435	89.44
668.638	90.44
668.841	91.44
669.043	75.44
669.246	76.44
669.449	67.44
669.651	97.44
669.854	81.44
670.057	81.44
670.259	95.44
670.462	76.44
670.665	77.44
670.867	98.44
671.07	84.44
671.272	89.44
671.475	97.44
671.677	84.44
671.88	78.44
672.082	85.44
672.284	73.44
672.487	81.44
672.689	86.44
672.892	78.44
