Data from Fe(NO3)3@0.0125M.TitratingCurve.Agarose3%dH2O.NegLispCup.LampEnergy10.LIBS07252019_HRD10591_16-59-37-336.txt Node
Date: Thu Jul 25 16:59:37 EDT 2019
User: cochatt
Spectrometer: HR+D1059
Trigger mode: 1
Integration Time (sec): 1.000000E-1
Scans to average: 1
Electric dark correction enabled: true
Nonlinearity correction enabled: false
Boxcar width: 0
XAxis mode: Wavelengths
Number of Pixels in Spectrum: 2048
>>>>>Begin Spectral Data<<<<<
223.165	-15.62
223.4	-15.62
223.635	-15.62
223.869	-20.62
224.104	-8.62
224.338	-24.62
224.573	-3.62
224.808	-15.62
225.042	-13.62
225.277	-10.62
225.511	4.38
225.746	5.38
225.98	-6.62
226.215	28.38
226.449	13.38
226.683	9.38
226.918	30.38
227.152	28.38
227.387	40.38
227.621	41.38
227.856	51.38
228.09	49.38
228.324	59.38
228.559	62.38
228.793	62.38
229.027	86.38
229.262	101.38
229.496	76.38
229.73	70.38
229.964	72.38
230.199	60.38
230.433	76.38
230.667	85.38
230.901	103.38
231.136	100.38
231.37	90.38
231.604	86.38
231.838	91.38
232.072	99.38
232.306	104.38
232.541	100.38
232.775	93.38
233.009	82.38
233.243	109.38
233.477	87.38
233.711	104.38
233.945	106.38
234.179	91.38
234.413	94.38
234.647	97.38
234.881	106.38
235.115	97.38
235.349	102.38
235.583	110.38
235.817	98.38
236.051	112.38
236.285	83.38
236.519	100.38
236.753	108.38
236.987	100.38
237.221	111.38
237.455	98.38
237.689	94.38
237.922	91.38
238.156	105.38
238.39	103.38
238.624	105.38
238.858	99.38
239.091	110.38
239.325	86.38
239.559	95.38
239.793	86.38
240.027	101.38
240.26	108.38
240.494	96.38
240.728	104.38
240.961	107.38
241.195	97.38
241.429	99.38
241.662	94.38
241.896	100.38
242.13	93.38
242.363	101.38
242.597	93.38
242.83	104.38
243.064	94.38
243.298	100.38
243.531	87.38
243.765	120.38
243.998	119.38
244.232	99.38
244.465	92.38
244.699	104.38
244.932	104.38
245.166	86.38
245.399	105.38
245.633	109.38
245.866	89.38
246.099	103.38
246.333	107.38
246.566	113.38
246.8	116.38
247.033	104.38
247.266	115.38
247.5	108.38
247.733	118.38
247.966	117.38
248.2	116.38
248.433	123.38
248.666	116.38
248.899	101.38
249.133	121.38
249.366	123.38
249.599	108.38
249.832	122.38
250.066	125.38
250.299	117.38
250.532	133.38
250.765	106.38
250.998	102.38
251.231	116.38
251.465	116.38
251.698	116.38
251.931	117.38
252.164	120.38
252.397	120.38
252.63	112.38
252.863	117.38
253.096	135.38
253.329	135.38
253.562	120.38
253.795	124.38
254.028	123.38
254.261	134.38
254.494	138.38
254.727	119.38
254.96	131.38
255.193	124.38
255.426	119.38
255.659	129.38
255.892	122.38
256.124	130.38
256.357	121.38
256.59	128.38
256.823	128.38
257.056	124.38
257.289	120.38
257.521	123.38
257.754	136.38
257.987	132.38
258.22	142.38
258.452	145.38
258.685	156.38
258.918	132.38
259.151	131.38
259.383	136.38
259.616	140.38
259.849	129.38
260.081	127.38
260.314	139.38
260.547	148.38
260.779	152.38
261.012	143.38
261.244	132.38
261.477	151.38
261.71	128.38
261.942	139.38
262.175	154.38
262.407	150.38
262.64	154.38
262.872	153.38
263.105	144.38
263.337	156.38
263.57	148.38
263.802	138.38
264.035	143.38
264.267	138.38
264.499	146.38
264.732	158.38
264.964	153.38
265.197	151.38
265.429	149.38
265.661	141.38
265.894	147.38
266.126	173.38
266.358	162.38
266.591	148.38
266.823	150.38
267.055	159.38
267.287	153.38
267.52	149.38
267.752	153.38
267.984	157.38
268.216	149.38
268.448	144.38
268.681	153.38
268.913	160.38
269.145	152.38
269.377	179.38
269.609	165.38
269.841	160.38
270.073	148.38
270.306	166.38
270.538	170.38
270.77	152.38
271.002	162.38
271.234	154.38
271.466	163.38
271.698	170.38
271.93	172.38
272.162	166.38
272.394	166.38
272.626	166.38
272.858	160.38
273.09	176.38
273.322	186.38
273.553	192.38
273.785	186.38
274.017	179.38
274.249	192.38
274.481	186.38
274.713	181.38
274.945	196.38
275.176	174.38
275.408	196.38
275.64	194.38
275.872	191.38
276.104	197.38
276.335	177.38
276.567	189.38
276.799	182.38
277.031	201.38
277.262	186.38
277.494	203.38
277.726	194.38
277.957	204.38
278.189	209.38
278.421	199.38
278.652	189.38
278.884	196.38
279.115	194.38
279.347	202.38
279.579	202.38
279.81	199.38
280.042	210.38
280.273	205.38
280.505	213.38
280.736	207.38
280.968	202.38
281.199	205.38
281.431	222.38
281.662	202.38
281.894	217.38
282.125	221.38
282.356	215.38
282.588	226.38
282.819	215.38
283.051	212.38
283.282	219.38
283.513	221.38
283.745	215.38
283.976	233.38
284.207	218.38
284.439	219.38
284.67	233.38
284.901	233.38
285.132	234.38
285.364	237.38
285.595	245.38
285.826	239.38
286.057	238.38
286.288	232.38
286.52	253.38
286.751	238.38
286.982	221.38
287.213	243.38
287.444	230.38
287.675	246.38
287.906	241.38
288.138	237.38
288.369	262.38
288.6	234.38
288.831	241.38
289.062	261.38
289.293	269.38
289.524	253.38
289.755	254.38
289.986	250.38
290.217	266.38
290.448	245.38
290.679	241.38
290.91	251.38
291.141	263.38
291.371	258.38
291.602	262.38
291.833	256.38
292.064	276.38
292.295	270.38
292.526	259.38
292.757	266.38
292.987	270.38
293.218	275.38
293.449	261.38
293.68	264.38
293.91	282.38
294.141	275.38
294.372	269.38
294.603	277.38
294.833	265.38
295.064	270.38
295.295	276.38
295.525	252.38
295.756	278.38
295.987	282.38
296.217	260.38
296.448	277.38
296.679	284.38
296.909	276.38
297.14	284.38
297.37	294.38
297.601	280.38
297.831	288.38
298.062	289.38
298.292	281.38
298.523	290.38
298.753	295.38
298.984	294.38
299.214	305.38
299.445	286.38
299.675	294.38
299.905	300.38
300.136	308.38
300.366	294.38
300.597	292.38
300.827	320.38
301.057	289.38
301.288	320.38
301.518	311.38
301.748	320.38
301.979	326.38
302.209	294.38
302.439	314.38
302.669	319.38
302.9	330.38
303.13	321.38
303.36	318.38
303.59	340.38
303.82	329.38
304.051	343.38
304.281	334.38
304.511	336.38
304.741	322.38
304.971	306.38
305.201	333.38
305.431	326.38
305.661	326.38
305.891	333.38
306.121	339.38
306.352	349.38
306.582	333.38
306.812	324.38
307.042	320.38
307.272	338.38
307.502	339.38
307.731	347.38
307.961	334.38
308.191	334.38
308.421	348.38
308.651	353.38
308.881	322.38
309.111	334.38
309.341	333.38
309.571	348.38
309.8	348.38
310.03	355.38
310.26	347.38
310.49	337.38
310.72	339.38
310.949	358.38
311.179	364.38
311.409	356.38
311.639	371.38
311.868	364.38
312.098	356.38
312.328	361.38
312.557	384.38
312.787	380.38
313.017	376.38
313.246	369.38
313.476	362.38
313.706	389.38
313.935	392.38
314.165	355.38
314.394	364.38
314.624	384.38
314.853	364.38
315.083	357.38
315.312	390.38
315.542	406.38
315.771	385.38
316.001	382.38
316.23	382.38
316.46	372.38
316.689	382.38
316.919	391.38
317.148	374.38
317.377	402.38
317.607	384.38
317.836	380.38
318.065	396.38
318.295	411.38
318.524	388.38
318.753	393.38
318.983	394.38
319.212	415.38
319.441	401.38
319.67	420.38
319.9	414.38
320.129	393.38
320.358	410.38
320.587	406.38
320.816	416.38
321.046	420.38
321.275	406.38
321.504	422.38
321.733	420.38
321.962	428.38
322.191	413.38
322.42	414.38
322.649	426.38
322.878	405.38
323.108	407.38
323.337	415.38
323.566	407.38
323.795	418.38
324.024	414.38
324.253	429.38
324.482	422.38
324.71	422.38
324.939	417.38
325.168	442.38
325.397	432.38
325.626	419.38
325.855	434.38
326.084	441.38
326.313	433.38
326.542	425.38
326.77	425.38
326.999	432.38
327.228	451.38
327.457	448.38
327.686	443.38
327.914	440.38
328.143	424.38
328.372	436.38
328.6	452.38
328.829	425.38
329.058	450.38
329.287	439.38
329.515	453.38
329.744	453.38
329.972	435.38
330.201	447.38
330.43	455.38
330.658	454.38
330.887	438.38
331.115	450.38
331.344	438.38
331.572	448.38
331.801	466.38
332.03	443.38
332.258	452.38
332.486	468.38
332.715	477.38
332.943	428.38
333.172	455.38
333.4	460.38
333.629	469.38
333.857	460.38
334.085	461.38
334.314	463.38
334.542	457.38
334.771	481.38
334.999	475.38
335.227	477.38
335.455	457.38
335.684	479.38
335.912	483.38
336.14	472.38
336.369	470.38
336.597	498.38
336.825	480.38
337.053	474.38
337.281	478.38
337.51	478.38
337.738	483.38
337.966	485.38
338.194	489.38
338.422	462.38
338.65	449.38
338.878	472.38
339.106	476.38
339.334	476.38
339.562	485.38
339.79	471.38
340.018	470.38
340.246	478.38
340.474	477.38
340.702	457.38
340.93	481.38
341.158	458.38
341.386	481.38
341.614	483.38
341.842	493.38
342.07	477.38
342.298	481.38
342.526	469.38
342.754	461.38
342.981	470.38
343.209	480.38
343.437	482.38
343.665	486.38
343.893	474.38
344.12	486.38
344.348	484.38
344.576	466.38
344.804	483.38
345.031	481.38
345.259	502.38
345.487	466.38
345.714	481.38
345.942	505.38
346.17	476.38
346.397	480.38
346.625	488.38
346.853	483.38
347.08	501.38
347.308	477.38
347.535	482.38
347.763	482.38
347.99	472.38
348.218	473.38
348.445	472.38
348.673	485.38
348.9	472.38
349.128	474.38
349.355	463.38
349.583	477.38
349.81	459.38
350.037	448.38
350.265	472.38
350.492	488.38
350.72	488.38
350.947	477.38
351.174	471.38
351.402	479.38
351.629	495.38
351.856	489.38
352.083	488.38
352.311	476.38
352.538	494.38
352.765	473.38
352.992	480.38
353.22	477.38
353.447	516.38
353.674	506.38
353.901	473.38
354.128	478.38
354.355	486.38
354.583	475.38
354.81	488.38
355.037	523.38
355.264	502.38
355.491	498.38
355.718	484.38
355.945	500.38
356.172	481.38
356.399	503.38
356.626	488.38
356.853	470.38
357.08	494.38
357.307	478.38
357.534	479.38
357.761	489.38
357.988	513.38
358.215	498.38
358.441	486.38
358.668	489.38
358.895	490.38
359.122	508.38
359.349	491.38
359.576	476.38
359.802	509.38
360.029	510.38
360.256	468.38
360.483	488.38
360.709	493.38
360.936	505.38
361.163	506.38
361.39	473.38
361.616	483.38
361.843	483.38
362.07	507.38
362.296	508.38
362.523	493.38
362.749	510.38
362.976	515.38
363.203	501.38
363.429	507.38
363.656	516.38
363.882	504.38
364.109	514.38
364.335	497.38
364.562	505.38
364.788	501.38
365.015	521.38
365.241	515.38
365.468	506.38
365.694	516.38
365.92	509.38
366.147	529.38
366.373	520.38
366.599	524.38
366.826	486.38
367.052	503.38
367.278	514.38
367.505	507.38
367.731	524.38
367.957	519.38
368.184	539.38
368.41	541.38
368.636	521.38
368.862	536.38
369.089	530.38
369.315	520.38
369.541	504.38
369.767	541.38
369.993	492.38
370.219	528.38
370.445	524.38
370.672	527.38
370.898	526.38
371.124	542.38
371.35	555.38
371.576	525.38
371.802	549.38
372.028	509.38
372.254	528.38
372.48	529.38
372.706	554.38
372.932	520.38
373.158	526.38
373.384	525.38
373.61	522.38
373.835	562.38
374.061	521.38
374.287	533.38
374.513	530.38
374.739	540.38
374.965	538.38
375.191	547.38
375.416	532.38
375.642	536.38
375.868	550.38
376.094	519.38
376.319	528.38
376.545	524.38
376.771	545.38
376.997	540.38
377.222	540.38
377.448	521.38
377.674	560.38
377.899	538.38
378.125	531.38
378.35	549.38
378.576	526.38
378.802	546.38
379.027	519.38
379.253	539.38
379.478	541.38
379.704	520.38
379.929	516.38
380.155	533.38
380.38	554.38
380.606	534.38
380.831	546.38
381.057	547.38
381.282	560.38
381.507	537.38
381.733	533.38
381.958	542.38
382.184	553.38
382.409	537.38
382.634	554.38
382.86	557.38
383.085	569.38
383.31	542.38
383.535	561.38
383.761	546.38
383.986	569.38
384.211	553.38
384.436	561.38
384.662	560.38
384.887	567.38
385.112	553.38
385.337	577.38
385.562	566.38
385.787	546.38
386.013	571.38
386.238	578.38
386.463	564.38
386.688	583.38
386.913	557.38
387.138	562.38
387.363	558.38
387.588	585.38
387.813	562.38
388.038	569.38
388.263	578.38
388.488	581.38
388.713	580.38
388.938	582.38
389.163	580.38
389.387	549.38
389.612	579.38
389.837	549.38
390.062	580.38
390.287	587.38
390.512	566.38
390.736	552.38
390.961	562.38
391.186	575.38
391.411	572.38
391.636	570.38
391.86	588.38
392.085	577.38
392.31	581.38
392.534	556.38
392.759	581.38
392.984	582.38
393.208	583.38
393.433	572.38
393.658	566.38
393.882	594.38
394.107	561.38
394.331	569.38
394.556	589.38
394.78	568.38
395.005	589.38
395.229	588.38
395.454	587.38
395.678	593.38
395.903	586.38
396.127	590.38
396.352	593.38
396.576	584.38
396.801	572.38
397.025	577.38
397.249	616.38
397.474	604.38
397.698	581.38
397.922	589.38
398.147	612.38
398.371	595.38
398.595	598.38
398.82	602.38
399.044	614.38
399.268	586.38
399.492	612.38
399.717	629.38
399.941	625.38
400.165	600.38
400.389	640.38
400.613	646.38
400.837	601.38
401.062	608.38
401.286	628.38
401.51	618.38
401.734	597.38
401.958	612.38
402.182	627.38
402.406	590.38
402.63	612.38
402.854	642.38
403.078	614.38
403.302	608.38
403.526	626.38
403.75	612.38
403.974	636.38
404.198	611.38
404.422	632.38
404.645	644.38
404.869	616.38
405.093	622.38
405.317	622.38
405.541	633.38
405.765	620.38
405.988	598.38
406.212	609.38
406.436	617.38
406.66	647.38
406.883	621.38
407.107	639.38
407.331	648.38
407.555	645.38
407.778	658.38
408.002	638.38
408.226	653.38
408.449	650.38
408.673	659.38
408.896	658.38
409.12	635.38
409.344	648.38
409.567	621.38
409.791	640.38
410.014	632.38
410.238	631.38
410.461	635.38
410.685	646.38
410.908	628.38
411.132	626.38
411.355	625.38
411.578	633.38
411.802	618.38
412.025	612.38
412.249	615.38
412.472	645.38
412.695	628.38
412.919	617.38
413.142	621.38
413.365	638.38
413.589	612.38
413.812	618.38
414.035	624.38
414.258	588.38
414.482	595.38
414.705	620.38
414.928	634.38
415.151	618.38
415.374	611.38
415.597	606.38
415.821	610.38
416.044	624.38
416.267	632.38
416.49	607.38
416.713	612.38
416.936	614.38
417.159	599.38
417.382	602.38
417.605	587.38
417.828	600.38
418.051	601.38
418.274	603.38
418.497	587.38
418.72	605.38
418.943	575.38
419.166	608.38
419.389	641.38
419.611	638.38
419.834	608.38
420.057	606.38
420.28	608.38
420.503	583.38
420.726	564.38
420.948	601.38
421.171	583.38
421.394	603.38
421.617	583.38
421.839	609.38
422.062	590.38
422.285	599.38
422.507	602.38
422.73	590.38
422.953	589.38
423.175	607.38
423.398	598.38
423.621	585.38
423.843	586.38
424.066	590.38
424.288	590.38
424.511	588.38
424.733	613.38
424.956	602.38
425.178	595.38
425.401	587.38
425.623	592.38
425.846	594.38
426.068	596.38
426.291	581.38
426.513	586.38
426.735	623.38
426.958	588.38
427.18	576.38
427.402	594.38
427.625	614.38
427.847	595.38
428.069	573.38
428.292	595.38
428.514	592.38
428.736	590.38
428.958	609.38
429.181	580.38
429.403	599.38
429.625	580.38
429.847	586.38
430.069	606.38
430.292	594.38
430.514	576.38
430.736	578.38
430.958	612.38
431.18	594.38
431.402	598.38
431.624	588.38
431.846	597.38
432.068	606.38
432.29	573.38
432.512	595.38
432.734	599.38
432.956	610.38
433.178	616.38
433.4	579.38
433.622	608.38
433.844	607.38
434.066	600.38
434.287	596.38
434.509	594.38
434.731	588.38
434.953	595.38
435.175	599.38
435.397	604.38
435.618	619.38
435.84	577.38
436.062	598.38
436.284	572.38
436.505	581.38
436.727	583.38
436.949	591.38
437.17	603.38
437.392	586.38
437.614	602.38
437.835	581.38
438.057	599.38
438.278	594.38
438.5	587.38
438.721	572.38
438.943	597.38
439.165	581.38
439.386	607.38
439.608	619.38
439.829	596.38
440.05	590.38
440.272	580.38
440.493	595.38
440.715	609.38
440.936	582.38
441.158	593.38
441.379	596.38
441.6	583.38
441.822	595.38
442.043	589.38
442.264	568.38
442.486	591.38
442.707	576.38
442.928	572.38
443.149	601.38
443.371	596.38
443.592	589.38
443.813	576.38
444.034	597.38
444.255	589.38
444.476	594.38
444.698	584.38
444.919	612.38
445.14	710.38
445.361	624.38
445.582	612.38
445.803	597.38
446.024	574.38
446.245	609.38
446.466	586.38
446.687	571.38
446.908	580.38
447.129	578.38
447.35	577.38
447.571	561.38
447.792	564.38
448.013	572.38
448.234	585.38
448.455	589.38
448.675	589.38
448.896	582.38
449.117	558.38
449.338	584.38
449.559	574.38
449.779	556.38
450	555.38
450.221	550.38
450.442	574.38
450.662	560.38
450.883	563.38
451.104	544.38
451.324	561.38
451.545	574.38
451.766	574.38
451.986	586.38
452.207	555.38
452.428	562.38
452.648	560.38
452.869	564.38
453.089	542.38
453.31	576.38
453.53	564.38
453.751	570.38
453.971	553.38
454.192	545.38
454.412	561.38
454.633	573.38
454.853	577.38
455.073	549.38
455.294	563.38
455.514	538.38
455.734	552.38
455.955	562.38
456.175	556.38
456.395	565.38
456.616	538.38
456.836	554.38
457.056	543.38
457.276	544.38
457.497	570.38
457.717	543.38
457.937	576.38
458.157	536.38
458.377	566.38
458.598	538.38
458.818	578.38
459.038	576.38
459.258	573.38
459.478	572.38
459.698	599.38
459.918	601.38
460.138	558.38
460.358	562.38
460.578	580.38
460.798	562.38
461.018	605.38
461.238	607.38
461.458	613.38
461.678	584.38
461.898	589.38
462.118	593.38
462.338	598.38
462.558	603.38
462.777	608.38
462.997	594.38
463.217	613.38
463.437	599.38
463.657	599.38
463.876	611.38
464.096	580.38
464.316	603.38
464.536	597.38
464.755	622.38
464.975	582.38
465.195	572.38
465.414	580.38
465.634	580.38
465.854	601.38
466.073	616.38
466.293	597.38
466.512	591.38
466.732	572.38
466.951	602.38
467.171	609.38
467.391	574.38
467.61	591.38
467.829	587.38
468.049	580.38
468.268	599.38
468.488	587.38
468.707	573.38
468.927	611.38
469.146	589.38
469.365	585.38
469.585	605.38
469.804	594.38
470.023	609.38
470.243	578.38
470.462	596.38
470.681	592.38
470.901	598.38
471.12	587.38
471.339	599.38
471.558	600.38
471.777	614.38
471.997	599.38
472.216	609.38
472.435	620.38
472.654	624.38
472.873	626.38
473.092	630.38
473.311	580.38
473.53	624.38
473.749	604.38
473.968	608.38
474.187	616.38
474.406	642.38
474.625	654.38
474.844	625.38
475.063	634.38
475.282	657.38
475.501	648.38
475.72	658.38
475.939	663.38
476.158	663.38
476.377	672.38
476.596	673.38
476.814	685.38
477.033	653.38
477.252	657.38
477.471	688.38
477.69	662.38
477.908	670.38
478.127	669.38
478.346	661.38
478.564	682.38
478.783	672.38
479.002	710.38
479.22	717.38
479.439	714.38
479.658	712.38
479.876	702.38
480.095	737.38
480.313	702.38
480.532	714.38
480.751	722.38
480.969	723.38
481.188	716.38
481.406	730.38
481.624	721.38
481.843	732.38
482.061	734.38
482.28	724.38
482.498	717.38
482.717	741.38
482.935	743.38
483.153	749.38
483.372	768.38
483.59	756.38
483.808	772.38
484.027	742.38
484.245	738.38
484.463	762.38
484.681	776.38
484.9	774.38
485.118	770.38
485.336	774.38
485.554	755.38
485.772	760.38
485.99	751.38
486.209	768.38
486.427	774.38
486.645	790.38
486.863	778.38
487.081	788.38
487.299	772.38
487.517	774.38
487.735	767.38
487.953	788.38
488.171	788.38
488.389	771.38
488.607	768.38
488.825	773.38
489.043	747.38
489.261	784.38
489.479	805.38
489.696	790.38
489.914	774.38
490.132	826.38
490.35	786.38
490.568	787.38
490.786	792.38
491.003	804.38
491.221	807.38
491.439	802.38
491.657	787.38
491.874	819.38
492.092	798.38
492.31	806.38
492.527	807.38
492.745	789.38
492.963	827.38
493.18	790.38
493.398	809.38
493.615	812.38
493.833	822.38
494.05	819.38
494.268	809.38
494.485	800.38
494.703	809.38
494.92	814.38
495.138	806.38
495.355	810.38
495.573	842.38
495.79	825.38
496.008	820.38
496.225	801.38
496.442	832.38
496.66	800.38
496.877	808.38
497.094	817.38
497.312	810.38
497.529	834.38
497.746	825.38
497.963	865.38
498.181	836.38
498.398	834.38
498.615	840.38
498.832	825.38
499.049	869.38
499.267	872.38
499.484	884.38
499.701	898.38
499.918	898.38
500.135	881.38
500.352	918.38
500.569	911.38
500.786	921.38
501.003	918.38
501.22	920.38
501.437	915.38
501.654	869.38
501.871	871.38
502.088	862.38
502.305	822.38
502.522	866.38
502.739	832.38
502.956	808.38
503.172	853.38
503.389	814.38
503.606	807.38
503.823	815.38
504.04	810.38
504.256	835.38
504.473	825.38
504.69	810.38
504.907	806.38
505.123	802.38
505.34	785.38
505.557	787.38
505.773	784.38
505.99	771.38
506.207	771.38
506.423	761.38
506.64	739.38
506.856	753.38
507.073	750.38
507.289	761.38
507.506	777.38
507.722	759.38
507.939	740.38
508.155	752.38
508.372	736.38
508.588	749.38
508.805	720.38
509.021	734.38
509.238	730.38
509.454	717.38
509.67	724.38
509.887	737.38
510.103	700.38
510.319	704.38
510.536	709.38
510.752	712.38
510.968	714.38
511.184	713.38
511.401	684.38
511.617	693.38
511.833	726.38
512.049	703.38
512.265	707.38
512.481	708.38
512.698	693.38
512.914	714.38
513.13	707.38
513.346	674.38
513.562	688.38
513.778	708.38
513.994	740.38
514.21	705.38
514.426	704.38
514.642	701.38
514.858	722.38
515.074	710.38
515.29	702.38
515.506	704.38
515.721	676.38
515.937	700.38
516.153	709.38
516.369	721.38
516.585	707.38
516.801	700.38
517.016	718.38
517.232	716.38
517.448	734.38
517.664	722.38
517.879	721.38
518.095	704.38
518.311	720.38
518.527	701.38
518.742	692.38
518.958	722.38
519.173	714.38
519.389	703.38
519.605	692.38
519.82	709.38
520.036	715.38
520.251	679.38
520.467	682.38
520.682	694.38
520.898	667.38
521.113	675.38
521.329	669.38
521.544	675.38
521.76	675.38
521.975	677.38
522.19	684.38
522.406	683.38
522.621	678.38
522.836	689.38
523.052	685.38
523.267	691.38
523.482	679.38
523.698	685.38
523.913	660.38
524.128	658.38
524.343	669.38
524.559	692.38
524.774	663.38
524.989	681.38
525.204	696.38
525.419	694.38
525.634	679.38
525.849	664.38
526.064	657.38
526.28	654.38
526.495	689.38
526.71	684.38
526.925	669.38
527.14	669.38
527.355	681.38
527.57	673.38
527.785	675.38
527.999	659.38
528.214	654.38
528.429	653.38
528.644	648.38
528.859	666.38
529.074	657.38
529.289	672.38
529.503	668.38
529.718	662.38
529.933	651.38
530.148	645.38
530.363	667.38
530.577	660.38
530.792	642.38
531.007	646.38
531.221	638.38
531.436	650.38
531.651	654.38
531.865	649.38
532.08	638.38
532.295	661.38
532.509	644.38
532.724	652.38
532.938	661.38
533.153	649.38
533.367	630.38
533.582	636.38
533.796	626.38
534.011	658.38
534.225	657.38
534.44	627.38
534.654	630.38
534.868	629.38
535.083	614.38
535.297	643.38
535.511	632.38
535.726	652.38
535.94	606.38
536.154	634.38
536.369	618.38
536.583	629.38
536.797	626.38
537.011	621.38
537.225	624.38
537.44	618.38
537.654	632.38
537.868	621.38
538.082	611.38
538.296	617.38
538.51	615.38
538.724	630.38
538.938	608.38
539.153	605.38
539.367	614.38
539.581	611.38
539.795	598.38
540.009	613.38
540.222	635.38
540.436	613.38
540.65	614.38
540.864	604.38
541.078	602.38
541.292	608.38
541.506	626.38
541.72	621.38
541.934	611.38
542.147	633.38
542.361	600.38
542.575	609.38
542.789	605.38
543.002	584.38
543.216	593.38
543.43	616.38
543.644	600.38
543.857	597.38
544.071	590.38
544.285	599.38
544.498	600.38
544.712	609.38
544.925	599.38
545.139	602.38
545.352	597.38
545.566	600.38
545.779	618.38
545.993	575.38
546.206	599.38
546.42	598.38
546.633	585.38
546.847	604.38
547.06	601.38
547.274	595.38
547.487	592.38
547.7	598.38
547.914	578.38
548.127	579.38
548.34	589.38
548.554	597.38
548.767	594.38
548.98	618.38
549.193	569.38
549.407	599.38
549.62	589.38
549.833	582.38
550.046	580.38
550.259	577.38
550.473	560.38
550.686	576.38
550.899	583.38
551.112	587.38
551.325	584.38
551.538	590.38
551.751	587.38
551.964	610.38
552.177	578.38
552.39	573.38
552.603	601.38
552.816	554.38
553.029	579.38
553.242	578.38
553.455	588.38
553.667	573.38
553.88	555.38
554.093	568.38
554.306	570.38
554.519	581.38
554.732	578.38
554.944	585.38
555.157	565.38
555.37	554.38
555.583	540.38
555.795	557.38
556.008	544.38
556.221	525.38
556.433	535.38
556.646	564.38
556.859	542.38
557.071	544.38
557.284	540.38
557.496	553.38
557.709	532.38
557.921	542.38
558.134	510.38
558.346	528.38
558.559	520.38
558.771	543.38
558.984	516.38
559.196	532.38
559.409	528.38
559.621	529.38
559.833	539.38
560.046	540.38
560.258	513.38
560.47	493.38
560.683	516.38
560.895	493.38
561.107	525.38
561.32	525.38
561.532	507.38
561.744	527.38
561.956	510.38
562.168	527.38
562.381	513.38
562.593	526.38
562.805	545.38
563.017	503.38
563.229	489.38
563.441	516.38
563.653	526.38
563.865	518.38
564.077	522.38
564.289	510.38
564.501	523.38
564.713	547.38
564.925	500.38
565.137	500.38
565.349	518.38
565.561	523.38
565.773	514.38
565.985	524.38
566.197	499.38
566.408	512.38
566.62	504.38
566.832	500.38
567.044	493.38
567.255	485.38
567.467	489.38
567.679	506.38
567.891	516.38
568.102	516.38
568.314	516.38
568.526	500.38
568.737	499.38
568.949	488.38
569.161	485.38
569.372	490.38
569.584	488.38
569.795	477.38
570.007	463.38
570.218	452.38
570.43	480.38
570.641	462.38
570.853	468.38
571.064	450.38
571.276	471.38
571.487	482.38
571.698	471.38
571.91	454.38
572.121	453.38
572.333	458.38
572.544	436.38
572.755	442.38
572.966	437.38
573.178	445.38
573.389	421.38
573.6	413.38
573.811	445.38
574.023	446.38
574.234	405.38
574.445	418.38
574.656	446.38
574.867	414.38
575.078	432.38
575.289	423.38
575.501	438.38
575.712	420.38
575.923	408.38
576.134	437.38
576.345	422.38
576.556	428.38
576.767	412.38
576.978	415.38
577.188	408.38
577.399	413.38
577.61	386.38
577.821	416.38
578.032	398.38
578.243	403.38
578.454	425.38
578.665	415.38
578.875	398.38
579.086	392.38
579.297	404.38
579.508	396.38
579.718	398.38
579.929	385.38
580.14	375.38
580.35	394.38
580.561	388.38
580.772	409.38
580.982	406.38
581.193	388.38
581.403	390.38
581.614	408.38
581.825	397.38
582.035	395.38
582.246	394.38
582.456	388.38
582.667	398.38
582.877	395.38
583.087	383.38
583.298	368.38
583.508	363.38
583.719	365.38
583.929	380.38
584.139	384.38
584.35	386.38
584.56	378.38
584.77	379.38
584.981	368.38
585.191	365.38
585.401	342.38
585.611	376.38
585.821	377.38
586.032	357.38
586.242	367.38
586.452	388.38
586.662	356.38
586.872	344.38
587.082	368.38
587.292	362.38
587.502	376.38
587.713	341.38
587.923	357.38
588.133	344.38
588.343	360.38
588.553	356.38
588.762	353.38
588.972	355.38
589.182	369.38
589.392	368.38
589.602	357.38
589.812	372.38
590.022	347.38
590.232	354.38
590.441	352.38
590.651	356.38
590.861	349.38
591.071	331.38
591.281	353.38
591.49	343.38
591.7	359.38
591.91	365.38
592.119	347.38
592.329	348.38
592.539	350.38
592.748	344.38
592.958	354.38
593.167	369.38
593.377	356.38
593.587	355.38
593.796	331.38
594.006	344.38
594.215	331.38
594.424	350.38
594.634	350.38
594.843	340.38
595.053	344.38
595.262	340.38
595.472	331.38
595.681	325.38
595.89	328.38
596.1	316.38
596.309	333.38
596.518	345.38
596.727	330.38
596.937	313.38
597.146	321.38
597.355	333.38
597.564	339.38
597.774	318.38
597.983	322.38
598.192	327.38
598.401	317.38
598.61	323.38
598.819	325.38
599.028	309.38
599.237	312.38
599.446	311.38
599.655	337.38
599.864	314.38
600.073	333.38
600.282	314.38
600.491	314.38
600.7	304.38
600.909	303.38
601.118	311.38
601.327	327.38
601.536	316.38
601.745	327.38
601.953	330.38
602.162	311.38
602.371	275.38
602.58	304.38
602.789	308.38
602.997	299.38
603.206	309.38
603.415	306.38
603.623	306.38
603.832	313.38
604.041	310.38
604.249	306.38
604.458	300.38
604.666	299.38
604.875	287.38
605.084	300.38
605.292	293.38
605.501	310.38
605.709	320.38
605.918	306.38
606.126	300.38
606.334	288.38
606.543	284.38
606.751	294.38
606.96	292.38
607.168	296.38
607.376	304.38
607.585	293.38
607.793	296.38
608.001	271.38
608.21	286.38
608.418	292.38
608.626	299.38
608.834	304.38
609.043	310.38
609.251	292.38
609.459	274.38
609.667	284.38
609.875	285.38
610.083	295.38
610.291	299.38
610.499	260.38
610.707	294.38
610.916	287.38
611.124	276.38
611.332	291.38
611.54	296.38
611.748	270.38
611.955	283.38
612.163	269.38
612.371	290.38
612.579	282.38
612.787	290.38
612.995	283.38
613.203	279.38
613.411	266.38
613.618	265.38
613.826	285.38
614.034	278.38
614.242	278.38
614.449	273.38
614.657	288.38
614.865	286.38
615.072	254.38
615.28	275.38
615.488	290.38
615.695	268.38
615.903	266.38
616.111	297.38
616.318	271.38
616.526	278.38
616.733	277.38
616.941	268.38
617.148	271.38
617.356	270.38
617.563	270.38
617.771	266.38
617.978	253.38
618.185	236.38
618.393	284.38
618.6	284.38
618.807	256.38
619.015	267.38
619.222	276.38
619.429	266.38
619.637	274.38
619.844	268.38
620.051	276.38
620.258	279.38
620.466	252.38
620.673	243.38
620.88	248.38
621.087	257.38
621.294	247.38
621.501	262.38
621.708	251.38
621.915	260.38
622.122	253.38
622.329	269.38
622.536	249.38
622.743	251.38
622.95	245.38
623.157	269.38
623.364	252.38
623.571	247.38
623.778	244.38
623.985	251.38
624.192	252.38
624.399	260.38
624.606	244.38
624.812	251.38
625.019	263.38
625.226	256.38
625.433	246.38
625.639	224.38
625.846	228.38
626.053	240.38
626.259	259.38
626.466	243.38
626.673	233.38
626.879	229.38
627.086	249.38
627.293	232.38
627.499	235.38
627.706	251.38
627.912	248.38
628.119	225.38
628.325	240.38
628.532	215.38
628.738	228.38
628.945	245.38
629.151	235.38
629.357	227.38
629.564	220.38
629.77	216.38
629.976	215.38
630.183	225.38
630.389	212.38
630.595	219.38
630.802	244.38
631.008	235.38
631.214	233.38
631.42	230.38
631.627	215.38
631.833	205.38
632.039	226.38
632.245	225.38
632.451	226.38
632.657	222.38
632.863	229.38
633.069	221.38
633.275	230.38
633.481	225.38
633.688	224.38
633.893	227.38
634.099	209.38
634.305	218.38
634.511	236.38
634.717	217.38
634.923	219.38
635.129	188.38
635.335	231.38
635.541	205.38
635.747	222.38
635.952	207.38
636.158	210.38
636.364	211.38
636.57	228.38
636.775	196.38
636.981	208.38
637.187	220.38
637.392	202.38
637.598	202.38
637.804	207.38
638.009	215.38
638.215	214.38
638.421	204.38
638.626	207.38
638.832	192.38
639.037	216.38
639.243	217.38
639.448	216.38
639.654	212.38
639.859	210.38
640.065	216.38
640.27	212.38
640.475	190.38
640.681	195.38
640.886	222.38
641.091	219.38
641.297	221.38
641.502	220.38
641.707	201.38
641.913	201.38
642.118	194.38
642.323	213.38
642.528	211.38
642.733	202.38
642.939	205.38
643.144	202.38
643.349	192.38
643.554	212.38
643.759	206.38
643.964	208.38
644.169	198.38
644.374	186.38
644.579	198.38
644.784	192.38
644.989	209.38
645.194	214.38
645.399	189.38
645.604	182.38
645.809	196.38
646.014	201.38
646.219	189.38
646.423	206.38
646.628	204.38
646.833	193.38
647.038	198.38
647.243	206.38
647.447	196.38
647.652	196.38
647.857	196.38
648.062	183.38
648.266	200.38
648.471	201.38
648.676	205.38
648.88	192.38
649.085	186.38
649.289	210.38
649.494	200.38
649.698	199.38
649.903	206.38
650.107	183.38
650.312	203.38
650.516	195.38
650.721	187.38
650.925	193.38
651.13	192.38
651.334	187.38
651.539	186.38
651.743	177.38
651.947	194.38
652.152	202.38
652.356	192.38
652.56	177.38
652.764	188.38
652.969	205.38
653.173	192.38
653.377	168.38
653.581	172.38
653.785	176.38
653.99	182.38
654.194	183.38
654.398	173.38
654.602	163.38
654.806	159.38
655.01	164.38
655.214	164.38
655.418	162.38
655.622	181.38
655.826	166.38
656.03	160.38
656.234	161.38
656.438	154.38
656.642	149.38
656.846	167.38
657.049	158.38
657.253	156.38
657.457	163.38
657.661	142.38
657.865	133.38
658.068	134.38
658.272	141.38
658.476	119.38
658.68	126.38
658.883	130.38
659.087	121.38
659.291	118.38
659.494	106.38
659.698	121.38
659.901	110.38
660.105	112.38
660.309	108.38
660.512	113.38
660.716	104.38
660.919	94.38
661.123	98.38
661.326	97.38
661.53	102.38
661.733	98.38
661.936	104.38
662.14	91.38
662.343	101.38
662.546	107.38
662.75	84.38
662.953	102.38
663.156	96.38
663.36	94.38
663.563	84.38
663.766	90.38
663.969	82.38
664.173	81.38
664.376	86.38
664.579	83.38
664.782	81.38
664.985	80.38
665.188	98.38
665.391	87.38
665.594	79.38
665.797	84.38
666	80.38
666.203	75.38
666.406	68.38
666.609	84.38
666.812	91.38
667.015	84.38
667.218	89.38
667.421	81.38
667.624	89.38
667.827	94.38
668.03	96.38
668.232	83.38
668.435	87.38
668.638	92.38
668.841	82.38
669.043	70.38
669.246	92.38
669.449	75.38
669.651	81.38
669.854	78.38
670.057	78.38
670.259	73.38
670.462	78.38
670.665	92.38
670.867	89.38
671.07	85.38
671.272	91.38
671.475	83.38
671.677	88.38
671.88	86.38
672.082	88.38
672.284	84.38
672.487	76.38
672.689	69.38
672.892	80.38
