Data from Fe(NO3)3@0.025M.TitratingCurve.Agarose3%dH2O.NegLispCup.LampEnergy10.LIBS07252019_HRD10591_16-55-56-336.txt Node
Date: Thu Jul 25 16:55:56 EDT 2019
User: cochatt
Spectrometer: HR+D1059
Trigger mode: 1
Integration Time (sec): 1.000000E-1
Scans to average: 1
Electric dark correction enabled: true
Nonlinearity correction enabled: false
Boxcar width: 0
XAxis mode: Wavelengths
Number of Pixels in Spectrum: 2048
>>>>>Begin Spectral Data<<<<<
223.165	-16.12
223.4	-16.12
223.635	-16.12
223.869	-25.12
224.104	-14.12
224.338	-14.12
224.573	-21.12
224.808	-8.12
225.042	-11.12
225.277	-4.12
225.511	-10.12
225.746	13.88
225.98	7.88
226.215	13.88
226.449	19.88
226.683	11.88
226.918	23.88
227.152	32.88
227.387	25.88
227.621	38.88
227.856	45.88
228.09	40.88
228.324	45.88
228.559	50.88
228.793	68.88
229.027	79.88
229.262	73.88
229.496	71.88
229.73	74.88
229.964	93.88
230.199	84.88
230.433	92.88
230.667	90.88
230.901	106.88
231.136	86.88
231.37	105.88
231.604	94.88
231.838	98.88
232.072	101.88
232.306	104.88
232.541	104.88
232.775	101.88
233.009	107.88
233.243	105.88
233.477	99.88
233.711	113.88
233.945	120.88
234.179	101.88
234.413	111.88
234.647	111.88
234.881	106.88
235.115	107.88
235.349	114.88
235.583	101.88
235.817	105.88
236.051	99.88
236.285	97.88
236.519	108.88
236.753	107.88
236.987	97.88
237.221	94.88
237.455	113.88
237.689	100.88
237.922	120.88
238.156	120.88
238.39	101.88
238.624	91.88
238.858	107.88
239.091	111.88
239.325	106.88
239.559	114.88
239.793	111.88
240.027	116.88
240.26	123.88
240.494	101.88
240.728	116.88
240.961	108.88
241.195	115.88
241.429	108.88
241.662	111.88
241.896	121.88
242.13	120.88
242.363	121.88
242.597	117.88
242.83	118.88
243.064	103.88
243.298	116.88
243.531	117.88
243.765	116.88
243.998	116.88
244.232	126.88
244.465	120.88
244.699	127.88
244.932	111.88
245.166	126.88
245.399	130.88
245.633	118.88
245.866	133.88
246.099	125.88
246.333	143.88
246.566	119.88
246.8	122.88
247.033	133.88
247.266	109.88
247.5	121.88
247.733	121.88
247.966	127.88
248.2	133.88
248.433	136.88
248.666	131.88
248.899	113.88
249.133	124.88
249.366	153.88
249.599	131.88
249.832	131.88
250.066	129.88
250.299	127.88
250.532	129.88
250.765	140.88
250.998	133.88
251.231	141.88
251.465	139.88
251.698	133.88
251.931	166.88
252.164	148.88
252.397	146.88
252.63	141.88
252.863	138.88
253.096	127.88
253.329	130.88
253.562	149.88
253.795	155.88
254.028	149.88
254.261	134.88
254.494	134.88
254.727	147.88
254.96	136.88
255.193	128.88
255.426	151.88
255.659	149.88
255.892	146.88
256.124	156.88
256.357	143.88
256.59	125.88
256.823	140.88
257.056	145.88
257.289	141.88
257.521	153.88
257.754	141.88
257.987	161.88
258.22	164.88
258.452	163.88
258.685	149.88
258.918	149.88
259.151	155.88
259.383	167.88
259.616	155.88
259.849	155.88
260.081	165.88
260.314	176.88
260.547	164.88
260.779	149.88
261.012	172.88
261.244	161.88
261.477	164.88
261.71	159.88
261.942	151.88
262.175	172.88
262.407	143.88
262.64	163.88
262.872	171.88
263.105	168.88
263.337	190.88
263.57	169.88
263.802	171.88
264.035	168.88
264.267	169.88
264.499	159.88
264.732	159.88
264.964	141.88
265.197	155.88
265.429	167.88
265.661	164.88
265.894	170.88
266.126	177.88
266.358	180.88
266.591	174.88
266.823	176.88
267.055	179.88
267.287	156.88
267.52	183.88
267.752	175.88
267.984	165.88
268.216	182.88
268.448	198.88
268.681	181.88
268.913	176.88
269.145	187.88
269.377	171.88
269.609	179.88
269.841	171.88
270.073	178.88
270.306	183.88
270.538	180.88
270.77	182.88
271.002	203.88
271.234	187.88
271.466	201.88
271.698	175.88
271.93	185.88
272.162	197.88
272.394	211.88
272.626	196.88
272.858	176.88
273.09	191.88
273.322	179.88
273.553	196.88
273.785	186.88
274.017	191.88
274.249	180.88
274.481	205.88
274.713	211.88
274.945	219.88
275.176	198.88
275.408	204.88
275.64	204.88
275.872	184.88
276.104	204.88
276.335	210.88
276.567	199.88
276.799	191.88
277.031	207.88
277.262	210.88
277.494	200.88
277.726	210.88
277.957	209.88
278.189	204.88
278.421	189.88
278.652	205.88
278.884	206.88
279.115	197.88
279.347	227.88
279.579	218.88
279.81	204.88
280.042	214.88
280.273	216.88
280.505	200.88
280.736	225.88
280.968	205.88
281.199	220.88
281.431	213.88
281.662	213.88
281.894	217.88
282.125	220.88
282.356	215.88
282.588	213.88
282.819	225.88
283.051	222.88
283.282	220.88
283.513	218.88
283.745	217.88
283.976	227.88
284.207	222.88
284.439	232.88
284.67	239.88
284.901	232.88
285.132	232.88
285.364	218.88
285.595	217.88
285.826	208.88
286.057	230.88
286.288	236.88
286.52	243.88
286.751	238.88
286.982	226.88
287.213	247.88
287.444	257.88
287.675	231.88
287.906	233.88
288.138	228.88
288.369	230.88
288.6	237.88
288.831	224.88
289.062	243.88
289.293	266.88
289.524	253.88
289.755	225.88
289.986	243.88
290.217	257.88
290.448	239.88
290.679	244.88
290.91	248.88
291.141	237.88
291.371	240.88
291.602	237.88
291.833	253.88
292.064	239.88
292.295	227.88
292.526	250.88
292.757	261.88
292.987	241.88
293.218	245.88
293.449	264.88
293.68	244.88
293.91	259.88
294.141	241.88
294.372	240.88
294.603	254.88
294.833	254.88
295.064	244.88
295.295	263.88
295.525	237.88
295.756	255.88
295.987	245.88
296.217	251.88
296.448	263.88
296.679	256.88
296.909	243.88
297.14	268.88
297.37	269.88
297.601	258.88
297.831	257.88
298.062	284.88
298.292	283.88
298.523	283.88
298.753	277.88
298.984	263.88
299.214	267.88
299.445	260.88
299.675	269.88
299.905	272.88
300.136	277.88
300.366	255.88
300.597	277.88
300.827	267.88
301.057	276.88
301.288	284.88
301.518	287.88
301.748	293.88
301.979	280.88
302.209	296.88
302.439	303.88
302.669	285.88
302.9	293.88
303.13	274.88
303.36	272.88
303.59	297.88
303.82	291.88
304.051	285.88
304.281	284.88
304.511	276.88
304.741	289.88
304.971	289.88
305.201	301.88
305.431	277.88
305.661	291.88
305.891	285.88
306.121	288.88
306.352	283.88
306.582	283.88
306.812	288.88
307.042	292.88
307.272	295.88
307.502	284.88
307.731	301.88
307.961	284.88
308.191	295.88
308.421	283.88
308.651	303.88
308.881	299.88
309.111	303.88
309.341	282.88
309.571	277.88
309.8	274.88
310.03	284.88
310.26	269.88
310.49	300.88
310.72	292.88
310.949	300.88
311.179	310.88
311.409	316.88
311.639	302.88
311.868	294.88
312.098	301.88
312.328	311.88
312.557	298.88
312.787	303.88
313.017	301.88
313.246	294.88
313.476	300.88
313.706	320.88
313.935	310.88
314.165	305.88
314.394	323.88
314.624	315.88
314.853	333.88
315.083	316.88
315.312	328.88
315.542	317.88
315.771	299.88
316.001	316.88
316.23	325.88
316.46	313.88
316.689	325.88
316.919	321.88
317.148	326.88
317.377	337.88
317.607	325.88
317.836	318.88
318.065	316.88
318.295	321.88
318.524	319.88
318.753	323.88
318.983	313.88
319.212	303.88
319.441	308.88
319.67	342.88
319.9	327.88
320.129	325.88
320.358	319.88
320.587	336.88
320.816	313.88
321.046	339.88
321.275	317.88
321.504	324.88
321.733	333.88
321.962	330.88
322.191	333.88
322.42	325.88
322.649	331.88
322.878	312.88
323.108	334.88
323.337	336.88
323.566	337.88
323.795	330.88
324.024	320.88
324.253	323.88
324.482	326.88
324.71	339.88
324.939	346.88
325.168	349.88
325.397	342.88
325.626	348.88
325.855	359.88
326.084	356.88
326.313	335.88
326.542	348.88
326.77	362.88
326.999	343.88
327.228	351.88
327.457	338.88
327.686	351.88
327.914	348.88
328.143	343.88
328.372	350.88
328.6	341.88
328.829	354.88
329.058	364.88
329.287	356.88
329.515	355.88
329.744	365.88
329.972	341.88
330.201	339.88
330.43	348.88
330.658	348.88
330.887	360.88
331.115	365.88
331.344	377.88
331.572	379.88
331.801	386.88
332.03	369.88
332.258	365.88
332.486	392.88
332.715	392.88
332.943	389.88
333.172	403.88
333.4	405.88
333.629	413.88
333.857	438.88
334.085	433.88
334.314	433.88
334.542	436.88
334.771	426.88
334.999	435.88
335.227	439.88
335.455	417.88
335.684	415.88
335.912	418.88
336.14	404.88
336.369	417.88
336.597	412.88
336.825	406.88
337.053	425.88
337.281	391.88
337.51	398.88
337.738	401.88
337.966	381.88
338.194	379.88
338.422	380.88
338.65	386.88
338.878	391.88
339.106	372.88
339.334	376.88
339.562	396.88
339.79	382.88
340.018	385.88
340.246	365.88
340.474	375.88
340.702	390.88
340.93	389.88
341.158	374.88
341.386	385.88
341.614	387.88
341.842	368.88
342.07	397.88
342.298	375.88
342.526	381.88
342.754	383.88
342.981	379.88
343.209	385.88
343.437	409.88
343.665	423.88
343.893	398.88
344.12	424.88
344.348	422.88
344.576	410.88
344.804	390.88
345.031	387.88
345.259	389.88
345.487	373.88
345.714	394.88
345.942	392.88
346.17	380.88
346.397	372.88
346.625	372.88
346.853	354.88
347.08	383.88
347.308	354.88
347.535	381.88
347.763	357.88
347.99	357.88
348.218	376.88
348.445	369.88
348.673	368.88
348.9	392.88
349.128	360.88
349.355	359.88
349.583	388.88
349.81	369.88
350.037	375.88
350.265	377.88
350.492	368.88
350.72	361.88
350.947	375.88
351.174	338.88
351.402	367.88
351.629	362.88
351.856	363.88
352.083	361.88
352.311	353.88
352.538	353.88
352.765	372.88
352.992	356.88
353.22	354.88
353.447	376.88
353.674	368.88
353.901	363.88
354.128	393.88
354.355	354.88
354.583	364.88
354.81	375.88
355.037	379.88
355.264	381.88
355.491	370.88
355.718	375.88
355.945	379.88
356.172	374.88
356.399	368.88
356.626	376.88
356.853	364.88
357.08	375.88
357.307	383.88
357.534	376.88
357.761	370.88
357.988	391.88
358.215	377.88
358.441	351.88
358.668	376.88
358.895	364.88
359.122	374.88
359.349	371.88
359.576	371.88
359.802	383.88
360.029	375.88
360.256	371.88
360.483	379.88
360.709	374.88
360.936	378.88
361.163	381.88
361.39	373.88
361.616	375.88
361.843	356.88
362.07	369.88
362.296	371.88
362.523	371.88
362.749	379.88
362.976	380.88
363.203	394.88
363.429	377.88
363.656	372.88
363.882	381.88
364.109	377.88
364.335	372.88
364.562	359.88
364.788	372.88
365.015	363.88
365.241	381.88
365.468	389.88
365.694	361.88
365.92	375.88
366.147	375.88
366.373	378.88
366.599	386.88
366.826	387.88
367.052	387.88
367.278	371.88
367.505	373.88
367.731	377.88
367.957	377.88
368.184	385.88
368.41	382.88
368.636	390.88
368.862	375.88
369.089	407.88
369.315	381.88
369.541	383.88
369.767	397.88
369.993	391.88
370.219	378.88
370.445	401.88
370.672	396.88
370.898	397.88
371.124	389.88
371.35	392.88
371.576	402.88
371.802	395.88
372.028	394.88
372.254	410.88
372.48	413.88
372.706	406.88
372.932	408.88
373.158	412.88
373.384	424.88
373.61	394.88
373.835	418.88
374.061	418.88
374.287	403.88
374.513	417.88
374.739	427.88
374.965	429.88
375.191	436.88
375.416	444.88
375.642	424.88
375.868	425.88
376.094	412.88
376.319	412.88
376.545	404.88
376.771	410.88
376.997	392.88
377.222	411.88
377.448	415.88
377.674	413.88
377.899	403.88
378.125	397.88
378.35	406.88
378.576	398.88
378.802	415.88
379.027	418.88
379.253	405.88
379.478	386.88
379.704	414.88
379.929	413.88
380.155	401.88
380.38	388.88
380.606	399.88
380.831	404.88
381.057	408.88
381.282	423.88
381.507	409.88
381.733	405.88
381.958	435.88
382.184	407.88
382.409	418.88
382.634	426.88
382.86	420.88
383.085	412.88
383.31	431.88
383.535	457.88
383.761	430.88
383.986	458.88
384.211	447.88
384.436	430.88
384.662	454.88
384.887	456.88
385.112	452.88
385.337	465.88
385.562	472.88
385.787	468.88
386.013	468.88
386.238	462.88
386.463	461.88
386.688	457.88
386.913	451.88
387.138	449.88
387.363	468.88
387.588	488.88
387.813	470.88
388.038	449.88
388.263	473.88
388.488	474.88
388.713	484.88
388.938	472.88
389.163	483.88
389.387	469.88
389.612	464.88
389.837	469.88
390.062	469.88
390.287	463.88
390.512	455.88
390.736	503.88
390.961	489.88
391.186	470.88
391.411	495.88
391.636	493.88
391.86	518.88
392.085	494.88
392.31	488.88
392.534	509.88
392.759	515.88
392.984	508.88
393.208	488.88
393.433	512.88
393.658	496.88
393.882	484.88
394.107	494.88
394.331	505.88
394.556	498.88
394.78	505.88
395.005	489.88
395.229	476.88
395.454	498.88
395.678	521.88
395.903	489.88
396.127	525.88
396.352	504.88
396.576	521.88
396.801	516.88
397.025	511.88
397.249	523.88
397.474	522.88
397.698	520.88
397.922	540.88
398.147	559.88
398.371	545.88
398.595	566.88
398.82	580.88
399.044	595.88
399.268	619.88
399.492	650.88
399.717	689.88
399.941	694.88
400.165	675.88
400.389	639.88
400.613	600.88
400.837	601.88
401.062	584.88
401.286	574.88
401.51	572.88
401.734	568.88
401.958	548.88
402.182	575.88
402.406	551.88
402.63	574.88
402.854	611.88
403.078	545.88
403.302	588.88
403.526	569.88
403.75	583.88
403.974	589.88
404.198	576.88
404.422	589.88
404.645	596.88
404.869	606.88
405.093	588.88
405.317	555.88
405.541	592.88
405.765	595.88
405.988	601.88
406.212	623.88
406.436	601.88
406.66	625.88
406.883	605.88
407.107	636.88
407.331	632.88
407.555	675.88
407.778	660.88
408.002	641.88
408.226	663.88
408.449	623.88
408.673	613.88
408.896	612.88
409.12	605.88
409.344	584.88
409.567	606.88
409.791	583.88
410.014	583.88
410.238	587.88
410.461	586.88
410.685	587.88
410.908	576.88
411.132	579.88
411.355	553.88
411.578	561.88
411.802	574.88
412.025	550.88
412.249	594.88
412.472	563.88
412.695	592.88
412.919	565.88
413.142	565.88
413.365	572.88
413.589	577.88
413.812	561.88
414.035	554.88
414.258	545.88
414.482	551.88
414.705	539.88
414.928	544.88
415.151	562.88
415.374	570.88
415.597	558.88
415.821	525.88
416.044	523.88
416.267	533.88
416.49	525.88
416.713	534.88
416.936	565.88
417.159	543.88
417.382	559.88
417.605	548.88
417.828	543.88
418.051	523.88
418.274	525.88
418.497	526.88
418.72	547.88
418.943	548.88
419.166	563.88
419.389	561.88
419.611	567.88
419.834	557.88
420.057	551.88
420.28	563.88
420.503	525.88
420.726	545.88
420.948	525.88
421.171	525.88
421.394	536.88
421.617	531.88
421.839	521.88
422.062	547.88
422.285	511.88
422.507	535.88
422.73	525.88
422.953	515.88
423.175	533.88
423.398	541.88
423.621	531.88
423.843	544.88
424.066	554.88
424.288	536.88
424.511	533.88
424.733	537.88
424.956	523.88
425.178	529.88
425.401	544.88
425.623	540.88
425.846	520.88
426.068	499.88
426.291	514.88
426.513	511.88
426.735	515.88
426.958	503.88
427.18	483.88
427.402	505.88
427.625	495.88
427.847	505.88
428.069	511.88
428.292	515.88
428.514	492.88
428.736	494.88
428.958	511.88
429.181	480.88
429.403	495.88
429.625	520.88
429.847	481.88
430.069	512.88
430.292	503.88
430.514	489.88
430.736	490.88
430.958	492.88
431.18	479.88
431.402	490.88
431.624	475.88
431.846	483.88
432.068	514.88
432.29	504.88
432.512	491.88
432.734	519.88
432.956	492.88
433.178	505.88
433.4	480.88
433.622	496.88
433.844	523.88
434.066	493.88
434.287	513.88
434.509	527.88
434.731	519.88
434.953	526.88
435.175	523.88
435.397	530.88
435.618	536.88
435.84	513.88
436.062	484.88
436.284	512.88
436.505	496.88
436.727	479.88
436.949	486.88
437.17	479.88
437.392	478.88
437.614	503.88
437.835	485.88
438.057	474.88
438.278	451.88
438.5	473.88
438.721	465.88
438.943	509.88
439.165	464.88
439.386	475.88
439.608	484.88
439.829	477.88
440.05	473.88
440.272	483.88
440.493	473.88
440.715	497.88
440.936	493.88
441.158	487.88
441.379	523.88
441.6	513.88
441.822	500.88
442.043	523.88
442.264	514.88
442.486	501.88
442.707	512.88
442.928	501.88
443.149	497.88
443.371	524.88
443.592	507.88
443.813	519.88
444.034	528.88
444.255	539.88
444.476	544.88
444.698	533.88
444.919	546.88
445.14	619.88
445.361	562.88
445.582	533.88
445.803	524.88
446.024	499.88
446.245	494.88
446.466	468.88
446.687	488.88
446.908	473.88
447.129	479.88
447.35	479.88
447.571	474.88
447.792	461.88
448.013	467.88
448.234	444.88
448.455	442.88
448.675	460.88
448.896	464.88
449.117	462.88
449.338	469.88
449.559	461.88
449.779	430.88
450	440.88
450.221	452.88
450.442	435.88
450.662	433.88
450.883	454.88
451.104	434.88
451.324	445.88
451.545	460.88
451.766	445.88
451.986	455.88
452.207	420.88
452.428	431.88
452.648	435.88
452.869	419.88
453.089	433.88
453.31	442.88
453.53	447.88
453.751	419.88
453.971	427.88
454.192	407.88
454.412	427.88
454.633	433.88
454.853	433.88
455.073	459.88
455.294	426.88
455.514	422.88
455.734	440.88
455.955	429.88
456.175	435.88
456.395	422.88
456.616	422.88
456.836	436.88
457.056	418.88
457.276	449.88
457.497	437.88
457.717	425.88
457.937	420.88
458.157	445.88
458.377	448.88
458.598	451.88
458.818	486.88
459.038	463.88
459.258	471.88
459.478	485.88
459.698	484.88
459.918	506.88
460.138	521.88
460.358	511.88
460.578	550.88
460.798	525.88
461.018	532.88
461.238	546.88
461.458	534.88
461.678	546.88
461.898	545.88
462.118	563.88
462.338	556.88
462.558	577.88
462.777	596.88
462.997	633.88
463.217	643.88
463.437	619.88
463.657	616.88
463.876	612.88
464.096	601.88
464.316	611.88
464.536	582.88
464.755	602.88
464.975	568.88
465.195	523.88
465.414	531.88
465.634	503.88
465.854	499.88
466.073	491.88
466.293	497.88
466.512	499.88
466.732	487.88
466.951	485.88
467.171	468.88
467.391	498.88
467.61	474.88
467.829	480.88
468.049	473.88
468.268	463.88
468.488	462.88
468.707	452.88
468.927	460.88
469.146	475.88
469.365	451.88
469.585	473.88
469.804	480.88
470.023	480.88
470.243	467.88
470.462	478.88
470.681	469.88
470.901	475.88
471.12	465.88
471.339	484.88
471.558	488.88
471.777	469.88
471.997	478.88
472.216	487.88
472.435	477.88
472.654	474.88
472.873	478.88
473.092	467.88
473.311	477.88
473.53	457.88
473.749	473.88
473.968	480.88
474.187	498.88
474.406	469.88
474.625	480.88
474.844	459.88
475.063	467.88
475.282	481.88
475.501	487.88
475.72	472.88
475.939	487.88
476.158	495.88
476.377	522.88
476.596	506.88
476.814	516.88
477.033	494.88
477.252	499.88
477.471	533.88
477.69	528.88
477.908	516.88
478.127	529.88
478.346	529.88
478.564	534.88
478.783	561.88
479.002	534.88
479.22	581.88
479.439	575.88
479.658	570.88
479.876	567.88
480.095	567.88
480.313	580.88
480.532	559.88
480.751	584.88
480.969	578.88
481.188	560.88
481.406	569.88
481.624	555.88
481.843	555.88
482.061	583.88
482.28	554.88
482.498	548.88
482.717	546.88
482.935	539.88
483.153	567.88
483.372	541.88
483.59	541.88
483.808	566.88
484.027	573.88
484.245	566.88
484.463	555.88
484.681	554.88
484.9	556.88
485.118	563.88
485.336	565.88
485.554	576.88
485.772	562.88
485.99	553.88
486.209	599.88
486.427	551.88
486.645	566.88
486.863	592.88
487.081	585.88
487.299	583.88
487.517	577.88
487.735	579.88
487.953	575.88
488.171	567.88
488.389	553.88
488.607	557.88
488.825	567.88
489.043	581.88
489.261	593.88
489.479	564.88
489.696	557.88
489.914	583.88
490.132	563.88
490.35	567.88
490.568	591.88
490.786	593.88
491.003	594.88
491.221	591.88
491.439	564.88
491.657	572.88
491.874	576.88
492.092	577.88
492.31	569.88
492.527	577.88
492.745	581.88
492.963	583.88
493.18	602.88
493.398	581.88
493.615	579.88
493.833	596.88
494.05	606.88
494.268	590.88
494.485	594.88
494.703	591.88
494.92	595.88
495.138	605.88
495.355	618.88
495.573	614.88
495.79	592.88
496.008	626.88
496.225	611.88
496.442	611.88
496.66	656.88
496.877	628.88
497.094	649.88
497.312	657.88
497.529	645.88
497.746	689.88
497.963	707.88
498.181	717.88
498.398	713.88
498.615	784.88
498.832	795.88
499.049	891.88
499.267	865.88
499.484	909.88
499.701	983.88
499.918	1034.88
500.135	1097.88
500.352	1155.88
500.569	1145.88
500.786	1153.88
501.003	1116.88
501.22	1057.88
501.437	1003.88
501.654	947.88
501.871	889.88
502.088	887.88
502.305	818.88
502.522	780.88
502.739	759.88
502.956	736.88
503.172	727.88
503.389	715.88
503.606	656.88
503.823	653.88
504.04	659.88
504.256	675.88
504.473	645.88
504.69	640.88
504.907	652.88
505.123	643.88
505.34	623.88
505.557	604.88
505.773	583.88
505.99	556.88
506.207	547.88
506.423	539.88
506.64	540.88
506.856	535.88
507.073	543.88
507.289	554.88
507.506	545.88
507.722	531.88
507.939	539.88
508.155	509.88
508.372	511.88
508.588	502.88
508.805	525.88
509.021	490.88
509.238	500.88
509.454	493.88
509.67	513.88
509.887	500.88
510.103	493.88
510.319	500.88
510.536	469.88
510.752	482.88
510.968	491.88
511.184	483.88
511.401	479.88
511.617	513.88
511.833	503.88
512.049	498.88
512.265	494.88
512.481	482.88
512.698	505.88
512.914	512.88
513.13	498.88
513.346	488.88
513.562	501.88
513.778	479.88
513.994	501.88
514.21	497.88
514.426	502.88
514.642	495.88
514.858	508.88
515.074	526.88
515.29	536.88
515.506	503.88
515.721	515.88
515.937	518.88
516.153	531.88
516.369	522.88
516.585	518.88
516.801	560.88
517.016	559.88
517.232	565.88
517.448	579.88
517.664	607.88
517.879	596.88
518.095	582.88
518.311	575.88
518.527	556.88
518.742	571.88
518.958	545.88
519.173	527.88
519.389	517.88
519.605	518.88
519.82	509.88
520.036	542.88
520.251	519.88
520.467	500.88
520.682	495.88
520.898	463.88
521.113	479.88
521.329	483.88
521.544	481.88
521.76	478.88
521.975	462.88
522.19	464.88
522.406	467.88
522.621	456.88
522.836	459.88
523.052	464.88
523.267	467.88
523.482	472.88
523.698	442.88
523.913	455.88
524.128	467.88
524.343	455.88
524.559	441.88
524.774	457.88
524.989	453.88
525.204	461.88
525.419	423.88
525.634	443.88
525.849	450.88
526.064	461.88
526.28	437.88
526.495	426.88
526.71	444.88
526.925	437.88
527.14	445.88
527.355	458.88
527.57	443.88
527.785	431.88
527.999	456.88
528.214	437.88
528.429	442.88
528.644	440.88
528.859	436.88
529.074	438.88
529.289	419.88
529.503	447.88
529.718	472.88
529.933	435.88
530.148	444.88
530.363	440.88
530.577	431.88
530.792	435.88
531.007	439.88
531.221	441.88
531.436	430.88
531.651	429.88
531.865	433.88
532.08	447.88
532.295	457.88
532.509	438.88
532.724	433.88
532.938	426.88
533.153	442.88
533.367	438.88
533.582	409.88
533.796	447.88
534.011	426.88
534.225	456.88
534.44	422.88
534.654	443.88
534.868	459.88
535.083	435.88
535.297	417.88
535.511	423.88
535.726	439.88
535.94	428.88
536.154	421.88
536.369	420.88
536.583	409.88
536.797	424.88
537.011	414.88
537.225	412.88
537.44	406.88
537.654	423.88
537.868	408.88
538.082	419.88
538.296	405.88
538.51	409.88
538.724	411.88
538.938	426.88
539.153	403.88
539.367	421.88
539.581	381.88
539.795	403.88
540.009	409.88
540.222	415.88
540.436	402.88
540.65	412.88
540.864	411.88
541.078	423.88
541.292	411.88
541.506	390.88
541.72	412.88
541.934	411.88
542.147	408.88
542.361	427.88
542.575	409.88
542.789	409.88
543.002	399.88
543.216	384.88
543.43	389.88
543.644	409.88
543.857	405.88
544.071	419.88
544.285	432.88
544.498	427.88
544.712	425.88
544.925	404.88
545.139	405.88
545.352	407.88
545.566	428.88
545.779	405.88
545.993	434.88
546.206	397.88
546.42	403.88
546.633	431.88
546.847	401.88
547.06	397.88
547.274	404.88
547.487	421.88
547.7	421.88
547.914	403.88
548.127	416.88
548.34	399.88
548.554	418.88
548.767	398.88
548.98	415.88
549.193	422.88
549.407	416.88
549.62	395.88
549.833	405.88
550.046	401.88
550.259	405.88
550.473	407.88
550.686	393.88
550.899	419.88
551.112	409.88
551.325	405.88
551.538	414.88
551.751	417.88
551.964	391.88
552.177	412.88
552.39	417.88
552.603	425.88
552.816	431.88
553.029	429.88
553.242	415.88
553.455	427.88
553.667	400.88
553.88	407.88
554.093	415.88
554.306	407.88
554.519	418.88
554.732	397.88
554.944	419.88
555.157	403.88
555.37	393.88
555.583	383.88
555.795	391.88
556.008	384.88
556.221	351.88
556.433	383.88
556.646	367.88
556.859	373.88
557.071	370.88
557.284	356.88
557.496	368.88
557.709	352.88
557.921	371.88
558.134	359.88
558.346	362.88
558.559	347.88
558.771	358.88
558.984	369.88
559.196	371.88
559.409	377.88
559.621	373.88
559.833	358.88
560.046	356.88
560.258	348.88
560.47	351.88
560.683	354.88
560.895	353.88
561.107	350.88
561.32	351.88
561.532	357.88
561.744	354.88
561.956	351.88
562.168	339.88
562.381	378.88
562.593	367.88
562.805	346.88
563.017	338.88
563.229	374.88
563.441	367.88
563.653	366.88
563.865	361.88
564.077	354.88
564.289	351.88
564.501	363.88
564.713	359.88
564.925	363.88
565.137	389.88
565.349	381.88
565.561	402.88
565.773	404.88
565.985	442.88
566.197	420.88
566.408	436.88
566.62	458.88
566.832	472.88
567.044	480.88
567.255	481.88
567.467	485.88
567.679	467.88
567.891	501.88
568.102	493.88
568.314	467.88
568.526	453.88
568.737	437.88
568.949	419.88
569.161	412.88
569.372	417.88
569.584	385.88
569.795	369.88
570.007	357.88
570.218	348.88
570.43	345.88
570.641	376.88
570.853	362.88
571.064	352.88
571.276	334.88
571.487	332.88
571.698	329.88
571.91	313.88
572.121	333.88
572.333	317.88
572.544	330.88
572.755	315.88
572.966	324.88
573.178	320.88
573.389	315.88
573.6	287.88
573.811	299.88
574.023	291.88
574.234	298.88
574.445	313.88
574.656	299.88
574.867	293.88
575.078	298.88
575.289	290.88
575.501	301.88
575.712	292.88
575.923	286.88
576.134	292.88
576.345	296.88
576.556	276.88
576.767	275.88
576.978	287.88
577.188	288.88
577.399	280.88
577.61	283.88
577.821	285.88
578.032	276.88
578.243	264.88
578.454	274.88
578.665	281.88
578.875	268.88
579.086	275.88
579.297	271.88
579.508	261.88
579.718	283.88
579.929	276.88
580.14	264.88
580.35	280.88
580.561	259.88
580.772	259.88
580.982	281.88
581.193	247.88
581.403	259.88
581.614	268.88
581.825	263.88
582.035	257.88
582.246	268.88
582.456	256.88
582.667	260.88
582.877	266.88
583.087	247.88
583.298	268.88
583.508	275.88
583.719	257.88
583.929	267.88
584.139	263.88
584.35	253.88
584.56	259.88
584.77	268.88
584.981	246.88
585.191	248.88
585.401	256.88
585.611	255.88
585.821	243.88
586.032	254.88
586.242	261.88
586.452	253.88
586.662	250.88
586.872	253.88
587.082	255.88
587.292	247.88
587.502	261.88
587.713	245.88
587.923	266.88
588.133	255.88
588.343	245.88
588.553	246.88
588.762	251.88
588.972	247.88
589.182	264.88
589.392	249.88
589.602	249.88
589.812	247.88
590.022	252.88
590.232	246.88
590.441	257.88
590.651	247.88
590.861	266.88
591.071	250.88
591.281	255.88
591.49	267.88
591.7	262.88
591.91	242.88
592.119	262.88
592.329	270.88
592.539	269.88
592.748	267.88
592.958	279.88
593.167	275.88
593.377	294.88
593.587	269.88
593.796	273.88
594.006	280.88
594.215	263.88
594.424	277.88
594.634	261.88
594.843	265.88
595.053	282.88
595.262	253.88
595.472	248.88
595.681	258.88
595.89	255.88
596.1	259.88
596.309	252.88
596.518	229.88
596.727	246.88
596.937	241.88
597.146	245.88
597.355	245.88
597.564	228.88
597.774	237.88
597.983	237.88
598.192	212.88
598.401	222.88
598.61	236.88
598.819	227.88
599.028	231.88
599.237	216.88
599.446	226.88
599.655	240.88
599.864	212.88
600.073	229.88
600.282	228.88
600.491	248.88
600.7	216.88
600.909	214.88
601.118	233.88
601.327	227.88
601.536	213.88
601.745	216.88
601.953	215.88
602.162	227.88
602.371	210.88
602.58	210.88
602.789	211.88
602.997	214.88
603.206	199.88
603.415	190.88
603.623	211.88
603.832	204.88
604.041	204.88
604.249	205.88
604.458	221.88
604.666	192.88
604.875	202.88
605.084	222.88
605.292	217.88
605.501	219.88
605.709	200.88
605.918	206.88
606.126	211.88
606.334	197.88
606.543	212.88
606.751	212.88
606.96	197.88
607.168	200.88
607.376	202.88
607.585	208.88
607.793	206.88
608.001	200.88
608.21	213.88
608.418	206.88
608.626	205.88
608.834	204.88
609.043	193.88
609.251	200.88
609.459	205.88
609.667	195.88
609.875	214.88
610.083	204.88
610.291	189.88
610.499	195.88
610.707	199.88
610.916	191.88
611.124	209.88
611.332	195.88
611.54	191.88
611.748	197.88
611.955	221.88
612.163	208.88
612.371	197.88
612.579	209.88
612.787	184.88
612.995	197.88
613.203	215.88
613.411	189.88
613.618	205.88
613.826	200.88
614.034	202.88
614.242	210.88
614.449	204.88
614.657	209.88
614.865	197.88
615.072	193.88
615.28	185.88
615.488	199.88
615.695	207.88
615.903	212.88
616.111	192.88
616.318	191.88
616.526	202.88
616.733	203.88
616.941	185.88
617.148	196.88
617.356	202.88
617.563	217.88
617.771	197.88
617.978	189.88
618.185	187.88
618.393	189.88
618.6	203.88
618.807	189.88
619.015	192.88
619.222	191.88
619.429	195.88
619.637	199.88
619.844	185.88
620.051	194.88
620.258	196.88
620.466	189.88
620.673	180.88
620.88	162.88
621.087	181.88
621.294	194.88
621.501	185.88
621.708	177.88
621.915	195.88
622.122	185.88
622.329	180.88
622.536	190.88
622.743	191.88
622.95	196.88
623.157	179.88
623.364	191.88
623.571	199.88
623.778	186.88
623.985	184.88
624.192	185.88
624.399	187.88
624.606	200.88
624.812	176.88
625.019	181.88
625.226	185.88
625.433	183.88
625.639	159.88
625.846	184.88
626.053	177.88
626.259	170.88
626.466	169.88
626.673	185.88
626.879	172.88
627.086	182.88
627.293	175.88
627.499	189.88
627.706	171.88
627.912	157.88
628.119	175.88
628.325	183.88
628.532	169.88
628.738	192.88
628.945	184.88
629.151	164.88
629.357	172.88
629.564	174.88
629.77	178.88
629.976	164.88
630.183	179.88
630.389	190.88
630.595	159.88
630.802	149.88
631.008	178.88
631.214	180.88
631.42	171.88
631.627	174.88
631.833	163.88
632.039	170.88
632.245	165.88
632.451	183.88
632.657	170.88
632.863	166.88
633.069	168.88
633.275	170.88
633.481	175.88
633.688	172.88
633.893	164.88
634.099	169.88
634.305	181.88
634.511	167.88
634.717	160.88
634.923	162.88
635.129	164.88
635.335	172.88
635.541	161.88
635.747	161.88
635.952	181.88
636.158	156.88
636.364	174.88
636.57	158.88
636.775	162.88
636.981	170.88
637.187	171.88
637.392	157.88
637.598	152.88
637.804	171.88
638.009	161.88
638.215	170.88
638.421	142.88
638.626	164.88
638.832	170.88
639.037	163.88
639.243	156.88
639.448	158.88
639.654	155.88
639.859	165.88
640.065	172.88
640.27	167.88
640.475	157.88
640.681	163.88
640.886	178.88
641.091	162.88
641.297	179.88
641.502	160.88
641.707	169.88
641.913	161.88
642.118	156.88
642.323	141.88
642.528	165.88
642.733	154.88
642.939	162.88
643.144	163.88
643.349	149.88
643.554	175.88
643.759	155.88
643.964	152.88
644.169	169.88
644.374	167.88
644.579	149.88
644.784	156.88
644.989	158.88
645.194	163.88
645.399	157.88
645.604	161.88
645.809	163.88
646.014	154.88
646.219	163.88
646.423	156.88
646.628	177.88
646.833	175.88
647.038	177.88
647.243	156.88
647.447	161.88
647.652	177.88
647.857	178.88
648.062	185.88
648.266	168.88
648.471	167.88
648.676	179.88
648.88	173.88
649.085	173.88
649.289	162.88
649.494	159.88
649.698	153.88
649.903	157.88
650.107	184.88
650.312	170.88
650.516	159.88
650.721	190.88
650.925	167.88
651.13	169.88
651.334	178.88
651.539	173.88
651.743	163.88
651.947	163.88
652.152	172.88
652.356	167.88
652.56	165.88
652.764	168.88
652.969	181.88
653.173	173.88
653.377	163.88
653.581	172.88
653.785	158.88
653.99	168.88
654.194	167.88
654.398	161.88
654.602	163.88
654.806	176.88
655.01	169.88
655.214	166.88
655.418	177.88
655.622	180.88
655.826	169.88
656.03	187.88
656.234	192.88
656.438	186.88
656.642	191.88
656.846	198.88
657.049	186.88
657.253	172.88
657.457	175.88
657.661	161.88
657.865	151.88
658.068	145.88
658.272	129.88
658.476	137.88
658.68	146.88
658.883	129.88
659.087	133.88
659.291	121.88
659.494	108.88
659.698	127.88
659.901	104.88
660.105	125.88
660.309	118.88
660.512	110.88
660.716	105.88
660.919	99.88
661.123	92.88
661.326	111.88
661.53	93.88
661.733	99.88
661.936	89.88
662.14	90.88
662.343	95.88
662.546	78.88
662.75	99.88
662.953	113.88
663.156	89.88
663.36	92.88
663.563	70.88
663.766	90.88
663.969	82.88
664.173	82.88
664.376	95.88
664.579	78.88
664.782	98.88
664.985	87.88
665.188	75.88
665.391	74.88
665.594	87.88
665.797	101.88
666	79.88
666.203	78.88
666.406	72.88
666.609	89.88
666.812	92.88
667.015	89.88
667.218	78.88
667.421	82.88
667.624	88.88
667.827	79.88
668.03	90.88
668.232	72.88
668.435	83.88
668.638	84.88
668.841	85.88
669.043	81.88
669.246	84.88
669.449	92.88
669.651	73.88
669.854	85.88
670.057	81.88
670.259	96.88
670.462	74.88
670.665	81.88
670.867	69.88
671.07	87.88
671.272	97.88
671.475	97.88
671.677	81.88
671.88	75.88
672.082	100.88
672.284	97.88
672.487	77.88
672.689	83.88
672.892	95.88
