Data from Fe(NO3)3@0.1M.TitratingCurve.Agarose3%dH2O.NegLispCup.LampEnergy10.LIBS07252019_HRD10591_16-40-32-332.txt Node
Date: Thu Jul 25 16:40:32 EDT 2019
User: cochatt
Spectrometer: HR+D1059
Trigger mode: 1
Integration Time (sec): 1.000000E-1
Scans to average: 1
Electric dark correction enabled: true
Nonlinearity correction enabled: false
Boxcar width: 0
XAxis mode: Wavelengths
Number of Pixels in Spectrum: 2048
>>>>>Begin Spectral Data<<<<<
223.165	-13.12
223.4	-13.12
223.635	-13.12
223.869	-18.12
224.104	-13.12
224.338	-13.12
224.573	-7.12
224.808	-2.12
225.042	-15.12
225.277	-12.12
225.511	0.88
225.746	-0.12
225.98	4.88
226.215	7.88
226.449	4.88
226.683	19.88
226.918	39.88
227.152	15.88
227.387	36.88
227.621	31.88
227.856	53.88
228.09	27.88
228.324	43.88
228.559	56.88
228.793	59.88
229.027	69.88
229.262	79.88
229.496	79.88
229.73	84.88
229.964	98.88
230.199	96.88
230.433	92.88
230.667	95.88
230.901	96.88
231.136	104.88
231.37	91.88
231.604	85.88
231.838	96.88
232.072	104.88
232.306	100.88
232.541	114.88
232.775	99.88
233.009	102.88
233.243	96.88
233.477	106.88
233.711	96.88
233.945	107.88
234.179	104.88
234.413	103.88
234.647	89.88
234.881	108.88
235.115	92.88
235.349	122.88
235.583	107.88
235.817	106.88
236.051	96.88
236.285	95.88
236.519	105.88
236.753	115.88
236.987	108.88
237.221	93.88
237.455	112.88
237.689	106.88
237.922	106.88
238.156	100.88
238.39	94.88
238.624	97.88
238.858	93.88
239.091	105.88
239.325	92.88
239.559	98.88
239.793	112.88
240.027	94.88
240.26	121.88
240.494	115.88
240.728	119.88
240.961	113.88
241.195	119.88
241.429	128.88
241.662	113.88
241.896	125.88
242.13	141.88
242.363	104.88
242.597	113.88
242.83	92.88
243.064	104.88
243.298	107.88
243.531	114.88
243.765	126.88
243.998	117.88
244.232	121.88
244.465	123.88
244.699	125.88
244.932	118.88
245.166	120.88
245.399	142.88
245.633	115.88
245.866	120.88
246.099	138.88
246.333	139.88
246.566	121.88
246.8	133.88
247.033	124.88
247.266	117.88
247.5	136.88
247.733	118.88
247.966	129.88
248.2	125.88
248.433	137.88
248.666	137.88
248.899	125.88
249.133	130.88
249.366	143.88
249.599	139.88
249.832	127.88
250.066	148.88
250.299	126.88
250.532	150.88
250.765	131.88
250.998	143.88
251.231	145.88
251.465	145.88
251.698	144.88
251.931	142.88
252.164	141.88
252.397	141.88
252.63	132.88
252.863	133.88
253.096	135.88
253.329	135.88
253.562	150.88
253.795	155.88
254.028	162.88
254.261	145.88
254.494	140.88
254.727	137.88
254.96	145.88
255.193	140.88
255.426	152.88
255.659	161.88
255.892	153.88
256.124	145.88
256.357	156.88
256.59	141.88
256.823	139.88
257.056	159.88
257.289	153.88
257.521	153.88
257.754	159.88
257.987	148.88
258.22	161.88
258.452	162.88
258.685	153.88
258.918	162.88
259.151	160.88
259.383	156.88
259.616	164.88
259.849	153.88
260.081	168.88
260.314	169.88
260.547	168.88
260.779	167.88
261.012	164.88
261.244	155.88
261.477	170.88
261.71	174.88
261.942	162.88
262.175	149.88
262.407	155.88
262.64	160.88
262.872	162.88
263.105	165.88
263.337	167.88
263.57	161.88
263.802	159.88
264.035	180.88
264.267	180.88
264.499	173.88
264.732	179.88
264.964	163.88
265.197	167.88
265.429	183.88
265.661	181.88
265.894	170.88
266.126	182.88
266.358	174.88
266.591	186.88
266.823	183.88
267.055	187.88
267.287	184.88
267.52	187.88
267.752	182.88
267.984	183.88
268.216	187.88
268.448	187.88
268.681	180.88
268.913	181.88
269.145	174.88
269.377	183.88
269.609	178.88
269.841	182.88
270.073	193.88
270.306	179.88
270.538	202.88
270.77	183.88
271.002	184.88
271.234	202.88
271.466	194.88
271.698	199.88
271.93	177.88
272.162	177.88
272.394	187.88
272.626	189.88
272.858	202.88
273.09	189.88
273.322	167.88
273.553	183.88
273.785	195.88
274.017	192.88
274.249	199.88
274.481	207.88
274.713	205.88
274.945	200.88
275.176	199.88
275.408	201.88
275.64	193.88
275.872	185.88
276.104	192.88
276.335	188.88
276.567	192.88
276.799	200.88
277.031	200.88
277.262	214.88
277.494	196.88
277.726	208.88
277.957	197.88
278.189	185.88
278.421	195.88
278.652	197.88
278.884	201.88
279.115	207.88
279.347	209.88
279.579	204.88
279.81	211.88
280.042	208.88
280.273	201.88
280.505	203.88
280.736	212.88
280.968	213.88
281.199	221.88
281.431	223.88
281.662	220.88
281.894	210.88
282.125	210.88
282.356	228.88
282.588	193.88
282.819	215.88
283.051	210.88
283.282	202.88
283.513	227.88
283.745	224.88
283.976	211.88
284.207	219.88
284.439	226.88
284.67	224.88
284.901	213.88
285.132	224.88
285.364	232.88
285.595	210.88
285.826	219.88
286.057	217.88
286.288	204.88
286.52	220.88
286.751	225.88
286.982	231.88
287.213	214.88
287.444	225.88
287.675	217.88
287.906	235.88
288.138	235.88
288.369	226.88
288.6	218.88
288.831	218.88
289.062	238.88
289.293	249.88
289.524	218.88
289.755	229.88
289.986	226.88
290.217	223.88
290.448	235.88
290.679	239.88
290.91	212.88
291.141	251.88
291.371	245.88
291.602	214.88
291.833	230.88
292.064	230.88
292.295	226.88
292.526	242.88
292.757	248.88
292.987	246.88
293.218	226.88
293.449	248.88
293.68	255.88
293.91	239.88
294.141	237.88
294.372	228.88
294.603	225.88
294.833	254.88
295.064	245.88
295.295	248.88
295.525	236.88
295.756	245.88
295.987	243.88
296.217	241.88
296.448	228.88
296.679	240.88
296.909	229.88
297.14	237.88
297.37	265.88
297.601	249.88
297.831	231.88
298.062	263.88
298.292	257.88
298.523	267.88
298.753	261.88
298.984	243.88
299.214	263.88
299.445	257.88
299.675	264.88
299.905	249.88
300.136	272.88
300.366	262.88
300.597	259.88
300.827	259.88
301.057	249.88
301.288	257.88
301.518	258.88
301.748	264.88
301.979	261.88
302.209	268.88
302.439	260.88
302.669	258.88
302.9	262.88
303.13	271.88
303.36	273.88
303.59	243.88
303.82	264.88
304.051	273.88
304.281	283.88
304.511	267.88
304.741	287.88
304.971	263.88
305.201	275.88
305.431	263.88
305.661	267.88
305.891	244.88
306.121	259.88
306.352	255.88
306.582	276.88
306.812	268.88
307.042	259.88
307.272	267.88
307.502	252.88
307.731	260.88
307.961	249.88
308.191	264.88
308.421	244.88
308.651	266.88
308.881	250.88
309.111	260.88
309.341	249.88
309.571	265.88
309.8	268.88
310.03	262.88
310.26	266.88
310.49	269.88
310.72	274.88
310.949	262.88
311.179	297.88
311.409	241.88
311.639	248.88
311.868	276.88
312.098	284.88
312.328	261.88
312.557	279.88
312.787	267.88
313.017	287.88
313.246	285.88
313.476	279.88
313.706	272.88
313.935	287.88
314.165	307.88
314.394	283.88
314.624	252.88
314.853	287.88
315.083	283.88
315.312	271.88
315.542	288.88
315.771	275.88
316.001	282.88
316.23	279.88
316.46	265.88
316.689	272.88
316.919	273.88
317.148	275.88
317.377	290.88
317.607	284.88
317.836	275.88
318.065	279.88
318.295	263.88
318.524	270.88
318.753	277.88
318.983	281.88
319.212	275.88
319.441	292.88
319.67	267.88
319.9	271.88
320.129	272.88
320.358	273.88
320.587	274.88
320.816	266.88
321.046	282.88
321.275	292.88
321.504	279.88
321.733	277.88
321.962	286.88
322.191	285.88
322.42	282.88
322.649	285.88
322.878	290.88
323.108	282.88
323.337	298.88
323.566	277.88
323.795	286.88
324.024	288.88
324.253	288.88
324.482	298.88
324.71	305.88
324.939	290.88
325.168	279.88
325.397	287.88
325.626	295.88
325.855	291.88
326.084	317.88
326.313	288.88
326.542	295.88
326.77	314.88
326.999	304.88
327.228	300.88
327.457	296.88
327.686	296.88
327.914	308.88
328.143	277.88
328.372	278.88
328.6	315.88
328.829	307.88
329.058	303.88
329.287	281.88
329.515	296.88
329.744	315.88
329.972	299.88
330.201	312.88
330.43	317.88
330.658	308.88
330.887	325.88
331.115	321.88
331.344	328.88
331.572	329.88
331.801	332.88
332.03	334.88
332.258	349.88
332.486	332.88
332.715	348.88
332.943	347.88
333.172	357.88
333.4	355.88
333.629	376.88
333.857	391.88
334.085	356.88
334.314	379.88
334.542	363.88
334.771	379.88
334.999	373.88
335.227	370.88
335.455	374.88
335.684	362.88
335.912	374.88
336.14	349.88
336.369	331.88
336.597	351.88
336.825	355.88
337.053	361.88
337.281	332.88
337.51	351.88
337.738	344.88
337.966	330.88
338.194	334.88
338.422	339.88
338.65	326.88
338.878	337.88
339.106	340.88
339.334	339.88
339.562	329.88
339.79	324.88
340.018	325.88
340.246	330.88
340.474	331.88
340.702	305.88
340.93	333.88
341.158	320.88
341.386	337.88
341.614	322.88
341.842	339.88
342.07	312.88
342.298	305.88
342.526	321.88
342.754	326.88
342.981	341.88
343.209	323.88
343.437	331.88
343.665	359.88
343.893	359.88
344.12	376.88
344.348	337.88
344.576	339.88
344.804	340.88
345.031	315.88
345.259	341.88
345.487	334.88
345.714	338.88
345.942	323.88
346.17	306.88
346.397	311.88
346.625	303.88
346.853	316.88
347.08	307.88
347.308	315.88
347.535	305.88
347.763	317.88
347.99	311.88
348.218	315.88
348.445	320.88
348.673	308.88
348.9	307.88
349.128	296.88
349.355	303.88
349.583	301.88
349.81	297.88
350.037	299.88
350.265	332.88
350.492	298.88
350.72	305.88
350.947	294.88
351.174	322.88
351.402	327.88
351.629	295.88
351.856	283.88
352.083	297.88
352.311	303.88
352.538	291.88
352.765	315.88
352.992	296.88
353.22	313.88
353.447	292.88
353.674	308.88
353.901	306.88
354.128	284.88
354.355	304.88
354.583	297.88
354.81	319.88
355.037	314.88
355.264	314.88
355.491	314.88
355.718	308.88
355.945	312.88
356.172	287.88
356.399	304.88
356.626	316.88
356.853	319.88
357.08	319.88
357.307	299.88
357.534	301.88
357.761	307.88
357.988	307.88
358.215	300.88
358.441	303.88
358.668	310.88
358.895	312.88
359.122	307.88
359.349	307.88
359.576	305.88
359.802	328.88
360.029	309.88
360.256	298.88
360.483	287.88
360.709	292.88
360.936	319.88
361.163	287.88
361.39	296.88
361.616	298.88
361.843	310.88
362.07	295.88
362.296	294.88
362.523	294.88
362.749	317.88
362.976	313.88
363.203	305.88
363.429	303.88
363.656	283.88
363.882	299.88
364.109	287.88
364.335	297.88
364.562	291.88
364.788	309.88
365.015	282.88
365.241	296.88
365.468	304.88
365.694	297.88
365.92	301.88
366.147	308.88
366.373	309.88
366.599	324.88
366.826	314.88
367.052	316.88
367.278	318.88
367.505	303.88
367.731	320.88
367.957	288.88
368.184	305.88
368.41	309.88
368.636	312.88
368.862	309.88
369.089	320.88
369.315	303.88
369.541	319.88
369.767	317.88
369.993	325.88
370.219	326.88
370.445	332.88
370.672	328.88
370.898	325.88
371.124	344.88
371.35	328.88
371.576	320.88
371.802	327.88
372.028	331.88
372.254	337.88
372.48	327.88
372.706	332.88
372.932	351.88
373.158	324.88
373.384	338.88
373.61	331.88
373.835	343.88
374.061	333.88
374.287	344.88
374.513	348.88
374.739	346.88
374.965	360.88
375.191	365.88
375.416	351.88
375.642	355.88
375.868	348.88
376.094	337.88
376.319	332.88
376.545	328.88
376.771	333.88
376.997	344.88
377.222	332.88
377.448	341.88
377.674	362.88
377.899	340.88
378.125	311.88
378.35	333.88
378.576	316.88
378.802	343.88
379.027	330.88
379.253	335.88
379.478	333.88
379.704	343.88
379.929	326.88
380.155	327.88
380.38	322.88
380.606	346.88
380.831	334.88
381.057	356.88
381.282	333.88
381.507	332.88
381.733	339.88
381.958	342.88
382.184	336.88
382.409	335.88
382.634	337.88
382.86	356.88
383.085	360.88
383.31	351.88
383.535	357.88
383.761	371.88
383.986	355.88
384.211	380.88
384.436	377.88
384.662	371.88
384.887	373.88
385.112	396.88
385.337	390.88
385.562	403.88
385.787	391.88
386.013	398.88
386.238	399.88
386.463	396.88
386.688	392.88
386.913	388.88
387.138	395.88
387.363	396.88
387.588	382.88
387.813	399.88
388.038	383.88
388.263	395.88
388.488	391.88
388.713	401.88
388.938	380.88
389.163	392.88
389.387	379.88
389.612	405.88
389.837	390.88
390.062	371.88
390.287	376.88
390.512	383.88
390.736	392.88
390.961	409.88
391.186	407.88
391.411	410.88
391.636	415.88
391.86	433.88
392.085	449.88
392.31	428.88
392.534	442.88
392.759	429.88
392.984	428.88
393.208	425.88
393.433	423.88
393.658	404.88
393.882	419.88
394.107	424.88
394.331	405.88
394.556	441.88
394.78	427.88
395.005	454.88
395.229	415.88
395.454	419.88
395.678	424.88
395.903	428.88
396.127	436.88
396.352	440.88
396.576	414.88
396.801	419.88
397.025	422.88
397.249	432.88
397.474	418.88
397.698	439.88
397.922	424.88
398.147	436.88
398.371	458.88
398.595	471.88
398.82	462.88
399.044	488.88
399.268	536.88
399.492	597.88
399.717	637.88
399.941	655.88
400.165	602.88
400.389	556.88
400.613	502.88
400.837	511.88
401.062	498.88
401.286	487.88
401.51	497.88
401.734	485.88
401.958	463.88
402.182	490.88
402.406	501.88
402.63	491.88
402.854	531.88
403.078	523.88
403.302	513.88
403.526	505.88
403.75	523.88
403.974	542.88
404.198	528.88
404.422	551.88
404.645	505.88
404.869	540.88
405.093	544.88
405.317	516.88
405.541	512.88
405.765	515.88
405.988	518.88
406.212	497.88
406.436	535.88
406.66	537.88
406.883	565.88
407.107	574.88
407.331	577.88
407.555	595.88
407.778	611.88
408.002	595.88
408.226	598.88
408.449	581.88
408.673	555.88
408.896	537.88
409.12	548.88
409.344	570.88
409.567	543.88
409.791	569.88
410.014	567.88
410.238	543.88
410.461	537.88
410.685	533.88
410.908	508.88
411.132	504.88
411.355	525.88
411.578	538.88
411.802	517.88
412.025	505.88
412.249	517.88
412.472	531.88
412.695	521.88
412.919	501.88
413.142	504.88
413.365	492.88
413.589	502.88
413.812	488.88
414.035	481.88
414.258	474.88
414.482	493.88
414.705	523.88
414.928	503.88
415.151	539.88
415.374	523.88
415.597	502.88
415.821	480.88
416.044	482.88
416.267	458.88
416.49	487.88
416.713	480.88
416.936	479.88
417.159	484.88
417.382	460.88
417.605	466.88
417.828	503.88
418.051	479.88
418.274	480.88
418.497	503.88
418.72	492.88
418.943	477.88
419.166	516.88
419.389	535.88
419.611	538.88
419.834	521.88
420.057	506.88
420.28	492.88
420.503	471.88
420.726	481.88
420.948	480.88
421.171	474.88
421.394	475.88
421.617	496.88
421.839	484.88
422.062	489.88
422.285	476.88
422.507	507.88
422.73	503.88
422.953	500.88
423.175	497.88
423.398	504.88
423.621	508.88
423.843	516.88
424.066	507.88
424.288	510.88
424.511	512.88
424.733	499.88
424.956	519.88
425.178	498.88
425.401	495.88
425.623	493.88
425.846	488.88
426.068	470.88
426.291	464.88
426.513	489.88
426.735	474.88
426.958	479.88
427.18	445.88
427.402	443.88
427.625	464.88
427.847	438.88
428.069	439.88
428.292	465.88
428.514	453.88
428.736	452.88
428.958	454.88
429.181	450.88
429.403	426.88
429.625	427.88
429.847	443.88
430.069	441.88
430.292	468.88
430.514	420.88
430.736	437.88
430.958	432.88
431.18	413.88
431.402	423.88
431.624	434.88
431.846	455.88
432.068	445.88
432.29	447.88
432.512	456.88
432.734	434.88
432.956	449.88
433.178	448.88
433.4	457.88
433.622	448.88
433.844	466.88
434.066	459.88
434.287	470.88
434.509	475.88
434.731	476.88
434.953	469.88
435.175	499.88
435.397	515.88
435.618	465.88
435.84	477.88
436.062	466.88
436.284	449.88
436.505	459.88
436.727	470.88
436.949	461.88
437.17	457.88
437.392	460.88
437.614	434.88
437.835	444.88
438.057	449.88
438.278	447.88
438.5	420.88
438.721	431.88
438.943	447.88
439.165	450.88
439.386	436.88
439.608	447.88
439.829	457.88
440.05	458.88
440.272	479.88
440.493	432.88
440.715	459.88
440.936	487.88
441.158	464.88
441.379	464.88
441.6	503.88
441.822	508.88
442.043	511.88
442.264	525.88
442.486	488.88
442.707	499.88
442.928	477.88
443.149	485.88
443.371	484.88
443.592	495.88
443.813	481.88
444.034	493.88
444.255	515.88
444.476	555.88
444.698	560.88
444.919	569.88
445.14	655.88
445.361	575.88
445.582	517.88
445.803	474.88
446.024	496.88
446.245	488.88
446.466	479.88
446.687	476.88
446.908	465.88
447.129	453.88
447.35	451.88
447.571	436.88
447.792	444.88
448.013	449.88
448.234	450.88
448.455	426.88
448.675	443.88
448.896	431.88
449.117	431.88
449.338	410.88
449.559	420.88
449.779	431.88
450	421.88
450.221	435.88
450.442	427.88
450.662	422.88
450.883	430.88
451.104	435.88
451.324	435.88
451.545	431.88
451.766	429.88
451.986	431.88
452.207	403.88
452.428	437.88
452.648	429.88
452.869	415.88
453.089	395.88
453.31	432.88
453.53	409.88
453.751	402.88
453.971	400.88
454.192	403.88
454.412	414.88
454.633	425.88
454.853	387.88
455.073	389.88
455.294	401.88
455.514	408.88
455.734	383.88
455.955	408.88
456.175	383.88
456.395	394.88
456.616	397.88
456.836	390.88
457.056	416.88
457.276	388.88
457.497	397.88
457.717	398.88
457.937	399.88
458.157	395.88
458.377	393.88
458.598	409.88
458.818	433.88
459.038	443.88
459.258	434.88
459.478	456.88
459.698	450.88
459.918	459.88
460.138	492.88
460.358	521.88
460.578	500.88
460.798	524.88
461.018	516.88
461.238	496.88
461.458	503.88
461.678	510.88
461.898	513.88
462.118	501.88
462.338	537.88
462.558	544.88
462.777	585.88
462.997	617.88
463.217	655.88
463.437	664.88
463.657	612.88
463.876	589.88
464.096	581.88
464.316	556.88
464.536	581.88
464.755	563.88
464.975	543.88
465.195	525.88
465.414	504.88
465.634	488.88
465.854	482.88
466.073	437.88
466.293	459.88
466.512	428.88
466.732	450.88
466.951	421.88
467.171	454.88
467.391	447.88
467.61	466.88
467.829	445.88
468.049	431.88
468.268	425.88
468.488	431.88
468.707	423.88
468.927	438.88
469.146	438.88
469.365	431.88
469.585	433.88
469.804	445.88
470.023	432.88
470.243	445.88
470.462	439.88
470.681	449.88
470.901	449.88
471.12	457.88
471.339	451.88
471.558	432.88
471.777	413.88
471.997	425.88
472.216	419.88
472.435	413.88
472.654	432.88
472.873	410.88
473.092	413.88
473.311	406.88
473.53	421.88
473.749	411.88
473.968	416.88
474.187	409.88
474.406	399.88
474.625	410.88
474.844	411.88
475.063	418.88
475.282	407.88
475.501	398.88
475.72	425.88
475.939	427.88
476.158	440.88
476.377	431.88
476.596	420.88
476.814	418.88
477.033	429.88
477.252	446.88
477.471	461.88
477.69	451.88
477.908	473.88
478.127	482.88
478.346	483.88
478.564	475.88
478.783	465.88
479.002	483.88
479.22	483.88
479.439	499.88
479.658	492.88
479.876	492.88
480.095	502.88
480.313	520.88
480.532	525.88
480.751	521.88
480.969	511.88
481.188	477.88
481.406	482.88
481.624	481.88
481.843	475.88
482.061	451.88
482.28	456.88
482.498	467.88
482.717	469.88
482.935	470.88
483.153	450.88
483.372	477.88
483.59	464.88
483.808	475.88
484.027	473.88
484.245	464.88
484.463	464.88
484.681	472.88
484.9	471.88
485.118	452.88
485.336	481.88
485.554	473.88
485.772	457.88
485.99	476.88
486.209	481.88
486.427	454.88
486.645	474.88
486.863	483.88
487.081	487.88
487.299	491.88
487.517	495.88
487.735	491.88
487.953	505.88
488.171	484.88
488.389	481.88
488.607	457.88
488.825	495.88
489.043	472.88
489.261	475.88
489.479	465.88
489.696	480.88
489.914	487.88
490.132	485.88
490.35	482.88
490.568	484.88
490.786	487.88
491.003	500.88
491.221	458.88
491.439	477.88
491.657	470.88
491.874	480.88
492.092	483.88
492.31	499.88
492.527	486.88
492.745	489.88
492.963	478.88
493.18	499.88
493.398	491.88
493.615	502.88
493.833	523.88
494.05	506.88
494.268	506.88
494.485	485.88
494.703	511.88
494.92	508.88
495.138	515.88
495.355	511.88
495.573	531.88
495.79	509.88
496.008	531.88
496.225	531.88
496.442	515.88
496.66	531.88
496.877	524.88
497.094	547.88
497.312	553.88
497.529	561.88
497.746	556.88
497.963	597.88
498.181	593.88
498.398	619.88
498.615	658.88
498.832	692.88
499.049	728.88
499.267	787.88
499.484	827.88
499.701	923.88
499.918	971.88
500.135	1093.88
500.352	1197.88
500.569	1255.88
500.786	1221.88
501.003	1171.88
501.22	1102.88
501.437	961.88
501.654	887.88
501.871	805.88
502.088	733.88
502.305	714.88
502.522	678.88
502.739	683.88
502.956	638.88
503.172	602.88
503.389	580.88
503.606	571.88
503.823	559.88
504.04	548.88
504.256	576.88
504.473	581.88
504.69	581.88
504.907	579.88
505.123	546.88
505.34	498.88
505.557	498.88
505.773	489.88
505.99	476.88
506.207	487.88
506.423	462.88
506.64	466.88
506.856	451.88
507.073	472.88
507.289	467.88
507.506	424.88
507.722	435.88
507.939	437.88
508.155	441.88
508.372	440.88
508.588	427.88
508.805	439.88
509.021	419.88
509.238	408.88
509.454	415.88
509.67	412.88
509.887	431.88
510.103	417.88
510.319	405.88
510.536	409.88
510.752	400.88
510.968	396.88
511.184	419.88
511.401	423.88
511.617	416.88
511.833	415.88
512.049	403.88
512.265	421.88
512.481	420.88
512.698	407.88
512.914	417.88
513.13	417.88
513.346	398.88
513.562	417.88
513.778	423.88
513.994	432.88
514.21	434.88
514.426	414.88
514.642	400.88
514.858	413.88
515.074	433.88
515.29	420.88
515.506	420.88
515.721	440.88
515.937	444.88
516.153	425.88
516.369	437.88
516.585	483.88
516.801	482.88
517.016	476.88
517.232	496.88
517.448	519.88
517.664	535.88
517.879	533.88
518.095	538.88
518.311	528.88
518.527	487.88
518.742	495.88
518.958	469.88
519.173	473.88
519.389	454.88
519.605	454.88
519.82	435.88
520.036	428.88
520.251	435.88
520.467	422.88
520.682	417.88
520.898	420.88
521.113	399.88
521.329	392.88
521.544	385.88
521.76	393.88
521.975	408.88
522.19	399.88
522.406	407.88
522.621	400.88
522.836	388.88
523.052	384.88
523.267	379.88
523.482	374.88
523.698	388.88
523.913	375.88
524.128	377.88
524.343	385.88
524.559	387.88
524.774	395.88
524.989	375.88
525.204	381.88
525.419	369.88
525.634	373.88
525.849	375.88
526.064	376.88
526.28	381.88
526.495	379.88
526.71	382.88
526.925	375.88
527.14	387.88
527.355	374.88
527.57	397.88
527.785	369.88
527.999	383.88
528.214	381.88
528.429	401.88
528.644	387.88
528.859	394.88
529.074	391.88
529.289	389.88
529.503	383.88
529.718	392.88
529.933	381.88
530.148	368.88
530.363	360.88
530.577	373.88
530.792	378.88
531.007	376.88
531.221	378.88
531.436	381.88
531.651	376.88
531.865	382.88
532.08	371.88
532.295	380.88
532.509	369.88
532.724	373.88
532.938	351.88
533.153	375.88
533.367	347.88
533.582	369.88
533.796	369.88
534.011	377.88
534.225	343.88
534.44	359.88
534.654	377.88
534.868	388.88
535.083	357.88
535.297	374.88
535.511	375.88
535.726	373.88
535.94	356.88
536.154	362.88
536.369	354.88
536.583	368.88
536.797	351.88
537.011	335.88
537.225	344.88
537.44	358.88
537.654	359.88
537.868	355.88
538.082	337.88
538.296	344.88
538.51	352.88
538.724	339.88
538.938	338.88
539.153	362.88
539.367	342.88
539.581	352.88
539.795	342.88
540.009	346.88
540.222	362.88
540.436	344.88
540.65	355.88
540.864	343.88
541.078	363.88
541.292	348.88
541.506	350.88
541.72	341.88
541.934	346.88
542.147	340.88
542.361	339.88
542.575	333.88
542.789	337.88
543.002	321.88
543.216	354.88
543.43	329.88
543.644	343.88
543.857	366.88
544.071	344.88
544.285	346.88
544.498	338.88
544.712	373.88
544.925	346.88
545.139	336.88
545.352	362.88
545.566	337.88
545.779	359.88
545.993	356.88
546.206	345.88
546.42	358.88
546.633	355.88
546.847	360.88
547.06	364.88
547.274	345.88
547.487	354.88
547.7	345.88
547.914	340.88
548.127	335.88
548.34	349.88
548.554	349.88
548.767	365.88
548.98	340.88
549.193	355.88
549.407	371.88
549.62	337.88
549.833	347.88
550.046	356.88
550.259	369.88
550.473	367.88
550.686	338.88
550.899	365.88
551.112	321.88
551.325	341.88
551.538	321.88
551.751	346.88
551.964	349.88
552.177	345.88
552.39	348.88
552.603	356.88
552.816	347.88
553.029	381.88
553.242	369.88
553.455	384.88
553.667	385.88
553.88	373.88
554.093	369.88
554.306	351.88
554.519	347.88
554.732	358.88
554.944	341.88
555.157	341.88
555.37	333.88
555.583	313.88
555.795	346.88
556.008	339.88
556.221	317.88
556.433	318.88
556.646	315.88
556.859	315.88
557.071	310.88
557.284	307.88
557.496	307.88
557.709	306.88
557.921	305.88
558.134	311.88
558.346	315.88
558.559	309.88
558.771	295.88
558.984	310.88
559.196	303.88
559.409	331.88
559.621	299.88
559.833	296.88
560.046	303.88
560.258	308.88
560.47	293.88
560.683	293.88
560.895	297.88
561.107	313.88
561.32	293.88
561.532	314.88
561.744	300.88
561.956	307.88
562.168	311.88
562.381	310.88
562.593	283.88
562.805	296.88
563.017	291.88
563.229	298.88
563.441	328.88
563.653	304.88
563.865	304.88
564.077	316.88
564.289	324.88
564.501	317.88
564.713	300.88
564.925	324.88
565.137	327.88
565.349	345.88
565.561	334.88
565.773	333.88
565.985	352.88
566.197	347.88
566.408	387.88
566.62	413.88
566.832	417.88
567.044	444.88
567.255	441.88
567.467	451.88
567.679	466.88
567.891	469.88
568.102	481.88
568.314	456.88
568.526	441.88
568.737	400.88
568.949	388.88
569.161	353.88
569.372	343.88
569.584	316.88
569.795	312.88
570.007	320.88
570.218	284.88
570.43	297.88
570.641	291.88
570.853	295.88
571.064	299.88
571.276	293.88
571.487	305.88
571.698	281.88
571.91	283.88
572.121	269.88
572.333	268.88
572.544	276.88
572.755	259.88
572.966	279.88
573.178	258.88
573.389	260.88
573.6	273.88
573.811	245.88
574.023	255.88
574.234	244.88
574.445	244.88
574.656	267.88
574.867	251.88
575.078	249.88
575.289	246.88
575.501	247.88
575.712	240.88
575.923	235.88
576.134	237.88
576.345	246.88
576.556	239.88
576.767	234.88
576.978	229.88
577.188	236.88
577.399	243.88
577.61	247.88
577.821	244.88
578.032	258.88
578.243	243.88
578.454	241.88
578.665	225.88
578.875	225.88
579.086	219.88
579.297	227.88
579.508	222.88
579.718	218.88
579.929	223.88
580.14	225.88
580.35	220.88
580.561	239.88
580.772	231.88
580.982	221.88
581.193	231.88
581.403	224.88
581.614	222.88
581.825	217.88
582.035	199.88
582.246	216.88
582.456	216.88
582.667	211.88
582.877	220.88
583.087	207.88
583.298	219.88
583.508	213.88
583.719	229.88
583.929	212.88
584.139	212.88
584.35	195.88
584.56	221.88
584.77	216.88
584.981	213.88
585.191	215.88
585.401	217.88
585.611	224.88
585.821	232.88
586.032	216.88
586.242	213.88
586.452	220.88
586.662	217.88
586.872	213.88
587.082	224.88
587.292	224.88
587.502	203.88
587.713	215.88
587.923	207.88
588.133	218.88
588.343	203.88
588.553	205.88
588.762	210.88
588.972	228.88
589.182	207.88
589.392	219.88
589.602	204.88
589.812	215.88
590.022	211.88
590.232	221.88
590.441	203.88
590.651	202.88
590.861	210.88
591.071	207.88
591.281	210.88
591.49	220.88
591.7	230.88
591.91	216.88
592.119	222.88
592.329	243.88
592.539	259.88
592.748	242.88
592.958	241.88
593.167	240.88
593.377	231.88
593.587	250.88
593.796	251.88
594.006	246.88
594.215	259.88
594.424	250.88
594.634	231.88
594.843	245.88
595.053	236.88
595.262	219.88
595.472	224.88
595.681	219.88
595.89	207.88
596.1	209.88
596.309	216.88
596.518	202.88
596.727	210.88
596.937	218.88
597.146	211.88
597.355	197.88
597.564	202.88
597.774	195.88
597.983	204.88
598.192	200.88
598.401	197.88
598.61	194.88
598.819	200.88
599.028	192.88
599.237	179.88
599.446	193.88
599.655	199.88
599.864	185.88
600.073	189.88
600.282	205.88
600.491	186.88
600.7	201.88
600.909	188.88
601.118	183.88
601.327	187.88
601.536	172.88
601.745	178.88
601.953	195.88
602.162	171.88
602.371	179.88
602.58	175.88
602.789	191.88
602.997	168.88
603.206	192.88
603.415	182.88
603.623	191.88
603.832	176.88
604.041	178.88
604.249	179.88
604.458	187.88
604.666	167.88
604.875	167.88
605.084	175.88
605.292	166.88
605.501	184.88
605.709	183.88
605.918	173.88
606.126	177.88
606.334	177.88
606.543	182.88
606.751	171.88
606.96	170.88
607.168	165.88
607.376	193.88
607.585	172.88
607.793	187.88
608.001	176.88
608.21	175.88
608.418	175.88
608.626	183.88
608.834	185.88
609.043	179.88
609.251	170.88
609.459	178.88
609.667	172.88
609.875	182.88
610.083	173.88
610.291	187.88
610.499	161.88
610.707	183.88
610.916	179.88
611.124	162.88
611.332	167.88
611.54	169.88
611.748	162.88
611.955	165.88
612.163	159.88
612.371	163.88
612.579	156.88
612.787	170.88
612.995	176.88
613.203	175.88
613.411	175.88
613.618	160.88
613.826	170.88
614.034	164.88
614.242	182.88
614.449	177.88
614.657	185.88
614.865	159.88
615.072	165.88
615.28	175.88
615.488	180.88
615.695	162.88
615.903	164.88
616.111	177.88
616.318	185.88
616.526	171.88
616.733	157.88
616.941	185.88
617.148	157.88
617.356	171.88
617.563	182.88
617.771	160.88
617.978	155.88
618.185	163.88
618.393	185.88
618.6	156.88
618.807	171.88
619.015	161.88
619.222	158.88
619.429	152.88
619.637	171.88
619.844	171.88
620.051	163.88
620.258	149.88
620.466	178.88
620.673	152.88
620.88	155.88
621.087	153.88
621.294	157.88
621.501	163.88
621.708	167.88
621.915	155.88
622.122	148.88
622.329	172.88
622.536	135.88
622.743	155.88
622.95	141.88
623.157	155.88
623.364	160.88
623.571	154.88
623.778	159.88
623.985	157.88
624.192	139.88
624.399	153.88
624.606	154.88
624.812	168.88
625.019	148.88
625.226	157.88
625.433	167.88
625.639	159.88
625.846	144.88
626.053	128.88
626.259	152.88
626.466	152.88
626.673	163.88
626.879	144.88
627.086	165.88
627.293	144.88
627.499	152.88
627.706	152.88
627.912	151.88
628.119	153.88
628.325	159.88
628.532	147.88
628.738	143.88
628.945	132.88
629.151	127.88
629.357	140.88
629.564	157.88
629.77	148.88
629.976	147.88
630.183	136.88
630.389	152.88
630.595	133.88
630.802	153.88
631.008	149.88
631.214	146.88
631.42	138.88
631.627	147.88
631.833	152.88
632.039	143.88
632.245	137.88
632.451	127.88
632.657	137.88
632.863	138.88
633.069	131.88
633.275	137.88
633.481	137.88
633.688	125.88
633.893	134.88
634.099	129.88
634.305	135.88
634.511	133.88
634.717	137.88
634.923	136.88
635.129	128.88
635.335	125.88
635.541	138.88
635.747	134.88
635.952	140.88
636.158	133.88
636.364	131.88
636.57	152.88
636.775	135.88
636.981	149.88
637.187	135.88
637.392	129.88
637.598	135.88
637.804	131.88
638.009	125.88
638.215	154.88
638.421	133.88
638.626	128.88
638.832	121.88
639.037	131.88
639.243	130.88
639.448	133.88
639.654	120.88
639.859	123.88
640.065	142.88
640.27	133.88
640.475	136.88
640.681	140.88
640.886	135.88
641.091	120.88
641.297	129.88
641.502	134.88
641.707	136.88
641.913	130.88
642.118	133.88
642.323	123.88
642.528	121.88
642.733	121.88
642.939	145.88
643.144	116.88
643.349	123.88
643.554	124.88
643.759	127.88
643.964	124.88
644.169	126.88
644.374	116.88
644.579	128.88
644.784	119.88
644.989	120.88
645.194	128.88
645.399	134.88
645.604	116.88
645.809	135.88
646.014	138.88
646.219	118.88
646.423	133.88
646.628	123.88
646.833	129.88
647.038	137.88
647.243	129.88
647.447	134.88
647.652	127.88
647.857	143.88
648.062	149.88
648.266	143.88
648.471	138.88
648.676	121.88
648.88	123.88
649.085	124.88
649.289	131.88
649.494	141.88
649.698	142.88
649.903	125.88
650.107	118.88
650.312	127.88
650.516	131.88
650.721	139.88
650.925	132.88
651.13	124.88
651.334	130.88
651.539	123.88
651.743	111.88
651.947	121.88
652.152	122.88
652.356	123.88
652.56	110.88
652.764	122.88
652.969	125.88
653.173	116.88
653.377	108.88
653.581	114.88
653.785	88.88
653.99	113.88
654.194	102.88
654.398	98.88
654.602	135.88
654.806	123.88
655.01	117.88
655.214	115.88
655.418	104.88
655.622	113.88
655.826	110.88
656.03	102.88
656.234	117.88
656.438	101.88
656.642	113.88
656.846	111.88
657.049	112.88
657.253	109.88
657.457	99.88
657.661	116.88
657.865	109.88
658.068	111.88
658.272	98.88
658.476	107.88
658.68	95.88
658.883	86.88
659.087	91.88
659.291	90.88
659.494	84.88
659.698	93.88
659.901	95.88
660.105	95.88
660.309	104.88
660.512	94.88
660.716	93.88
660.919	91.88
661.123	86.88
661.326	83.88
661.53	96.88
661.733	90.88
661.936	83.88
662.14	108.88
662.343	88.88
662.546	76.88
662.75	87.88
662.953	96.88
663.156	91.88
663.36	79.88
663.563	83.88
663.766	86.88
663.969	81.88
664.173	89.88
664.376	84.88
664.579	87.88
664.782	88.88
664.985	87.88
665.188	72.88
665.391	79.88
665.594	82.88
665.797	75.88
666	74.88
666.203	80.88
666.406	77.88
666.609	77.88
666.812	90.88
667.015	83.88
667.218	77.88
667.421	71.88
667.624	99.88
667.827	67.88
668.03	76.88
668.232	92.88
668.435	67.88
668.638	78.88
668.841	82.88
669.043	66.88
669.246	66.88
669.449	94.88
669.651	75.88
669.854	60.88
670.057	74.88
670.259	81.88
670.462	89.88
670.665	71.88
670.867	67.88
671.07	89.88
671.272	72.88
671.475	82.88
671.677	85.88
671.88	97.88
672.082	83.88
672.284	83.88
672.487	70.88
672.689	69.88
672.892	75.88
