Data from Fe(NO3)3@0.05M.TitratingCurve.Agarose3%dH2O.NegLispCup.LampEnergy10.LIBS07252019_HRD10591_16-45-44-334.txt Node
Date: Thu Jul 25 16:45:44 EDT 2019
User: cochatt
Spectrometer: HR+D1059
Trigger mode: 1
Integration Time (sec): 1.000000E-1
Scans to average: 1
Electric dark correction enabled: true
Nonlinearity correction enabled: false
Boxcar width: 0
XAxis mode: Wavelengths
Number of Pixels in Spectrum: 2048
>>>>>Begin Spectral Data<<<<<
223.165	-30.88
223.4	-30.88
223.635	-30.88
223.869	-16.88
224.104	-19.88
224.338	-18.88
224.573	-14.88
224.808	3.12
225.042	-7.88
225.277	5.12
225.511	-10.88
225.746	6.12
225.98	9.12
226.215	-2.88
226.449	13.12
226.683	17.12
226.918	34.12
227.152	35.12
227.387	42.12
227.621	50.12
227.856	52.12
228.09	44.12
228.324	37.12
228.559	56.12
228.793	68.12
229.027	108.12
229.262	121.12
229.496	138.12
229.73	138.12
229.964	155.12
230.199	146.12
230.433	128.12
230.667	140.12
230.901	159.12
231.136	147.12
231.37	158.12
231.604	143.12
231.838	146.12
232.072	156.12
232.306	152.12
232.541	167.12
232.775	163.12
233.009	158.12
233.243	159.12
233.477	192.12
233.711	192.12
233.945	178.12
234.179	164.12
234.413	156.12
234.647	180.12
234.881	202.12
235.115	186.12
235.349	174.12
235.583	186.12
235.817	188.12
236.051	182.12
236.285	187.12
236.519	203.12
236.753	176.12
236.987	195.12
237.221	180.12
237.455	190.12
237.689	209.12
237.922	199.12
238.156	204.12
238.39	228.12
238.624	249.12
238.858	241.12
239.091	244.12
239.325	217.12
239.559	224.12
239.793	229.12
240.027	250.12
240.26	228.12
240.494	227.12
240.728	237.12
240.961	252.12
241.195	252.12
241.429	245.12
241.662	263.12
241.896	235.12
242.13	233.12
242.363	227.12
242.597	220.12
242.83	235.12
243.064	224.12
243.298	244.12
243.531	249.12
243.765	263.12
243.998	251.12
244.232	256.12
244.465	269.12
244.699	252.12
244.932	265.12
245.166	265.12
245.399	277.12
245.633	282.12
245.866	273.12
246.099	263.12
246.333	288.12
246.566	295.12
246.8	289.12
247.033	303.12
247.266	297.12
247.5	263.12
247.733	272.12
247.966	277.12
248.2	288.12
248.433	284.12
248.666	292.12
248.899	319.12
249.133	312.12
249.366	325.12
249.599	327.12
249.832	322.12
250.066	295.12
250.299	306.12
250.532	308.12
250.765	316.12
250.998	304.12
251.231	306.12
251.465	306.12
251.698	327.12
251.931	306.12
252.164	295.12
252.397	344.12
252.63	340.12
252.863	356.12
253.096	357.12
253.329	361.12
253.562	333.12
253.795	363.12
254.028	379.12
254.261	386.12
254.494	372.12
254.727	366.12
254.96	360.12
255.193	378.12
255.426	353.12
255.659	343.12
255.892	344.12
256.124	362.12
256.357	374.12
256.59	372.12
256.823	383.12
257.056	377.12
257.289	356.12
257.521	374.12
257.754	374.12
257.987	383.12
258.22	360.12
258.452	378.12
258.685	390.12
258.918	399.12
259.151	406.12
259.383	396.12
259.616	398.12
259.849	410.12
260.081	466.12
260.314	512.12
260.547	419.12
260.779	408.12
261.012	436.12
261.244	460.12
261.477	467.12
261.71	447.12
261.942	426.12
262.175	402.12
262.407	414.12
262.64	430.12
262.872	445.12
263.105	461.12
263.337	455.12
263.57	459.12
263.802	419.12
264.035	414.12
264.267	410.12
264.499	392.12
264.732	399.12
264.964	402.12
265.197	417.12
265.429	413.12
265.661	428.12
265.894	414.12
266.126	402.12
266.358	415.12
266.591	426.12
266.823	438.12
267.055	425.12
267.287	426.12
267.52	422.12
267.752	446.12
267.984	413.12
268.216	438.12
268.448	452.12
268.681	457.12
268.913	464.12
269.145	436.12
269.377	413.12
269.609	460.12
269.841	456.12
270.073	445.12
270.306	452.12
270.538	467.12
270.77	457.12
271.002	467.12
271.234	466.12
271.466	483.12
271.698	476.12
271.93	457.12
272.162	496.12
272.394	467.12
272.626	497.12
272.858	477.12
273.09	493.12
273.322	505.12
273.553	509.12
273.785	536.12
274.017	548.12
274.249	571.12
274.481	594.12
274.713	618.12
274.945	639.12
275.176	651.12
275.408	610.12
275.64	589.12
275.872	600.12
276.104	556.12
276.335	536.12
276.567	520.12
276.799	529.12
277.031	552.12
277.262	538.12
277.494	529.12
277.726	552.12
277.957	516.12
278.189	522.12
278.421	509.12
278.652	530.12
278.884	532.12
279.115	563.12
279.347	537.12
279.579	521.12
279.81	522.12
280.042	513.12
280.273	532.12
280.505	539.12
280.736	558.12
280.968	544.12
281.199	556.12
281.431	540.12
281.662	560.12
281.894	565.12
282.125	555.12
282.356	566.12
282.588	544.12
282.819	565.12
283.051	554.12
283.282	567.12
283.513	562.12
283.745	568.12
283.976	579.12
284.207	586.12
284.439	582.12
284.67	555.12
284.901	562.12
285.132	576.12
285.364	585.12
285.595	584.12
285.826	582.12
286.057	601.12
286.288	584.12
286.52	578.12
286.751	582.12
286.982	589.12
287.213	556.12
287.444	606.12
287.675	604.12
287.906	601.12
288.138	601.12
288.369	589.12
288.6	602.12
288.831	602.12
289.062	594.12
289.293	613.12
289.524	586.12
289.755	606.12
289.986	590.12
290.217	594.12
290.448	612.12
290.679	612.12
290.91	616.12
291.141	610.12
291.371	586.12
291.602	615.12
291.833	603.12
292.064	602.12
292.295	587.12
292.526	610.12
292.757	611.12
292.987	599.12
293.218	609.12
293.449	600.12
293.68	621.12
293.91	596.12
294.141	610.12
294.372	603.12
294.603	629.12
294.833	616.12
295.064	626.12
295.295	638.12
295.525	594.12
295.756	611.12
295.987	605.12
296.217	620.12
296.448	633.12
296.679	634.12
296.909	645.12
297.14	635.12
297.37	641.12
297.601	659.12
297.831	659.12
298.062	633.12
298.292	654.12
298.523	679.12
298.753	676.12
298.984	670.12
299.214	662.12
299.445	664.12
299.675	646.12
299.905	660.12
300.136	660.12
300.366	666.12
300.597	680.12
300.827	662.12
301.057	664.12
301.288	659.12
301.518	654.12
301.748	686.12
301.979	706.12
302.209	703.12
302.439	728.12
302.669	678.12
302.9	695.12
303.13	680.12
303.36	695.12
303.59	681.12
303.82	680.12
304.051	700.12
304.281	688.12
304.511	708.12
304.741	698.12
304.971	717.12
305.201	706.12
305.431	699.12
305.661	699.12
305.891	696.12
306.121	692.12
306.352	697.12
306.582	703.12
306.812	724.12
307.042	709.12
307.272	722.12
307.502	701.12
307.731	709.12
307.961	693.12
308.191	688.12
308.421	690.12
308.651	697.12
308.881	707.12
309.111	710.12
309.341	672.12
309.571	715.12
309.8	722.12
310.03	717.12
310.26	691.12
310.49	705.12
310.72	707.12
310.949	721.12
311.179	730.12
311.409	722.12
311.639	718.12
311.868	700.12
312.098	718.12
312.328	718.12
312.557	742.12
312.787	748.12
313.017	754.12
313.246	737.12
313.476	753.12
313.706	762.12
313.935	759.12
314.165	738.12
314.394	765.12
314.624	744.12
314.853	757.12
315.083	764.12
315.312	751.12
315.542	760.12
315.771	773.12
316.001	779.12
316.23	742.12
316.46	752.12
316.689	754.12
316.919	751.12
317.148	737.12
317.377	762.12
317.607	773.12
317.836	777.12
318.065	762.12
318.295	744.12
318.524	776.12
318.753	760.12
318.983	773.12
319.212	757.12
319.441	759.12
319.67	756.12
319.9	743.12
320.129	757.12
320.358	757.12
320.587	786.12
320.816	779.12
321.046	782.12
321.275	809.12
321.504	795.12
321.733	782.12
321.962	789.12
322.191	777.12
322.42	806.12
322.649	759.12
322.878	810.12
323.108	804.12
323.337	805.12
323.566	795.12
323.795	784.12
324.024	820.12
324.253	806.12
324.482	781.12
324.71	811.12
324.939	841.12
325.168	820.12
325.397	809.12
325.626	808.12
325.855	794.12
326.084	823.12
326.313	828.12
326.542	817.12
326.77	843.12
326.999	840.12
327.228	808.12
327.457	826.12
327.686	823.12
327.914	847.12
328.143	841.12
328.372	838.12
328.6	850.12
328.829	846.12
329.058	819.12
329.287	842.12
329.515	837.12
329.744	826.12
329.972	845.12
330.201	837.12
330.43	835.12
330.658	843.12
330.887	855.12
331.115	876.12
331.344	855.12
331.572	875.12
331.801	890.12
332.03	865.12
332.258	869.12
332.486	894.12
332.715	907.12
332.943	892.12
333.172	922.12
333.4	921.12
333.629	929.12
333.857	968.12
334.085	960.12
334.314	973.12
334.542	969.12
334.771	968.12
334.999	980.12
335.227	967.12
335.455	972.12
335.684	955.12
335.912	974.12
336.14	938.12
336.369	970.12
336.597	969.12
336.825	948.12
337.053	978.12
337.281	944.12
337.51	957.12
337.738	940.12
337.966	937.12
338.194	906.12
338.422	929.12
338.65	924.12
338.878	920.12
339.106	905.12
339.334	915.12
339.562	919.12
339.79	908.12
340.018	892.12
340.246	883.12
340.474	896.12
340.702	904.12
340.93	889.12
341.158	875.12
341.386	890.12
341.614	896.12
341.842	906.12
342.07	885.12
342.298	891.12
342.526	913.12
342.754	882.12
342.981	896.12
343.209	892.12
343.437	926.12
343.665	910.12
343.893	958.12
344.12	979.12
344.348	942.12
344.576	964.12
344.804	929.12
345.031	932.12
345.259	923.12
345.487	917.12
345.714	900.12
345.942	902.12
346.17	887.12
346.397	890.12
346.625	883.12
346.853	868.12
347.08	871.12
347.308	861.12
347.535	884.12
347.763	866.12
347.99	890.12
348.218	863.12
348.445	854.12
348.673	868.12
348.9	873.12
349.128	842.12
349.355	857.12
349.583	853.12
349.81	865.12
350.037	843.12
350.265	859.12
350.492	832.12
350.72	845.12
350.947	842.12
351.174	837.12
351.402	856.12
351.629	859.12
351.856	835.12
352.083	865.12
352.311	828.12
352.538	838.12
352.765	834.12
352.992	853.12
353.22	824.12
353.447	841.12
353.674	850.12
353.901	835.12
354.128	866.12
354.355	831.12
354.583	842.12
354.81	852.12
355.037	825.12
355.264	835.12
355.491	850.12
355.718	858.12
355.945	852.12
356.172	821.12
356.399	873.12
356.626	860.12
356.853	880.12
357.08	854.12
357.307	868.12
357.534	878.12
357.761	845.12
357.988	916.12
358.215	884.12
358.441	891.12
358.668	858.12
358.895	849.12
359.122	866.12
359.349	854.12
359.576	848.12
359.802	832.12
360.029	848.12
360.256	851.12
360.483	837.12
360.709	874.12
360.936	866.12
361.163	880.12
361.39	844.12
361.616	877.12
361.843	896.12
362.07	888.12
362.296	897.12
362.523	872.12
362.749	854.12
362.976	845.12
363.203	867.12
363.429	893.12
363.656	868.12
363.882	860.12
364.109	861.12
364.335	888.12
364.562	854.12
364.788	862.12
365.015	855.12
365.241	873.12
365.468	872.12
365.694	884.12
365.92	872.12
366.147	861.12
366.373	873.12
366.599	872.12
366.826	845.12
367.052	861.12
367.278	914.12
367.505	888.12
367.731	885.12
367.957	901.12
368.184	917.12
368.41	906.12
368.636	897.12
368.862	897.12
369.089	945.12
369.315	915.12
369.541	931.12
369.767	904.12
369.993	926.12
370.219	914.12
370.445	918.12
370.672	916.12
370.898	930.12
371.124	932.12
371.35	946.12
371.576	938.12
371.802	937.12
372.028	959.12
372.254	979.12
372.48	972.12
372.706	949.12
372.932	958.12
373.158	983.12
373.384	982.12
373.61	990.12
373.835	1012.12
374.061	964.12
374.287	981.12
374.513	984.12
374.739	1035.12
374.965	1028.12
375.191	1032.12
375.416	1003.12
375.642	990.12
375.868	971.12
376.094	996.12
376.319	967.12
376.545	949.12
376.771	948.12
376.997	969.12
377.222	955.12
377.448	898.12
377.674	952.12
377.899	939.12
378.125	942.12
378.35	956.12
378.576	956.12
378.802	956.12
379.027	923.12
379.253	952.12
379.478	955.12
379.704	942.12
379.929	942.12
380.155	935.12
380.38	961.12
380.606	947.12
380.831	931.12
381.057	901.12
381.282	964.12
381.507	962.12
381.733	1012.12
381.958	988.12
382.184	1039.12
382.409	1031.12
382.634	1022.12
382.86	1039.12
383.085	1054.12
383.31	1006.12
383.535	1005.12
383.761	1033.12
383.986	1036.12
384.211	1033.12
384.436	1040.12
384.662	1101.12
384.887	1072.12
385.112	1070.12
385.337	1081.12
385.562	1062.12
385.787	1056.12
386.013	1100.12
386.238	1106.12
386.463	1122.12
386.688	1093.12
386.913	1099.12
387.138	1096.12
387.363	1107.12
387.588	1125.12
387.813	1093.12
388.038	1112.12
388.263	1123.12
388.488	1148.12
388.713	1115.12
388.938	1133.12
389.163	1082.12
389.387	1138.12
389.612	1096.12
389.837	1106.12
390.062	1113.12
390.287	1141.12
390.512	1129.12
390.736	1136.12
390.961	1145.12
391.186	1142.12
391.411	1160.12
391.636	1188.12
391.86	1169.12
392.085	1210.12
392.31	1206.12
392.534	1207.12
392.759	1163.12
392.984	1168.12
393.208	1154.12
393.433	1180.12
393.658	1183.12
393.882	1191.12
394.107	1162.12
394.331	1153.12
394.556	1156.12
394.78	1157.12
395.005	1220.12
395.229	1180.12
395.454	1205.12
395.678	1219.12
395.903	1203.12
396.127	1211.12
396.352	1223.12
396.576	1203.12
396.801	1194.12
397.025	1231.12
397.249	1237.12
397.474	1252.12
397.698	1248.12
397.922	1252.12
398.147	1228.12
398.371	1278.12
398.595	1280.12
398.82	1338.12
399.044	1386.12
399.268	1412.12
399.492	1468.12
399.717	1537.12
399.941	1527.12
400.165	1537.12
400.389	1513.12
400.613	1432.12
400.837	1432.12
401.062	1385.12
401.286	1389.12
401.51	1356.12
401.734	1342.12
401.958	1362.12
402.182	1325.12
402.406	1345.12
402.63	1338.12
402.854	1353.12
403.078	1329.12
403.302	1341.12
403.526	1364.12
403.75	1380.12
403.974	1369.12
404.198	1382.12
404.422	1397.12
404.645	1394.12
404.869	1398.12
405.093	1393.12
405.317	1378.12
405.541	1386.12
405.765	1393.12
405.988	1395.12
406.212	1454.12
406.436	1430.12
406.66	1494.12
406.883	1458.12
407.107	1516.12
407.331	1540.12
407.555	1536.12
407.778	1524.12
408.002	1532.12
408.226	1543.12
408.449	1517.12
408.673	1506.12
408.896	1457.12
409.12	1480.12
409.344	1482.12
409.567	1440.12
409.791	1441.12
410.014	1453.12
410.238	1440.12
410.461	1458.12
410.685	1450.12
410.908	1406.12
411.132	1450.12
411.355	1392.12
411.578	1432.12
411.802	1392.12
412.025	1398.12
412.249	1393.12
412.472	1427.12
412.695	1363.12
412.919	1410.12
413.142	1385.12
413.365	1380.12
413.589	1389.12
413.812	1366.12
414.035	1351.12
414.258	1393.12
414.482	1405.12
414.705	1374.12
414.928	1338.12
415.151	1320.12
415.374	1357.12
415.597	1347.12
415.821	1336.12
416.044	1322.12
416.267	1331.12
416.49	1324.12
416.713	1306.12
416.936	1305.12
417.159	1304.12
417.382	1308.12
417.605	1252.12
417.828	1309.12
418.051	1312.12
418.274	1280.12
418.497	1280.12
418.72	1300.12
418.943	1273.12
419.166	1373.12
419.389	1433.12
419.611	1420.12
419.834	1361.12
420.057	1374.12
420.28	1298.12
420.503	1283.12
420.726	1270.12
420.948	1259.12
421.171	1270.12
421.394	1290.12
421.617	1290.12
421.839	1301.12
422.062	1289.12
422.285	1266.12
422.507	1276.12
422.73	1266.12
422.953	1289.12
423.175	1267.12
423.398	1323.12
423.621	1261.12
423.843	1286.12
424.066	1299.12
424.288	1299.12
424.511	1334.12
424.733	1275.12
424.956	1285.12
425.178	1246.12
425.401	1282.12
425.623	1294.12
425.846	1258.12
426.068	1281.12
426.291	1297.12
426.513	1260.12
426.735	1254.12
426.958	1261.12
427.18	1228.12
427.402	1239.12
427.625	1270.12
427.847	1244.12
428.069	1259.12
428.292	1270.12
428.514	1265.12
428.736	1221.12
428.958	1241.12
429.181	1252.12
429.403	1244.12
429.625	1236.12
429.847	1222.12
430.069	1214.12
430.292	1266.12
430.514	1259.12
430.736	1238.12
430.958	1267.12
431.18	1236.12
431.402	1225.12
431.624	1226.12
431.846	1227.12
432.068	1252.12
432.29	1259.12
432.512	1220.12
432.734	1320.12
432.956	1264.12
433.178	1300.12
433.4	1237.12
433.622	1229.12
433.844	1254.12
434.066	1293.12
434.287	1270.12
434.509	1258.12
434.731	1310.12
434.953	1290.12
435.175	1331.12
435.397	1293.12
435.618	1298.12
435.84	1292.12
436.062	1257.12
436.284	1289.12
436.505	1264.12
436.727	1247.12
436.949	1249.12
437.17	1254.12
437.392	1230.12
437.614	1200.12
437.835	1200.12
438.057	1226.12
438.278	1216.12
438.5	1224.12
438.721	1204.12
438.943	1213.12
439.165	1189.12
439.386	1216.12
439.608	1236.12
439.829	1210.12
440.05	1243.12
440.272	1256.12
440.493	1234.12
440.715	1235.12
440.936	1260.12
441.158	1273.12
441.379	1270.12
441.6	1305.12
441.822	1280.12
442.043	1280.12
442.264	1267.12
442.486	1257.12
442.707	1296.12
442.928	1298.12
443.149	1278.12
443.371	1257.12
443.592	1330.12
443.813	1292.12
444.034	1290.12
444.255	1310.12
444.476	1368.12
444.698	1379.12
444.919	1346.12
445.14	1434.12
445.361	1372.12
445.582	1312.12
445.803	1269.12
446.024	1268.12
446.245	1266.12
446.466	1241.12
446.687	1240.12
446.908	1228.12
447.129	1230.12
447.35	1213.12
447.571	1193.12
447.792	1181.12
448.013	1197.12
448.234	1182.12
448.455	1158.12
448.675	1180.12
448.896	1181.12
449.117	1144.12
449.338	1155.12
449.559	1148.12
449.779	1117.12
450	1136.12
450.221	1143.12
450.442	1174.12
450.662	1149.12
450.883	1128.12
451.104	1141.12
451.324	1137.12
451.545	1147.12
451.766	1123.12
451.986	1096.12
452.207	1125.12
452.428	1117.12
452.648	1105.12
452.869	1119.12
453.089	1085.12
453.31	1096.12
453.53	1119.12
453.751	1084.12
453.971	1103.12
454.192	1098.12
454.412	1082.12
454.633	1095.12
454.853	1072.12
455.073	1100.12
455.294	1068.12
455.514	1086.12
455.734	1070.12
455.955	1055.12
456.175	1062.12
456.395	1068.12
456.616	1100.12
456.836	1100.12
457.056	1130.12
457.276	1067.12
457.497	1113.12
457.717	1120.12
457.937	1126.12
458.157	1155.12
458.377	1110.12
458.598	1124.12
458.818	1154.12
459.038	1182.12
459.258	1213.12
459.478	1220.12
459.698	1200.12
459.918	1236.12
460.138	1243.12
460.358	1283.12
460.578	1317.12
460.798	1321.12
461.018	1324.12
461.238	1328.12
461.458	1381.12
461.678	1341.12
461.898	1340.12
462.118	1350.12
462.338	1386.12
462.558	1430.12
462.777	1450.12
462.997	1478.12
463.217	1496.12
463.437	1498.12
463.657	1465.12
463.876	1478.12
464.096	1429.12
464.316	1475.12
464.536	1465.12
464.755	1398.12
464.975	1397.12
465.195	1377.12
465.414	1344.12
465.634	1295.12
465.854	1275.12
466.073	1271.12
466.293	1247.12
466.512	1244.12
466.732	1266.12
466.951	1251.12
467.171	1218.12
467.391	1227.12
467.61	1207.12
467.829	1209.12
468.049	1185.12
468.268	1194.12
468.488	1142.12
468.707	1172.12
468.927	1230.12
469.146	1212.12
469.365	1195.12
469.585	1200.12
469.804	1219.12
470.023	1221.12
470.243	1196.12
470.462	1232.12
470.681	1234.12
470.901	1258.12
471.12	1212.12
471.339	1193.12
471.558	1212.12
471.777	1237.12
471.997	1214.12
472.216	1204.12
472.435	1210.12
472.654	1223.12
472.873	1174.12
473.092	1216.12
473.311	1203.12
473.53	1228.12
473.749	1225.12
473.968	1204.12
474.187	1202.12
474.406	1185.12
474.625	1200.12
474.844	1221.12
475.063	1226.12
475.282	1227.12
475.501	1226.12
475.72	1243.12
475.939	1225.12
476.158	1277.12
476.377	1298.12
476.596	1304.12
476.814	1352.12
477.033	1302.12
477.252	1332.12
477.471	1300.12
477.69	1349.12
477.908	1373.12
478.127	1394.12
478.346	1345.12
478.564	1381.12
478.783	1349.12
479.002	1393.12
479.22	1451.12
479.439	1465.12
479.658	1437.12
479.876	1435.12
480.095	1473.12
480.313	1475.12
480.532	1489.12
480.751	1480.12
480.969	1432.12
481.188	1472.12
481.406	1470.12
481.624	1465.12
481.843	1459.12
482.061	1426.12
482.28	1486.12
482.498	1456.12
482.717	1417.12
482.935	1418.12
483.153	1429.12
483.372	1405.12
483.59	1441.12
483.808	1448.12
484.027	1434.12
484.245	1460.12
484.463	1441.12
484.681	1453.12
484.9	1468.12
485.118	1490.12
485.336	1459.12
485.554	1463.12
485.772	1505.12
485.99	1472.12
486.209	1471.12
486.427	1448.12
486.645	1465.12
486.863	1488.12
487.081	1489.12
487.299	1514.12
487.517	1464.12
487.735	1509.12
487.953	1489.12
488.171	1490.12
488.389	1480.12
488.607	1467.12
488.825	1465.12
489.043	1469.12
489.261	1490.12
489.479	1465.12
489.696	1473.12
489.914	1495.12
490.132	1483.12
490.35	1491.12
490.568	1499.12
490.786	1494.12
491.003	1479.12
491.221	1510.12
491.439	1480.12
491.657	1503.12
491.874	1520.12
492.092	1527.12
492.31	1525.12
492.527	1543.12
492.745	1530.12
492.963	1540.12
493.18	1556.12
493.398	1507.12
493.615	1540.12
493.833	1524.12
494.05	1511.12
494.268	1524.12
494.485	1570.12
494.703	1513.12
494.92	1562.12
495.138	1524.12
495.355	1566.12
495.573	1594.12
495.79	1572.12
496.008	1620.12
496.225	1584.12
496.442	1592.12
496.66	1610.12
496.877	1609.12
497.094	1637.12
497.312	1673.12
497.529	1680.12
497.746	1729.12
497.963	1730.12
498.181	1810.12
498.398	1841.12
498.615	1904.12
498.832	1979.12
499.049	2014.12
499.267	2096.12
499.484	2192.12
499.701	2292.12
499.918	2364.12
500.135	2479.12
500.352	2566.12
500.569	2603.12
500.786	2572.12
501.003	2553.12
501.22	2438.12
501.437	2369.12
501.654	2227.12
501.871	2156.12
502.088	2081.12
502.305	1998.12
502.522	1911.12
502.739	1912.12
502.956	1828.12
503.172	1770.12
503.389	1712.12
503.606	1750.12
503.823	1689.12
504.04	1660.12
504.256	1636.12
504.473	1630.12
504.69	1612.12
504.907	1596.12
505.123	1558.12
505.34	1543.12
505.557	1513.12
505.773	1500.12
505.99	1448.12
506.207	1435.12
506.423	1420.12
506.64	1387.12
506.856	1380.12
507.073	1399.12
507.289	1328.12
507.506	1360.12
507.722	1372.12
507.939	1350.12
508.155	1314.12
508.372	1291.12
508.588	1284.12
508.805	1277.12
509.021	1280.12
509.238	1292.12
509.454	1248.12
509.67	1242.12
509.887	1261.12
510.103	1246.12
510.319	1243.12
510.536	1249.12
510.752	1203.12
510.968	1243.12
511.184	1226.12
511.401	1208.12
511.617	1208.12
511.833	1205.12
512.049	1171.12
512.265	1216.12
512.481	1212.12
512.698	1205.12
512.914	1222.12
513.13	1234.12
513.346	1202.12
513.562	1218.12
513.778	1219.12
513.994	1196.12
514.21	1221.12
514.426	1208.12
514.642	1194.12
514.858	1189.12
515.074	1220.12
515.29	1234.12
515.506	1210.12
515.721	1198.12
515.937	1213.12
516.153	1249.12
516.369	1254.12
516.585	1288.12
516.801	1290.12
517.016	1278.12
517.232	1321.12
517.448	1353.12
517.664	1330.12
517.879	1345.12
518.095	1331.12
518.311	1338.12
518.527	1321.12
518.742	1334.12
518.958	1320.12
519.173	1328.12
519.389	1238.12
519.605	1283.12
519.82	1278.12
520.036	1266.12
520.251	1277.12
520.467	1234.12
520.682	1192.12
520.898	1158.12
521.113	1145.12
521.329	1189.12
521.544	1173.12
521.76	1162.12
521.975	1134.12
522.19	1129.12
522.406	1146.12
522.621	1147.12
522.836	1152.12
523.052	1118.12
523.267	1125.12
523.482	1122.12
523.698	1139.12
523.913	1092.12
524.128	1093.12
524.343	1088.12
524.559	1083.12
524.774	1083.12
524.989	1091.12
525.204	1068.12
525.419	1066.12
525.634	1071.12
525.849	1072.12
526.064	1084.12
526.28	1105.12
526.495	1098.12
526.71	1070.12
526.925	1078.12
527.14	1067.12
527.355	1074.12
527.57	1060.12
527.785	998.12
527.999	1053.12
528.214	1028.12
528.429	1046.12
528.644	1073.12
528.859	1056.12
529.074	1066.12
529.289	1055.12
529.503	1040.12
529.718	1047.12
529.933	1041.12
530.148	1035.12
530.363	1028.12
530.577	1019.12
530.792	1032.12
531.007	1024.12
531.221	1010.12
531.436	1034.12
531.651	1038.12
531.865	1018.12
532.08	1004.12
532.295	1044.12
532.509	1067.12
532.724	1012.12
532.938	1015.12
533.153	1047.12
533.367	1038.12
533.582	1035.12
533.796	1021.12
534.011	1014.12
534.225	1005.12
534.44	970.12
534.654	988.12
534.868	1005.12
535.083	998.12
535.297	1025.12
535.511	989.12
535.726	1009.12
535.94	1005.12
536.154	977.12
536.369	991.12
536.583	966.12
536.797	955.12
537.011	941.12
537.225	964.12
537.44	947.12
537.654	958.12
537.868	961.12
538.082	962.12
538.296	957.12
538.51	955.12
538.724	964.12
538.938	965.12
539.153	957.12
539.367	929.12
539.581	926.12
539.795	946.12
540.009	930.12
540.222	898.12
540.436	898.12
540.65	940.12
540.864	954.12
541.078	947.12
541.292	936.12
541.506	932.12
541.72	942.12
541.934	924.12
542.147	956.12
542.361	952.12
542.575	956.12
542.789	932.12
543.002	921.12
543.216	911.12
543.43	917.12
543.644	888.12
543.857	911.12
544.071	942.12
544.285	948.12
544.498	948.12
544.712	911.12
544.925	896.12
545.139	945.12
545.352	948.12
545.566	940.12
545.779	938.12
545.993	929.12
546.206	921.12
546.42	924.12
546.633	952.12
546.847	906.12
547.06	933.12
547.274	918.12
547.487	916.12
547.7	916.12
547.914	929.12
548.127	934.12
548.34	944.12
548.554	917.12
548.767	962.12
548.98	937.12
549.193	927.12
549.407	903.12
549.62	962.12
549.833	953.12
550.046	938.12
550.259	962.12
550.473	944.12
550.686	917.12
550.899	923.12
551.112	930.12
551.325	931.12
551.538	925.12
551.751	904.12
551.964	902.12
552.177	917.12
552.39	909.12
552.603	918.12
552.816	927.12
553.029	930.12
553.242	956.12
553.455	897.12
553.667	929.12
553.88	930.12
554.093	892.12
554.306	876.12
554.519	899.12
554.732	883.12
554.944	895.12
555.157	878.12
555.37	866.12
555.583	843.12
555.795	864.12
556.008	850.12
556.221	823.12
556.433	828.12
556.646	827.12
556.859	831.12
557.071	781.12
557.284	794.12
557.496	806.12
557.709	812.12
557.921	816.12
558.134	788.12
558.346	809.12
558.559	798.12
558.771	811.12
558.984	785.12
559.196	763.12
559.409	775.12
559.621	781.12
559.833	773.12
560.046	755.12
560.258	762.12
560.47	777.12
560.683	808.12
560.895	778.12
561.107	769.12
561.32	763.12
561.532	781.12
561.744	782.12
561.956	785.12
562.168	797.12
562.381	781.12
562.593	801.12
562.805	804.12
563.017	800.12
563.229	778.12
563.441	784.12
563.653	782.12
563.865	788.12
564.077	814.12
564.289	792.12
564.501	823.12
564.713	824.12
564.925	821.12
565.137	821.12
565.349	839.12
565.561	836.12
565.773	851.12
565.985	894.12
566.197	922.12
566.408	903.12
566.62	923.12
566.832	963.12
567.044	969.12
567.255	975.12
567.467	1011.12
567.679	971.12
567.891	1016.12
568.102	990.12
568.314	977.12
568.526	955.12
568.737	922.12
568.949	891.12
569.161	862.12
569.372	849.12
569.584	808.12
569.795	811.12
570.007	800.12
570.218	763.12
570.43	758.12
570.641	770.12
570.853	758.12
571.064	750.12
571.276	760.12
571.487	723.12
571.698	691.12
571.91	699.12
572.121	677.12
572.333	681.12
572.544	655.12
572.755	667.12
572.966	676.12
573.178	662.12
573.389	642.12
573.6	640.12
573.811	640.12
574.023	628.12
574.234	663.12
574.445	628.12
574.656	635.12
574.867	637.12
575.078	633.12
575.289	621.12
575.501	599.12
575.712	600.12
575.923	569.12
576.134	599.12
576.345	616.12
576.556	601.12
576.767	592.12
576.978	584.12
577.188	586.12
577.399	610.12
577.61	572.12
577.821	582.12
578.032	594.12
578.243	556.12
578.454	570.12
578.665	564.12
578.875	580.12
579.086	565.12
579.297	565.12
579.508	571.12
579.718	545.12
579.929	548.12
580.14	541.12
580.35	538.12
580.561	542.12
580.772	540.12
580.982	542.12
581.193	516.12
581.403	546.12
581.614	537.12
581.825	532.12
582.035	530.12
582.246	530.12
582.456	521.12
582.667	519.12
582.877	533.12
583.087	525.12
583.298	529.12
583.508	524.12
583.719	509.12
583.929	539.12
584.139	519.12
584.35	504.12
584.56	520.12
584.77	513.12
584.981	534.12
585.191	540.12
585.401	523.12
585.611	498.12
585.821	499.12
586.032	500.12
586.242	492.12
586.452	502.12
586.662	512.12
586.872	514.12
587.082	502.12
587.292	499.12
587.502	500.12
587.713	508.12
587.923	504.12
588.133	518.12
588.343	504.12
588.553	488.12
588.762	482.12
588.972	514.12
589.182	548.12
589.392	516.12
589.602	508.12
589.812	526.12
590.022	512.12
590.232	494.12
590.441	500.12
590.651	528.12
590.861	498.12
591.071	502.12
591.281	489.12
591.49	518.12
591.7	520.12
591.91	522.12
592.119	516.12
592.329	515.12
592.539	501.12
592.748	528.12
592.958	530.12
593.167	516.12
593.377	534.12
593.587	520.12
593.796	508.12
594.006	521.12
594.215	532.12
594.424	511.12
594.634	506.12
594.843	491.12
595.053	491.12
595.262	496.12
595.472	496.12
595.681	485.12
595.89	491.12
596.1	483.12
596.309	489.12
596.518	470.12
596.727	453.12
596.937	450.12
597.146	459.12
597.355	470.12
597.564	445.12
597.774	435.12
597.983	446.12
598.192	446.12
598.401	438.12
598.61	439.12
598.819	429.12
599.028	448.12
599.237	422.12
599.446	438.12
599.655	447.12
599.864	415.12
600.073	436.12
600.282	417.12
600.491	409.12
600.7	428.12
600.909	406.12
601.118	423.12
601.327	408.12
601.536	396.12
601.745	421.12
601.953	411.12
602.162	405.12
602.371	419.12
602.58	404.12
602.789	397.12
602.997	408.12
603.206	376.12
603.415	393.12
603.623	397.12
603.832	397.12
604.041	388.12
604.249	362.12
604.458	390.12
604.666	386.12
604.875	384.12
605.084	401.12
605.292	396.12
605.501	378.12
605.709	397.12
605.918	390.12
606.126	374.12
606.334	394.12
606.543	380.12
606.751	371.12
606.96	384.12
607.168	377.12
607.376	385.12
607.585	376.12
607.793	372.12
608.001	365.12
608.21	380.12
608.418	373.12
608.626	364.12
608.834	370.12
609.043	370.12
609.251	379.12
609.459	381.12
609.667	369.12
609.875	374.12
610.083	378.12
610.291	365.12
610.499	368.12
610.707	365.12
610.916	359.12
611.124	380.12
611.332	364.12
611.54	375.12
611.748	362.12
611.955	359.12
612.163	373.12
612.371	371.12
612.579	356.12
612.787	356.12
612.995	370.12
613.203	366.12
613.411	368.12
613.618	371.12
613.826	356.12
614.034	364.12
614.242	358.12
614.449	358.12
614.657	361.12
614.865	348.12
615.072	372.12
615.28	355.12
615.488	352.12
615.695	346.12
615.903	363.12
616.111	361.12
616.318	369.12
616.526	363.12
616.733	348.12
616.941	355.12
617.148	347.12
617.356	361.12
617.563	334.12
617.771	359.12
617.978	376.12
618.185	369.12
618.393	355.12
618.6	331.12
618.807	352.12
619.015	356.12
619.222	345.12
619.429	336.12
619.637	326.12
619.844	334.12
620.051	361.12
620.258	348.12
620.466	323.12
620.673	314.12
620.88	308.12
621.087	319.12
621.294	306.12
621.501	328.12
621.708	326.12
621.915	328.12
622.122	337.12
622.329	328.12
622.536	339.12
622.743	321.12
622.95	337.12
623.157	306.12
623.364	320.12
623.571	309.12
623.778	320.12
623.985	319.12
624.192	309.12
624.399	318.12
624.606	322.12
624.812	313.12
625.019	310.12
625.226	323.12
625.433	308.12
625.639	325.12
625.846	304.12
626.053	295.12
626.259	297.12
626.466	324.12
626.673	319.12
626.879	310.12
627.086	296.12
627.293	295.12
627.499	310.12
627.706	310.12
627.912	302.12
628.119	325.12
628.325	280.12
628.532	294.12
628.738	317.12
628.945	286.12
629.151	297.12
629.357	275.12
629.564	306.12
629.77	276.12
629.976	286.12
630.183	293.12
630.389	298.12
630.595	286.12
630.802	288.12
631.008	286.12
631.214	291.12
631.42	295.12
631.627	289.12
631.833	280.12
632.039	268.12
632.245	261.12
632.451	277.12
632.657	281.12
632.863	268.12
633.069	281.12
633.275	260.12
633.481	256.12
633.688	274.12
633.893	290.12
634.099	265.12
634.305	274.12
634.511	278.12
634.717	257.12
634.923	274.12
635.129	275.12
635.335	269.12
635.541	271.12
635.747	269.12
635.952	256.12
636.158	266.12
636.364	264.12
636.57	261.12
636.775	274.12
636.981	265.12
637.187	281.12
637.392	256.12
637.598	258.12
637.804	245.12
638.009	260.12
638.215	249.12
638.421	268.12
638.626	261.12
638.832	254.12
639.037	261.12
639.243	273.12
639.448	268.12
639.654	267.12
639.859	260.12
640.065	269.12
640.27	263.12
640.475	262.12
640.681	258.12
640.886	272.12
641.091	260.12
641.297	260.12
641.502	245.12
641.707	259.12
641.913	244.12
642.118	244.12
642.323	251.12
642.528	275.12
642.733	262.12
642.939	258.12
643.144	262.12
643.349	278.12
643.554	266.12
643.759	265.12
643.964	242.12
644.169	232.12
644.374	254.12
644.579	264.12
644.784	264.12
644.989	271.12
645.194	258.12
645.399	246.12
645.604	257.12
645.809	248.12
646.014	252.12
646.219	264.12
646.423	247.12
646.628	268.12
646.833	259.12
647.038	253.12
647.243	246.12
647.447	259.12
647.652	254.12
647.857	264.12
648.062	264.12
648.266	260.12
648.471	254.12
648.676	256.12
648.88	254.12
649.085	265.12
649.289	266.12
649.494	242.12
649.698	257.12
649.903	247.12
650.107	266.12
650.312	274.12
650.516	272.12
650.721	245.12
650.925	256.12
651.13	251.12
651.334	253.12
651.539	254.12
651.743	232.12
651.947	266.12
652.152	249.12
652.356	252.12
652.56	233.12
652.764	229.12
652.969	250.12
653.173	251.12
653.377	228.12
653.581	242.12
653.785	237.12
653.99	252.12
654.194	244.12
654.398	240.12
654.602	233.12
654.806	234.12
655.01	257.12
655.214	236.12
655.418	237.12
655.622	241.12
655.826	227.12
656.03	236.12
656.234	269.12
656.438	258.12
656.642	225.12
656.846	250.12
657.049	242.12
657.253	222.12
657.457	201.12
657.661	196.12
657.865	186.12
658.068	204.12
658.272	173.12
658.476	162.12
658.68	169.12
658.883	157.12
659.087	142.12
659.291	138.12
659.494	128.12
659.698	129.12
659.901	124.12
660.105	128.12
660.309	128.12
660.512	109.12
660.716	120.12
660.919	109.12
661.123	119.12
661.326	101.12
661.53	106.12
661.733	108.12
661.936	108.12
662.14	101.12
662.343	92.12
662.546	95.12
662.75	92.12
662.953	84.12
663.156	89.12
663.36	89.12
663.563	94.12
663.766	90.12
663.969	89.12
664.173	90.12
664.376	89.12
664.579	91.12
664.782	96.12
664.985	83.12
665.188	82.12
665.391	80.12
665.594	74.12
665.797	74.12
666	88.12
666.203	77.12
666.406	82.12
666.609	86.12
666.812	91.12
667.015	98.12
667.218	76.12
667.421	86.12
667.624	82.12
667.827	78.12
668.03	85.12
668.232	83.12
668.435	77.12
668.638	87.12
668.841	83.12
669.043	90.12
669.246	96.12
669.449	77.12
669.651	75.12
669.854	85.12
670.057	86.12
670.259	83.12
670.462	88.12
670.665	77.12
670.867	81.12
671.07	79.12
671.272	92.12
671.475	85.12
671.677	83.12
671.88	71.12
672.082	79.12
672.284	69.12
672.487	69.12
672.689	69.12
672.892	80.12
