Data from Fe(NO3)3@0.0125M.TitratingCurve.Agarose3%dH2O.NegLispCup.LampEnergy10.LIBS07252019_HRD10591_17-01-21-339.txt Node
Date: Thu Jul 25 17:01:21 EDT 2019
User: cochatt
Spectrometer: HR+D1059
Trigger mode: 1
Integration Time (sec): 1.000000E-1
Scans to average: 1
Electric dark correction enabled: true
Nonlinearity correction enabled: false
Boxcar width: 0
XAxis mode: Wavelengths
Number of Pixels in Spectrum: 2048
>>>>>Begin Spectral Data<<<<<
223.165	-14.94
223.4	-14.94
223.635	-14.94
223.869	-12.94
224.104	-21.94
224.338	-4.94
224.573	-37.94
224.808	-11.94
225.042	-6.94
225.277	-7.94
225.511	-3.94
225.746	-1.94
225.98	9.06
226.215	15.06
226.449	21.06
226.683	9.06
226.918	43.06
227.152	28.06
227.387	38.06
227.621	33.06
227.856	36.06
228.09	49.06
228.324	57.06
228.559	61.06
228.793	73.06
229.027	67.06
229.262	71.06
229.496	78.06
229.73	87.06
229.964	85.06
230.199	88.06
230.433	83.06
230.667	94.06
230.901	95.06
231.136	93.06
231.37	106.06
231.604	111.06
231.838	105.06
232.072	89.06
232.306	111.06
232.541	94.06
232.775	99.06
233.009	102.06
233.243	99.06
233.477	94.06
233.711	100.06
233.945	108.06
234.179	100.06
234.413	111.06
234.647	107.06
234.881	112.06
235.115	103.06
235.349	114.06
235.583	103.06
235.817	110.06
236.051	99.06
236.285	109.06
236.519	107.06
236.753	99.06
236.987	100.06
237.221	101.06
237.455	115.06
237.689	101.06
237.922	89.06
238.156	101.06
238.39	108.06
238.624	91.06
238.858	104.06
239.091	111.06
239.325	109.06
239.559	122.06
239.793	99.06
240.027	101.06
240.26	97.06
240.494	104.06
240.728	119.06
240.961	113.06
241.195	119.06
241.429	107.06
241.662	104.06
241.896	94.06
242.13	116.06
242.363	110.06
242.597	117.06
242.83	117.06
243.064	105.06
243.298	116.06
243.531	110.06
243.765	108.06
243.998	120.06
244.232	124.06
244.465	122.06
244.699	124.06
244.932	120.06
245.166	124.06
245.399	117.06
245.633	114.06
245.866	115.06
246.099	111.06
246.333	111.06
246.566	113.06
246.8	139.06
247.033	122.06
247.266	132.06
247.5	123.06
247.733	115.06
247.966	123.06
248.2	130.06
248.433	120.06
248.666	136.06
248.899	123.06
249.133	131.06
249.366	136.06
249.599	142.06
249.832	121.06
250.066	137.06
250.299	126.06
250.532	129.06
250.765	118.06
250.998	122.06
251.231	123.06
251.465	146.06
251.698	131.06
251.931	133.06
252.164	134.06
252.397	140.06
252.63	127.06
252.863	139.06
253.096	124.06
253.329	137.06
253.562	139.06
253.795	147.06
254.028	144.06
254.261	143.06
254.494	126.06
254.727	125.06
254.96	143.06
255.193	134.06
255.426	137.06
255.659	146.06
255.892	147.06
256.124	138.06
256.357	147.06
256.59	131.06
256.823	143.06
257.056	144.06
257.289	161.06
257.521	144.06
257.754	146.06
257.987	131.06
258.22	145.06
258.452	142.06
258.685	143.06
258.918	144.06
259.151	139.06
259.383	145.06
259.616	138.06
259.849	138.06
260.081	143.06
260.314	162.06
260.547	152.06
260.779	149.06
261.012	154.06
261.244	162.06
261.477	157.06
261.71	149.06
261.942	150.06
262.175	161.06
262.407	156.06
262.64	154.06
262.872	157.06
263.105	169.06
263.337	164.06
263.57	177.06
263.802	154.06
264.035	156.06
264.267	168.06
264.499	151.06
264.732	165.06
264.964	165.06
265.197	177.06
265.429	145.06
265.661	169.06
265.894	156.06
266.126	155.06
266.358	159.06
266.591	170.06
266.823	170.06
267.055	164.06
267.287	155.06
267.52	159.06
267.752	166.06
267.984	165.06
268.216	163.06
268.448	168.06
268.681	143.06
268.913	157.06
269.145	168.06
269.377	164.06
269.609	169.06
269.841	170.06
270.073	174.06
270.306	167.06
270.538	159.06
270.77	170.06
271.002	178.06
271.234	188.06
271.466	177.06
271.698	173.06
271.93	184.06
272.162	194.06
272.394	194.06
272.626	173.06
272.858	184.06
273.09	183.06
273.322	184.06
273.553	189.06
273.785	189.06
274.017	194.06
274.249	193.06
274.481	189.06
274.713	196.06
274.945	202.06
275.176	185.06
275.408	201.06
275.64	203.06
275.872	195.06
276.104	192.06
276.335	181.06
276.567	177.06
276.799	189.06
277.031	185.06
277.262	187.06
277.494	185.06
277.726	207.06
277.957	191.06
278.189	203.06
278.421	181.06
278.652	192.06
278.884	205.06
279.115	182.06
279.347	196.06
279.579	184.06
279.81	203.06
280.042	189.06
280.273	207.06
280.505	203.06
280.736	194.06
280.968	205.06
281.199	199.06
281.431	194.06
281.662	204.06
281.894	202.06
282.125	193.06
282.356	206.06
282.588	206.06
282.819	212.06
283.051	207.06
283.282	197.06
283.513	197.06
283.745	222.06
283.976	209.06
284.207	212.06
284.439	203.06
284.67	220.06
284.901	215.06
285.132	213.06
285.364	213.06
285.595	214.06
285.826	215.06
286.057	220.06
286.288	207.06
286.52	206.06
286.751	222.06
286.982	225.06
287.213	218.06
287.444	230.06
287.675	206.06
287.906	215.06
288.138	222.06
288.369	230.06
288.6	221.06
288.831	220.06
289.062	235.06
289.293	234.06
289.524	226.06
289.755	214.06
289.986	220.06
290.217	221.06
290.448	236.06
290.679	221.06
290.91	226.06
291.141	235.06
291.371	204.06
291.602	228.06
291.833	210.06
292.064	229.06
292.295	233.06
292.526	227.06
292.757	221.06
292.987	228.06
293.218	222.06
293.449	236.06
293.68	210.06
293.91	205.06
294.141	224.06
294.372	226.06
294.603	226.06
294.833	222.06
295.064	223.06
295.295	230.06
295.525	217.06
295.756	222.06
295.987	215.06
296.217	231.06
296.448	245.06
296.679	222.06
296.909	244.06
297.14	232.06
297.37	222.06
297.601	246.06
297.831	242.06
298.062	239.06
298.292	220.06
298.523	230.06
298.753	261.06
298.984	236.06
299.214	261.06
299.445	246.06
299.675	231.06
299.905	234.06
300.136	244.06
300.366	250.06
300.597	247.06
300.827	239.06
301.057	254.06
301.288	264.06
301.518	237.06
301.748	253.06
301.979	255.06
302.209	264.06
302.439	251.06
302.669	265.06
302.9	276.06
303.13	229.06
303.36	251.06
303.59	250.06
303.82	255.06
304.051	252.06
304.281	263.06
304.511	264.06
304.741	267.06
304.971	243.06
305.201	269.06
305.431	271.06
305.661	258.06
305.891	264.06
306.121	271.06
306.352	254.06
306.582	252.06
306.812	223.06
307.042	275.06
307.272	269.06
307.502	257.06
307.731	270.06
307.961	265.06
308.191	255.06
308.421	263.06
308.651	262.06
308.881	263.06
309.111	271.06
309.341	251.06
309.571	257.06
309.8	253.06
310.03	284.06
310.26	278.06
310.49	266.06
310.72	251.06
310.949	251.06
311.179	267.06
311.409	274.06
311.639	285.06
311.868	267.06
312.098	257.06
312.328	273.06
312.557	274.06
312.787	267.06
313.017	282.06
313.246	285.06
313.476	269.06
313.706	269.06
313.935	292.06
314.165	288.06
314.394	270.06
314.624	274.06
314.853	286.06
315.083	286.06
315.312	289.06
315.542	275.06
315.771	283.06
316.001	271.06
316.23	284.06
316.46	302.06
316.689	290.06
316.919	298.06
317.148	266.06
317.377	278.06
317.607	303.06
317.836	301.06
318.065	284.06
318.295	270.06
318.524	272.06
318.753	283.06
318.983	292.06
319.212	267.06
319.441	279.06
319.67	261.06
319.9	265.06
320.129	277.06
320.358	306.06
320.587	299.06
320.816	273.06
321.046	274.06
321.275	281.06
321.504	300.06
321.733	293.06
321.962	277.06
322.191	309.06
322.42	285.06
322.649	308.06
322.878	297.06
323.108	293.06
323.337	286.06
323.566	301.06
323.795	289.06
324.024	296.06
324.253	302.06
324.482	295.06
324.71	288.06
324.939	314.06
325.168	300.06
325.397	293.06
325.626	309.06
325.855	324.06
326.084	315.06
326.313	324.06
326.542	305.06
326.77	314.06
326.999	304.06
327.228	298.06
327.457	281.06
327.686	297.06
327.914	283.06
328.143	286.06
328.372	316.06
328.6	285.06
328.829	310.06
329.058	312.06
329.287	317.06
329.515	299.06
329.744	329.06
329.972	300.06
330.201	312.06
330.43	311.06
330.658	323.06
330.887	313.06
331.115	347.06
331.344	330.06
331.572	319.06
331.801	316.06
332.03	339.06
332.258	338.06
332.486	348.06
332.715	319.06
332.943	334.06
333.172	365.06
333.4	355.06
333.629	368.06
333.857	374.06
334.085	378.06
334.314	368.06
334.542	352.06
334.771	363.06
334.999	348.06
335.227	362.06
335.455	356.06
335.684	348.06
335.912	385.06
336.14	356.06
336.369	352.06
336.597	360.06
336.825	339.06
337.053	362.06
337.281	359.06
337.51	345.06
337.738	334.06
337.966	344.06
338.194	334.06
338.422	352.06
338.65	332.06
338.878	344.06
339.106	339.06
339.334	329.06
339.562	338.06
339.79	323.06
340.018	326.06
340.246	326.06
340.474	324.06
340.702	340.06
340.93	322.06
341.158	346.06
341.386	318.06
341.614	340.06
341.842	318.06
342.07	305.06
342.298	335.06
342.526	337.06
342.754	326.06
342.981	328.06
343.209	321.06
343.437	340.06
343.665	356.06
343.893	368.06
344.12	369.06
344.348	356.06
344.576	356.06
344.804	371.06
345.031	341.06
345.259	341.06
345.487	302.06
345.714	349.06
345.942	316.06
346.17	338.06
346.397	343.06
346.625	337.06
346.853	326.06
347.08	321.06
347.308	321.06
347.535	339.06
347.763	342.06
347.99	339.06
348.218	325.06
348.445	326.06
348.673	318.06
348.9	331.06
349.128	330.06
349.355	305.06
349.583	309.06
349.81	319.06
350.037	311.06
350.265	312.06
350.492	315.06
350.72	335.06
350.947	311.06
351.174	328.06
351.402	309.06
351.629	319.06
351.856	321.06
352.083	317.06
352.311	318.06
352.538	308.06
352.765	322.06
352.992	325.06
353.22	309.06
353.447	310.06
353.674	299.06
353.901	335.06
354.128	314.06
354.355	306.06
354.583	322.06
354.81	306.06
355.037	316.06
355.264	310.06
355.491	324.06
355.718	305.06
355.945	314.06
356.172	335.06
356.399	299.06
356.626	314.06
356.853	312.06
357.08	316.06
357.307	322.06
357.534	305.06
357.761	300.06
357.988	312.06
358.215	323.06
358.441	330.06
358.668	313.06
358.895	313.06
359.122	330.06
359.349	311.06
359.576	323.06
359.802	310.06
360.029	330.06
360.256	314.06
360.483	319.06
360.709	324.06
360.936	311.06
361.163	329.06
361.39	334.06
361.616	337.06
361.843	327.06
362.07	319.06
362.296	336.06
362.523	326.06
362.749	327.06
362.976	317.06
363.203	324.06
363.429	324.06
363.656	332.06
363.882	310.06
364.109	314.06
364.335	314.06
364.562	312.06
364.788	309.06
365.015	314.06
365.241	335.06
365.468	330.06
365.694	329.06
365.92	313.06
366.147	334.06
366.373	318.06
366.599	318.06
366.826	347.06
367.052	328.06
367.278	333.06
367.505	318.06
367.731	319.06
367.957	332.06
368.184	325.06
368.41	330.06
368.636	339.06
368.862	331.06
369.089	333.06
369.315	341.06
369.541	345.06
369.767	341.06
369.993	342.06
370.219	316.06
370.445	339.06
370.672	334.06
370.898	354.06
371.124	334.06
371.35	321.06
371.576	330.06
371.802	360.06
372.028	364.06
372.254	341.06
372.48	364.06
372.706	339.06
372.932	364.06
373.158	346.06
373.384	345.06
373.61	351.06
373.835	357.06
374.061	348.06
374.287	361.06
374.513	364.06
374.739	360.06
374.965	378.06
375.191	363.06
375.416	366.06
375.642	364.06
375.868	365.06
376.094	360.06
376.319	371.06
376.545	349.06
376.771	357.06
376.997	343.06
377.222	331.06
377.448	357.06
377.674	349.06
377.899	334.06
378.125	331.06
378.35	349.06
378.576	344.06
378.802	345.06
379.027	352.06
379.253	307.06
379.478	341.06
379.704	341.06
379.929	342.06
380.155	329.06
380.38	364.06
380.606	353.06
380.831	332.06
381.057	363.06
381.282	345.06
381.507	346.06
381.733	355.06
381.958	371.06
382.184	354.06
382.409	367.06
382.634	357.06
382.86	379.06
383.085	374.06
383.31	363.06
383.535	369.06
383.761	377.06
383.986	375.06
384.211	387.06
384.436	375.06
384.662	370.06
384.887	382.06
385.112	396.06
385.337	405.06
385.562	388.06
385.787	381.06
386.013	388.06
386.238	403.06
386.463	380.06
386.688	422.06
386.913	387.06
387.138	378.06
387.363	391.06
387.588	406.06
387.813	399.06
388.038	409.06
388.263	388.06
388.488	397.06
388.713	388.06
388.938	388.06
389.163	402.06
389.387	385.06
389.612	389.06
389.837	395.06
390.062	395.06
390.287	410.06
390.512	408.06
390.736	410.06
390.961	382.06
391.186	408.06
391.411	395.06
391.636	442.06
391.86	417.06
392.085	420.06
392.31	420.06
392.534	448.06
392.759	433.06
392.984	439.06
393.208	430.06
393.433	429.06
393.658	414.06
393.882	420.06
394.107	425.06
394.331	419.06
394.556	422.06
394.78	427.06
395.005	434.06
395.229	430.06
395.454	432.06
395.678	429.06
395.903	448.06
396.127	447.06
396.352	435.06
396.576	445.06
396.801	422.06
397.025	436.06
397.249	439.06
397.474	437.06
397.698	449.06
397.922	446.06
398.147	460.06
398.371	472.06
398.595	476.06
398.82	483.06
399.044	486.06
399.268	511.06
399.492	559.06
399.717	577.06
399.941	586.06
400.165	555.06
400.389	516.06
400.613	538.06
400.837	501.06
401.062	494.06
401.286	476.06
401.51	485.06
401.734	473.06
401.958	488.06
402.182	498.06
402.406	482.06
402.63	476.06
402.854	485.06
403.078	490.06
403.302	515.06
403.526	504.06
403.75	493.06
403.974	498.06
404.198	503.06
404.422	488.06
404.645	490.06
404.869	485.06
405.093	497.06
405.317	469.06
405.541	477.06
405.765	506.06
405.988	502.06
406.212	532.06
406.436	507.06
406.66	526.06
406.883	521.06
407.107	549.06
407.331	547.06
407.555	558.06
407.778	546.06
408.002	541.06
408.226	547.06
408.449	552.06
408.673	526.06
408.896	487.06
409.12	511.06
409.344	547.06
409.567	499.06
409.791	510.06
410.014	521.06
410.238	500.06
410.461	499.06
410.685	491.06
410.908	509.06
411.132	486.06
411.355	479.06
411.578	475.06
411.802	479.06
412.025	486.06
412.249	487.06
412.472	476.06
412.695	510.06
412.919	490.06
413.142	483.06
413.365	474.06
413.589	473.06
413.812	477.06
414.035	487.06
414.258	470.06
414.482	476.06
414.705	467.06
414.928	475.06
415.151	478.06
415.374	474.06
415.597	454.06
415.821	474.06
416.044	472.06
416.267	463.06
416.49	463.06
416.713	430.06
416.936	456.06
417.159	462.06
417.382	466.06
417.605	459.06
417.828	462.06
418.051	485.06
418.274	463.06
418.497	477.06
418.72	475.06
418.943	474.06
419.166	474.06
419.389	489.06
419.611	501.06
419.834	479.06
420.057	485.06
420.28	463.06
420.503	444.06
420.726	460.06
420.948	438.06
421.171	455.06
421.394	453.06
421.617	469.06
421.839	460.06
422.062	438.06
422.285	448.06
422.507	461.06
422.73	459.06
422.953	451.06
423.175	460.06
423.398	463.06
423.621	466.06
423.843	459.06
424.066	467.06
424.288	487.06
424.511	446.06
424.733	462.06
424.956	440.06
425.178	445.06
425.401	455.06
425.623	455.06
425.846	444.06
426.068	437.06
426.291	442.06
426.513	426.06
426.735	450.06
426.958	441.06
427.18	435.06
427.402	439.06
427.625	413.06
427.847	435.06
428.069	430.06
428.292	441.06
428.514	425.06
428.736	441.06
428.958	413.06
429.181	407.06
429.403	428.06
429.625	423.06
429.847	439.06
430.069	409.06
430.292	445.06
430.514	430.06
430.736	427.06
430.958	430.06
431.18	441.06
431.402	423.06
431.624	433.06
431.846	410.06
432.068	433.06
432.29	443.06
432.512	441.06
432.734	441.06
432.956	438.06
433.178	445.06
433.4	430.06
433.622	429.06
433.844	422.06
434.066	429.06
434.287	422.06
434.509	443.06
434.731	459.06
434.953	451.06
435.175	445.06
435.397	437.06
435.618	458.06
435.84	437.06
436.062	431.06
436.284	421.06
436.505	443.06
436.727	449.06
436.949	426.06
437.17	445.06
437.392	409.06
437.614	429.06
437.835	415.06
438.057	385.06
438.278	405.06
438.5	413.06
438.721	427.06
438.943	421.06
439.165	422.06
439.386	408.06
439.608	427.06
439.829	415.06
440.05	413.06
440.272	414.06
440.493	434.06
440.715	421.06
440.936	435.06
441.158	413.06
441.379	446.06
441.6	453.06
441.822	460.06
442.043	460.06
442.264	472.06
442.486	436.06
442.707	459.06
442.928	457.06
443.149	446.06
443.371	453.06
443.592	449.06
443.813	452.06
444.034	464.06
444.255	455.06
444.476	459.06
444.698	495.06
444.919	460.06
445.14	556.06
445.361	495.06
445.582	468.06
445.803	447.06
446.024	449.06
446.245	411.06
446.466	425.06
446.687	416.06
446.908	426.06
447.129	428.06
447.35	416.06
447.571	405.06
447.792	394.06
448.013	415.06
448.234	399.06
448.455	411.06
448.675	392.06
448.896	389.06
449.117	398.06
449.338	399.06
449.559	387.06
449.779	390.06
450	389.06
450.221	381.06
450.442	405.06
450.662	380.06
450.883	420.06
451.104	397.06
451.324	391.06
451.545	391.06
451.766	391.06
451.986	399.06
452.207	371.06
452.428	390.06
452.648	395.06
452.869	398.06
453.089	384.06
453.31	378.06
453.53	391.06
453.751	383.06
453.971	381.06
454.192	378.06
454.412	371.06
454.633	371.06
454.853	384.06
455.073	376.06
455.294	397.06
455.514	381.06
455.734	372.06
455.955	343.06
456.175	363.06
456.395	381.06
456.616	385.06
456.836	360.06
457.056	373.06
457.276	364.06
457.497	379.06
457.717	382.06
457.937	412.06
458.157	398.06
458.377	410.06
458.598	399.06
458.818	394.06
459.038	435.06
459.258	411.06
459.478	446.06
459.698	427.06
459.918	443.06
460.138	426.06
460.358	468.06
460.578	469.06
460.798	477.06
461.018	474.06
461.238	481.06
461.458	475.06
461.678	456.06
461.898	481.06
462.118	463.06
462.338	500.06
462.558	516.06
462.777	493.06
462.997	541.06
463.217	546.06
463.437	553.06
463.657	499.06
463.876	547.06
464.096	527.06
464.316	514.06
464.536	509.06
464.755	504.06
464.975	500.06
465.195	492.06
465.414	449.06
465.634	445.06
465.854	449.06
466.073	429.06
466.293	425.06
466.512	430.06
466.732	423.06
466.951	417.06
467.171	427.06
467.391	421.06
467.61	412.06
467.829	405.06
468.049	413.06
468.268	405.06
468.488	378.06
468.707	381.06
468.927	424.06
469.146	426.06
469.365	415.06
469.585	400.06
469.804	421.06
470.023	427.06
470.243	408.06
470.462	422.06
470.681	422.06
470.901	433.06
471.12	420.06
471.339	415.06
471.558	417.06
471.777	409.06
471.997	419.06
472.216	413.06
472.435	423.06
472.654	403.06
472.873	433.06
473.092	409.06
473.311	415.06
473.53	414.06
473.749	397.06
473.968	432.06
474.187	405.06
474.406	421.06
474.625	397.06
474.844	391.06
475.063	428.06
475.282	407.06
475.501	419.06
475.72	395.06
475.939	416.06
476.158	434.06
476.377	435.06
476.596	433.06
476.814	430.06
477.033	433.06
477.252	439.06
477.471	424.06
477.69	466.06
477.908	478.06
478.127	467.06
478.346	467.06
478.564	481.06
478.783	476.06
479.002	472.06
479.22	489.06
479.439	482.06
479.658	458.06
479.876	478.06
480.095	490.06
480.313	483.06
480.532	496.06
480.751	498.06
480.969	492.06
481.188	477.06
481.406	477.06
481.624	477.06
481.843	483.06
482.061	487.06
482.28	484.06
482.498	480.06
482.717	457.06
482.935	475.06
483.153	487.06
483.372	473.06
483.59	446.06
483.808	485.06
484.027	510.06
484.245	475.06
484.463	523.06
484.681	497.06
484.9	481.06
485.118	504.06
485.336	481.06
485.554	481.06
485.772	500.06
485.99	491.06
486.209	507.06
486.427	507.06
486.645	473.06
486.863	492.06
487.081	487.06
487.299	475.06
487.517	486.06
487.735	506.06
487.953	513.06
488.171	502.06
488.389	509.06
488.607	487.06
488.825	505.06
489.043	498.06
489.261	485.06
489.479	486.06
489.696	460.06
489.914	478.06
490.132	486.06
490.35	485.06
490.568	506.06
490.786	529.06
491.003	480.06
491.221	492.06
491.439	500.06
491.657	498.06
491.874	512.06
492.092	534.06
492.31	515.06
492.527	504.06
492.745	507.06
492.963	511.06
493.18	503.06
493.398	498.06
493.615	519.06
493.833	508.06
494.05	513.06
494.268	546.06
494.485	515.06
494.703	505.06
494.92	519.06
495.138	495.06
495.355	523.06
495.573	511.06
495.79	537.06
496.008	519.06
496.225	513.06
496.442	542.06
496.66	547.06
496.877	546.06
497.094	545.06
497.312	561.06
497.529	574.06
497.746	595.06
497.963	615.06
498.181	641.06
498.398	628.06
498.615	627.06
498.832	680.06
499.049	698.06
499.267	722.06
499.484	774.06
499.701	802.06
499.918	862.06
500.135	940.06
500.352	986.06
500.569	985.06
500.786	994.06
501.003	974.06
501.22	895.06
501.437	837.06
501.654	802.06
501.871	760.06
502.088	720.06
502.305	695.06
502.522	672.06
502.739	642.06
502.956	635.06
503.172	634.06
503.389	597.06
503.606	599.06
503.823	584.06
504.04	583.06
504.256	599.06
504.473	582.06
504.69	565.06
504.907	579.06
505.123	532.06
505.34	514.06
505.557	490.06
505.773	518.06
505.99	511.06
506.207	493.06
506.423	494.06
506.64	487.06
506.856	470.06
507.073	473.06
507.289	462.06
507.506	459.06
507.722	467.06
507.939	442.06
508.155	450.06
508.372	446.06
508.588	475.06
508.805	453.06
509.021	441.06
509.238	447.06
509.454	435.06
509.67	445.06
509.887	417.06
510.103	439.06
510.319	409.06
510.536	430.06
510.752	410.06
510.968	438.06
511.184	436.06
511.401	442.06
511.617	431.06
511.833	423.06
512.049	413.06
512.265	442.06
512.481	419.06
512.698	431.06
512.914	454.06
513.13	426.06
513.346	441.06
513.562	415.06
513.778	419.06
513.994	413.06
514.21	413.06
514.426	427.06
514.642	424.06
514.858	436.06
515.074	421.06
515.29	435.06
515.506	441.06
515.721	448.06
515.937	450.06
516.153	451.06
516.369	453.06
516.585	470.06
516.801	467.06
517.016	473.06
517.232	488.06
517.448	486.06
517.664	515.06
517.879	501.06
518.095	504.06
518.311	497.06
518.527	478.06
518.742	472.06
518.958	465.06
519.173	475.06
519.389	462.06
519.605	462.06
519.82	438.06
520.036	455.06
520.251	450.06
520.467	415.06
520.682	422.06
520.898	438.06
521.113	422.06
521.329	403.06
521.544	410.06
521.76	404.06
521.975	408.06
522.19	416.06
522.406	417.06
522.621	424.06
522.836	425.06
523.052	399.06
523.267	421.06
523.482	399.06
523.698	405.06
523.913	397.06
524.128	383.06
524.343	399.06
524.559	404.06
524.774	406.06
524.989	404.06
525.204	382.06
525.419	397.06
525.634	382.06
525.849	392.06
526.064	403.06
526.28	399.06
526.495	384.06
526.71	383.06
526.925	397.06
527.14	382.06
527.355	376.06
527.57	384.06
527.785	391.06
527.999	386.06
528.214	389.06
528.429	366.06
528.644	378.06
528.859	390.06
529.074	395.06
529.289	399.06
529.503	379.06
529.718	375.06
529.933	375.06
530.148	370.06
530.363	392.06
530.577	382.06
530.792	393.06
531.007	390.06
531.221	390.06
531.436	383.06
531.651	382.06
531.865	371.06
532.08	356.06
532.295	383.06
532.509	362.06
532.724	375.06
532.938	389.06
533.153	386.06
533.367	404.06
533.582	362.06
533.796	373.06
534.011	373.06
534.225	388.06
534.44	372.06
534.654	376.06
534.868	370.06
535.083	395.06
535.297	387.06
535.511	364.06
535.726	378.06
535.94	373.06
536.154	359.06
536.369	385.06
536.583	348.06
536.797	374.06
537.011	372.06
537.225	356.06
537.44	360.06
537.654	351.06
537.868	369.06
538.082	375.06
538.296	353.06
538.51	362.06
538.724	365.06
538.938	354.06
539.153	341.06
539.367	371.06
539.581	351.06
539.795	359.06
540.009	370.06
540.222	342.06
540.436	367.06
540.65	365.06
540.864	355.06
541.078	361.06
541.292	335.06
541.506	363.06
541.72	340.06
541.934	349.06
542.147	371.06
542.361	356.06
542.575	335.06
542.789	359.06
543.002	353.06
543.216	365.06
543.43	358.06
543.644	331.06
543.857	366.06
544.071	389.06
544.285	369.06
544.498	364.06
544.712	355.06
544.925	361.06
545.139	366.06
545.352	363.06
545.566	360.06
545.779	355.06
545.993	373.06
546.206	359.06
546.42	361.06
546.633	354.06
546.847	353.06
547.06	361.06
547.274	371.06
547.487	351.06
547.7	371.06
547.914	349.06
548.127	371.06
548.34	365.06
548.554	369.06
548.767	359.06
548.98	371.06
549.193	372.06
549.407	363.06
549.62	371.06
549.833	357.06
550.046	369.06
550.259	371.06
550.473	362.06
550.686	364.06
550.899	369.06
551.112	360.06
551.325	345.06
551.538	336.06
551.751	366.06
551.964	346.06
552.177	359.06
552.39	354.06
552.603	361.06
552.816	378.06
553.029	381.06
553.242	383.06
553.455	387.06
553.667	373.06
553.88	370.06
554.093	375.06
554.306	362.06
554.519	353.06
554.732	369.06
554.944	341.06
555.157	350.06
555.37	342.06
555.583	347.06
555.795	338.06
556.008	346.06
556.221	335.06
556.433	324.06
556.646	318.06
556.859	353.06
557.071	319.06
557.284	337.06
557.496	314.06
557.709	332.06
557.921	323.06
558.134	319.06
558.346	332.06
558.559	315.06
558.771	330.06
558.984	314.06
559.196	317.06
559.409	317.06
559.621	291.06
559.833	309.06
560.046	317.06
560.258	312.06
560.47	301.06
560.683	302.06
560.895	302.06
561.107	314.06
561.32	319.06
561.532	324.06
561.744	321.06
561.956	298.06
562.168	331.06
562.381	316.06
562.593	322.06
562.805	316.06
563.017	318.06
563.229	309.06
563.441	328.06
563.653	331.06
563.865	315.06
564.077	347.06
564.289	313.06
564.501	332.06
564.713	333.06
564.925	342.06
565.137	351.06
565.349	346.06
565.561	355.06
565.773	361.06
565.985	369.06
566.197	364.06
566.408	369.06
566.62	387.06
566.832	406.06
567.044	398.06
567.255	414.06
567.467	414.06
567.679	409.06
567.891	424.06
568.102	439.06
568.314	413.06
568.526	389.06
568.737	371.06
568.949	365.06
569.161	369.06
569.372	321.06
569.584	337.06
569.795	330.06
570.007	327.06
570.218	305.06
570.43	312.06
570.641	301.06
570.853	307.06
571.064	313.06
571.276	305.06
571.487	295.06
571.698	319.06
571.91	294.06
572.121	285.06
572.333	287.06
572.544	286.06
572.755	285.06
572.966	295.06
573.178	275.06
573.389	277.06
573.6	274.06
573.811	254.06
574.023	273.06
574.234	263.06
574.445	259.06
574.656	284.06
574.867	269.06
575.078	263.06
575.289	261.06
575.501	280.06
575.712	271.06
575.923	275.06
576.134	254.06
576.345	242.06
576.556	255.06
576.767	246.06
576.978	265.06
577.188	249.06
577.399	245.06
577.61	246.06
577.821	242.06
578.032	254.06
578.243	242.06
578.454	256.06
578.665	244.06
578.875	249.06
579.086	251.06
579.297	230.06
579.508	227.06
579.718	233.06
579.929	230.06
580.14	225.06
580.35	219.06
580.561	238.06
580.772	226.06
580.982	225.06
581.193	227.06
581.403	236.06
581.614	227.06
581.825	240.06
582.035	230.06
582.246	244.06
582.456	238.06
582.667	229.06
582.877	229.06
583.087	225.06
583.298	227.06
583.508	223.06
583.719	234.06
583.929	228.06
584.139	251.06
584.35	238.06
584.56	215.06
584.77	226.06
584.981	236.06
585.191	239.06
585.401	234.06
585.611	229.06
585.821	229.06
586.032	228.06
586.242	234.06
586.452	244.06
586.662	225.06
586.872	212.06
587.082	231.06
587.292	234.06
587.502	215.06
587.713	217.06
587.923	238.06
588.133	239.06
588.343	212.06
588.553	223.06
588.762	219.06
588.972	221.06
589.182	238.06
589.392	234.06
589.602	219.06
589.812	238.06
590.022	234.06
590.232	203.06
590.441	208.06
590.651	223.06
590.861	242.06
591.071	217.06
591.281	234.06
591.49	227.06
591.7	206.06
591.91	237.06
592.119	231.06
592.329	230.06
592.539	221.06
592.748	246.06
592.958	249.06
593.167	255.06
593.377	254.06
593.587	259.06
593.796	236.06
594.006	254.06
594.215	233.06
594.424	231.06
594.634	234.06
594.843	231.06
595.053	228.06
595.262	237.06
595.472	227.06
595.681	227.06
595.89	215.06
596.1	229.06
596.309	234.06
596.518	217.06
596.727	218.06
596.937	219.06
597.146	227.06
597.355	213.06
597.564	201.06
597.774	203.06
597.983	208.06
598.192	222.06
598.401	199.06
598.61	205.06
598.819	191.06
599.028	196.06
599.237	197.06
599.446	197.06
599.655	218.06
599.864	195.06
600.073	191.06
600.282	204.06
600.491	195.06
600.7	196.06
600.909	197.06
601.118	204.06
601.327	202.06
601.536	198.06
601.745	192.06
601.953	188.06
602.162	199.06
602.371	193.06
602.58	187.06
602.789	193.06
602.997	192.06
603.206	206.06
603.415	188.06
603.623	190.06
603.832	195.06
604.041	187.06
604.249	191.06
604.458	195.06
604.666	190.06
604.875	183.06
605.084	172.06
605.292	187.06
605.501	205.06
605.709	182.06
605.918	189.06
606.126	186.06
606.334	215.06
606.543	199.06
606.751	190.06
606.96	194.06
607.168	189.06
607.376	189.06
607.585	173.06
607.793	200.06
608.001	205.06
608.21	182.06
608.418	175.06
608.626	174.06
608.834	179.06
609.043	192.06
609.251	184.06
609.459	182.06
609.667	188.06
609.875	170.06
610.083	177.06
610.291	174.06
610.499	185.06
610.707	195.06
610.916	180.06
611.124	188.06
611.332	184.06
611.54	183.06
611.748	183.06
611.955	188.06
612.163	177.06
612.371	183.06
612.579	190.06
612.787	177.06
612.995	179.06
613.203	190.06
613.411	193.06
613.618	173.06
613.826	183.06
614.034	167.06
614.242	167.06
614.449	186.06
614.657	187.06
614.865	169.06
615.072	167.06
615.28	181.06
615.488	190.06
615.695	200.06
615.903	183.06
616.111	188.06
616.318	177.06
616.526	169.06
616.733	177.06
616.941	165.06
617.148	174.06
617.356	170.06
617.563	165.06
617.771	172.06
617.978	183.06
618.185	170.06
618.393	187.06
618.6	172.06
618.807	163.06
619.015	173.06
619.222	183.06
619.429	179.06
619.637	151.06
619.844	169.06
620.051	166.06
620.258	163.06
620.466	175.06
620.673	167.06
620.88	156.06
621.087	177.06
621.294	180.06
621.501	159.06
621.708	167.06
621.915	155.06
622.122	166.06
622.329	160.06
622.536	178.06
622.743	179.06
622.95	162.06
623.157	169.06
623.364	160.06
623.571	179.06
623.778	160.06
623.985	164.06
624.192	171.06
624.399	150.06
624.606	171.06
624.812	166.06
625.019	152.06
625.226	162.06
625.433	185.06
625.639	145.06
625.846	153.06
626.053	168.06
626.259	164.06
626.466	142.06
626.673	158.06
626.879	155.06
627.086	163.06
627.293	155.06
627.499	166.06
627.706	147.06
627.912	183.06
628.119	162.06
628.325	156.06
628.532	163.06
628.738	148.06
628.945	167.06
629.151	161.06
629.357	181.06
629.564	165.06
629.77	142.06
629.976	137.06
630.183	131.06
630.389	163.06
630.595	164.06
630.802	148.06
631.008	159.06
631.214	156.06
631.42	155.06
631.627	144.06
631.833	161.06
632.039	150.06
632.245	150.06
632.451	158.06
632.657	153.06
632.863	165.06
633.069	147.06
633.275	155.06
633.481	149.06
633.688	166.06
633.893	151.06
634.099	158.06
634.305	140.06
634.511	143.06
634.717	144.06
634.923	155.06
635.129	131.06
635.335	152.06
635.541	151.06
635.747	148.06
635.952	142.06
636.158	146.06
636.364	141.06
636.57	140.06
636.775	165.06
636.981	141.06
637.187	149.06
637.392	149.06
637.598	154.06
637.804	153.06
638.009	139.06
638.215	150.06
638.421	125.06
638.626	147.06
638.832	148.06
639.037	124.06
639.243	139.06
639.448	164.06
639.654	142.06
639.859	125.06
640.065	141.06
640.27	162.06
640.475	121.06
640.681	141.06
640.886	150.06
641.091	140.06
641.297	162.06
641.502	141.06
641.707	137.06
641.913	147.06
642.118	154.06
642.323	148.06
642.528	143.06
642.733	157.06
642.939	142.06
643.144	168.06
643.349	147.06
643.554	140.06
643.759	147.06
643.964	139.06
644.169	135.06
644.374	150.06
644.579	151.06
644.784	151.06
644.989	141.06
645.194	122.06
645.399	147.06
645.604	156.06
645.809	152.06
646.014	136.06
646.219	145.06
646.423	127.06
646.628	149.06
646.833	149.06
647.038	144.06
647.243	145.06
647.447	141.06
647.652	133.06
647.857	141.06
648.062	148.06
648.266	151.06
648.471	152.06
648.676	141.06
648.88	125.06
649.085	139.06
649.289	140.06
649.494	146.06
649.698	154.06
649.903	164.06
650.107	149.06
650.312	148.06
650.516	147.06
650.721	137.06
650.925	148.06
651.13	138.06
651.334	141.06
651.539	129.06
651.743	152.06
651.947	155.06
652.152	143.06
652.356	141.06
652.56	167.06
652.764	122.06
652.969	142.06
653.173	146.06
653.377	150.06
653.581	135.06
653.785	133.06
653.99	152.06
654.194	145.06
654.398	148.06
654.602	129.06
654.806	143.06
655.01	160.06
655.214	142.06
655.418	135.06
655.622	152.06
655.826	139.06
656.03	149.06
656.234	169.06
656.438	143.06
656.642	156.06
656.846	145.06
657.049	139.06
657.253	139.06
657.457	130.06
657.661	129.06
657.865	121.06
658.068	131.06
658.272	117.06
658.476	107.06
658.68	124.06
658.883	118.06
659.087	117.06
659.291	110.06
659.494	115.06
659.698	113.06
659.901	106.06
660.105	100.06
660.309	106.06
660.512	100.06
660.716	96.06
660.919	92.06
661.123	106.06
661.326	90.06
661.53	88.06
661.733	98.06
661.936	92.06
662.14	77.06
662.343	86.06
662.546	90.06
662.75	86.06
662.953	91.06
663.156	78.06
663.36	86.06
663.563	84.06
663.766	80.06
663.969	83.06
664.173	78.06
664.376	71.06
664.579	90.06
664.782	85.06
664.985	82.06
665.188	77.06
665.391	83.06
665.594	89.06
665.797	77.06
666	88.06
666.203	80.06
666.406	94.06
666.609	93.06
666.812	91.06
667.015	93.06
667.218	72.06
667.421	76.06
667.624	84.06
667.827	78.06
668.03	85.06
668.232	86.06
668.435	85.06
668.638	75.06
668.841	85.06
669.043	80.06
669.246	77.06
669.449	79.06
669.651	90.06
669.854	83.06
670.057	83.06
670.259	92.06
670.462	82.06
670.665	71.06
670.867	88.06
671.07	72.06
671.272	82.06
671.475	79.06
671.677	78.06
671.88	96.06
672.082	79.06
672.284	91.06
672.487	85.06
672.689	77.06
672.892	85.06
