Data from Fe(NO3)3@0.05M.TitratingCurve.Agarose3%dH2O.NegLispCup.LampEnergy10.LIBS07252019_HRD10591_16-46-38-334.txt Node
Date: Thu Jul 25 16:46:38 EDT 2019
User: cochatt
Spectrometer: HR+D1059
Trigger mode: 1
Integration Time (sec): 1.000000E-1
Scans to average: 1
Electric dark correction enabled: true
Nonlinearity correction enabled: false
Boxcar width: 0
XAxis mode: Wavelengths
Number of Pixels in Spectrum: 2048
>>>>>Begin Spectral Data<<<<<
223.165	-22.56
223.4	-22.56
223.635	-22.56
223.869	-3.56
224.104	-20.56
224.338	-12.56
224.573	-13.56
224.808	-5.56
225.042	-6.56
225.277	3.44
225.511	-8.56
225.746	0.44
225.98	-1.56
226.215	5.44
226.449	6.44
226.683	20.44
226.918	23.44
227.152	35.44
227.387	44.44
227.621	51.44
227.856	35.44
228.09	58.44
228.324	44.44
228.559	58.44
228.793	83.44
229.027	98.44
229.262	123.44
229.496	117.44
229.73	127.44
229.964	121.44
230.199	142.44
230.433	118.44
230.667	121.44
230.901	150.44
231.136	135.44
231.37	126.44
231.604	161.44
231.838	149.44
232.072	132.44
232.306	149.44
232.541	140.44
232.775	149.44
233.009	153.44
233.243	159.44
233.477	153.44
233.711	160.44
233.945	157.44
234.179	182.44
234.413	163.44
234.647	168.44
234.881	172.44
235.115	180.44
235.349	179.44
235.583	160.44
235.817	170.44
236.051	173.44
236.285	143.44
236.519	187.44
236.753	185.44
236.987	166.44
237.221	179.44
237.455	165.44
237.689	178.44
237.922	187.44
238.156	188.44
238.39	192.44
238.624	217.44
238.858	215.44
239.091	199.44
239.325	202.44
239.559	192.44
239.793	213.44
240.027	213.44
240.26	216.44
240.494	191.44
240.728	213.44
240.961	236.44
241.195	227.44
241.429	213.44
241.662	229.44
241.896	219.44
242.13	201.44
242.363	211.44
242.597	213.44
242.83	226.44
243.064	209.44
243.298	223.44
243.531	210.44
243.765	236.44
243.998	227.44
244.232	242.44
244.465	243.44
244.699	232.44
244.932	257.44
245.166	240.44
245.399	234.44
245.633	241.44
245.866	259.44
246.099	250.44
246.333	260.44
246.566	240.44
246.8	265.44
247.033	225.44
247.266	266.44
247.5	259.44
247.733	260.44
247.966	255.44
248.2	262.44
248.433	264.44
248.666	292.44
248.899	277.44
249.133	283.44
249.366	277.44
249.599	280.44
249.832	289.44
250.066	294.44
250.299	278.44
250.532	283.44
250.765	307.44
250.998	273.44
251.231	277.44
251.465	303.44
251.698	291.44
251.931	288.44
252.164	292.44
252.397	307.44
252.63	313.44
252.863	310.44
253.096	315.44
253.329	320.44
253.562	320.44
253.795	321.44
254.028	332.44
254.261	339.44
254.494	322.44
254.727	328.44
254.96	329.44
255.193	321.44
255.426	317.44
255.659	308.44
255.892	313.44
256.124	301.44
256.357	321.44
256.59	342.44
256.823	330.44
257.056	312.44
257.289	314.44
257.521	328.44
257.754	327.44
257.987	329.44
258.22	326.44
258.452	340.44
258.685	369.44
258.918	367.44
259.151	379.44
259.383	337.44
259.616	376.44
259.849	387.44
260.081	391.44
260.314	434.44
260.547	397.44
260.779	378.44
261.012	379.44
261.244	388.44
261.477	395.44
261.71	400.44
261.942	370.44
262.175	370.44
262.407	387.44
262.64	397.44
262.872	400.44
263.105	397.44
263.337	435.44
263.57	431.44
263.802	390.44
264.035	375.44
264.267	352.44
264.499	371.44
264.732	379.44
264.964	383.44
265.197	377.44
265.429	368.44
265.661	389.44
265.894	394.44
266.126	405.44
266.358	396.44
266.591	385.44
266.823	405.44
267.055	420.44
267.287	397.44
267.52	413.44
267.752	411.44
267.984	391.44
268.216	406.44
268.448	403.44
268.681	423.44
268.913	399.44
269.145	409.44
269.377	418.44
269.609	407.44
269.841	423.44
270.073	420.44
270.306	429.44
270.538	433.44
270.77	420.44
271.002	433.44
271.234	411.44
271.466	433.44
271.698	450.44
271.93	445.44
272.162	448.44
272.394	433.44
272.626	441.44
272.858	454.44
273.09	456.44
273.322	456.44
273.553	445.44
273.785	451.44
274.017	493.44
274.249	533.44
274.481	528.44
274.713	534.44
274.945	561.44
275.176	549.44
275.408	548.44
275.64	523.44
275.872	533.44
276.104	471.44
276.335	495.44
276.567	468.44
276.799	490.44
277.031	471.44
277.262	477.44
277.494	480.44
277.726	469.44
277.957	492.44
278.189	492.44
278.421	491.44
278.652	497.44
278.884	491.44
279.115	507.44
279.347	512.44
279.579	505.44
279.81	491.44
280.042	491.44
280.273	509.44
280.505	501.44
280.736	509.44
280.968	516.44
281.199	524.44
281.431	510.44
281.662	517.44
281.894	509.44
282.125	520.44
282.356	509.44
282.588	528.44
282.819	529.44
283.051	530.44
283.282	496.44
283.513	519.44
283.745	525.44
283.976	541.44
284.207	525.44
284.439	524.44
284.67	540.44
284.901	537.44
285.132	538.44
285.364	538.44
285.595	541.44
285.826	541.44
286.057	532.44
286.288	542.44
286.52	541.44
286.751	568.44
286.982	541.44
287.213	553.44
287.444	559.44
287.675	559.44
287.906	548.44
288.138	539.44
288.369	552.44
288.6	567.44
288.831	555.44
289.062	561.44
289.293	571.44
289.524	571.44
289.755	567.44
289.986	552.44
290.217	560.44
290.448	576.44
290.679	571.44
290.91	573.44
291.141	562.44
291.371	567.44
291.602	566.44
291.833	562.44
292.064	581.44
292.295	582.44
292.526	568.44
292.757	569.44
292.987	582.44
293.218	555.44
293.449	572.44
293.68	566.44
293.91	570.44
294.141	586.44
294.372	568.44
294.603	605.44
294.833	581.44
295.064	594.44
295.295	580.44
295.525	588.44
295.756	584.44
295.987	579.44
296.217	596.44
296.448	617.44
296.679	597.44
296.909	593.44
297.14	603.44
297.37	608.44
297.601	608.44
297.831	617.44
298.062	581.44
298.292	610.44
298.523	629.44
298.753	647.44
298.984	616.44
299.214	621.44
299.445	607.44
299.675	604.44
299.905	608.44
300.136	610.44
300.366	639.44
300.597	617.44
300.827	647.44
301.057	649.44
301.288	631.44
301.518	632.44
301.748	637.44
301.979	660.44
302.209	672.44
302.439	649.44
302.669	645.44
302.9	655.44
303.13	614.44
303.36	653.44
303.59	645.44
303.82	658.44
304.051	659.44
304.281	641.44
304.511	654.44
304.741	657.44
304.971	644.44
305.201	646.44
305.431	644.44
305.661	673.44
305.891	643.44
306.121	636.44
306.352	655.44
306.582	662.44
306.812	660.44
307.042	643.44
307.272	653.44
307.502	634.44
307.731	669.44
307.961	647.44
308.191	659.44
308.421	630.44
308.651	648.44
308.881	656.44
309.111	641.44
309.341	663.44
309.571	662.44
309.8	672.44
310.03	659.44
310.26	651.44
310.49	661.44
310.72	665.44
310.949	677.44
311.179	652.44
311.409	661.44
311.639	698.44
311.868	667.44
312.098	663.44
312.328	675.44
312.557	688.44
312.787	682.44
313.017	667.44
313.246	701.44
313.476	697.44
313.706	721.44
313.935	692.44
314.165	712.44
314.394	707.44
314.624	708.44
314.853	698.44
315.083	712.44
315.312	705.44
315.542	699.44
315.771	687.44
316.001	707.44
316.23	699.44
316.46	700.44
316.689	701.44
316.919	700.44
317.148	714.44
317.377	705.44
317.607	699.44
317.836	695.44
318.065	736.44
318.295	706.44
318.524	711.44
318.753	707.44
318.983	705.44
319.212	701.44
319.441	710.44
319.67	721.44
319.9	729.44
320.129	699.44
320.358	735.44
320.587	715.44
320.816	732.44
321.046	714.44
321.275	737.44
321.504	723.44
321.733	737.44
321.962	749.44
322.191	735.44
322.42	738.44
322.649	735.44
322.878	736.44
323.108	712.44
323.337	752.44
323.566	743.44
323.795	747.44
324.024	741.44
324.253	747.44
324.482	735.44
324.71	734.44
324.939	761.44
325.168	765.44
325.397	728.44
325.626	760.44
325.855	753.44
326.084	796.44
326.313	767.44
326.542	783.44
326.77	765.44
326.999	761.44
327.228	770.44
327.457	803.44
327.686	753.44
327.914	768.44
328.143	784.44
328.372	795.44
328.6	752.44
328.829	775.44
329.058	783.44
329.287	767.44
329.515	763.44
329.744	787.44
329.972	800.44
330.201	801.44
330.43	795.44
330.658	785.44
330.887	811.44
331.115	781.44
331.344	795.44
331.572	795.44
331.801	823.44
332.03	849.44
332.258	827.44
332.486	849.44
332.715	844.44
332.943	880.44
333.172	892.44
333.4	887.44
333.629	932.44
333.857	934.44
334.085	923.44
334.314	922.44
334.542	938.44
334.771	955.44
334.999	928.44
335.227	923.44
335.455	923.44
335.684	945.44
335.912	940.44
336.14	925.44
336.369	922.44
336.597	900.44
336.825	886.44
337.053	890.44
337.281	910.44
337.51	914.44
337.738	902.44
337.966	872.44
338.194	871.44
338.422	868.44
338.65	890.44
338.878	839.44
339.106	843.44
339.334	854.44
339.562	848.44
339.79	860.44
340.018	819.44
340.246	840.44
340.474	831.44
340.702	862.44
340.93	866.44
341.158	840.44
341.386	838.44
341.614	852.44
341.842	825.44
342.07	854.44
342.298	834.44
342.526	824.44
342.754	846.44
342.981	852.44
343.209	844.44
343.437	872.44
343.665	860.44
343.893	902.44
344.12	923.44
344.348	938.44
344.576	890.44
344.804	892.44
345.031	849.44
345.259	853.44
345.487	845.44
345.714	844.44
345.942	846.44
346.17	845.44
346.397	820.44
346.625	782.44
346.853	797.44
347.08	815.44
347.308	796.44
347.535	796.44
347.763	828.44
347.99	816.44
348.218	799.44
348.445	810.44
348.673	781.44
348.9	796.44
349.128	819.44
349.355	820.44
349.583	790.44
349.81	811.44
350.037	793.44
350.265	795.44
350.492	798.44
350.72	807.44
350.947	800.44
351.174	779.44
351.402	777.44
351.629	824.44
351.856	766.44
352.083	793.44
352.311	787.44
352.538	785.44
352.765	788.44
352.992	773.44
353.22	765.44
353.447	769.44
353.674	797.44
353.901	751.44
354.128	794.44
354.355	770.44
354.583	791.44
354.81	773.44
355.037	783.44
355.264	791.44
355.491	833.44
355.718	799.44
355.945	784.44
356.172	783.44
356.399	803.44
356.626	807.44
356.853	789.44
357.08	804.44
357.307	799.44
357.534	801.44
357.761	789.44
357.988	809.44
358.215	812.44
358.441	824.44
358.668	805.44
358.895	801.44
359.122	812.44
359.349	796.44
359.576	776.44
359.802	813.44
360.029	790.44
360.256	789.44
360.483	807.44
360.709	799.44
360.936	803.44
361.163	787.44
361.39	793.44
361.616	797.44
361.843	823.44
362.07	820.44
362.296	816.44
362.523	812.44
362.749	799.44
362.976	794.44
363.203	812.44
363.429	835.44
363.656	824.44
363.882	811.44
364.109	807.44
364.335	791.44
364.562	811.44
364.788	832.44
365.015	833.44
365.241	829.44
365.468	804.44
365.694	794.44
365.92	807.44
366.147	815.44
366.373	809.44
366.599	796.44
366.826	795.44
367.052	819.44
367.278	824.44
367.505	822.44
367.731	828.44
367.957	825.44
368.184	839.44
368.41	807.44
368.636	835.44
368.862	835.44
369.089	835.44
369.315	842.44
369.541	818.44
369.767	839.44
369.993	865.44
370.219	856.44
370.445	870.44
370.672	863.44
370.898	858.44
371.124	883.44
371.35	885.44
371.576	873.44
371.802	868.44
372.028	864.44
372.254	879.44
372.48	895.44
372.706	900.44
372.932	900.44
373.158	892.44
373.384	916.44
373.61	929.44
373.835	911.44
374.061	888.44
374.287	910.44
374.513	912.44
374.739	924.44
374.965	956.44
375.191	972.44
375.416	924.44
375.642	887.44
375.868	953.44
376.094	926.44
376.319	915.44
376.545	916.44
376.771	867.44
376.997	920.44
377.222	889.44
377.448	906.44
377.674	877.44
377.899	889.44
378.125	873.44
378.35	887.44
378.576	899.44
378.802	893.44
379.027	914.44
379.253	872.44
379.478	886.44
379.704	884.44
379.929	905.44
380.155	899.44
380.38	881.44
380.606	891.44
380.831	880.44
381.057	901.44
381.282	882.44
381.507	925.44
381.733	928.44
381.958	909.44
382.184	954.44
382.409	961.44
382.634	950.44
382.86	932.44
383.085	933.44
383.31	956.44
383.535	949.44
383.761	952.44
383.986	981.44
384.211	973.44
384.436	989.44
384.662	973.44
384.887	977.44
385.112	997.44
385.337	1001.44
385.562	1042.44
385.787	1043.44
386.013	1047.44
386.238	1049.44
386.463	1060.44
386.688	1051.44
386.913	1017.44
387.138	1029.44
387.363	1047.44
387.588	1063.44
387.813	1046.44
388.038	1060.44
388.263	1037.44
388.488	1059.44
388.713	1046.44
388.938	1060.44
389.163	1067.44
389.387	1083.44
389.612	1045.44
389.837	1078.44
390.062	1052.44
390.287	1058.44
390.512	1039.44
390.736	1051.44
390.961	1073.44
391.186	1064.44
391.411	1105.44
391.636	1107.44
391.86	1140.44
392.085	1143.44
392.31	1123.44
392.534	1141.44
392.759	1115.44
392.984	1092.44
393.208	1116.44
393.433	1137.44
393.658	1119.44
393.882	1143.44
394.107	1115.44
394.331	1091.44
394.556	1119.44
394.78	1132.44
395.005	1091.44
395.229	1138.44
395.454	1131.44
395.678	1119.44
395.903	1159.44
396.127	1184.44
396.352	1157.44
396.576	1162.44
396.801	1167.44
397.025	1135.44
397.249	1159.44
397.474	1185.44
397.698	1187.44
397.922	1203.44
398.147	1195.44
398.371	1208.44
398.595	1228.44
398.82	1289.44
399.044	1339.44
399.268	1405.44
399.492	1475.44
399.717	1505.44
399.941	1556.44
400.165	1527.44
400.389	1459.44
400.613	1432.44
400.837	1353.44
401.062	1343.44
401.286	1336.44
401.51	1308.44
401.734	1301.44
401.958	1349.44
402.182	1311.44
402.406	1285.44
402.63	1307.44
402.854	1296.44
403.078	1321.44
403.302	1292.44
403.526	1300.44
403.75	1313.44
403.974	1315.44
404.198	1317.44
404.422	1341.44
404.645	1341.44
404.869	1390.44
405.093	1349.44
405.317	1338.44
405.541	1355.44
405.765	1369.44
405.988	1367.44
406.212	1383.44
406.436	1388.44
406.66	1403.44
406.883	1393.44
407.107	1439.44
407.331	1501.44
407.555	1512.44
407.778	1485.44
408.002	1497.44
408.226	1475.44
408.449	1463.44
408.673	1418.44
408.896	1450.44
409.12	1438.44
409.344	1415.44
409.567	1384.44
409.791	1395.44
410.014	1379.44
410.238	1410.44
410.461	1397.44
410.685	1372.44
410.908	1361.44
411.132	1322.44
411.355	1299.44
411.578	1340.44
411.802	1347.44
412.025	1355.44
412.249	1323.44
412.472	1356.44
412.695	1322.44
412.919	1324.44
413.142	1332.44
413.365	1309.44
413.589	1305.44
413.812	1308.44
414.035	1305.44
414.258	1284.44
414.482	1335.44
414.705	1311.44
414.928	1308.44
415.151	1283.44
415.374	1285.44
415.597	1285.44
415.821	1283.44
416.044	1252.44
416.267	1276.44
416.49	1251.44
416.713	1242.44
416.936	1257.44
417.159	1227.44
417.382	1242.44
417.605	1207.44
417.828	1233.44
418.051	1243.44
418.274	1262.44
418.497	1226.44
418.72	1252.44
418.943	1254.44
419.166	1320.44
419.389	1397.44
419.611	1379.44
419.834	1345.44
420.057	1318.44
420.28	1266.44
420.503	1245.44
420.726	1219.44
420.948	1205.44
421.171	1266.44
421.394	1211.44
421.617	1224.44
421.839	1232.44
422.062	1251.44
422.285	1203.44
422.507	1242.44
422.73	1233.44
422.953	1229.44
423.175	1253.44
423.398	1249.44
423.621	1223.44
423.843	1255.44
424.066	1227.44
424.288	1229.44
424.511	1247.44
424.733	1208.44
424.956	1223.44
425.178	1224.44
425.401	1240.44
425.623	1233.44
425.846	1233.44
426.068	1184.44
426.291	1221.44
426.513	1205.44
426.735	1200.44
426.958	1211.44
427.18	1201.44
427.402	1203.44
427.625	1199.44
427.847	1174.44
428.069	1171.44
428.292	1185.44
428.514	1159.44
428.736	1162.44
428.958	1171.44
429.181	1173.44
429.403	1144.44
429.625	1159.44
429.847	1174.44
430.069	1169.44
430.292	1196.44
430.514	1165.44
430.736	1148.44
430.958	1207.44
431.18	1167.44
431.402	1177.44
431.624	1142.44
431.846	1163.44
432.068	1175.44
432.29	1181.44
432.512	1160.44
432.734	1167.44
432.956	1207.44
433.178	1199.44
433.4	1180.44
433.622	1166.44
433.844	1222.44
434.066	1173.44
434.287	1176.44
434.509	1174.44
434.731	1190.44
434.953	1248.44
435.175	1218.44
435.397	1250.44
435.618	1222.44
435.84	1223.44
436.062	1174.44
436.284	1188.44
436.505	1189.44
436.727	1151.44
436.949	1170.44
437.17	1153.44
437.392	1154.44
437.614	1191.44
437.835	1135.44
438.057	1140.44
438.278	1124.44
438.5	1149.44
438.721	1157.44
438.943	1135.44
439.165	1135.44
439.386	1163.44
439.608	1156.44
439.829	1184.44
440.05	1141.44
440.272	1157.44
440.493	1173.44
440.715	1162.44
440.936	1171.44
441.158	1201.44
441.379	1206.44
441.6	1248.44
441.822	1229.44
442.043	1251.44
442.264	1236.44
442.486	1211.44
442.707	1228.44
442.928	1226.44
443.149	1217.44
443.371	1205.44
443.592	1256.44
443.813	1238.44
444.034	1248.44
444.255	1283.44
444.476	1282.44
444.698	1292.44
444.919	1339.44
445.14	1399.44
445.361	1344.44
445.582	1289.44
445.803	1229.44
446.024	1169.44
446.245	1232.44
446.466	1199.44
446.687	1181.44
446.908	1161.44
447.129	1176.44
447.35	1124.44
447.571	1149.44
447.792	1093.44
448.013	1103.44
448.234	1107.44
448.455	1115.44
448.675	1121.44
448.896	1080.44
449.117	1093.44
449.338	1104.44
449.559	1062.44
449.779	1061.44
450	1036.44
450.221	1038.44
450.442	1063.44
450.662	1061.44
450.883	1078.44
451.104	1069.44
451.324	1060.44
451.545	1075.44
451.766	1073.44
451.986	1065.44
452.207	1073.44
452.428	1057.44
452.648	1034.44
452.869	1033.44
453.089	1007.44
453.31	1055.44
453.53	1040.44
453.751	1023.44
453.971	1056.44
454.192	1058.44
454.412	1017.44
454.633	1028.44
454.853	1031.44
455.073	1016.44
455.294	1039.44
455.514	1013.44
455.734	1030.44
455.955	1036.44
456.175	1007.44
456.395	991.44
456.616	992.44
456.836	1009.44
457.056	1023.44
457.276	1057.44
457.497	1062.44
457.717	1042.44
457.937	1055.44
458.157	1076.44
458.377	1057.44
458.598	1074.44
458.818	1081.44
459.038	1125.44
459.258	1139.44
459.478	1181.44
459.698	1152.44
459.918	1167.44
460.138	1180.44
460.358	1234.44
460.578	1220.44
460.798	1273.44
461.018	1266.44
461.238	1289.44
461.458	1290.44
461.678	1285.44
461.898	1300.44
462.118	1318.44
462.338	1376.44
462.558	1390.44
462.777	1391.44
462.997	1403.44
463.217	1474.44
463.437	1463.44
463.657	1494.44
463.876	1410.44
464.096	1400.44
464.316	1416.44
464.536	1417.44
464.755	1376.44
464.975	1328.44
465.195	1320.44
465.414	1230.44
465.634	1241.44
465.854	1247.44
466.073	1181.44
466.293	1175.44
466.512	1148.44
466.732	1150.44
466.951	1158.44
467.171	1139.44
467.391	1140.44
467.61	1109.44
467.829	1099.44
468.049	1127.44
468.268	1083.44
468.488	1099.44
468.707	1109.44
468.927	1129.44
469.146	1127.44
469.365	1108.44
469.585	1111.44
469.804	1097.44
470.023	1119.44
470.243	1128.44
470.462	1152.44
470.681	1156.44
470.901	1165.44
471.12	1163.44
471.339	1120.44
471.558	1116.44
471.777	1123.44
471.997	1130.44
472.216	1146.44
472.435	1119.44
472.654	1094.44
472.873	1103.44
473.092	1095.44
473.311	1108.44
473.53	1115.44
473.749	1084.44
473.968	1077.44
474.187	1094.44
474.406	1116.44
474.625	1115.44
474.844	1116.44
475.063	1095.44
475.282	1110.44
475.501	1135.44
475.72	1161.44
475.939	1154.44
476.158	1158.44
476.377	1167.44
476.596	1202.44
476.814	1208.44
477.033	1180.44
477.252	1196.44
477.471	1169.44
477.69	1211.44
477.908	1250.44
478.127	1265.44
478.346	1247.44
478.564	1284.44
478.783	1296.44
479.002	1299.44
479.22	1312.44
479.439	1362.44
479.658	1375.44
479.876	1364.44
480.095	1311.44
480.313	1372.44
480.532	1365.44
480.751	1348.44
480.969	1337.44
481.188	1335.44
481.406	1357.44
481.624	1312.44
481.843	1287.44
482.061	1307.44
482.28	1293.44
482.498	1317.44
482.717	1287.44
482.935	1304.44
483.153	1307.44
483.372	1312.44
483.59	1291.44
483.808	1285.44
484.027	1276.44
484.245	1303.44
484.463	1331.44
484.681	1318.44
484.9	1321.44
485.118	1343.44
485.336	1319.44
485.554	1319.44
485.772	1305.44
485.99	1320.44
486.209	1314.44
486.427	1337.44
486.645	1321.44
486.863	1394.44
487.081	1355.44
487.299	1350.44
487.517	1322.44
487.735	1376.44
487.953	1365.44
488.171	1377.44
488.389	1362.44
488.607	1361.44
488.825	1317.44
489.043	1313.44
489.261	1351.44
489.479	1338.44
489.696	1348.44
489.914	1330.44
490.132	1344.44
490.35	1319.44
490.568	1346.44
490.786	1327.44
491.003	1381.44
491.221	1384.44
491.439	1346.44
491.657	1354.44
491.874	1392.44
492.092	1379.44
492.31	1425.44
492.527	1395.44
492.745	1369.44
492.963	1391.44
493.18	1345.44
493.398	1381.44
493.615	1386.44
493.833	1407.44
494.05	1431.44
494.268	1389.44
494.485	1409.44
494.703	1374.44
494.92	1446.44
495.138	1425.44
495.355	1453.44
495.573	1437.44
495.79	1416.44
496.008	1471.44
496.225	1480.44
496.442	1451.44
496.66	1493.44
496.877	1490.44
497.094	1550.44
497.312	1549.44
497.529	1591.44
497.746	1612.44
497.963	1650.44
498.181	1701.44
498.398	1727.44
498.615	1821.44
498.832	1897.44
499.049	1997.44
499.267	1999.44
499.484	2117.44
499.701	2252.44
499.918	2405.44
500.135	2476.44
500.352	2617.44
500.569	2650.44
500.786	2719.44
501.003	2621.44
501.22	2561.44
501.437	2365.44
501.654	2202.44
501.871	2141.44
502.088	2027.44
502.305	1930.44
502.522	1863.44
502.739	1825.44
502.956	1708.44
503.172	1693.44
503.389	1666.44
503.606	1617.44
503.823	1605.44
504.04	1583.44
504.256	1549.44
504.473	1540.44
504.69	1555.44
504.907	1543.44
505.123	1459.44
505.34	1435.44
505.557	1407.44
505.773	1392.44
505.99	1388.44
506.207	1316.44
506.423	1331.44
506.64	1325.44
506.856	1263.44
507.073	1268.44
507.289	1243.44
507.506	1249.44
507.722	1281.44
507.939	1223.44
508.155	1203.44
508.372	1187.44
508.588	1183.44
508.805	1192.44
509.021	1193.44
509.238	1168.44
509.454	1154.44
509.67	1162.44
509.887	1177.44
510.103	1117.44
510.319	1147.44
510.536	1157.44
510.752	1124.44
510.968	1131.44
511.184	1080.44
511.401	1109.44
511.617	1121.44
511.833	1137.44
512.049	1109.44
512.265	1124.44
512.481	1137.44
512.698	1131.44
512.914	1123.44
513.13	1116.44
513.346	1139.44
513.562	1125.44
513.778	1123.44
513.994	1128.44
514.21	1120.44
514.426	1123.44
514.642	1130.44
514.858	1134.44
515.074	1151.44
515.29	1153.44
515.506	1149.44
515.721	1148.44
515.937	1171.44
516.153	1153.44
516.369	1221.44
516.585	1260.44
516.801	1235.44
517.016	1255.44
517.232	1309.44
517.448	1343.44
517.664	1319.44
517.879	1325.44
518.095	1268.44
518.311	1304.44
518.527	1305.44
518.742	1298.44
518.958	1235.44
519.173	1221.44
519.389	1221.44
519.605	1191.44
519.82	1160.44
520.036	1181.44
520.251	1188.44
520.467	1128.44
520.682	1112.44
520.898	1107.44
521.113	1112.44
521.329	1058.44
521.544	1087.44
521.76	1094.44
521.975	1038.44
522.19	1065.44
522.406	1033.44
522.621	1074.44
522.836	1077.44
523.052	1036.44
523.267	1026.44
523.482	1025.44
523.698	1039.44
523.913	1065.44
524.128	1041.44
524.343	1027.44
524.559	1036.44
524.774	1002.44
524.989	1005.44
525.204	1030.44
525.419	1007.44
525.634	1024.44
525.849	986.44
526.064	979.44
526.28	1017.44
526.495	1004.44
526.71	974.44
526.925	985.44
527.14	997.44
527.355	979.44
527.57	972.44
527.785	996.44
527.999	994.44
528.214	954.44
528.429	982.44
528.644	993.44
528.859	979.44
529.074	980.44
529.289	1000.44
529.503	984.44
529.718	935.44
529.933	947.44
530.148	943.44
530.363	981.44
530.577	966.44
530.792	977.44
531.007	962.44
531.221	979.44
531.436	930.44
531.651	962.44
531.865	975.44
532.08	965.44
532.295	963.44
532.509	988.44
532.724	964.44
532.938	954.44
533.153	939.44
533.367	967.44
533.582	927.44
533.796	960.44
534.011	963.44
534.225	919.44
534.44	943.44
534.654	908.44
534.868	916.44
535.083	932.44
535.297	923.44
535.511	915.44
535.726	928.44
535.94	937.44
536.154	886.44
536.369	908.44
536.583	900.44
536.797	898.44
537.011	925.44
537.225	914.44
537.44	920.44
537.654	922.44
537.868	900.44
538.082	871.44
538.296	884.44
538.51	897.44
538.724	893.44
538.938	859.44
539.153	895.44
539.367	897.44
539.581	885.44
539.795	897.44
540.009	872.44
540.222	893.44
540.436	879.44
540.65	853.44
540.864	881.44
541.078	863.44
541.292	868.44
541.506	897.44
541.72	874.44
541.934	895.44
542.147	877.44
542.361	881.44
542.575	885.44
542.789	853.44
543.002	872.44
543.216	860.44
543.43	882.44
543.644	879.44
543.857	867.44
544.071	857.44
544.285	875.44
544.498	863.44
544.712	842.44
544.925	874.44
545.139	866.44
545.352	881.44
545.566	895.44
545.779	884.44
545.993	895.44
546.206	884.44
546.42	895.44
546.633	860.44
546.847	879.44
547.06	889.44
547.274	887.44
547.487	889.44
547.7	878.44
547.914	906.44
548.127	899.44
548.34	889.44
548.554	881.44
548.767	910.44
548.98	868.44
549.193	905.44
549.407	875.44
549.62	885.44
549.833	890.44
550.046	902.44
550.259	883.44
550.473	867.44
550.686	880.44
550.899	874.44
551.112	890.44
551.325	897.44
551.538	882.44
551.751	882.44
551.964	885.44
552.177	873.44
552.39	903.44
552.603	891.44
552.816	887.44
553.029	918.44
553.242	904.44
553.455	895.44
553.667	873.44
553.88	893.44
554.093	869.44
554.306	851.44
554.519	854.44
554.732	847.44
554.944	861.44
555.157	825.44
555.37	836.44
555.583	816.44
555.795	825.44
556.008	780.44
556.221	795.44
556.433	775.44
556.646	784.44
556.859	796.44
557.071	772.44
557.284	785.44
557.496	771.44
557.709	757.44
557.921	753.44
558.134	769.44
558.346	730.44
558.559	767.44
558.771	739.44
558.984	741.44
559.196	740.44
559.409	743.44
559.621	727.44
559.833	762.44
560.046	723.44
560.258	724.44
560.47	728.44
560.683	749.44
560.895	740.44
561.107	732.44
561.32	731.44
561.532	730.44
561.744	714.44
561.956	729.44
562.168	737.44
562.381	743.44
562.593	751.44
562.805	769.44
563.017	757.44
563.229	732.44
563.441	716.44
563.653	772.44
563.865	749.44
564.077	779.44
564.289	769.44
564.501	780.44
564.713	795.44
564.925	777.44
565.137	793.44
565.349	820.44
565.561	819.44
565.773	840.44
565.985	847.44
566.197	874.44
566.408	916.44
566.62	949.44
566.832	977.44
567.044	979.44
567.255	965.44
567.467	983.44
567.679	1007.44
567.891	1027.44
568.102	1016.44
568.314	972.44
568.526	976.44
568.737	922.44
568.949	876.44
569.161	867.44
569.372	837.44
569.584	795.44
569.795	759.44
570.007	760.44
570.218	756.44
570.43	740.44
570.641	737.44
570.853	716.44
571.064	710.44
571.276	707.44
571.487	692.44
571.698	679.44
571.91	675.44
572.121	669.44
572.333	640.44
572.544	634.44
572.755	627.44
572.966	627.44
573.178	633.44
573.389	631.44
573.6	612.44
573.811	622.44
574.023	591.44
574.234	607.44
574.445	580.44
574.656	612.44
574.867	566.44
575.078	582.44
575.289	583.44
575.501	571.44
575.712	571.44
575.923	560.44
576.134	562.44
576.345	567.44
576.556	584.44
576.767	539.44
576.978	583.44
577.188	554.44
577.399	537.44
577.61	552.44
577.821	542.44
578.032	552.44
578.243	561.44
578.454	532.44
578.665	508.44
578.875	538.44
579.086	546.44
579.297	525.44
579.508	518.44
579.718	519.44
579.929	523.44
580.14	532.44
580.35	509.44
580.561	506.44
580.772	514.44
580.982	525.44
581.193	506.44
581.403	520.44
581.614	511.44
581.825	491.44
582.035	497.44
582.246	489.44
582.456	515.44
582.667	538.44
582.877	509.44
583.087	491.44
583.298	492.44
583.508	493.44
583.719	491.44
583.929	513.44
584.139	466.44
584.35	500.44
584.56	507.44
584.77	488.44
584.981	481.44
585.191	486.44
585.401	485.44
585.611	485.44
585.821	485.44
586.032	485.44
586.242	464.44
586.452	469.44
586.662	471.44
586.872	484.44
587.082	463.44
587.292	488.44
587.502	481.44
587.713	481.44
587.923	483.44
588.133	482.44
588.343	475.44
588.553	474.44
588.762	481.44
588.972	472.44
589.182	507.44
589.392	495.44
589.602	488.44
589.812	511.44
590.022	479.44
590.232	475.44
590.441	484.44
590.651	488.44
590.861	474.44
591.071	479.44
591.281	490.44
591.49	476.44
591.7	498.44
591.91	495.44
592.119	503.44
592.329	480.44
592.539	505.44
592.748	495.44
592.958	497.44
593.167	530.44
593.377	529.44
593.587	509.44
593.796	511.44
594.006	515.44
594.215	540.44
594.424	522.44
594.634	511.44
594.843	484.44
595.053	513.44
595.262	486.44
595.472	472.44
595.681	469.44
595.89	474.44
596.1	470.44
596.309	461.44
596.518	427.44
596.727	467.44
596.937	421.44
597.146	468.44
597.355	443.44
597.564	426.44
597.774	427.44
597.983	404.44
598.192	423.44
598.401	418.44
598.61	404.44
598.819	394.44
599.028	420.44
599.237	413.44
599.446	405.44
599.655	417.44
599.864	413.44
600.073	404.44
600.282	398.44
600.491	401.44
600.7	392.44
600.909	400.44
601.118	394.44
601.327	403.44
601.536	395.44
601.745	387.44
601.953	398.44
602.162	385.44
602.371	366.44
602.58	383.44
602.789	385.44
602.997	377.44
603.206	378.44
603.415	397.44
603.623	377.44
603.832	383.44
604.041	390.44
604.249	387.44
604.458	371.44
604.666	362.44
604.875	383.44
605.084	349.44
605.292	372.44
605.501	371.44
605.709	364.44
605.918	383.44
606.126	368.44
606.334	370.44
606.543	375.44
606.751	356.44
606.96	349.44
607.168	364.44
607.376	352.44
607.585	363.44
607.793	362.44
608.001	373.44
608.21	367.44
608.418	363.44
608.626	345.44
608.834	354.44
609.043	356.44
609.251	364.44
609.459	363.44
609.667	363.44
609.875	341.44
610.083	337.44
610.291	336.44
610.499	361.44
610.707	352.44
610.916	340.44
611.124	341.44
611.332	347.44
611.54	353.44
611.748	337.44
611.955	345.44
612.163	343.44
612.371	343.44
612.579	330.44
612.787	344.44
612.995	350.44
613.203	357.44
613.411	341.44
613.618	329.44
613.826	347.44
614.034	324.44
614.242	352.44
614.449	334.44
614.657	336.44
614.865	349.44
615.072	350.44
615.28	336.44
615.488	358.44
615.695	333.44
615.903	329.44
616.111	329.44
616.318	336.44
616.526	336.44
616.733	331.44
616.941	332.44
617.148	331.44
617.356	329.44
617.563	347.44
617.771	331.44
617.978	329.44
618.185	321.44
618.393	348.44
618.6	324.44
618.807	315.44
619.015	321.44
619.222	335.44
619.429	304.44
619.637	332.44
619.844	330.44
620.051	311.44
620.258	304.44
620.466	310.44
620.673	314.44
620.88	296.44
621.087	305.44
621.294	292.44
621.501	313.44
621.708	321.44
621.915	323.44
622.122	325.44
622.329	297.44
622.536	320.44
622.743	319.44
622.95	311.44
623.157	312.44
623.364	308.44
623.571	304.44
623.778	294.44
623.985	297.44
624.192	297.44
624.399	296.44
624.606	300.44
624.812	321.44
625.019	303.44
625.226	301.44
625.433	289.44
625.639	291.44
625.846	284.44
626.053	288.44
626.259	299.44
626.466	297.44
626.673	285.44
626.879	279.44
627.086	282.44
627.293	284.44
627.499	291.44
627.706	286.44
627.912	288.44
628.119	282.44
628.325	294.44
628.532	280.44
628.738	287.44
628.945	258.44
629.151	283.44
629.357	268.44
629.564	265.44
629.77	276.44
629.976	273.44
630.183	279.44
630.389	274.44
630.595	267.44
630.802	273.44
631.008	262.44
631.214	265.44
631.42	259.44
631.627	275.44
631.833	273.44
632.039	280.44
632.245	256.44
632.451	248.44
632.657	248.44
632.863	265.44
633.069	260.44
633.275	261.44
633.481	253.44
633.688	271.44
633.893	253.44
634.099	266.44
634.305	256.44
634.511	261.44
634.717	261.44
634.923	260.44
635.129	253.44
635.335	247.44
635.541	257.44
635.747	255.44
635.952	246.44
636.158	234.44
636.364	260.44
636.57	247.44
636.775	261.44
636.981	248.44
637.187	234.44
637.392	249.44
637.598	241.44
637.804	242.44
638.009	245.44
638.215	261.44
638.421	241.44
638.626	268.44
638.832	235.44
639.037	248.44
639.243	239.44
639.448	255.44
639.654	242.44
639.859	235.44
640.065	229.44
640.27	249.44
640.475	236.44
640.681	231.44
640.886	246.44
641.091	231.44
641.297	259.44
641.502	225.44
641.707	240.44
641.913	251.44
642.118	228.44
642.323	224.44
642.528	229.44
642.733	237.44
642.939	245.44
643.144	222.44
643.349	245.44
643.554	221.44
643.759	231.44
643.964	229.44
644.169	229.44
644.374	231.44
644.579	224.44
644.784	234.44
644.989	230.44
645.194	235.44
645.399	242.44
645.604	242.44
645.809	235.44
646.014	250.44
646.219	248.44
646.423	234.44
646.628	228.44
646.833	243.44
647.038	239.44
647.243	228.44
647.447	236.44
647.652	243.44
647.857	242.44
648.062	225.44
648.266	253.44
648.471	237.44
648.676	230.44
648.88	232.44
649.085	231.44
649.289	235.44
649.494	233.44
649.698	236.44
649.903	236.44
650.107	226.44
650.312	230.44
650.516	219.44
650.721	233.44
650.925	228.44
651.13	212.44
651.334	211.44
651.539	197.44
651.743	219.44
651.947	218.44
652.152	213.44
652.356	222.44
652.56	214.44
652.764	226.44
652.969	204.44
653.173	217.44
653.377	211.44
653.581	214.44
653.785	208.44
653.99	197.44
654.194	188.44
654.398	214.44
654.602	219.44
654.806	205.44
655.01	212.44
655.214	217.44
655.418	207.44
655.622	221.44
655.826	199.44
656.03	197.44
656.234	191.44
656.438	198.44
656.642	212.44
656.846	203.44
657.049	193.44
657.253	179.44
657.457	167.44
657.661	164.44
657.865	167.44
658.068	163.44
658.272	157.44
658.476	156.44
658.68	133.44
658.883	142.44
659.087	131.44
659.291	125.44
659.494	134.44
659.698	129.44
659.901	121.44
660.105	126.44
660.309	119.44
660.512	103.44
660.716	109.44
660.919	121.44
661.123	102.44
661.326	106.44
661.53	99.44
661.733	104.44
661.936	102.44
662.14	106.44
662.343	85.44
662.546	100.44
662.75	88.44
662.953	75.44
663.156	95.44
663.36	95.44
663.563	83.44
663.766	97.44
663.969	91.44
664.173	88.44
664.376	76.44
664.579	83.44
664.782	91.44
664.985	83.44
665.188	78.44
665.391	74.44
665.594	81.44
665.797	84.44
666	90.44
666.203	84.44
666.406	75.44
666.609	93.44
666.812	81.44
667.015	87.44
667.218	72.44
667.421	89.44
667.624	100.44
667.827	78.44
668.03	83.44
668.232	97.44
668.435	84.44
668.638	71.44
668.841	76.44
669.043	81.44
669.246	85.44
669.449	77.44
669.651	76.44
669.854	91.44
670.057	84.44
670.259	76.44
670.462	80.44
670.665	92.44
670.867	96.44
671.07	82.44
671.272	88.44
671.475	87.44
671.677	78.44
671.88	98.44
672.082	79.44
672.284	80.44
672.487	82.44
672.689	81.44
672.892	92.44
