Data from Fe(NO3)3@0.05M.TitratingCurve.Agarose3%dH2O.NegLispCup.LampEnergy10.LIBS07252019_HRD10591_16-45-41-334.txt Node
Date: Thu Jul 25 16:45:41 EDT 2019
User: cochatt
Spectrometer: HR+D1059
Trigger mode: 1
Integration Time (sec): 1.000000E-1
Scans to average: 1
Electric dark correction enabled: true
Nonlinearity correction enabled: false
Boxcar width: 0
XAxis mode: Wavelengths
Number of Pixels in Spectrum: 2048
>>>>>Begin Spectral Data<<<<<
223.165	-13.06
223.4	-13.06
223.635	-13.06
223.869	-12.06
224.104	-17.06
224.338	-21.06
224.573	-9.06
224.808	-11.06
225.042	-20.06
225.277	-5.06
225.511	-7.06
225.746	1.94
225.98	4.94
226.215	11.94
226.449	10.94
226.683	22.94
226.918	32.94
227.152	29.94
227.387	35.94
227.621	50.94
227.856	40.94
228.09	55.94
228.324	47.94
228.559	63.94
228.793	79.94
229.027	127.94
229.262	120.94
229.496	131.94
229.73	141.94
229.964	149.94
230.199	164.94
230.433	155.94
230.667	156.94
230.901	155.94
231.136	170.94
231.37	166.94
231.604	143.94
231.838	160.94
232.072	158.94
232.306	164.94
232.541	162.94
232.775	167.94
233.009	170.94
233.243	185.94
233.477	192.94
233.711	180.94
233.945	193.94
234.179	194.94
234.413	195.94
234.647	202.94
234.881	213.94
235.115	196.94
235.349	217.94
235.583	199.94
235.817	189.94
236.051	185.94
236.285	202.94
236.519	223.94
236.753	218.94
236.987	218.94
237.221	193.94
237.455	204.94
237.689	220.94
237.922	214.94
238.156	231.94
238.39	268.94
238.624	295.94
238.858	273.94
239.091	246.94
239.325	235.94
239.559	250.94
239.793	274.94
240.027	313.94
240.26	268.94
240.494	263.94
240.728	281.94
240.961	305.94
241.195	274.94
241.429	283.94
241.662	274.94
241.896	268.94
242.13	280.94
242.363	243.94
242.597	236.94
242.83	266.94
243.064	266.94
243.298	263.94
243.531	286.94
243.765	282.94
243.998	296.94
244.232	283.94
244.465	288.94
244.699	272.94
244.932	302.94
245.166	299.94
245.399	268.94
245.633	280.94
245.866	283.94
246.099	299.94
246.333	305.94
246.566	306.94
246.8	315.94
247.033	345.94
247.266	303.94
247.5	319.94
247.733	326.94
247.966	310.94
248.2	316.94
248.433	341.94
248.666	357.94
248.899	340.94
249.133	360.94
249.366	361.94
249.599	385.94
249.832	389.94
250.066	351.94
250.299	352.94
250.532	360.94
250.765	345.94
250.998	326.94
251.231	347.94
251.465	352.94
251.698	379.94
251.931	344.94
252.164	364.94
252.397	377.94
252.63	397.94
252.863	418.94
253.096	428.94
253.329	417.94
253.562	426.94
253.795	432.94
254.028	440.94
254.261	465.94
254.494	430.94
254.727	384.94
254.96	415.94
255.193	420.94
255.426	419.94
255.659	383.94
255.892	391.94
256.124	391.94
256.357	382.94
256.59	454.94
256.823	433.94
257.056	415.94
257.289	396.94
257.521	402.94
257.754	418.94
257.987	438.94
258.22	409.94
258.452	414.94
258.685	448.94
258.918	486.94
259.151	446.94
259.383	452.94
259.616	463.94
259.849	496.94
260.081	606.94
260.314	663.94
260.547	535.94
260.779	471.94
261.012	533.94
261.244	544.94
261.477	524.94
261.71	522.94
261.942	500.94
262.175	475.94
262.407	466.94
262.64	462.94
262.872	508.94
263.105	554.94
263.337	583.94
263.57	568.94
263.802	471.94
264.035	456.94
264.267	418.94
264.499	432.94
264.732	434.94
264.964	446.94
265.197	446.94
265.429	443.94
265.661	443.94
265.894	451.94
266.126	466.94
266.358	435.94
266.591	460.94
266.823	490.94
267.055	471.94
267.287	482.94
267.52	469.94
267.752	458.94
267.984	459.94
268.216	467.94
268.448	475.94
268.681	467.94
268.913	468.94
269.145	475.94
269.377	472.94
269.609	496.94
269.841	499.94
270.073	490.94
270.306	491.94
270.538	489.94
270.77	497.94
271.002	522.94
271.234	497.94
271.466	527.94
271.698	527.94
271.93	552.94
272.162	535.94
272.394	536.94
272.626	544.94
272.858	551.94
273.09	568.94
273.322	564.94
273.553	569.94
273.785	588.94
274.017	630.94
274.249	701.94
274.481	696.94
274.713	733.94
274.945	827.94
275.176	871.94
275.408	766.94
275.64	723.94
275.872	742.94
276.104	678.94
276.335	586.94
276.567	580.94
276.799	598.94
277.031	586.94
277.262	572.94
277.494	564.94
277.726	577.94
277.957	576.94
278.189	595.94
278.421	579.94
278.652	588.94
278.884	584.94
279.115	577.94
279.347	579.94
279.579	573.94
279.81	588.94
280.042	570.94
280.273	584.94
280.505	572.94
280.736	579.94
280.968	571.94
281.199	581.94
281.431	573.94
281.662	592.94
281.894	574.94
282.125	583.94
282.356	619.94
282.588	592.94
282.819	605.94
283.051	614.94
283.282	602.94
283.513	596.94
283.745	618.94
283.976	646.94
284.207	610.94
284.439	626.94
284.67	630.94
284.901	622.94
285.132	632.94
285.364	624.94
285.595	619.94
285.826	640.94
286.057	640.94
286.288	607.94
286.52	626.94
286.751	660.94
286.982	642.94
287.213	666.94
287.444	640.94
287.675	659.94
287.906	673.94
288.138	635.94
288.369	641.94
288.6	651.94
288.831	651.94
289.062	632.94
289.293	638.94
289.524	642.94
289.755	619.94
289.986	653.94
290.217	650.94
290.448	645.94
290.679	645.94
290.91	656.94
291.141	648.94
291.371	634.94
291.602	638.94
291.833	660.94
292.064	662.94
292.295	619.94
292.526	648.94
292.757	638.94
292.987	664.94
293.218	638.94
293.449	667.94
293.68	638.94
293.91	681.94
294.141	655.94
294.372	679.94
294.603	674.94
294.833	673.94
295.064	708.94
295.295	684.94
295.525	676.94
295.756	669.94
295.987	663.94
296.217	678.94
296.448	673.94
296.679	681.94
296.909	694.94
297.14	675.94
297.37	690.94
297.601	672.94
297.831	692.94
298.062	729.94
298.292	691.94
298.523	736.94
298.753	733.94
298.984	703.94
299.214	704.94
299.445	709.94
299.675	687.94
299.905	706.94
300.136	727.94
300.366	732.94
300.597	705.94
300.827	725.94
301.057	727.94
301.288	745.94
301.518	745.94
301.748	735.94
301.979	765.94
302.209	760.94
302.439	776.94
302.669	740.94
302.9	743.94
303.13	718.94
303.36	740.94
303.59	753.94
303.82	740.94
304.051	751.94
304.281	771.94
304.511	747.94
304.741	737.94
304.971	746.94
305.201	762.94
305.431	760.94
305.661	768.94
305.891	768.94
306.121	778.94
306.352	763.94
306.582	753.94
306.812	762.94
307.042	743.94
307.272	745.94
307.502	736.94
307.731	752.94
307.961	736.94
308.191	754.94
308.421	770.94
308.651	736.94
308.881	742.94
309.111	776.94
309.341	767.94
309.571	759.94
309.8	756.94
310.03	783.94
310.26	766.94
310.49	767.94
310.72	773.94
310.949	762.94
311.179	770.94
311.409	785.94
311.639	784.94
311.868	738.94
312.098	778.94
312.328	757.94
312.557	777.94
312.787	794.94
313.017	773.94
313.246	827.94
313.476	809.94
313.706	808.94
313.935	810.94
314.165	803.94
314.394	834.94
314.624	800.94
314.853	801.94
315.083	789.94
315.312	827.94
315.542	825.94
315.771	795.94
316.001	804.94
316.23	817.94
316.46	819.94
316.689	814.94
316.919	804.94
317.148	820.94
317.377	844.94
317.607	828.94
317.836	803.94
318.065	830.94
318.295	841.94
318.524	820.94
318.753	818.94
318.983	814.94
319.212	806.94
319.441	844.94
319.67	819.94
319.9	819.94
320.129	840.94
320.358	831.94
320.587	823.94
320.816	846.94
321.046	832.94
321.275	831.94
321.504	891.94
321.733	869.94
321.962	855.94
322.191	830.94
322.42	861.94
322.649	851.94
322.878	866.94
323.108	851.94
323.337	888.94
323.566	875.94
323.795	848.94
324.024	881.94
324.253	867.94
324.482	852.94
324.71	887.94
324.939	871.94
325.168	893.94
325.397	858.94
325.626	884.94
325.855	871.94
326.084	891.94
326.313	888.94
326.542	901.94
326.77	884.94
326.999	894.94
327.228	867.94
327.457	896.94
327.686	906.94
327.914	884.94
328.143	915.94
328.372	865.94
328.6	889.94
328.829	878.94
329.058	888.94
329.287	881.94
329.515	910.94
329.744	930.94
329.972	891.94
330.201	920.94
330.43	897.94
330.658	906.94
330.887	900.94
331.115	931.94
331.344	948.94
331.572	940.94
331.801	950.94
332.03	950.94
332.258	933.94
332.486	952.94
332.715	966.94
332.943	988.94
333.172	1007.94
333.4	990.94
333.629	1006.94
333.857	1055.94
334.085	1054.94
334.314	1042.94
334.542	1037.94
334.771	1030.94
334.999	1010.94
335.227	994.94
335.455	1011.94
335.684	1043.94
335.912	1035.94
336.14	1019.94
336.369	1027.94
336.597	1016.94
336.825	1010.94
337.053	1005.94
337.281	1023.94
337.51	987.94
337.738	990.94
337.966	987.94
338.194	1016.94
338.422	996.94
338.65	981.94
338.878	980.94
339.106	968.94
339.334	985.94
339.562	993.94
339.79	967.94
340.018	986.94
340.246	978.94
340.474	980.94
340.702	976.94
340.93	991.94
341.158	974.94
341.386	975.94
341.614	966.94
341.842	978.94
342.07	956.94
342.298	948.94
342.526	956.94
342.754	956.94
342.981	946.94
343.209	976.94
343.437	981.94
343.665	999.94
343.893	1027.94
344.12	1061.94
344.348	1056.94
344.576	1042.94
344.804	994.94
345.031	998.94
345.259	975.94
345.487	982.94
345.714	950.94
345.942	952.94
346.17	965.94
346.397	968.94
346.625	937.94
346.853	926.94
347.08	912.94
347.308	926.94
347.535	956.94
347.763	938.94
347.99	927.94
348.218	920.94
348.445	901.94
348.673	899.94
348.9	912.94
349.128	909.94
349.355	906.94
349.583	954.94
349.81	921.94
350.037	915.94
350.265	872.94
350.492	906.94
350.72	937.94
350.947	931.94
351.174	899.94
351.402	889.94
351.629	895.94
351.856	902.94
352.083	901.94
352.311	904.94
352.538	881.94
352.765	900.94
352.992	909.94
353.22	930.94
353.447	900.94
353.674	915.94
353.901	922.94
354.128	943.94
354.355	895.94
354.583	874.94
354.81	890.94
355.037	921.94
355.264	904.94
355.491	904.94
355.718	937.94
355.945	908.94
356.172	940.94
356.399	935.94
356.626	934.94
356.853	962.94
357.08	974.94
357.307	964.94
357.534	979.94
357.761	916.94
357.988	924.94
358.215	968.94
358.441	980.94
358.668	935.94
358.895	939.94
359.122	909.94
359.349	911.94
359.576	904.94
359.802	919.94
360.029	919.94
360.256	915.94
360.483	916.94
360.709	976.94
360.936	966.94
361.163	937.94
361.39	939.94
361.616	935.94
361.843	938.94
362.07	957.94
362.296	959.94
362.523	947.94
362.749	906.94
362.976	957.94
363.203	955.94
363.429	952.94
363.656	951.94
363.882	936.94
364.109	944.94
364.335	929.94
364.562	918.94
364.788	952.94
365.015	971.94
365.241	942.94
365.468	951.94
365.694	929.94
365.92	919.94
366.147	947.94
366.373	933.94
366.599	957.94
366.826	937.94
367.052	958.94
367.278	947.94
367.505	934.94
367.731	961.94
367.957	947.94
368.184	999.94
368.41	978.94
368.636	958.94
368.862	992.94
369.089	969.94
369.315	961.94
369.541	961.94
369.767	996.94
369.993	961.94
370.219	995.94
370.445	977.94
370.672	1014.94
370.898	1000.94
371.124	1040.94
371.35	1053.94
371.576	1016.94
371.802	1027.94
372.028	1043.94
372.254	1088.94
372.48	1060.94
372.706	1017.94
372.932	1041.94
373.158	1038.94
373.384	1065.94
373.61	1094.94
373.835	1130.94
374.061	1056.94
374.287	1044.94
374.513	1087.94
374.739	1090.94
374.965	1137.94
375.191	1111.94
375.416	1091.94
375.642	1037.94
375.868	1072.94
376.094	1078.94
376.319	1052.94
376.545	1086.94
376.771	1060.94
376.997	1046.94
377.222	1022.94
377.448	1021.94
377.674	983.94
377.899	986.94
378.125	1003.94
378.35	1008.94
378.576	1028.94
378.802	1024.94
379.027	1049.94
379.253	1042.94
379.478	1014.94
379.704	1012.94
379.929	1018.94
380.155	1032.94
380.38	1019.94
380.606	1048.94
380.831	1011.94
381.057	1068.94
381.282	1088.94
381.507	1056.94
381.733	1099.94
381.958	1108.94
382.184	1102.94
382.409	1106.94
382.634	1103.94
382.86	1115.94
383.085	1104.94
383.31	1113.94
383.535	1114.94
383.761	1082.94
383.986	1124.94
384.211	1137.94
384.436	1139.94
384.662	1159.94
384.887	1120.94
385.112	1123.94
385.337	1145.94
385.562	1158.94
385.787	1174.94
386.013	1204.94
386.238	1206.94
386.463	1170.94
386.688	1168.94
386.913	1182.94
387.138	1200.94
387.363	1205.94
387.588	1200.94
387.813	1218.94
388.038	1193.94
388.263	1206.94
388.488	1208.94
388.713	1220.94
388.938	1229.94
389.163	1184.94
389.387	1208.94
389.612	1190.94
389.837	1180.94
390.062	1211.94
390.287	1228.94
390.512	1232.94
390.736	1235.94
390.961	1241.94
391.186	1220.94
391.411	1244.94
391.636	1242.94
391.86	1257.94
392.085	1257.94
392.31	1278.94
392.534	1270.94
392.759	1268.94
392.984	1266.94
393.208	1244.94
393.433	1280.94
393.658	1272.94
393.882	1241.94
394.107	1255.94
394.331	1258.94
394.556	1258.94
394.78	1258.94
395.005	1283.94
395.229	1260.94
395.454	1262.94
395.678	1299.94
395.903	1287.94
396.127	1315.94
396.352	1282.94
396.576	1296.94
396.801	1278.94
397.025	1346.94
397.249	1304.94
397.474	1356.94
397.698	1316.94
397.922	1356.94
398.147	1356.94
398.371	1376.94
398.595	1379.94
398.82	1386.94
399.044	1463.94
399.268	1518.94
399.492	1570.94
399.717	1608.94
399.941	1673.94
400.165	1616.94
400.389	1604.94
400.613	1574.94
400.837	1510.94
401.062	1458.94
401.286	1453.94
401.51	1452.94
401.734	1437.94
401.958	1428.94
402.182	1481.94
402.406	1446.94
402.63	1417.94
402.854	1440.94
403.078	1441.94
403.302	1456.94
403.526	1469.94
403.75	1444.94
403.974	1454.94
404.198	1458.94
404.422	1480.94
404.645	1478.94
404.869	1489.94
405.093	1444.94
405.317	1464.94
405.541	1467.94
405.765	1496.94
405.988	1512.94
406.212	1510.94
406.436	1545.94
406.66	1586.94
406.883	1556.94
407.107	1582.94
407.331	1638.94
407.555	1655.94
407.778	1639.94
408.002	1652.94
408.226	1643.94
408.449	1626.94
408.673	1573.94
408.896	1569.94
409.12	1586.94
409.344	1539.94
409.567	1525.94
409.791	1548.94
410.014	1502.94
410.238	1522.94
410.461	1521.94
410.685	1530.94
410.908	1495.94
411.132	1488.94
411.355	1460.94
411.578	1478.94
411.802	1452.94
412.025	1524.94
412.249	1512.94
412.472	1489.94
412.695	1473.94
412.919	1458.94
413.142	1462.94
413.365	1476.94
413.589	1470.94
413.812	1455.94
414.035	1456.94
414.258	1437.94
414.482	1420.94
414.705	1497.94
414.928	1422.94
415.151	1450.94
415.374	1434.94
415.597	1455.94
415.821	1430.94
416.044	1404.94
416.267	1410.94
416.49	1427.94
416.713	1409.94
416.936	1410.94
417.159	1375.94
417.382	1423.94
417.605	1387.94
417.828	1370.94
418.051	1400.94
418.274	1421.94
418.497	1382.94
418.72	1406.94
418.943	1395.94
419.166	1441.94
419.389	1561.94
419.611	1528.94
419.834	1481.94
420.057	1450.94
420.28	1394.94
420.503	1377.94
420.726	1355.94
420.948	1356.94
421.171	1351.94
421.394	1345.94
421.617	1371.94
421.839	1382.94
422.062	1378.94
422.285	1361.94
422.507	1378.94
422.73	1365.94
422.953	1381.94
423.175	1401.94
423.398	1409.94
423.621	1389.94
423.843	1387.94
424.066	1383.94
424.288	1386.94
424.511	1377.94
424.733	1376.94
424.956	1358.94
425.178	1378.94
425.401	1395.94
425.623	1370.94
425.846	1378.94
426.068	1354.94
426.291	1385.94
426.513	1391.94
426.735	1365.94
426.958	1349.94
427.18	1364.94
427.402	1361.94
427.625	1367.94
427.847	1306.94
428.069	1306.94
428.292	1379.94
428.514	1326.94
428.736	1338.94
428.958	1336.94
429.181	1305.94
429.403	1327.94
429.625	1326.94
429.847	1288.94
430.069	1323.94
430.292	1339.94
430.514	1299.94
430.736	1337.94
430.958	1346.94
431.18	1335.94
431.402	1327.94
431.624	1292.94
431.846	1304.94
432.068	1322.94
432.29	1337.94
432.512	1282.94
432.734	1361.94
432.956	1332.94
433.178	1352.94
433.4	1346.94
433.622	1366.94
433.844	1371.94
434.066	1352.94
434.287	1334.94
434.509	1347.94
434.731	1359.94
434.953	1402.94
435.175	1400.94
435.397	1399.94
435.618	1374.94
435.84	1389.94
436.062	1339.94
436.284	1359.94
436.505	1333.94
436.727	1331.94
436.949	1303.94
437.17	1321.94
437.392	1291.94
437.614	1295.94
437.835	1275.94
438.057	1277.94
438.278	1284.94
438.5	1317.94
438.721	1328.94
438.943	1298.94
439.165	1283.94
439.386	1296.94
439.608	1315.94
439.829	1315.94
440.05	1301.94
440.272	1279.94
440.493	1318.94
440.715	1332.94
440.936	1348.94
441.158	1347.94
441.379	1352.94
441.6	1412.94
441.822	1390.94
442.043	1388.94
442.264	1390.94
442.486	1366.94
442.707	1357.94
442.928	1379.94
443.149	1390.94
443.371	1376.94
443.592	1377.94
443.813	1352.94
444.034	1370.94
444.255	1402.94
444.476	1413.94
444.698	1442.94
444.919	1470.94
445.14	1507.94
445.361	1487.94
445.582	1400.94
445.803	1364.94
446.024	1335.94
446.245	1324.94
446.466	1338.94
446.687	1303.94
446.908	1294.94
447.129	1291.94
447.35	1308.94
447.571	1280.94
447.792	1275.94
448.013	1271.94
448.234	1244.94
448.455	1251.94
448.675	1262.94
448.896	1208.94
449.117	1219.94
449.338	1234.94
449.559	1210.94
449.779	1204.94
450	1231.94
450.221	1218.94
450.442	1191.94
450.662	1188.94
450.883	1219.94
451.104	1242.94
451.324	1178.94
451.545	1176.94
451.766	1219.94
451.986	1191.94
452.207	1183.94
452.428	1183.94
452.648	1172.94
452.869	1165.94
453.089	1178.94
453.31	1152.94
453.53	1170.94
453.751	1154.94
453.971	1162.94
454.192	1141.94
454.412	1155.94
454.633	1153.94
454.853	1184.94
455.073	1139.94
455.294	1136.94
455.514	1154.94
455.734	1185.94
455.955	1138.94
456.175	1127.94
456.395	1150.94
456.616	1164.94
456.836	1154.94
457.056	1161.94
457.276	1160.94
457.497	1172.94
457.717	1188.94
457.937	1155.94
458.157	1185.94
458.377	1194.94
458.598	1228.94
458.818	1223.94
459.038	1264.94
459.258	1255.94
459.478	1294.94
459.698	1320.94
459.918	1305.94
460.138	1338.94
460.358	1384.94
460.578	1377.94
460.798	1412.94
461.018	1410.94
461.238	1423.94
461.458	1429.94
461.678	1413.94
461.898	1460.94
462.118	1410.94
462.338	1452.94
462.558	1534.94
462.777	1532.94
462.997	1570.94
463.217	1576.94
463.437	1579.94
463.657	1575.94
463.876	1554.94
464.096	1558.94
464.316	1530.94
464.536	1505.94
464.755	1510.94
464.975	1484.94
465.195	1431.94
465.414	1422.94
465.634	1369.94
465.854	1386.94
466.073	1372.94
466.293	1355.94
466.512	1324.94
466.732	1335.94
466.951	1347.94
467.171	1265.94
467.391	1289.94
467.61	1282.94
467.829	1284.94
468.049	1323.94
468.268	1257.94
468.488	1272.94
468.707	1288.94
468.927	1303.94
469.146	1310.94
469.365	1254.94
469.585	1269.94
469.804	1327.94
470.023	1336.94
470.243	1304.94
470.462	1317.94
470.681	1299.94
470.901	1288.94
471.12	1304.94
471.339	1303.94
471.558	1262.94
471.777	1292.94
471.997	1314.94
472.216	1332.94
472.435	1292.94
472.654	1266.94
472.873	1289.94
473.092	1286.94
473.311	1293.94
473.53	1293.94
473.749	1283.94
473.968	1272.94
474.187	1294.94
474.406	1271.94
474.625	1291.94
474.844	1343.94
475.063	1338.94
475.282	1329.94
475.501	1343.94
475.72	1303.94
475.939	1354.94
476.158	1406.94
476.377	1395.94
476.596	1477.94
476.814	1512.94
477.033	1408.94
477.252	1403.94
477.471	1412.94
477.69	1401.94
477.908	1472.94
478.127	1490.94
478.346	1478.94
478.564	1460.94
478.783	1484.94
479.002	1527.94
479.22	1583.94
479.439	1658.94
479.658	1583.94
479.876	1537.94
480.095	1563.94
480.313	1576.94
480.532	1556.94
480.751	1585.94
480.969	1569.94
481.188	1652.94
481.406	1632.94
481.624	1571.94
481.843	1541.94
482.061	1608.94
482.28	1588.94
482.498	1613.94
482.717	1568.94
482.935	1562.94
483.153	1563.94
483.372	1540.94
483.59	1572.94
483.808	1543.94
484.027	1574.94
484.245	1575.94
484.463	1594.94
484.681	1592.94
484.9	1595.94
485.118	1575.94
485.336	1572.94
485.554	1590.94
485.772	1563.94
485.99	1565.94
486.209	1607.94
486.427	1624.94
486.645	1597.94
486.863	1614.94
487.081	1615.94
487.299	1641.94
487.517	1598.94
487.735	1563.94
487.953	1602.94
488.171	1608.94
488.389	1595.94
488.607	1601.94
488.825	1576.94
489.043	1595.94
489.261	1632.94
489.479	1612.94
489.696	1569.94
489.914	1563.94
490.132	1610.94
490.35	1602.94
490.568	1585.94
490.786	1604.94
491.003	1603.94
491.221	1631.94
491.439	1617.94
491.657	1591.94
491.874	1612.94
492.092	1628.94
492.31	1669.94
492.527	1652.94
492.745	1651.94
492.963	1643.94
493.18	1638.94
493.398	1637.94
493.615	1647.94
493.833	1664.94
494.05	1646.94
494.268	1660.94
494.485	1658.94
494.703	1655.94
494.92	1698.94
495.138	1686.94
495.355	1674.94
495.573	1651.94
495.79	1672.94
496.008	1730.94
496.225	1672.94
496.442	1677.94
496.66	1747.94
496.877	1751.94
497.094	1770.94
497.312	1774.94
497.529	1803.94
497.746	1819.94
497.963	1863.94
498.181	1888.94
498.398	1991.94
498.615	2060.94
498.832	2102.94
499.049	2228.94
499.267	2235.94
499.484	2290.94
499.701	2416.94
499.918	2534.94
500.135	2586.94
500.352	2697.94
500.569	2746.94
500.786	2729.94
501.003	2705.94
501.22	2634.94
501.437	2502.94
501.654	2366.94
501.871	2275.94
502.088	2206.94
502.305	2126.94
502.522	2064.94
502.739	2025.94
502.956	1961.94
503.172	1904.94
503.389	1840.94
503.606	1818.94
503.823	1792.94
504.04	1741.94
504.256	1774.94
504.473	1751.94
504.69	1706.94
504.907	1688.94
505.123	1664.94
505.34	1658.94
505.557	1610.94
505.773	1575.94
505.99	1555.94
506.207	1548.94
506.423	1508.94
506.64	1470.94
506.856	1490.94
507.073	1455.94
507.289	1434.94
507.506	1446.94
507.722	1460.94
507.939	1448.94
508.155	1447.94
508.372	1438.94
508.588	1398.94
508.805	1371.94
509.021	1375.94
509.238	1352.94
509.454	1339.94
509.67	1350.94
509.887	1341.94
510.103	1343.94
510.319	1328.94
510.536	1293.94
510.752	1290.94
510.968	1302.94
511.184	1266.94
511.401	1286.94
511.617	1287.94
511.833	1306.94
512.049	1274.94
512.265	1300.94
512.481	1264.94
512.698	1284.94
512.914	1296.94
513.13	1304.94
513.346	1303.94
513.562	1315.94
513.778	1302.94
513.994	1267.94
514.21	1273.94
514.426	1284.94
514.642	1282.94
514.858	1304.94
515.074	1290.94
515.29	1317.94
515.506	1315.94
515.721	1303.94
515.937	1336.94
516.153	1357.94
516.369	1352.94
516.585	1365.94
516.801	1379.94
517.016	1434.94
517.232	1431.94
517.448	1448.94
517.664	1446.94
517.879	1413.94
518.095	1417.94
518.311	1451.94
518.527	1419.94
518.742	1429.94
518.958	1409.94
519.173	1352.94
519.389	1334.94
519.605	1334.94
519.82	1320.94
520.036	1470.94
520.251	1405.94
520.467	1300.94
520.682	1273.94
520.898	1230.94
521.113	1271.94
521.329	1249.94
521.544	1254.94
521.76	1274.94
521.975	1178.94
522.19	1202.94
522.406	1209.94
522.621	1228.94
522.836	1245.94
523.052	1221.94
523.267	1218.94
523.482	1173.94
523.698	1186.94
523.913	1171.94
524.128	1174.94
524.343	1177.94
524.559	1140.94
524.774	1144.94
524.989	1178.94
525.204	1140.94
525.419	1180.94
525.634	1144.94
525.849	1171.94
526.064	1139.94
526.28	1174.94
526.495	1166.94
526.71	1181.94
526.925	1131.94
527.14	1121.94
527.355	1129.94
527.57	1112.94
527.785	1100.94
527.999	1098.94
528.214	1115.94
528.429	1088.94
528.644	1114.94
528.859	1112.94
529.074	1104.94
529.289	1105.94
529.503	1128.94
529.718	1095.94
529.933	1099.94
530.148	1095.94
530.363	1112.94
530.577	1114.94
530.792	1071.94
531.007	1067.94
531.221	1086.94
531.436	1103.94
531.651	1089.94
531.865	1078.94
532.08	1065.94
532.295	1065.94
532.509	1069.94
532.724	1077.94
532.938	1093.94
533.153	1065.94
533.367	1067.94
533.582	1081.94
533.796	1052.94
534.011	1060.94
534.225	1055.94
534.44	1072.94
534.654	1054.94
534.868	1022.94
535.083	1054.94
535.297	1031.94
535.511	1037.94
535.726	1040.94
535.94	1064.94
536.154	1032.94
536.369	1023.94
536.583	1016.94
536.797	1036.94
537.011	1030.94
537.225	1019.94
537.44	1025.94
537.654	1010.94
537.868	997.94
538.082	977.94
538.296	986.94
538.51	995.94
538.724	1002.94
538.938	1001.94
539.153	1008.94
539.367	984.94
539.581	983.94
539.795	953.94
540.009	982.94
540.222	1002.94
540.436	980.94
540.65	994.94
540.864	988.94
541.078	993.94
541.292	1004.94
541.506	981.94
541.72	998.94
541.934	951.94
542.147	1018.94
542.361	1004.94
542.575	978.94
542.789	990.94
543.002	974.94
543.216	995.94
543.43	989.94
543.644	979.94
543.857	954.94
544.071	993.94
544.285	1006.94
544.498	962.94
544.712	980.94
544.925	993.94
545.139	962.94
545.352	976.94
545.566	998.94
545.779	1004.94
545.993	1006.94
546.206	979.94
546.42	976.94
546.633	989.94
546.847	970.94
547.06	955.94
547.274	954.94
547.487	986.94
547.7	983.94
547.914	980.94
548.127	1015.94
548.34	1003.94
548.554	1009.94
548.767	966.94
548.98	1013.94
549.193	998.94
549.407	982.94
549.62	1025.94
549.833	1036.94
550.046	1030.94
550.259	1009.94
550.473	996.94
550.686	965.94
550.899	991.94
551.112	938.94
551.325	988.94
551.538	992.94
551.751	974.94
551.964	935.94
552.177	982.94
552.39	985.94
552.603	1022.94
552.816	963.94
553.029	969.94
553.242	990.94
553.455	979.94
553.667	976.94
553.88	955.94
554.093	946.94
554.306	957.94
554.519	963.94
554.732	947.94
554.944	921.94
555.157	930.94
555.37	921.94
555.583	895.94
555.795	885.94
556.008	872.94
556.221	884.94
556.433	884.94
556.646	879.94
556.859	849.94
557.071	856.94
557.284	859.94
557.496	847.94
557.709	841.94
557.921	854.94
558.134	843.94
558.346	853.94
558.559	857.94
558.771	823.94
558.984	841.94
559.196	820.94
559.409	805.94
559.621	820.94
559.833	794.94
560.046	799.94
560.258	812.94
560.47	818.94
560.683	828.94
560.895	826.94
561.107	826.94
561.32	807.94
561.532	814.94
561.744	822.94
561.956	837.94
562.168	818.94
562.381	842.94
562.593	820.94
562.805	816.94
563.017	835.94
563.229	799.94
563.441	810.94
563.653	847.94
563.865	818.94
564.077	862.94
564.289	847.94
564.501	838.94
564.713	849.94
564.925	858.94
565.137	872.94
565.349	887.94
565.561	915.94
565.773	906.94
565.985	935.94
566.197	954.94
566.408	979.94
566.62	966.94
566.832	1003.94
567.044	1026.94
567.255	1026.94
567.467	1023.94
567.679	1033.94
567.891	1059.94
568.102	1026.94
568.314	1032.94
568.526	1014.94
568.737	964.94
568.949	929.94
569.161	916.94
569.372	872.94
569.584	862.94
569.795	825.94
570.007	795.94
570.218	808.94
570.43	800.94
570.641	814.94
570.853	786.94
571.064	784.94
571.276	789.94
571.487	769.94
571.698	760.94
571.91	744.94
572.121	706.94
572.333	699.94
572.544	709.94
572.755	692.94
572.966	692.94
573.178	691.94
573.389	667.94
573.6	659.94
573.811	666.94
574.023	670.94
574.234	698.94
574.445	652.94
574.656	648.94
574.867	665.94
575.078	638.94
575.289	670.94
575.501	648.94
575.712	644.94
575.923	650.94
576.134	628.94
576.345	634.94
576.556	633.94
576.767	623.94
576.978	616.94
577.188	622.94
577.399	637.94
577.61	610.94
577.821	605.94
578.032	604.94
578.243	582.94
578.454	580.94
578.665	595.94
578.875	581.94
579.086	578.94
579.297	562.94
579.508	579.94
579.718	593.94
579.929	595.94
580.14	582.94
580.35	564.94
580.561	567.94
580.772	578.94
580.982	562.94
581.193	564.94
581.403	568.94
581.614	569.94
581.825	567.94
582.035	547.94
582.246	566.94
582.456	553.94
582.667	540.94
582.877	570.94
583.087	549.94
583.298	534.94
583.508	569.94
583.719	569.94
583.929	559.94
584.139	560.94
584.35	547.94
584.56	561.94
584.77	550.94
584.981	539.94
585.191	548.94
585.401	527.94
585.611	528.94
585.821	547.94
586.032	561.94
586.242	544.94
586.452	518.94
586.662	514.94
586.872	519.94
587.082	538.94
587.292	540.94
587.502	521.94
587.713	533.94
587.923	534.94
588.133	523.94
588.343	538.94
588.553	519.94
588.762	533.94
588.972	518.94
589.182	580.94
589.392	571.94
589.602	528.94
589.812	576.94
590.022	550.94
590.232	538.94
590.441	522.94
590.651	515.94
590.861	503.94
591.071	522.94
591.281	522.94
591.49	535.94
591.7	526.94
591.91	537.94
592.119	538.94
592.329	556.94
592.539	531.94
592.748	546.94
592.958	553.94
593.167	560.94
593.377	568.94
593.587	552.94
593.796	560.94
594.006	564.94
594.215	543.94
594.424	537.94
594.634	552.94
594.843	535.94
595.053	551.94
595.262	523.94
595.472	494.94
595.681	514.94
595.89	504.94
596.1	510.94
596.309	484.94
596.518	490.94
596.727	477.94
596.937	491.94
597.146	471.94
597.355	480.94
597.564	466.94
597.774	474.94
597.983	464.94
598.192	467.94
598.401	447.94
598.61	468.94
598.819	458.94
599.028	464.94
599.237	439.94
599.446	424.94
599.655	454.94
599.864	449.94
600.073	432.94
600.282	447.94
600.491	426.94
600.7	436.94
600.909	440.94
601.118	428.94
601.327	432.94
601.536	421.94
601.745	404.94
601.953	407.94
602.162	434.94
602.371	414.94
602.58	444.94
602.789	428.94
602.997	411.94
603.206	419.94
603.415	415.94
603.623	420.94
603.832	425.94
604.041	399.94
604.249	410.94
604.458	420.94
604.666	403.94
604.875	384.94
605.084	414.94
605.292	413.94
605.501	407.94
605.709	415.94
605.918	400.94
606.126	405.94
606.334	418.94
606.543	416.94
606.751	424.94
606.96	424.94
607.168	409.94
607.376	386.94
607.585	425.94
607.793	384.94
608.001	400.94
608.21	388.94
608.418	397.94
608.626	407.94
608.834	379.94
609.043	392.94
609.251	385.94
609.459	395.94
609.667	375.94
609.875	380.94
610.083	370.94
610.291	383.94
610.499	374.94
610.707	374.94
610.916	380.94
611.124	381.94
611.332	370.94
611.54	375.94
611.748	377.94
611.955	391.94
612.163	384.94
612.371	382.94
612.579	372.94
612.787	379.94
612.995	377.94
613.203	383.94
613.411	370.94
613.618	386.94
613.826	383.94
614.034	379.94
614.242	389.94
614.449	371.94
614.657	376.94
614.865	380.94
615.072	351.94
615.28	380.94
615.488	380.94
615.695	361.94
615.903	368.94
616.111	357.94
616.318	384.94
616.526	358.94
616.733	381.94
616.941	370.94
617.148	370.94
617.356	373.94
617.563	348.94
617.771	386.94
617.978	371.94
618.185	373.94
618.393	343.94
618.6	369.94
618.807	354.94
619.015	362.94
619.222	361.94
619.429	353.94
619.637	336.94
619.844	358.94
620.051	356.94
620.258	346.94
620.466	347.94
620.673	363.94
620.88	336.94
621.087	341.94
621.294	340.94
621.501	343.94
621.708	337.94
621.915	352.94
622.122	349.94
622.329	326.94
622.536	350.94
622.743	355.94
622.95	338.94
623.157	350.94
623.364	335.94
623.571	329.94
623.778	332.94
623.985	326.94
624.192	330.94
624.399	336.94
624.606	334.94
624.812	312.94
625.019	322.94
625.226	295.94
625.433	317.94
625.639	321.94
625.846	320.94
626.053	324.94
626.259	324.94
626.466	321.94
626.673	297.94
626.879	322.94
627.086	316.94
627.293	306.94
627.499	298.94
627.706	314.94
627.912	300.94
628.119	314.94
628.325	313.94
628.532	285.94
628.738	299.94
628.945	315.94
629.151	294.94
629.357	302.94
629.564	302.94
629.77	303.94
629.976	304.94
630.183	296.94
630.389	309.94
630.595	311.94
630.802	289.94
631.008	282.94
631.214	298.94
631.42	302.94
631.627	286.94
631.833	288.94
632.039	292.94
632.245	282.94
632.451	278.94
632.657	277.94
632.863	289.94
633.069	282.94
633.275	291.94
633.481	286.94
633.688	273.94
633.893	291.94
634.099	277.94
634.305	284.94
634.511	283.94
634.717	282.94
634.923	275.94
635.129	276.94
635.335	238.94
635.541	274.94
635.747	298.94
635.952	266.94
636.158	287.94
636.364	291.94
636.57	268.94
636.775	286.94
636.981	289.94
637.187	272.94
637.392	266.94
637.598	270.94
637.804	274.94
638.009	276.94
638.215	260.94
638.421	273.94
638.626	272.94
638.832	277.94
639.037	283.94
639.243	257.94
639.448	286.94
639.654	270.94
639.859	275.94
640.065	274.94
640.27	281.94
640.475	276.94
640.681	266.94
640.886	270.94
641.091	255.94
641.297	264.94
641.502	256.94
641.707	288.94
641.913	271.94
642.118	274.94
642.323	271.94
642.528	259.94
642.733	260.94
642.939	259.94
643.144	280.94
643.349	269.94
643.554	267.94
643.759	255.94
643.964	262.94
644.169	282.94
644.374	264.94
644.579	281.94
644.784	255.94
644.989	266.94
645.194	264.94
645.399	278.94
645.604	273.94
645.809	259.94
646.014	271.94
646.219	256.94
646.423	268.94
646.628	271.94
646.833	248.94
647.038	255.94
647.243	260.94
647.447	283.94
647.652	274.94
647.857	274.94
648.062	277.94
648.266	280.94
648.471	283.94
648.676	272.94
648.88	284.94
649.085	275.94
649.289	276.94
649.494	281.94
649.698	255.94
649.903	268.94
650.107	274.94
650.312	266.94
650.516	273.94
650.721	276.94
650.925	278.94
651.13	286.94
651.334	263.94
651.539	276.94
651.743	254.94
651.947	266.94
652.152	287.94
652.356	268.94
652.56	264.94
652.764	276.94
652.969	276.94
653.173	266.94
653.377	267.94
653.581	250.94
653.785	231.94
653.99	252.94
654.194	256.94
654.398	264.94
654.602	275.94
654.806	266.94
655.01	277.94
655.214	269.94
655.418	276.94
655.622	255.94
655.826	270.94
656.03	268.94
656.234	282.94
656.438	283.94
656.642	276.94
656.846	269.94
657.049	261.94
657.253	251.94
657.457	233.94
657.661	218.94
657.865	203.94
658.068	194.94
658.272	182.94
658.476	186.94
658.68	169.94
658.883	162.94
659.087	160.94
659.291	156.94
659.494	141.94
659.698	141.94
659.901	140.94
660.105	128.94
660.309	118.94
660.512	124.94
660.716	117.94
660.919	96.94
661.123	110.94
661.326	95.94
661.53	102.94
661.733	117.94
661.936	103.94
662.14	94.94
662.343	92.94
662.546	98.94
662.75	93.94
662.953	98.94
663.156	90.94
663.36	71.94
663.563	100.94
663.766	79.94
663.969	80.94
664.173	86.94
664.376	62.94
664.579	84.94
664.782	71.94
664.985	90.94
665.188	86.94
665.391	90.94
665.594	98.94
665.797	81.94
666	74.94
666.203	87.94
666.406	72.94
666.609	89.94
666.812	87.94
667.015	66.94
667.218	75.94
667.421	86.94
667.624	86.94
667.827	86.94
668.03	71.94
668.232	92.94
668.435	71.94
668.638	83.94
668.841	75.94
669.043	79.94
669.246	70.94
669.449	79.94
669.651	74.94
669.854	79.94
670.057	75.94
670.259	84.94
670.462	84.94
670.665	96.94
670.867	84.94
671.07	76.94
671.272	72.94
671.475	74.94
671.677	76.94
671.88	95.94
672.082	95.94
672.284	79.94
672.487	83.94
672.689	85.94
672.892	76.94
