Data from Fe(NO3)3@0.0125M.TitratingCurve.Agarose3%dH2O.NegLispCup.LampEnergy10.LIBS07252019_HRD10591_16-59-12-336.txt Node
Date: Thu Jul 25 16:59:12 EDT 2019
User: cochatt
Spectrometer: HR+D1059
Trigger mode: 1
Integration Time (sec): 1.000000E-1
Scans to average: 1
Electric dark correction enabled: true
Nonlinearity correction enabled: false
Boxcar width: 0
XAxis mode: Wavelengths
Number of Pixels in Spectrum: 2048
>>>>>Begin Spectral Data<<<<<
223.165	-27.44
223.4	-27.44
223.635	-27.44
223.869	-16.44
224.104	-8.44
224.338	-17.44
224.573	-9.44
224.808	-21.44
225.042	-16.44
225.277	11.56
225.511	-1.44
225.746	7.56
225.98	8.56
226.215	14.56
226.449	12.56
226.683	18.56
226.918	19.56
227.152	25.56
227.387	23.56
227.621	35.56
227.856	42.56
228.09	30.56
228.324	61.56
228.559	57.56
228.793	72.56
229.027	86.56
229.262	90.56
229.496	93.56
229.73	94.56
229.964	92.56
230.199	98.56
230.433	110.56
230.667	115.56
230.901	109.56
231.136	109.56
231.37	99.56
231.604	100.56
231.838	110.56
232.072	114.56
232.306	92.56
232.541	114.56
232.775	116.56
233.009	117.56
233.243	133.56
233.477	111.56
233.711	121.56
233.945	121.56
234.179	111.56
234.413	124.56
234.647	127.56
234.881	105.56
235.115	121.56
235.349	118.56
235.583	133.56
235.817	101.56
236.051	106.56
236.285	123.56
236.519	121.56
236.753	118.56
236.987	130.56
237.221	129.56
237.455	121.56
237.689	119.56
237.922	125.56
238.156	138.56
238.39	134.56
238.624	126.56
238.858	120.56
239.091	122.56
239.325	125.56
239.559	131.56
239.793	138.56
240.027	133.56
240.26	131.56
240.494	149.56
240.728	125.56
240.961	136.56
241.195	130.56
241.429	143.56
241.662	145.56
241.896	147.56
242.13	143.56
242.363	142.56
242.597	144.56
242.83	144.56
243.064	167.56
243.298	129.56
243.531	131.56
243.765	154.56
243.998	153.56
244.232	168.56
244.465	159.56
244.699	149.56
244.932	141.56
245.166	165.56
245.399	151.56
245.633	142.56
245.866	151.56
246.099	144.56
246.333	139.56
246.566	157.56
246.8	159.56
247.033	158.56
247.266	159.56
247.5	161.56
247.733	147.56
247.966	163.56
248.2	170.56
248.433	178.56
248.666	164.56
248.899	177.56
249.133	173.56
249.366	184.56
249.599	154.56
249.832	173.56
250.066	167.56
250.299	168.56
250.532	164.56
250.765	173.56
250.998	169.56
251.231	167.56
251.465	187.56
251.698	189.56
251.931	170.56
252.164	167.56
252.397	180.56
252.63	183.56
252.863	171.56
253.096	201.56
253.329	183.56
253.562	180.56
253.795	206.56
254.028	186.56
254.261	194.56
254.494	171.56
254.727	194.56
254.96	188.56
255.193	204.56
255.426	201.56
255.659	176.56
255.892	190.56
256.124	188.56
256.357	201.56
256.59	185.56
256.823	203.56
257.056	206.56
257.289	205.56
257.521	194.56
257.754	192.56
257.987	204.56
258.22	192.56
258.452	196.56
258.685	194.56
258.918	200.56
259.151	210.56
259.383	204.56
259.616	195.56
259.849	221.56
260.081	249.56
260.314	201.56
260.547	215.56
260.779	215.56
261.012	216.56
261.244	208.56
261.477	227.56
261.71	215.56
261.942	223.56
262.175	210.56
262.407	214.56
262.64	210.56
262.872	220.56
263.105	208.56
263.337	214.56
263.57	217.56
263.802	215.56
264.035	238.56
264.267	226.56
264.499	218.56
264.732	235.56
264.964	232.56
265.197	231.56
265.429	241.56
265.661	234.56
265.894	222.56
266.126	243.56
266.358	230.56
266.591	241.56
266.823	245.56
267.055	222.56
267.287	245.56
267.52	245.56
267.752	219.56
267.984	243.56
268.216	234.56
268.448	249.56
268.681	259.56
268.913	241.56
269.145	252.56
269.377	257.56
269.609	257.56
269.841	263.56
270.073	254.56
270.306	273.56
270.538	247.56
270.77	266.56
271.002	254.56
271.234	262.56
271.466	262.56
271.698	247.56
271.93	267.56
272.162	270.56
272.394	277.56
272.626	262.56
272.858	262.56
273.09	277.56
273.322	288.56
273.553	283.56
273.785	274.56
274.017	274.56
274.249	283.56
274.481	281.56
274.713	305.56
274.945	300.56
275.176	300.56
275.408	286.56
275.64	291.56
275.872	287.56
276.104	278.56
276.335	290.56
276.567	282.56
276.799	303.56
277.031	265.56
277.262	281.56
277.494	310.56
277.726	307.56
277.957	297.56
278.189	295.56
278.421	307.56
278.652	295.56
278.884	307.56
279.115	299.56
279.347	319.56
279.579	302.56
279.81	305.56
280.042	305.56
280.273	309.56
280.505	316.56
280.736	314.56
280.968	314.56
281.199	313.56
281.431	339.56
281.662	323.56
281.894	331.56
282.125	312.56
282.356	328.56
282.588	332.56
282.819	310.56
283.051	323.56
283.282	310.56
283.513	327.56
283.745	320.56
283.976	326.56
284.207	325.56
284.439	338.56
284.67	340.56
284.901	345.56
285.132	342.56
285.364	345.56
285.595	340.56
285.826	314.56
286.057	343.56
286.288	347.56
286.52	336.56
286.751	343.56
286.982	351.56
287.213	325.56
287.444	354.56
287.675	360.56
287.906	360.56
288.138	348.56
288.369	353.56
288.6	361.56
288.831	363.56
289.062	358.56
289.293	348.56
289.524	343.56
289.755	370.56
289.986	348.56
290.217	367.56
290.448	361.56
290.679	350.56
290.91	353.56
291.141	356.56
291.371	371.56
291.602	387.56
291.833	373.56
292.064	377.56
292.295	359.56
292.526	364.56
292.757	352.56
292.987	380.56
293.218	371.56
293.449	373.56
293.68	364.56
293.91	387.56
294.141	377.56
294.372	366.56
294.603	371.56
294.833	363.56
295.064	371.56
295.295	380.56
295.525	398.56
295.756	385.56
295.987	381.56
296.217	388.56
296.448	384.56
296.679	385.56
296.909	387.56
297.14	403.56
297.37	407.56
297.601	394.56
297.831	393.56
298.062	394.56
298.292	388.56
298.523	396.56
298.753	398.56
298.984	387.56
299.214	397.56
299.445	395.56
299.675	390.56
299.905	405.56
300.136	391.56
300.366	400.56
300.597	392.56
300.827	419.56
301.057	404.56
301.288	405.56
301.518	403.56
301.748	412.56
301.979	431.56
302.209	438.56
302.439	426.56
302.669	434.56
302.9	420.56
303.13	422.56
303.36	422.56
303.59	443.56
303.82	437.56
304.051	428.56
304.281	454.56
304.511	445.56
304.741	436.56
304.971	400.56
305.201	426.56
305.431	434.56
305.661	426.56
305.891	419.56
306.121	442.56
306.352	467.56
306.582	433.56
306.812	439.56
307.042	446.56
307.272	453.56
307.502	469.56
307.731	445.56
307.961	440.56
308.191	439.56
308.421	440.56
308.651	443.56
308.881	436.56
309.111	444.56
309.341	417.56
309.571	461.56
309.8	450.56
310.03	446.56
310.26	438.56
310.49	439.56
310.72	458.56
310.949	461.56
311.179	449.56
311.409	419.56
311.639	462.56
311.868	458.56
312.098	460.56
312.328	468.56
312.557	471.56
312.787	485.56
313.017	457.56
313.246	474.56
313.476	465.56
313.706	477.56
313.935	482.56
314.165	466.56
314.394	479.56
314.624	490.56
314.853	465.56
315.083	461.56
315.312	478.56
315.542	489.56
315.771	479.56
316.001	466.56
316.23	476.56
316.46	494.56
316.689	497.56
316.919	496.56
317.148	502.56
317.377	497.56
317.607	492.56
317.836	497.56
318.065	517.56
318.295	486.56
318.524	531.56
318.753	517.56
318.983	497.56
319.212	526.56
319.441	519.56
319.67	505.56
319.9	501.56
320.129	511.56
320.358	502.56
320.587	513.56
320.816	506.56
321.046	523.56
321.275	511.56
321.504	500.56
321.733	521.56
321.962	513.56
322.191	516.56
322.42	515.56
322.649	519.56
322.878	539.56
323.108	513.56
323.337	525.56
323.566	531.56
323.795	523.56
324.024	546.56
324.253	524.56
324.482	549.56
324.71	551.56
324.939	533.56
325.168	527.56
325.397	519.56
325.626	535.56
325.855	554.56
326.084	531.56
326.313	530.56
326.542	520.56
326.77	570.56
326.999	561.56
327.228	576.56
327.457	550.56
327.686	556.56
327.914	556.56
328.143	558.56
328.372	545.56
328.6	550.56
328.829	549.56
329.058	560.56
329.287	545.56
329.515	557.56
329.744	549.56
329.972	551.56
330.201	541.56
330.43	548.56
330.658	572.56
330.887	585.56
331.115	564.56
331.344	565.56
331.572	565.56
331.801	561.56
332.03	566.56
332.258	565.56
332.486	572.56
332.715	586.56
332.943	565.56
333.172	562.56
333.4	557.56
333.629	597.56
333.857	588.56
334.085	591.56
334.314	601.56
334.542	604.56
334.771	582.56
334.999	583.56
335.227	597.56
335.455	598.56
335.684	585.56
335.912	598.56
336.14	608.56
336.369	595.56
336.597	602.56
336.825	588.56
337.053	605.56
337.281	575.56
337.51	580.56
337.738	582.56
337.966	587.56
338.194	605.56
338.422	599.56
338.65	587.56
338.878	583.56
339.106	596.56
339.334	589.56
339.562	586.56
339.79	582.56
340.018	584.56
340.246	573.56
340.474	602.56
340.702	589.56
340.93	597.56
341.158	596.56
341.386	595.56
341.614	603.56
341.842	583.56
342.07	591.56
342.298	594.56
342.526	595.56
342.754	588.56
342.981	594.56
343.209	579.56
343.437	585.56
343.665	576.56
343.893	592.56
344.12	601.56
344.348	605.56
344.576	612.56
344.804	596.56
345.031	592.56
345.259	588.56
345.487	593.56
345.714	563.56
345.942	587.56
346.17	599.56
346.397	602.56
346.625	568.56
346.853	573.56
347.08	572.56
347.308	555.56
347.535	581.56
347.763	570.56
347.99	580.56
348.218	596.56
348.445	581.56
348.673	595.56
348.9	580.56
349.128	585.56
349.355	584.56
349.583	585.56
349.81	579.56
350.037	569.56
350.265	576.56
350.492	556.56
350.72	586.56
350.947	579.56
351.174	581.56
351.402	603.56
351.629	576.56
351.856	582.56
352.083	586.56
352.311	561.56
352.538	583.56
352.765	578.56
352.992	568.56
353.22	580.56
353.447	575.56
353.674	574.56
353.901	556.56
354.128	578.56
354.355	565.56
354.583	571.56
354.81	579.56
355.037	577.56
355.264	596.56
355.491	581.56
355.718	571.56
355.945	571.56
356.172	586.56
356.399	573.56
356.626	605.56
356.853	600.56
357.08	593.56
357.307	581.56
357.534	586.56
357.761	585.56
357.988	588.56
358.215	573.56
358.441	577.56
358.668	570.56
358.895	589.56
359.122	580.56
359.349	573.56
359.576	570.56
359.802	558.56
360.029	595.56
360.256	601.56
360.483	580.56
360.709	596.56
360.936	570.56
361.163	571.56
361.39	571.56
361.616	572.56
361.843	566.56
362.07	607.56
362.296	579.56
362.523	595.56
362.749	595.56
362.976	604.56
363.203	589.56
363.429	615.56
363.656	592.56
363.882	595.56
364.109	607.56
364.335	607.56
364.562	587.56
364.788	587.56
365.015	615.56
365.241	585.56
365.468	583.56
365.694	609.56
365.92	593.56
366.147	617.56
366.373	584.56
366.599	576.56
366.826	601.56
367.052	589.56
367.278	590.56
367.505	608.56
367.731	613.56
367.957	613.56
368.184	607.56
368.41	611.56
368.636	626.56
368.862	606.56
369.089	606.56
369.315	621.56
369.541	609.56
369.767	620.56
369.993	622.56
370.219	607.56
370.445	620.56
370.672	634.56
370.898	619.56
371.124	617.56
371.35	646.56
371.576	627.56
371.802	624.56
372.028	633.56
372.254	610.56
372.48	637.56
372.706	605.56
372.932	629.56
373.158	619.56
373.384	627.56
373.61	630.56
373.835	641.56
374.061	637.56
374.287	626.56
374.513	629.56
374.739	639.56
374.965	633.56
375.191	626.56
375.416	632.56
375.642	627.56
375.868	642.56
376.094	615.56
376.319	630.56
376.545	634.56
376.771	616.56
376.997	632.56
377.222	645.56
377.448	632.56
377.674	633.56
377.899	603.56
378.125	629.56
378.35	649.56
378.576	616.56
378.802	611.56
379.027	622.56
379.253	653.56
379.478	622.56
379.704	638.56
379.929	621.56
380.155	605.56
380.38	637.56
380.606	619.56
380.831	623.56
381.057	641.56
381.282	639.56
381.507	636.56
381.733	637.56
381.958	637.56
382.184	638.56
382.409	631.56
382.634	654.56
382.86	618.56
383.085	635.56
383.31	620.56
383.535	654.56
383.761	654.56
383.986	643.56
384.211	645.56
384.436	648.56
384.662	645.56
384.887	661.56
385.112	668.56
385.337	668.56
385.562	659.56
385.787	663.56
386.013	673.56
386.238	677.56
386.463	680.56
386.688	665.56
386.913	638.56
387.138	657.56
387.363	689.56
387.588	666.56
387.813	700.56
388.038	676.56
388.263	681.56
388.488	658.56
388.713	693.56
388.938	691.56
389.163	659.56
389.387	665.56
389.612	668.56
389.837	690.56
390.062	671.56
390.287	683.56
390.512	659.56
390.736	687.56
390.961	672.56
391.186	671.56
391.411	704.56
391.636	671.56
391.86	701.56
392.085	699.56
392.31	702.56
392.534	684.56
392.759	682.56
392.984	696.56
393.208	696.56
393.433	699.56
393.658	692.56
393.882	670.56
394.107	686.56
394.331	681.56
394.556	695.56
394.78	683.56
395.005	685.56
395.229	707.56
395.454	692.56
395.678	682.56
395.903	685.56
396.127	706.56
396.352	687.56
396.576	710.56
396.801	733.56
397.025	718.56
397.249	700.56
397.474	717.56
397.698	702.56
397.922	713.56
398.147	709.56
398.371	738.56
398.595	713.56
398.82	715.56
399.044	737.56
399.268	744.56
399.492	742.56
399.717	765.56
399.941	782.56
400.165	791.56
400.389	771.56
400.613	738.56
400.837	741.56
401.062	759.56
401.286	740.56
401.51	759.56
401.734	748.56
401.958	761.56
402.182	743.56
402.406	721.56
402.63	733.56
402.854	729.56
403.078	748.56
403.302	733.56
403.526	753.56
403.75	714.56
403.974	722.56
404.198	731.56
404.422	737.56
404.645	714.56
404.869	726.56
405.093	756.56
405.317	732.56
405.541	759.56
405.765	744.56
405.988	746.56
406.212	758.56
406.436	767.56
406.66	777.56
406.883	741.56
407.107	792.56
407.331	792.56
407.555	795.56
407.778	770.56
408.002	760.56
408.226	785.56
408.449	818.56
408.673	767.56
408.896	786.56
409.12	781.56
409.344	778.56
409.567	768.56
409.791	761.56
410.014	776.56
410.238	748.56
410.461	753.56
410.685	759.56
410.908	759.56
411.132	749.56
411.355	756.56
411.578	734.56
411.802	753.56
412.025	740.56
412.249	743.56
412.472	759.56
412.695	733.56
412.919	737.56
413.142	720.56
413.365	733.56
413.589	725.56
413.812	720.56
414.035	737.56
414.258	732.56
414.482	725.56
414.705	719.56
414.928	724.56
415.151	716.56
415.374	743.56
415.597	733.56
415.821	718.56
416.044	700.56
416.267	729.56
416.49	726.56
416.713	726.56
416.936	716.56
417.159	714.56
417.382	714.56
417.605	717.56
417.828	713.56
418.051	726.56
418.274	708.56
418.497	701.56
418.72	702.56
418.943	672.56
419.166	723.56
419.389	743.56
419.611	741.56
419.834	741.56
420.057	715.56
420.28	694.56
420.503	694.56
420.726	707.56
420.948	686.56
421.171	685.56
421.394	717.56
421.617	704.56
421.839	689.56
422.062	689.56
422.285	680.56
422.507	693.56
422.73	697.56
422.953	679.56
423.175	692.56
423.398	710.56
423.621	694.56
423.843	710.56
424.066	702.56
424.288	677.56
424.511	675.56
424.733	694.56
424.956	684.56
425.178	695.56
425.401	675.56
425.623	699.56
425.846	670.56
426.068	685.56
426.291	693.56
426.513	683.56
426.735	689.56
426.958	686.56
427.18	682.56
427.402	704.56
427.625	698.56
427.847	677.56
428.069	699.56
428.292	691.56
428.514	697.56
428.736	701.56
428.958	697.56
429.181	678.56
429.403	696.56
429.625	699.56
429.847	685.56
430.069	713.56
430.292	673.56
430.514	684.56
430.736	695.56
430.958	699.56
431.18	652.56
431.402	687.56
431.624	685.56
431.846	676.56
432.068	670.56
432.29	700.56
432.512	681.56
432.734	708.56
432.956	670.56
433.178	687.56
433.4	700.56
433.622	677.56
433.844	705.56
434.066	677.56
434.287	676.56
434.509	687.56
434.731	682.56
434.953	679.56
435.175	691.56
435.397	681.56
435.618	679.56
435.84	690.56
436.062	671.56
436.284	675.56
436.505	679.56
436.727	683.56
436.949	687.56
437.17	671.56
437.392	670.56
437.614	669.56
437.835	666.56
438.057	687.56
438.278	671.56
438.5	668.56
438.721	642.56
438.943	662.56
439.165	655.56
439.386	685.56
439.608	680.56
439.829	654.56
440.05	672.56
440.272	705.56
440.493	681.56
440.715	667.56
440.936	671.56
441.158	664.56
441.379	677.56
441.6	681.56
441.822	669.56
442.043	686.56
442.264	670.56
442.486	666.56
442.707	682.56
442.928	697.56
443.149	712.56
443.371	649.56
443.592	670.56
443.813	656.56
444.034	683.56
444.255	650.56
444.476	677.56
444.698	674.56
444.919	692.56
445.14	778.56
445.361	705.56
445.582	675.56
445.803	659.56
446.024	665.56
446.245	683.56
446.466	668.56
446.687	655.56
446.908	675.56
447.129	642.56
447.35	661.56
447.571	652.56
447.792	645.56
448.013	654.56
448.234	632.56
448.455	629.56
448.675	631.56
448.896	631.56
449.117	642.56
449.338	641.56
449.559	656.56
449.779	637.56
450	618.56
450.221	624.56
450.442	661.56
450.662	637.56
450.883	627.56
451.104	622.56
451.324	599.56
451.545	632.56
451.766	613.56
451.986	652.56
452.207	621.56
452.428	622.56
452.648	635.56
452.869	627.56
453.089	637.56
453.31	603.56
453.53	641.56
453.751	617.56
453.971	647.56
454.192	641.56
454.412	602.56
454.633	603.56
454.853	613.56
455.073	609.56
455.294	611.56
455.514	627.56
455.734	638.56
455.955	631.56
456.175	615.56
456.395	614.56
456.616	601.56
456.836	610.56
457.056	609.56
457.276	614.56
457.497	647.56
457.717	611.56
457.937	633.56
458.157	603.56
458.377	605.56
458.598	651.56
458.818	637.56
459.038	635.56
459.258	618.56
459.478	629.56
459.698	641.56
459.918	648.56
460.138	642.56
460.358	653.56
460.578	650.56
460.798	660.56
461.018	684.56
461.238	683.56
461.458	684.56
461.678	663.56
461.898	683.56
462.118	689.56
462.338	661.56
462.558	721.56
462.777	713.56
462.997	730.56
463.217	708.56
463.437	707.56
463.657	702.56
463.876	690.56
464.096	703.56
464.316	715.56
464.536	695.56
464.755	702.56
464.975	690.56
465.195	674.56
465.414	679.56
465.634	687.56
465.854	669.56
466.073	648.56
466.293	669.56
466.512	683.56
466.732	661.56
466.951	664.56
467.171	657.56
467.391	676.56
467.61	651.56
467.829	664.56
468.049	674.56
468.268	655.56
468.488	633.56
468.707	637.56
468.927	655.56
469.146	670.56
469.365	672.56
469.585	641.56
469.804	660.56
470.023	667.56
470.243	664.56
470.462	654.56
470.681	662.56
470.901	667.56
471.12	699.56
471.339	689.56
471.558	679.56
471.777	675.56
471.997	661.56
472.216	672.56
472.435	674.56
472.654	683.56
472.873	680.56
473.092	694.56
473.311	675.56
473.53	679.56
473.749	700.56
473.968	698.56
474.187	701.56
474.406	702.56
474.625	698.56
474.844	706.56
475.063	697.56
475.282	700.56
475.501	737.56
475.72	723.56
475.939	721.56
476.158	727.56
476.377	738.56
476.596	722.56
476.814	746.56
477.033	719.56
477.252	727.56
477.471	750.56
477.69	751.56
477.908	749.56
478.127	756.56
478.346	755.56
478.564	772.56
478.783	799.56
479.002	782.56
479.22	773.56
479.439	791.56
479.658	779.56
479.876	778.56
480.095	769.56
480.313	814.56
480.532	802.56
480.751	804.56
480.969	797.56
481.188	777.56
481.406	798.56
481.624	808.56
481.843	802.56
482.061	811.56
482.28	809.56
482.498	821.56
482.717	810.56
482.935	799.56
483.153	813.56
483.372	811.56
483.59	828.56
483.808	819.56
484.027	818.56
484.245	833.56
484.463	810.56
484.681	817.56
484.9	853.56
485.118	814.56
485.336	824.56
485.554	831.56
485.772	834.56
485.99	833.56
486.209	852.56
486.427	832.56
486.645	831.56
486.863	841.56
487.081	829.56
487.299	817.56
487.517	853.56
487.735	828.56
487.953	856.56
488.171	835.56
488.389	812.56
488.607	823.56
488.825	834.56
489.043	849.56
489.261	834.56
489.479	840.56
489.696	820.56
489.914	831.56
490.132	869.56
490.35	872.56
490.568	846.56
490.786	823.56
491.003	847.56
491.221	844.56
491.439	851.56
491.657	862.56
491.874	870.56
492.092	863.56
492.31	860.56
492.527	867.56
492.745	873.56
492.963	840.56
493.18	870.56
493.398	861.56
493.615	857.56
493.833	862.56
494.05	858.56
494.268	868.56
494.485	882.56
494.703	894.56
494.92	855.56
495.138	877.56
495.355	874.56
495.573	860.56
495.79	896.56
496.008	889.56
496.225	884.56
496.442	896.56
496.66	899.56
496.877	920.56
497.094	933.56
497.312	934.56
497.529	916.56
497.746	924.56
497.963	949.56
498.181	933.56
498.398	912.56
498.615	975.56
498.832	955.56
499.049	972.56
499.267	961.56
499.484	1002.56
499.701	996.56
499.918	1021.56
500.135	1041.56
500.352	1053.56
500.569	1062.56
500.786	1036.56
501.003	1046.56
501.22	1033.56
501.437	1009.56
501.654	990.56
501.871	994.56
502.088	964.56
502.305	997.56
502.522	924.56
502.739	948.56
502.956	933.56
503.172	891.56
503.389	923.56
503.606	894.56
503.823	906.56
504.04	898.56
504.256	887.56
504.473	899.56
504.69	867.56
504.907	887.56
505.123	853.56
505.34	881.56
505.557	829.56
505.773	835.56
505.99	824.56
506.207	835.56
506.423	825.56
506.64	841.56
506.856	817.56
507.073	829.56
507.289	820.56
507.506	797.56
507.722	799.56
507.939	796.56
508.155	776.56
508.372	794.56
508.588	803.56
508.805	763.56
509.021	783.56
509.238	777.56
509.454	741.56
509.67	777.56
509.887	761.56
510.103	757.56
510.319	780.56
510.536	745.56
510.752	756.56
510.968	773.56
511.184	732.56
511.401	725.56
511.617	728.56
511.833	749.56
512.049	745.56
512.265	732.56
512.481	754.56
512.698	739.56
512.914	731.56
513.13	729.56
513.346	737.56
513.562	741.56
513.778	729.56
513.994	726.56
514.21	724.56
514.426	755.56
514.642	726.56
514.858	733.56
515.074	757.56
515.29	748.56
515.506	732.56
515.721	753.56
515.937	732.56
516.153	769.56
516.369	766.56
516.585	759.56
516.801	766.56
517.016	769.56
517.232	741.56
517.448	770.56
517.664	764.56
517.879	733.56
518.095	773.56
518.311	773.56
518.527	786.56
518.742	755.56
518.958	768.56
519.173	762.56
519.389	728.56
519.605	755.56
519.82	743.56
520.036	753.56
520.251	745.56
520.467	729.56
520.682	719.56
520.898	715.56
521.113	713.56
521.329	701.56
521.544	713.56
521.76	728.56
521.975	701.56
522.19	719.56
522.406	674.56
522.621	699.56
522.836	699.56
523.052	713.56
523.267	690.56
523.482	695.56
523.698	711.56
523.913	720.56
524.128	695.56
524.343	691.56
524.559	696.56
524.774	703.56
524.989	707.56
525.204	675.56
525.419	702.56
525.634	678.56
525.849	689.56
526.064	696.56
526.28	689.56
526.495	684.56
526.71	689.56
526.925	691.56
527.14	705.56
527.355	695.56
527.57	683.56
527.785	699.56
527.999	680.56
528.214	668.56
528.429	690.56
528.644	717.56
528.859	675.56
529.074	674.56
529.289	678.56
529.503	697.56
529.718	691.56
529.933	664.56
530.148	648.56
530.363	644.56
530.577	673.56
530.792	661.56
531.007	680.56
531.221	689.56
531.436	673.56
531.651	661.56
531.865	649.56
532.08	656.56
532.295	676.56
532.509	654.56
532.724	648.56
532.938	644.56
533.153	647.56
533.367	654.56
533.582	656.56
533.796	653.56
534.011	669.56
534.225	644.56
534.44	649.56
534.654	655.56
534.868	636.56
535.083	638.56
535.297	660.56
535.511	625.56
535.726	642.56
535.94	653.56
536.154	630.56
536.369	631.56
536.583	633.56
536.797	655.56
537.011	629.56
537.225	629.56
537.44	614.56
537.654	650.56
537.868	624.56
538.082	619.56
538.296	622.56
538.51	603.56
538.724	610.56
538.938	620.56
539.153	600.56
539.367	604.56
539.581	612.56
539.795	588.56
540.009	636.56
540.222	639.56
540.436	617.56
540.65	615.56
540.864	594.56
541.078	632.56
541.292	614.56
541.506	617.56
541.72	623.56
541.934	619.56
542.147	611.56
542.361	610.56
542.575	607.56
542.789	617.56
543.002	611.56
543.216	621.56
543.43	597.56
543.644	595.56
543.857	607.56
544.071	610.56
544.285	595.56
544.498	624.56
544.712	603.56
544.925	594.56
545.139	601.56
545.352	591.56
545.566	617.56
545.779	619.56
545.993	579.56
546.206	607.56
546.42	603.56
546.633	589.56
546.847	588.56
547.06	601.56
547.274	597.56
547.487	593.56
547.7	579.56
547.914	598.56
548.127	602.56
548.34	585.56
548.554	593.56
548.767	569.56
548.98	585.56
549.193	587.56
549.407	587.56
549.62	601.56
549.833	592.56
550.046	596.56
550.259	580.56
550.473	596.56
550.686	568.56
550.899	577.56
551.112	588.56
551.325	603.56
551.538	589.56
551.751	589.56
551.964	571.56
552.177	575.56
552.39	557.56
552.603	583.56
552.816	571.56
553.029	579.56
553.242	567.56
553.455	583.56
553.667	587.56
553.88	597.56
554.093	561.56
554.306	571.56
554.519	566.56
554.732	561.56
554.944	557.56
555.157	563.56
555.37	563.56
555.583	542.56
555.795	529.56
556.008	550.56
556.221	545.56
556.433	532.56
556.646	537.56
556.859	534.56
557.071	536.56
557.284	531.56
557.496	523.56
557.709	523.56
557.921	530.56
558.134	539.56
558.346	531.56
558.559	550.56
558.771	531.56
558.984	513.56
559.196	526.56
559.409	519.56
559.621	518.56
559.833	505.56
560.046	514.56
560.258	523.56
560.47	507.56
560.683	532.56
560.895	507.56
561.107	509.56
561.32	516.56
561.532	516.56
561.744	526.56
561.956	516.56
562.168	505.56
562.381	519.56
562.593	508.56
562.805	506.56
563.017	492.56
563.229	511.56
563.441	505.56
563.653	515.56
563.865	494.56
564.077	517.56
564.289	503.56
564.501	522.56
564.713	548.56
564.925	505.56
565.137	511.56
565.349	499.56
565.561	493.56
565.773	527.56
565.985	541.56
566.197	518.56
566.408	516.56
566.62	513.56
566.832	534.56
567.044	526.56
567.255	532.56
567.467	505.56
567.679	532.56
567.891	508.56
568.102	534.56
568.314	549.56
568.526	507.56
568.737	488.56
568.949	498.56
569.161	489.56
569.372	476.56
569.584	483.56
569.795	469.56
570.007	480.56
570.218	477.56
570.43	467.56
570.641	452.56
570.853	473.56
571.064	458.56
571.276	463.56
571.487	464.56
571.698	455.56
571.91	453.56
572.121	462.56
572.333	463.56
572.544	439.56
572.755	431.56
572.966	418.56
573.178	427.56
573.389	443.56
573.6	458.56
573.811	435.56
574.023	414.56
574.234	423.56
574.445	417.56
574.656	402.56
574.867	437.56
575.078	422.56
575.289	415.56
575.501	414.56
575.712	427.56
575.923	416.56
576.134	407.56
576.345	413.56
576.556	386.56
576.767	377.56
576.978	401.56
577.188	386.56
577.399	405.56
577.61	405.56
577.821	407.56
578.032	399.56
578.243	408.56
578.454	408.56
578.665	391.56
578.875	400.56
579.086	403.56
579.297	373.56
579.508	393.56
579.718	389.56
579.929	385.56
580.14	391.56
580.35	380.56
580.561	377.56
580.772	386.56
580.982	382.56
581.193	362.56
581.403	361.56
581.614	366.56
581.825	378.56
582.035	378.56
582.246	373.56
582.456	380.56
582.667	355.56
582.877	366.56
583.087	357.56
583.298	389.56
583.508	350.56
583.719	341.56
583.929	369.56
584.139	375.56
584.35	366.56
584.56	370.56
584.77	353.56
584.981	356.56
585.191	340.56
585.401	361.56
585.611	343.56
585.821	347.56
586.032	344.56
586.242	350.56
586.452	341.56
586.662	371.56
586.872	372.56
587.082	340.56
587.292	362.56
587.502	359.56
587.713	355.56
587.923	352.56
588.133	332.56
588.343	332.56
588.553	356.56
588.762	363.56
588.972	346.56
589.182	373.56
589.392	346.56
589.602	353.56
589.812	366.56
590.022	346.56
590.232	332.56
590.441	353.56
590.651	340.56
590.861	343.56
591.071	326.56
591.281	328.56
591.49	336.56
591.7	326.56
591.91	350.56
592.119	337.56
592.329	341.56
592.539	336.56
592.748	355.56
592.958	335.56
593.167	333.56
593.377	333.56
593.587	319.56
593.796	331.56
594.006	346.56
594.215	332.56
594.424	330.56
594.634	333.56
594.843	340.56
595.053	327.56
595.262	308.56
595.472	331.56
595.681	309.56
595.89	322.56
596.1	303.56
596.309	307.56
596.518	315.56
596.727	309.56
596.937	315.56
597.146	312.56
597.355	327.56
597.564	299.56
597.774	315.56
597.983	295.56
598.192	309.56
598.401	315.56
598.61	315.56
598.819	295.56
599.028	313.56
599.237	319.56
599.446	295.56
599.655	310.56
599.864	286.56
600.073	291.56
600.282	294.56
600.491	278.56
600.7	296.56
600.909	287.56
601.118	297.56
601.327	302.56
601.536	306.56
601.745	298.56
601.953	282.56
602.162	287.56
602.371	291.56
602.58	279.56
602.789	287.56
602.997	300.56
603.206	289.56
603.415	288.56
603.623	290.56
603.832	276.56
604.041	297.56
604.249	280.56
604.458	275.56
604.666	289.56
604.875	279.56
605.084	281.56
605.292	281.56
605.501	284.56
605.709	290.56
605.918	268.56
606.126	268.56
606.334	274.56
606.543	287.56
606.751	284.56
606.96	291.56
607.168	274.56
607.376	269.56
607.585	280.56
607.793	290.56
608.001	281.56
608.21	264.56
608.418	286.56
608.626	266.56
608.834	282.56
609.043	281.56
609.251	282.56
609.459	268.56
609.667	283.56
609.875	275.56
610.083	251.56
610.291	250.56
610.499	283.56
610.707	269.56
610.916	263.56
611.124	275.56
611.332	263.56
611.54	272.56
611.748	250.56
611.955	272.56
612.163	272.56
612.371	254.56
612.579	260.56
612.787	261.56
612.995	257.56
613.203	268.56
613.411	252.56
613.618	244.56
613.826	280.56
614.034	275.56
614.242	274.56
614.449	264.56
614.657	258.56
614.865	255.56
615.072	253.56
615.28	250.56
615.488	243.56
615.695	247.56
615.903	253.56
616.111	255.56
616.318	254.56
616.526	254.56
616.733	243.56
616.941	263.56
617.148	254.56
617.356	262.56
617.563	248.56
617.771	260.56
617.978	261.56
618.185	265.56
618.393	235.56
618.6	251.56
618.807	255.56
619.015	262.56
619.222	244.56
619.429	247.56
619.637	256.56
619.844	243.56
620.051	225.56
620.258	232.56
620.466	244.56
620.673	245.56
620.88	229.56
621.087	234.56
621.294	238.56
621.501	238.56
621.708	244.56
621.915	238.56
622.122	248.56
622.329	249.56
622.536	232.56
622.743	238.56
622.95	232.56
623.157	226.56
623.364	242.56
623.571	237.56
623.778	235.56
623.985	237.56
624.192	235.56
624.399	244.56
624.606	235.56
624.812	241.56
625.019	224.56
625.226	236.56
625.433	231.56
625.639	233.56
625.846	222.56
626.053	217.56
626.259	213.56
626.466	238.56
626.673	213.56
626.879	229.56
627.086	234.56
627.293	207.56
627.499	220.56
627.706	218.56
627.912	223.56
628.119	219.56
628.325	234.56
628.532	220.56
628.738	197.56
628.945	217.56
629.151	223.56
629.357	218.56
629.564	206.56
629.77	211.56
629.976	197.56
630.183	204.56
630.389	219.56
630.595	213.56
630.802	213.56
631.008	226.56
631.214	205.56
631.42	218.56
631.627	213.56
631.833	202.56
632.039	198.56
632.245	209.56
632.451	192.56
632.657	205.56
632.863	205.56
633.069	200.56
633.275	200.56
633.481	210.56
633.688	197.56
633.893	232.56
634.099	195.56
634.305	196.56
634.511	192.56
634.717	201.56
634.923	203.56
635.129	195.56
635.335	184.56
635.541	196.56
635.747	210.56
635.952	205.56
636.158	204.56
636.364	205.56
636.57	202.56
636.775	183.56
636.981	198.56
637.187	194.56
637.392	197.56
637.598	181.56
637.804	197.56
638.009	189.56
638.215	194.56
638.421	187.56
638.626	212.56
638.832	200.56
639.037	188.56
639.243	183.56
639.448	211.56
639.654	210.56
639.859	197.56
640.065	188.56
640.27	194.56
640.475	201.56
640.681	196.56
640.886	189.56
641.091	201.56
641.297	211.56
641.502	189.56
641.707	189.56
641.913	196.56
642.118	182.56
642.323	188.56
642.528	189.56
642.733	193.56
642.939	202.56
643.144	198.56
643.349	183.56
643.554	204.56
643.759	193.56
643.964	195.56
644.169	194.56
644.374	203.56
644.579	215.56
644.784	190.56
644.989	188.56
645.194	188.56
645.399	193.56
645.604	183.56
645.809	183.56
646.014	203.56
646.219	190.56
646.423	181.56
646.628	172.56
646.833	169.56
647.038	194.56
647.243	183.56
647.447	190.56
647.652	183.56
647.857	180.56
648.062	184.56
648.266	187.56
648.471	170.56
648.676	181.56
648.88	181.56
649.085	188.56
649.289	166.56
649.494	195.56
649.698	179.56
649.903	171.56
650.107	177.56
650.312	178.56
650.516	177.56
650.721	182.56
650.925	178.56
651.13	177.56
651.334	187.56
651.539	170.56
651.743	160.56
651.947	177.56
652.152	174.56
652.356	181.56
652.56	183.56
652.764	163.56
652.969	161.56
653.173	178.56
653.377	174.56
653.581	174.56
653.785	188.56
653.99	151.56
654.194	157.56
654.398	168.56
654.602	161.56
654.806	166.56
655.01	176.56
655.214	168.56
655.418	177.56
655.622	168.56
655.826	154.56
656.03	147.56
656.234	154.56
656.438	168.56
656.642	161.56
656.846	141.56
657.049	152.56
657.253	152.56
657.457	141.56
657.661	142.56
657.865	139.56
658.068	138.56
658.272	142.56
658.476	122.56
658.68	133.56
658.883	129.56
659.087	130.56
659.291	107.56
659.494	124.56
659.698	115.56
659.901	107.56
660.105	107.56
660.309	109.56
660.512	102.56
660.716	101.56
660.919	103.56
661.123	108.56
661.326	105.56
661.53	101.56
661.733	102.56
661.936	110.56
662.14	87.56
662.343	99.56
662.546	94.56
662.75	86.56
662.953	98.56
663.156	93.56
663.36	88.56
663.563	85.56
663.766	94.56
663.969	92.56
664.173	88.56
664.376	85.56
664.579	91.56
664.782	91.56
664.985	87.56
665.188	92.56
665.391	93.56
665.594	86.56
665.797	80.56
666	90.56
666.203	86.56
666.406	76.56
666.609	71.56
666.812	72.56
667.015	85.56
667.218	83.56
667.421	91.56
667.624	78.56
667.827	82.56
668.03	88.56
668.232	86.56
668.435	81.56
668.638	86.56
668.841	99.56
669.043	86.56
669.246	88.56
669.449	86.56
669.651	88.56
669.854	94.56
670.057	86.56
670.259	79.56
670.462	78.56
670.665	74.56
670.867	90.56
671.07	79.56
671.272	92.56
671.475	85.56
671.677	86.56
671.88	78.56
672.082	92.56
672.284	92.56
672.487	92.56
672.689	92.56
672.892	87.56
