Data from Fe(NO3)3@0.025M.TitratingCurve.Agarose3%dH2O.NegLispCup.LampEnergy10.LIBS07252019_HRD10591_16-53-58-335.txt Node
Date: Thu Jul 25 16:53:58 EDT 2019
User: cochatt
Spectrometer: HR+D1059
Trigger mode: 1
Integration Time (sec): 1.000000E-1
Scans to average: 1
Electric dark correction enabled: true
Nonlinearity correction enabled: false
Boxcar width: 0
XAxis mode: Wavelengths
Number of Pixels in Spectrum: 2048
>>>>>Begin Spectral Data<<<<<
223.165	-15.19
223.4	-15.19
223.635	-15.19
223.869	-22.19
224.104	-14.19
224.338	-28.19
224.573	-8.19
224.808	-21.19
225.042	-3.19
225.277	5.81
225.511	3.81
225.746	8.81
225.98	11.81
226.215	3.81
226.449	-2.19
226.683	31.81
226.918	32.81
227.152	15.81
227.387	33.81
227.621	39.81
227.856	51.81
228.09	53.81
228.324	45.81
228.559	59.81
228.793	53.81
229.027	78.81
229.262	76.81
229.496	77.81
229.73	74.81
229.964	94.81
230.199	87.81
230.433	92.81
230.667	92.81
230.901	101.81
231.136	104.81
231.37	101.81
231.604	105.81
231.838	106.81
232.072	105.81
232.306	102.81
232.541	111.81
232.775	115.81
233.009	111.81
233.243	120.81
233.477	107.81
233.711	111.81
233.945	91.81
234.179	107.81
234.413	107.81
234.647	100.81
234.881	120.81
235.115	112.81
235.349	119.81
235.583	112.81
235.817	97.81
236.051	109.81
236.285	120.81
236.519	111.81
236.753	117.81
236.987	123.81
237.221	117.81
237.455	99.81
237.689	121.81
237.922	119.81
238.156	108.81
238.39	119.81
238.624	119.81
238.858	115.81
239.091	127.81
239.325	121.81
239.559	113.81
239.793	143.81
240.027	136.81
240.26	130.81
240.494	130.81
240.728	129.81
240.961	127.81
241.195	136.81
241.429	131.81
241.662	122.81
241.896	120.81
242.13	133.81
242.363	124.81
242.597	129.81
242.83	138.81
243.064	117.81
243.298	133.81
243.531	130.81
243.765	130.81
243.998	126.81
244.232	131.81
244.465	136.81
244.699	133.81
244.932	159.81
245.166	146.81
245.399	128.81
245.633	128.81
245.866	138.81
246.099	146.81
246.333	154.81
246.566	146.81
246.8	154.81
247.033	137.81
247.266	132.81
247.5	139.81
247.733	136.81
247.966	130.81
248.2	148.81
248.433	149.81
248.666	157.81
248.899	146.81
249.133	166.81
249.366	170.81
249.599	152.81
249.832	163.81
250.066	165.81
250.299	159.81
250.532	165.81
250.765	160.81
250.998	151.81
251.231	151.81
251.465	149.81
251.698	159.81
251.931	148.81
252.164	164.81
252.397	145.81
252.63	175.81
252.863	160.81
253.096	183.81
253.329	157.81
253.562	159.81
253.795	182.81
254.028	175.81
254.261	177.81
254.494	157.81
254.727	164.81
254.96	162.81
255.193	169.81
255.426	184.81
255.659	172.81
255.892	174.81
256.124	169.81
256.357	171.81
256.59	183.81
256.823	181.81
257.056	185.81
257.289	177.81
257.521	171.81
257.754	179.81
257.987	181.81
258.22	188.81
258.452	177.81
258.685	185.81
258.918	184.81
259.151	179.81
259.383	206.81
259.616	193.81
259.849	205.81
260.081	218.81
260.314	227.81
260.547	210.81
260.779	191.81
261.012	189.81
261.244	193.81
261.477	215.81
261.71	221.81
261.942	196.81
262.175	191.81
262.407	175.81
262.64	180.81
262.872	204.81
263.105	209.81
263.337	220.81
263.57	212.81
263.802	207.81
264.035	202.81
264.267	190.81
264.499	183.81
264.732	196.81
264.964	199.81
265.197	176.81
265.429	211.81
265.661	203.81
265.894	201.81
266.126	218.81
266.358	199.81
266.591	217.81
266.823	228.81
267.055	201.81
267.287	199.81
267.52	187.81
267.752	195.81
267.984	220.81
268.216	221.81
268.448	217.81
268.681	207.81
268.913	205.81
269.145	214.81
269.377	212.81
269.609	217.81
269.841	213.81
270.073	210.81
270.306	203.81
270.538	204.81
270.77	210.81
271.002	233.81
271.234	223.81
271.466	201.81
271.698	248.81
271.93	241.81
272.162	256.81
272.394	251.81
272.626	248.81
272.858	216.81
273.09	244.81
273.322	252.81
273.553	233.81
273.785	237.81
274.017	259.81
274.249	251.81
274.481	269.81
274.713	256.81
274.945	282.81
275.176	302.81
275.408	277.81
275.64	261.81
275.872	283.81
276.104	268.81
276.335	242.81
276.567	243.81
276.799	257.81
277.031	258.81
277.262	255.81
277.494	261.81
277.726	262.81
277.957	257.81
278.189	267.81
278.421	262.81
278.652	260.81
278.884	244.81
279.115	256.81
279.347	260.81
279.579	267.81
279.81	258.81
280.042	260.81
280.273	281.81
280.505	261.81
280.736	289.81
280.968	284.81
281.199	262.81
281.431	278.81
281.662	271.81
281.894	274.81
282.125	262.81
282.356	284.81
282.588	296.81
282.819	257.81
283.051	267.81
283.282	273.81
283.513	298.81
283.745	263.81
283.976	281.81
284.207	287.81
284.439	287.81
284.67	282.81
284.901	287.81
285.132	283.81
285.364	288.81
285.595	298.81
285.826	291.81
286.057	296.81
286.288	287.81
286.52	277.81
286.751	271.81
286.982	288.81
287.213	287.81
287.444	298.81
287.675	304.81
287.906	289.81
288.138	291.81
288.369	281.81
288.6	283.81
288.831	294.81
289.062	307.81
289.293	295.81
289.524	297.81
289.755	319.81
289.986	324.81
290.217	308.81
290.448	311.81
290.679	299.81
290.91	313.81
291.141	301.81
291.371	309.81
291.602	312.81
291.833	311.81
292.064	308.81
292.295	316.81
292.526	314.81
292.757	302.81
292.987	312.81
293.218	315.81
293.449	315.81
293.68	314.81
293.91	343.81
294.141	299.81
294.372	335.81
294.603	336.81
294.833	326.81
295.064	329.81
295.295	316.81
295.525	317.81
295.756	323.81
295.987	323.81
296.217	308.81
296.448	315.81
296.679	326.81
296.909	314.81
297.14	325.81
297.37	313.81
297.601	335.81
297.831	341.81
298.062	345.81
298.292	327.81
298.523	357.81
298.753	347.81
298.984	333.81
299.214	348.81
299.445	340.81
299.675	347.81
299.905	359.81
300.136	356.81
300.366	341.81
300.597	335.81
300.827	346.81
301.057	343.81
301.288	348.81
301.518	339.81
301.748	337.81
301.979	365.81
302.209	356.81
302.439	364.81
302.669	353.81
302.9	352.81
303.13	352.81
303.36	360.81
303.59	337.81
303.82	347.81
304.051	370.81
304.281	375.81
304.511	362.81
304.741	343.81
304.971	363.81
305.201	367.81
305.431	353.81
305.661	375.81
305.891	362.81
306.121	371.81
306.352	373.81
306.582	363.81
306.812	348.81
307.042	385.81
307.272	361.81
307.502	379.81
307.731	377.81
307.961	375.81
308.191	384.81
308.421	378.81
308.651	370.81
308.881	380.81
309.111	388.81
309.341	356.81
309.571	375.81
309.8	378.81
310.03	380.81
310.26	379.81
310.49	385.81
310.72	394.81
310.949	373.81
311.179	393.81
311.409	377.81
311.639	382.81
311.868	395.81
312.098	390.81
312.328	399.81
312.557	388.81
312.787	405.81
313.017	393.81
313.246	419.81
313.476	401.81
313.706	396.81
313.935	410.81
314.165	390.81
314.394	403.81
314.624	407.81
314.853	385.81
315.083	407.81
315.312	392.81
315.542	401.81
315.771	426.81
316.001	420.81
316.23	392.81
316.46	405.81
316.689	399.81
316.919	403.81
317.148	421.81
317.377	421.81
317.607	427.81
317.836	411.81
318.065	425.81
318.295	432.81
318.524	406.81
318.753	398.81
318.983	411.81
319.212	413.81
319.441	386.81
319.67	401.81
319.9	435.81
320.129	444.81
320.358	426.81
320.587	421.81
320.816	441.81
321.046	425.81
321.275	423.81
321.504	442.81
321.733	425.81
321.962	434.81
322.191	427.81
322.42	428.81
322.649	440.81
322.878	433.81
323.108	440.81
323.337	414.81
323.566	431.81
323.795	432.81
324.024	449.81
324.253	428.81
324.482	437.81
324.71	417.81
324.939	445.81
325.168	421.81
325.397	460.81
325.626	421.81
325.855	454.81
326.084	434.81
326.313	419.81
326.542	453.81
326.77	424.81
326.999	411.81
327.228	445.81
327.457	441.81
327.686	441.81
327.914	463.81
328.143	461.81
328.372	474.81
328.6	473.81
328.829	431.81
329.058	451.81
329.287	450.81
329.515	468.81
329.744	459.81
329.972	457.81
330.201	456.81
330.43	477.81
330.658	485.81
330.887	472.81
331.115	441.81
331.344	459.81
331.572	476.81
331.801	467.81
332.03	457.81
332.258	496.81
332.486	468.81
332.715	479.81
332.943	467.81
333.172	481.81
333.4	476.81
333.629	489.81
333.857	500.81
334.085	493.81
334.314	506.81
334.542	505.81
334.771	505.81
334.999	481.81
335.227	490.81
335.455	507.81
335.684	521.81
335.912	512.81
336.14	501.81
336.369	520.81
336.597	532.81
336.825	511.81
337.053	513.81
337.281	507.81
337.51	505.81
337.738	525.81
337.966	483.81
338.194	504.81
338.422	516.81
338.65	493.81
338.878	505.81
339.106	506.81
339.334	509.81
339.562	502.81
339.79	496.81
340.018	499.81
340.246	502.81
340.474	488.81
340.702	519.81
340.93	511.81
341.158	496.81
341.386	485.81
341.614	510.81
341.842	495.81
342.07	519.81
342.298	491.81
342.526	476.81
342.754	473.81
342.981	512.81
343.209	497.81
343.437	495.81
343.665	493.81
343.893	524.81
344.12	531.81
344.348	501.81
344.576	536.81
344.804	517.81
345.031	523.81
345.259	502.81
345.487	517.81
345.714	515.81
345.942	484.81
346.17	491.81
346.397	501.81
346.625	498.81
346.853	507.81
347.08	498.81
347.308	466.81
347.535	481.81
347.763	451.81
347.99	495.81
348.218	496.81
348.445	461.81
348.673	460.81
348.9	488.81
349.128	490.81
349.355	490.81
349.583	471.81
349.81	464.81
350.037	490.81
350.265	473.81
350.492	474.81
350.72	485.81
350.947	488.81
351.174	473.81
351.402	458.81
351.629	465.81
351.856	497.81
352.083	488.81
352.311	473.81
352.538	490.81
352.765	489.81
352.992	476.81
353.22	470.81
353.447	462.81
353.674	480.81
353.901	471.81
354.128	484.81
354.355	464.81
354.583	504.81
354.81	470.81
355.037	491.81
355.264	484.81
355.491	483.81
355.718	467.81
355.945	474.81
356.172	497.81
356.399	491.81
356.626	485.81
356.853	489.81
357.08	466.81
357.307	485.81
357.534	479.81
357.761	470.81
357.988	474.81
358.215	509.81
358.441	473.81
358.668	505.81
358.895	486.81
359.122	455.81
359.349	496.81
359.576	485.81
359.802	475.81
360.029	488.81
360.256	493.81
360.483	476.81
360.709	503.81
360.936	489.81
361.163	487.81
361.39	488.81
361.616	490.81
361.843	476.81
362.07	495.81
362.296	488.81
362.523	495.81
362.749	467.81
362.976	503.81
363.203	518.81
363.429	499.81
363.656	510.81
363.882	504.81
364.109	478.81
364.335	487.81
364.562	480.81
364.788	489.81
365.015	501.81
365.241	468.81
365.468	492.81
365.694	491.81
365.92	501.81
366.147	476.81
366.373	493.81
366.599	511.81
366.826	510.81
367.052	476.81
367.278	490.81
367.505	514.81
367.731	517.81
367.957	500.81
368.184	500.81
368.41	531.81
368.636	497.81
368.862	501.81
369.089	510.81
369.315	508.81
369.541	492.81
369.767	508.81
369.993	514.81
370.219	503.81
370.445	504.81
370.672	505.81
370.898	529.81
371.124	551.81
371.35	535.81
371.576	511.81
371.802	513.81
372.028	510.81
372.254	527.81
372.48	546.81
372.706	539.81
372.932	543.81
373.158	536.81
373.384	535.81
373.61	540.81
373.835	552.81
374.061	538.81
374.287	535.81
374.513	543.81
374.739	552.81
374.965	562.81
375.191	552.81
375.416	535.81
375.642	553.81
375.868	537.81
376.094	542.81
376.319	543.81
376.545	541.81
376.771	521.81
376.997	536.81
377.222	507.81
377.448	533.81
377.674	539.81
377.899	522.81
378.125	536.81
378.35	533.81
378.576	517.81
378.802	532.81
379.027	536.81
379.253	529.81
379.478	526.81
379.704	533.81
379.929	533.81
380.155	528.81
380.38	521.81
380.606	515.81
380.831	537.81
381.057	548.81
381.282	539.81
381.507	529.81
381.733	517.81
381.958	549.81
382.184	550.81
382.409	529.81
382.634	517.81
382.86	547.81
383.085	565.81
383.31	551.81
383.535	567.81
383.761	563.81
383.986	559.81
384.211	547.81
384.436	565.81
384.662	564.81
384.887	583.81
385.112	577.81
385.337	557.81
385.562	594.81
385.787	600.81
386.013	614.81
386.238	592.81
386.463	586.81
386.688	575.81
386.913	607.81
387.138	591.81
387.363	570.81
387.588	597.81
387.813	601.81
388.038	595.81
388.263	597.81
388.488	602.81
388.713	584.81
388.938	580.81
389.163	600.81
389.387	590.81
389.612	597.81
389.837	603.81
390.062	612.81
390.287	608.81
390.512	632.81
390.736	608.81
390.961	597.81
391.186	614.81
391.411	621.81
391.636	624.81
391.86	624.81
392.085	630.81
392.31	604.81
392.534	615.81
392.759	635.81
392.984	619.81
393.208	643.81
393.433	629.81
393.658	632.81
393.882	627.81
394.107	621.81
394.331	628.81
394.556	643.81
394.78	623.81
395.005	628.81
395.229	620.81
395.454	641.81
395.678	625.81
395.903	643.81
396.127	631.81
396.352	647.81
396.576	660.81
396.801	665.81
397.025	656.81
397.249	642.81
397.474	649.81
397.698	660.81
397.922	669.81
398.147	652.81
398.371	665.81
398.595	671.81
398.82	677.81
399.044	690.81
399.268	708.81
399.492	709.81
399.717	733.81
399.941	719.81
400.165	746.81
400.389	728.81
400.613	722.81
400.837	718.81
401.062	724.81
401.286	708.81
401.51	675.81
401.734	696.81
401.958	706.81
402.182	690.81
402.406	713.81
402.63	681.81
402.854	676.81
403.078	690.81
403.302	683.81
403.526	684.81
403.75	668.81
403.974	681.81
404.198	685.81
404.422	691.81
404.645	675.81
404.869	675.81
405.093	669.81
405.317	699.81
405.541	714.81
405.765	699.81
405.988	711.81
406.212	742.81
406.436	694.81
406.66	712.81
406.883	711.81
407.107	713.81
407.331	737.81
407.555	747.81
407.778	735.81
408.002	742.81
408.226	751.81
408.449	738.81
408.673	742.81
408.896	736.81
409.12	736.81
409.344	740.81
409.567	719.81
409.791	708.81
410.014	712.81
410.238	681.81
410.461	704.81
410.685	671.81
410.908	737.81
411.132	710.81
411.355	681.81
411.578	688.81
411.802	677.81
412.025	715.81
412.249	665.81
412.472	707.81
412.695	691.81
412.919	660.81
413.142	691.81
413.365	698.81
413.589	688.81
413.812	704.81
414.035	691.81
414.258	700.81
414.482	697.81
414.705	674.81
414.928	684.81
415.151	687.81
415.374	669.81
415.597	661.81
415.821	665.81
416.044	660.81
416.267	659.81
416.49	665.81
416.713	658.81
416.936	677.81
417.159	646.81
417.382	645.81
417.605	641.81
417.828	652.81
418.051	633.81
418.274	655.81
418.497	645.81
418.72	644.81
418.943	616.81
419.166	700.81
419.389	698.81
419.611	691.81
419.834	683.81
420.057	659.81
420.28	641.81
420.503	627.81
420.726	635.81
420.948	617.81
421.171	659.81
421.394	647.81
421.617	627.81
421.839	627.81
422.062	634.81
422.285	618.81
422.507	646.81
422.73	631.81
422.953	631.81
423.175	648.81
423.398	679.81
423.621	645.81
423.843	642.81
424.066	617.81
424.288	630.81
424.511	671.81
424.733	630.81
424.956	630.81
425.178	630.81
425.401	637.81
425.623	632.81
425.846	625.81
426.068	628.81
426.291	628.81
426.513	642.81
426.735	641.81
426.958	628.81
427.18	619.81
427.402	635.81
427.625	611.81
427.847	652.81
428.069	635.81
428.292	624.81
428.514	633.81
428.736	619.81
428.958	612.81
429.181	616.81
429.403	599.81
429.625	632.81
429.847	629.81
430.069	631.81
430.292	633.81
430.514	598.81
430.736	627.81
430.958	657.81
431.18	643.81
431.402	649.81
431.624	595.81
431.846	631.81
432.068	627.81
432.29	636.81
432.512	611.81
432.734	620.81
432.956	617.81
433.178	612.81
433.4	624.81
433.622	653.81
433.844	654.81
434.066	633.81
434.287	615.81
434.509	632.81
434.731	643.81
434.953	655.81
435.175	625.81
435.397	653.81
435.618	628.81
435.84	611.81
436.062	635.81
436.284	611.81
436.505	617.81
436.727	617.81
436.949	633.81
437.17	628.81
437.392	612.81
437.614	599.81
437.835	608.81
438.057	617.81
438.278	596.81
438.5	592.81
438.721	618.81
438.943	611.81
439.165	616.81
439.386	610.81
439.608	597.81
439.829	590.81
440.05	602.81
440.272	608.81
440.493	588.81
440.715	599.81
440.936	627.81
441.158	601.81
441.379	612.81
441.6	642.81
441.822	602.81
442.043	613.81
442.264	635.81
442.486	609.81
442.707	630.81
442.928	620.81
443.149	632.81
443.371	635.81
443.592	629.81
443.813	627.81
444.034	639.81
444.255	632.81
444.476	628.81
444.698	630.81
444.919	623.81
445.14	723.81
445.361	673.81
445.582	625.81
445.803	634.81
446.024	590.81
446.245	626.81
446.466	611.81
446.687	604.81
446.908	595.81
447.129	598.81
447.35	583.81
447.571	603.81
447.792	592.81
448.013	570.81
448.234	570.81
448.455	587.81
448.675	574.81
448.896	583.81
449.117	576.81
449.338	575.81
449.559	563.81
449.779	549.81
450	569.81
450.221	561.81
450.442	557.81
450.662	586.81
450.883	589.81
451.104	575.81
451.324	570.81
451.545	551.81
451.766	561.81
451.986	551.81
452.207	547.81
452.428	554.81
452.648	566.81
452.869	551.81
453.089	545.81
453.31	562.81
453.53	547.81
453.751	575.81
453.971	555.81
454.192	559.81
454.412	531.81
454.633	555.81
454.853	547.81
455.073	551.81
455.294	586.81
455.514	544.81
455.734	546.81
455.955	555.81
456.175	560.81
456.395	551.81
456.616	549.81
456.836	549.81
457.056	559.81
457.276	552.81
457.497	561.81
457.717	546.81
457.937	577.81
458.157	565.81
458.377	574.81
458.598	582.81
458.818	599.81
459.038	589.81
459.258	606.81
459.478	601.81
459.698	585.81
459.918	589.81
460.138	628.81
460.358	601.81
460.578	632.81
460.798	635.81
461.018	633.81
461.238	631.81
461.458	654.81
461.678	657.81
461.898	649.81
462.118	655.81
462.338	663.81
462.558	662.81
462.777	663.81
462.997	671.81
463.217	669.81
463.437	693.81
463.657	684.81
463.876	666.81
464.096	695.81
464.316	689.81
464.536	655.81
464.755	679.81
464.975	644.81
465.195	677.81
465.414	656.81
465.634	645.81
465.854	644.81
466.073	636.81
466.293	623.81
466.512	599.81
466.732	620.81
466.951	642.81
467.171	623.81
467.391	604.81
467.61	613.81
467.829	600.81
468.049	616.81
468.268	593.81
468.488	608.81
468.707	615.81
468.927	615.81
469.146	607.81
469.365	607.81
469.585	614.81
469.804	610.81
470.023	617.81
470.243	625.81
470.462	583.81
470.681	583.81
470.901	619.81
471.12	617.81
471.339	609.81
471.558	603.81
471.777	610.81
471.997	607.81
472.216	625.81
472.435	625.81
472.654	623.81
472.873	628.81
473.092	612.81
473.311	633.81
473.53	629.81
473.749	617.81
473.968	657.81
474.187	606.81
474.406	642.81
474.625	634.81
474.844	643.81
475.063	630.81
475.282	637.81
475.501	653.81
475.72	639.81
475.939	640.81
476.158	645.81
476.377	669.81
476.596	665.81
476.814	694.81
477.033	639.81
477.252	659.81
477.471	658.81
477.69	674.81
477.908	665.81
478.127	680.81
478.346	689.81
478.564	671.81
478.783	699.81
479.002	744.81
479.22	706.81
479.439	729.81
479.658	717.81
479.876	721.81
480.095	738.81
480.313	747.81
480.532	723.81
480.751	745.81
480.969	727.81
481.188	740.81
481.406	746.81
481.624	760.81
481.843	727.81
482.061	745.81
482.28	741.81
482.498	730.81
482.717	746.81
482.935	732.81
483.153	754.81
483.372	739.81
483.59	744.81
483.808	737.81
484.027	746.81
484.245	743.81
484.463	740.81
484.681	753.81
484.9	730.81
485.118	755.81
485.336	756.81
485.554	775.81
485.772	766.81
485.99	773.81
486.209	768.81
486.427	753.81
486.645	754.81
486.863	749.81
487.081	765.81
487.299	755.81
487.517	774.81
487.735	767.81
487.953	791.81
488.171	788.81
488.389	782.81
488.607	755.81
488.825	775.81
489.043	788.81
489.261	757.81
489.479	756.81
489.696	773.81
489.914	782.81
490.132	775.81
490.35	771.81
490.568	780.81
490.786	792.81
491.003	782.81
491.221	813.81
491.439	789.81
491.657	791.81
491.874	802.81
492.092	804.81
492.31	790.81
492.527	777.81
492.745	787.81
492.963	773.81
493.18	815.81
493.398	781.81
493.615	807.81
493.833	811.81
494.05	801.81
494.268	817.81
494.485	783.81
494.703	779.81
494.92	821.81
495.138	777.81
495.355	790.81
495.573	822.81
495.79	839.81
496.008	841.81
496.225	823.81
496.442	851.81
496.66	859.81
496.877	871.81
497.094	877.81
497.312	891.81
497.529	875.81
497.746	887.81
497.963	898.81
498.181	945.81
498.398	935.81
498.615	940.81
498.832	951.81
499.049	953.81
499.267	992.81
499.484	999.81
499.701	1037.81
499.918	1036.81
500.135	1069.81
500.352	1092.81
500.569	1115.81
500.786	1091.81
501.003	1118.81
501.22	1103.81
501.437	1038.81
501.654	1031.81
501.871	1017.81
502.088	968.81
502.305	984.81
502.522	958.81
502.739	927.81
502.956	902.81
503.172	905.81
503.389	895.81
503.606	871.81
503.823	877.81
504.04	881.81
504.256	867.81
504.473	867.81
504.69	858.81
504.907	833.81
505.123	819.81
505.34	812.81
505.557	793.81
505.773	790.81
505.99	789.81
506.207	780.81
506.423	776.81
506.64	731.81
506.856	751.81
507.073	749.81
507.289	764.81
507.506	750.81
507.722	733.81
507.939	739.81
508.155	723.81
508.372	724.81
508.588	709.81
508.805	708.81
509.021	692.81
509.238	702.81
509.454	710.81
509.67	677.81
509.887	691.81
510.103	668.81
510.319	700.81
510.536	679.81
510.752	671.81
510.968	687.81
511.184	669.81
511.401	661.81
511.617	678.81
511.833	683.81
512.049	669.81
512.265	696.81
512.481	678.81
512.698	654.81
512.914	691.81
513.13	675.81
513.346	642.81
513.562	664.81
513.778	655.81
513.994	665.81
514.21	669.81
514.426	707.81
514.642	697.81
514.858	667.81
515.074	661.81
515.29	655.81
515.506	693.81
515.721	692.81
515.937	662.81
516.153	680.81
516.369	669.81
516.585	688.81
516.801	704.81
517.016	700.81
517.232	689.81
517.448	743.81
517.664	716.81
517.879	704.81
518.095	723.81
518.311	701.81
518.527	688.81
518.742	683.81
518.958	701.81
519.173	659.81
519.389	675.81
519.605	676.81
519.82	675.81
520.036	674.81
520.251	683.81
520.467	664.81
520.682	652.81
520.898	666.81
521.113	661.81
521.329	666.81
521.544	645.81
521.76	676.81
521.975	619.81
522.19	626.81
522.406	631.81
522.621	616.81
522.836	615.81
523.052	624.81
523.267	635.81
523.482	634.81
523.698	607.81
523.913	605.81
524.128	624.81
524.343	643.81
524.559	614.81
524.774	612.81
524.989	612.81
525.204	631.81
525.419	616.81
525.634	605.81
525.849	610.81
526.064	621.81
526.28	621.81
526.495	617.81
526.71	614.81
526.925	583.81
527.14	609.81
527.355	591.81
527.57	589.81
527.785	606.81
527.999	610.81
528.214	582.81
528.429	592.81
528.644	602.81
528.859	623.81
529.074	582.81
529.289	594.81
529.503	591.81
529.718	588.81
529.933	587.81
530.148	569.81
530.363	599.81
530.577	598.81
530.792	613.81
531.007	565.81
531.221	585.81
531.436	609.81
531.651	614.81
531.865	577.81
532.08	587.81
532.295	613.81
532.509	595.81
532.724	582.81
532.938	571.81
533.153	585.81
533.367	581.81
533.582	577.81
533.796	571.81
534.011	561.81
534.225	557.81
534.44	586.81
534.654	601.81
534.868	570.81
535.083	596.81
535.297	575.81
535.511	582.81
535.726	587.81
535.94	564.81
536.154	572.81
536.369	574.81
536.583	567.81
536.797	568.81
537.011	557.81
537.225	579.81
537.44	573.81
537.654	565.81
537.868	552.81
538.082	569.81
538.296	571.81
538.51	561.81
538.724	567.81
538.938	550.81
539.153	549.81
539.367	550.81
539.581	545.81
539.795	539.81
540.009	569.81
540.222	560.81
540.436	559.81
540.65	539.81
540.864	544.81
541.078	555.81
541.292	552.81
541.506	544.81
541.72	545.81
541.934	532.81
542.147	549.81
542.361	547.81
542.575	556.81
542.789	537.81
543.002	527.81
543.216	536.81
543.43	543.81
543.644	543.81
543.857	541.81
544.071	565.81
544.285	547.81
544.498	515.81
544.712	532.81
544.925	553.81
545.139	547.81
545.352	546.81
545.566	535.81
545.779	545.81
545.993	521.81
546.206	548.81
546.42	547.81
546.633	526.81
546.847	557.81
547.06	567.81
547.274	538.81
547.487	526.81
547.7	560.81
547.914	546.81
548.127	544.81
548.34	525.81
548.554	523.81
548.767	536.81
548.98	535.81
549.193	538.81
549.407	538.81
549.62	545.81
549.833	563.81
550.046	556.81
550.259	534.81
550.473	524.81
550.686	549.81
550.899	541.81
551.112	517.81
551.325	543.81
551.538	530.81
551.751	540.81
551.964	562.81
552.177	549.81
552.39	522.81
552.603	545.81
552.816	549.81
553.029	537.81
553.242	529.81
553.455	524.81
553.667	533.81
553.88	523.81
554.093	535.81
554.306	531.81
554.519	514.81
554.732	511.81
554.944	502.81
555.157	490.81
555.37	499.81
555.583	509.81
555.795	499.81
556.008	491.81
556.221	490.81
556.433	510.81
556.646	479.81
556.859	473.81
557.071	518.81
557.284	488.81
557.496	481.81
557.709	485.81
557.921	480.81
558.134	452.81
558.346	458.81
558.559	472.81
558.771	467.81
558.984	496.81
559.196	473.81
559.409	469.81
559.621	462.81
559.833	450.81
560.046	460.81
560.258	477.81
560.47	472.81
560.683	485.81
560.895	478.81
561.107	463.81
561.32	454.81
561.532	464.81
561.744	458.81
561.956	479.81
562.168	472.81
562.381	458.81
562.593	471.81
562.805	492.81
563.017	486.81
563.229	471.81
563.441	464.81
563.653	471.81
563.865	460.81
564.077	491.81
564.289	495.81
564.501	497.81
564.713	477.81
564.925	508.81
565.137	493.81
565.349	506.81
565.561	521.81
565.773	511.81
565.985	522.81
566.197	524.81
566.408	517.81
566.62	523.81
566.832	536.81
567.044	543.81
567.255	516.81
567.467	522.81
567.679	523.81
567.891	526.81
568.102	531.81
568.314	525.81
568.526	512.81
568.737	504.81
568.949	489.81
569.161	487.81
569.372	482.81
569.584	482.81
569.795	461.81
570.007	464.81
570.218	434.81
570.43	476.81
570.641	459.81
570.853	449.81
571.064	456.81
571.276	433.81
571.487	414.81
571.698	433.81
571.91	425.81
572.121	433.81
572.333	423.81
572.544	413.81
572.755	413.81
572.966	418.81
573.178	404.81
573.389	402.81
573.6	400.81
573.811	394.81
574.023	387.81
574.234	392.81
574.445	411.81
574.656	391.81
574.867	395.81
575.078	396.81
575.289	397.81
575.501	388.81
575.712	383.81
575.923	395.81
576.134	387.81
576.345	371.81
576.556	361.81
576.767	375.81
576.978	359.81
577.188	371.81
577.399	375.81
577.61	389.81
577.821	359.81
578.032	362.81
578.243	354.81
578.454	385.81
578.665	366.81
578.875	369.81
579.086	374.81
579.297	379.81
579.508	371.81
579.718	346.81
579.929	345.81
580.14	360.81
580.35	344.81
580.561	356.81
580.772	361.81
580.982	357.81
581.193	331.81
581.403	324.81
581.614	353.81
581.825	338.81
582.035	345.81
582.246	339.81
582.456	331.81
582.667	351.81
582.877	346.81
583.087	328.81
583.298	345.81
583.508	347.81
583.719	330.81
583.929	340.81
584.139	342.81
584.35	346.81
584.56	341.81
584.77	339.81
584.981	343.81
585.191	334.81
585.401	331.81
585.611	342.81
585.821	336.81
586.032	311.81
586.242	324.81
586.452	311.81
586.662	331.81
586.872	323.81
587.082	337.81
587.292	339.81
587.502	338.81
587.713	325.81
587.923	352.81
588.133	331.81
588.343	313.81
588.553	314.81
588.762	326.81
588.972	345.81
589.182	391.81
589.392	346.81
589.602	329.81
589.812	355.81
590.022	344.81
590.232	320.81
590.441	330.81
590.651	332.81
590.861	332.81
591.071	343.81
591.281	352.81
591.49	327.81
591.7	315.81
591.91	335.81
592.119	328.81
592.329	329.81
592.539	326.81
592.748	325.81
592.958	338.81
593.167	314.81
593.377	329.81
593.587	329.81
593.796	303.81
594.006	293.81
594.215	328.81
594.424	314.81
594.634	297.81
594.843	308.81
595.053	317.81
595.262	333.81
595.472	291.81
595.681	315.81
595.89	320.81
596.1	293.81
596.309	313.81
596.518	314.81
596.727	310.81
596.937	299.81
597.146	298.81
597.355	295.81
597.564	287.81
597.774	312.81
597.983	304.81
598.192	304.81
598.401	287.81
598.61	315.81
598.819	320.81
599.028	285.81
599.237	273.81
599.446	295.81
599.655	285.81
599.864	267.81
600.073	284.81
600.282	287.81
600.491	271.81
600.7	283.81
600.909	274.81
601.118	278.81
601.327	283.81
601.536	285.81
601.745	277.81
601.953	290.81
602.162	281.81
602.371	279.81
602.58	280.81
602.789	258.81
602.997	291.81
603.206	263.81
603.415	272.81
603.623	277.81
603.832	277.81
604.041	267.81
604.249	270.81
604.458	266.81
604.666	281.81
604.875	287.81
605.084	274.81
605.292	269.81
605.501	268.81
605.709	274.81
605.918	272.81
606.126	272.81
606.334	244.81
606.543	247.81
606.751	249.81
606.96	258.81
607.168	257.81
607.376	246.81
607.585	263.81
607.793	267.81
608.001	272.81
608.21	260.81
608.418	265.81
608.626	255.81
608.834	262.81
609.043	267.81
609.251	254.81
609.459	265.81
609.667	267.81
609.875	266.81
610.083	267.81
610.291	259.81
610.499	242.81
610.707	232.81
610.916	235.81
611.124	256.81
611.332	257.81
611.54	235.81
611.748	249.81
611.955	250.81
612.163	246.81
612.371	237.81
612.579	248.81
612.787	241.81
612.995	241.81
613.203	240.81
613.411	261.81
613.618	244.81
613.826	258.81
614.034	226.81
614.242	250.81
614.449	235.81
614.657	255.81
614.865	245.81
615.072	238.81
615.28	236.81
615.488	235.81
615.695	255.81
615.903	259.81
616.111	236.81
616.318	258.81
616.526	257.81
616.733	237.81
616.941	229.81
617.148	261.81
617.356	258.81
617.563	226.81
617.771	240.81
617.978	229.81
618.185	234.81
618.393	244.81
618.6	239.81
618.807	239.81
619.015	247.81
619.222	233.81
619.429	246.81
619.637	240.81
619.844	211.81
620.051	220.81
620.258	242.81
620.466	223.81
620.673	224.81
620.88	228.81
621.087	229.81
621.294	215.81
621.501	211.81
621.708	240.81
621.915	253.81
622.122	236.81
622.329	230.81
622.536	233.81
622.743	218.81
622.95	227.81
623.157	219.81
623.364	223.81
623.571	229.81
623.778	226.81
623.985	227.81
624.192	235.81
624.399	218.81
624.606	242.81
624.812	220.81
625.019	229.81
625.226	220.81
625.433	221.81
625.639	220.81
625.846	209.81
626.053	225.81
626.259	220.81
626.466	209.81
626.673	203.81
626.879	200.81
627.086	216.81
627.293	225.81
627.499	223.81
627.706	226.81
627.912	205.81
628.119	208.81
628.325	200.81
628.532	225.81
628.738	205.81
628.945	196.81
629.151	215.81
629.357	212.81
629.564	223.81
629.77	207.81
629.976	223.81
630.183	222.81
630.389	201.81
630.595	217.81
630.802	222.81
631.008	207.81
631.214	212.81
631.42	201.81
631.627	205.81
631.833	218.81
632.039	201.81
632.245	199.81
632.451	194.81
632.657	197.81
632.863	197.81
633.069	191.81
633.275	180.81
633.481	187.81
633.688	223.81
633.893	206.81
634.099	210.81
634.305	212.81
634.511	186.81
634.717	210.81
634.923	203.81
635.129	202.81
635.335	201.81
635.541	194.81
635.747	196.81
635.952	192.81
636.158	201.81
636.364	185.81
636.57	193.81
636.775	192.81
636.981	194.81
637.187	198.81
637.392	183.81
637.598	196.81
637.804	201.81
638.009	203.81
638.215	191.81
638.421	186.81
638.626	194.81
638.832	194.81
639.037	197.81
639.243	191.81
639.448	179.81
639.654	215.81
639.859	184.81
640.065	191.81
640.27	184.81
640.475	177.81
640.681	185.81
640.886	186.81
641.091	197.81
641.297	179.81
641.502	212.81
641.707	200.81
641.913	201.81
642.118	193.81
642.323	190.81
642.528	191.81
642.733	190.81
642.939	189.81
643.144	194.81
643.349	185.81
643.554	185.81
643.759	192.81
643.964	199.81
644.169	195.81
644.374	192.81
644.579	190.81
644.784	180.81
644.989	180.81
645.194	196.81
645.399	204.81
645.604	173.81
645.809	181.81
646.014	171.81
646.219	180.81
646.423	185.81
646.628	183.81
646.833	177.81
647.038	175.81
647.243	193.81
647.447	209.81
647.652	198.81
647.857	185.81
648.062	198.81
648.266	181.81
648.471	196.81
648.676	190.81
648.88	179.81
649.085	186.81
649.289	207.81
649.494	202.81
649.698	204.81
649.903	171.81
650.107	185.81
650.312	210.81
650.516	173.81
650.721	197.81
650.925	179.81
651.13	204.81
651.334	179.81
651.539	190.81
651.743	187.81
651.947	189.81
652.152	196.81
652.356	184.81
652.56	169.81
652.764	189.81
652.969	183.81
653.173	174.81
653.377	183.81
653.581	179.81
653.785	165.81
653.99	178.81
654.194	169.81
654.398	176.81
654.602	166.81
654.806	164.81
655.01	179.81
655.214	180.81
655.418	158.81
655.622	166.81
655.826	183.81
656.03	178.81
656.234	164.81
656.438	188.81
656.642	168.81
656.846	167.81
657.049	184.81
657.253	161.81
657.457	158.81
657.661	139.81
657.865	136.81
658.068	136.81
658.272	137.81
658.476	131.81
658.68	123.81
658.883	125.81
659.087	121.81
659.291	112.81
659.494	106.81
659.698	112.81
659.901	112.81
660.105	99.81
660.309	104.81
660.512	107.81
660.716	115.81
660.919	108.81
661.123	115.81
661.326	87.81
661.53	78.81
661.733	92.81
661.936	91.81
662.14	95.81
662.343	80.81
662.546	89.81
662.75	94.81
662.953	82.81
663.156	81.81
663.36	83.81
663.563	82.81
663.766	83.81
663.969	88.81
664.173	72.81
664.376	84.81
664.579	86.81
664.782	84.81
664.985	88.81
665.188	103.81
665.391	82.81
665.594	85.81
665.797	83.81
666	87.81
666.203	76.81
666.406	79.81
666.609	59.81
666.812	82.81
667.015	84.81
667.218	72.81
667.421	75.81
667.624	88.81
667.827	79.81
668.03	83.81
668.232	76.81
668.435	79.81
668.638	97.81
668.841	89.81
669.043	76.81
669.246	78.81
669.449	83.81
669.651	70.81
669.854	84.81
670.057	67.81
670.259	81.81
670.462	84.81
670.665	81.81
670.867	90.81
671.07	89.81
671.272	82.81
671.475	88.81
671.677	84.81
671.88	75.81
672.082	76.81
672.284	86.81
672.487	82.81
672.689	88.81
672.892	74.81
