Data from Fe(NO3)3@0.0125M.TitratingCurve.Agarose3%dH2O.NegLispCup.LampEnergy10.LIBS07252019_HRD10591_17-00-06-336.txt Node
Date: Thu Jul 25 17:00:06 EDT 2019
User: cochatt
Spectrometer: HR+D1059
Trigger mode: 1
Integration Time (sec): 1.000000E-1
Scans to average: 1
Electric dark correction enabled: true
Nonlinearity correction enabled: false
Boxcar width: 0
XAxis mode: Wavelengths
Number of Pixels in Spectrum: 2048
>>>>>Begin Spectral Data<<<<<
223.165	-7.25
223.4	-7.25
223.635	-7.25
223.869	-21.25
224.104	-20.25
224.338	-18.25
224.573	-11.25
224.808	-13.25
225.042	-4.25
225.277	-6.25
225.511	-3.25
225.746	-3.25
225.98	3.75
226.215	8.75
226.449	23.75
226.683	14.75
226.918	18.75
227.152	38.75
227.387	32.75
227.621	46.75
227.856	48.75
228.09	56.75
228.324	59.75
228.559	58.75
228.793	65.75
229.027	88.75
229.262	81.75
229.496	88.75
229.73	101.75
229.964	99.75
230.199	98.75
230.433	100.75
230.667	106.75
230.901	89.75
231.136	92.75
231.37	114.75
231.604	114.75
231.838	112.75
232.072	106.75
232.306	112.75
232.541	114.75
232.775	102.75
233.009	93.75
233.243	110.75
233.477	116.75
233.711	96.75
233.945	93.75
234.179	92.75
234.413	101.75
234.647	120.75
234.881	124.75
235.115	113.75
235.349	106.75
235.583	107.75
235.817	104.75
236.051	109.75
236.285	95.75
236.519	124.75
236.753	101.75
236.987	121.75
237.221	112.75
237.455	124.75
237.689	117.75
237.922	110.75
238.156	108.75
238.39	119.75
238.624	115.75
238.858	128.75
239.091	125.75
239.325	120.75
239.559	120.75
239.793	114.75
240.027	131.75
240.26	124.75
240.494	124.75
240.728	119.75
240.961	123.75
241.195	129.75
241.429	120.75
241.662	132.75
241.896	119.75
242.13	106.75
242.363	126.75
242.597	121.75
242.83	120.75
243.064	123.75
243.298	126.75
243.531	124.75
243.765	125.75
243.998	139.75
244.232	116.75
244.465	128.75
244.699	138.75
244.932	139.75
245.166	140.75
245.399	137.75
245.633	140.75
245.866	124.75
246.099	122.75
246.333	133.75
246.566	128.75
246.8	126.75
247.033	128.75
247.266	135.75
247.5	138.75
247.733	135.75
247.966	135.75
248.2	125.75
248.433	142.75
248.666	128.75
248.899	134.75
249.133	138.75
249.366	153.75
249.599	165.75
249.832	141.75
250.066	151.75
250.299	142.75
250.532	130.75
250.765	142.75
250.998	140.75
251.231	131.75
251.465	152.75
251.698	159.75
251.931	158.75
252.164	150.75
252.397	155.75
252.63	134.75
252.863	156.75
253.096	171.75
253.329	154.75
253.562	152.75
253.795	178.75
254.028	168.75
254.261	148.75
254.494	179.75
254.727	167.75
254.96	161.75
255.193	188.75
255.426	138.75
255.659	156.75
255.892	174.75
256.124	165.75
256.357	161.75
256.59	169.75
256.823	164.75
257.056	156.75
257.289	146.75
257.521	181.75
257.754	149.75
257.987	158.75
258.22	163.75
258.452	168.75
258.685	156.75
258.918	178.75
259.151	190.75
259.383	173.75
259.616	176.75
259.849	169.75
260.081	195.75
260.314	204.75
260.547	200.75
260.779	176.75
261.012	190.75
261.244	184.75
261.477	192.75
261.71	197.75
261.942	188.75
262.175	173.75
262.407	173.75
262.64	177.75
262.872	182.75
263.105	180.75
263.337	189.75
263.57	208.75
263.802	188.75
264.035	177.75
264.267	187.75
264.499	190.75
264.732	180.75
264.964	180.75
265.197	164.75
265.429	180.75
265.661	177.75
265.894	202.75
266.126	201.75
266.358	194.75
266.591	190.75
266.823	193.75
267.055	183.75
267.287	191.75
267.52	200.75
267.752	182.75
267.984	212.75
268.216	190.75
268.448	187.75
268.681	205.75
268.913	206.75
269.145	206.75
269.377	200.75
269.609	205.75
269.841	199.75
270.073	204.75
270.306	203.75
270.538	197.75
270.77	193.75
271.002	199.75
271.234	218.75
271.466	212.75
271.698	190.75
271.93	221.75
272.162	227.75
272.394	220.75
272.626	205.75
272.858	221.75
273.09	221.75
273.322	217.75
273.553	209.75
273.785	222.75
274.017	217.75
274.249	246.75
274.481	237.75
274.713	238.75
274.945	248.75
275.176	246.75
275.408	246.75
275.64	248.75
275.872	235.75
276.104	254.75
276.335	229.75
276.567	220.75
276.799	222.75
277.031	234.75
277.262	219.75
277.494	216.75
277.726	226.75
277.957	234.75
278.189	248.75
278.421	250.75
278.652	241.75
278.884	229.75
279.115	229.75
279.347	228.75
279.579	223.75
279.81	238.75
280.042	234.75
280.273	248.75
280.505	250.75
280.736	230.75
280.968	243.75
281.199	265.75
281.431	240.75
281.662	243.75
281.894	228.75
282.125	231.75
282.356	243.75
282.588	256.75
282.819	240.75
283.051	245.75
283.282	252.75
283.513	257.75
283.745	266.75
283.976	267.75
284.207	270.75
284.439	252.75
284.67	233.75
284.901	250.75
285.132	249.75
285.364	233.75
285.595	254.75
285.826	257.75
286.057	247.75
286.288	262.75
286.52	276.75
286.751	256.75
286.982	267.75
287.213	269.75
287.444	262.75
287.675	273.75
287.906	269.75
288.138	282.75
288.369	281.75
288.6	266.75
288.831	280.75
289.062	271.75
289.293	260.75
289.524	266.75
289.755	281.75
289.986	268.75
290.217	264.75
290.448	260.75
290.679	282.75
290.91	280.75
291.141	278.75
291.371	267.75
291.602	267.75
291.833	291.75
292.064	271.75
292.295	280.75
292.526	285.75
292.757	279.75
292.987	275.75
293.218	274.75
293.449	265.75
293.68	265.75
293.91	281.75
294.141	284.75
294.372	276.75
294.603	272.75
294.833	283.75
295.064	275.75
295.295	280.75
295.525	294.75
295.756	289.75
295.987	270.75
296.217	295.75
296.448	281.75
296.679	291.75
296.909	290.75
297.14	307.75
297.37	294.75
297.601	310.75
297.831	283.75
298.062	300.75
298.292	304.75
298.523	314.75
298.753	301.75
298.984	302.75
299.214	296.75
299.445	297.75
299.675	301.75
299.905	300.75
300.136	326.75
300.366	308.75
300.597	314.75
300.827	322.75
301.057	338.75
301.288	319.75
301.518	308.75
301.748	312.75
301.979	315.75
302.209	326.75
302.439	316.75
302.669	304.75
302.9	324.75
303.13	320.75
303.36	307.75
303.59	312.75
303.82	314.75
304.051	334.75
304.281	320.75
304.511	306.75
304.741	320.75
304.971	324.75
305.201	325.75
305.431	336.75
305.661	318.75
305.891	347.75
306.121	312.75
306.352	324.75
306.582	344.75
306.812	304.75
307.042	318.75
307.272	340.75
307.502	322.75
307.731	332.75
307.961	327.75
308.191	336.75
308.421	329.75
308.651	327.75
308.881	310.75
309.111	328.75
309.341	332.75
309.571	319.75
309.8	325.75
310.03	322.75
310.26	323.75
310.49	324.75
310.72	345.75
310.949	338.75
311.179	341.75
311.409	320.75
311.639	316.75
311.868	319.75
312.098	342.75
312.328	349.75
312.557	350.75
312.787	336.75
313.017	338.75
313.246	352.75
313.476	349.75
313.706	356.75
313.935	353.75
314.165	353.75
314.394	342.75
314.624	332.75
314.853	354.75
315.083	359.75
315.312	378.75
315.542	372.75
315.771	350.75
316.001	354.75
316.23	357.75
316.46	372.75
316.689	354.75
316.919	361.75
317.148	368.75
317.377	346.75
317.607	370.75
317.836	355.75
318.065	344.75
318.295	364.75
318.524	362.75
318.753	362.75
318.983	355.75
319.212	371.75
319.441	357.75
319.67	384.75
319.9	380.75
320.129	363.75
320.358	370.75
320.587	381.75
320.816	361.75
321.046	370.75
321.275	374.75
321.504	362.75
321.733	373.75
321.962	366.75
322.191	378.75
322.42	380.75
322.649	384.75
322.878	378.75
323.108	388.75
323.337	373.75
323.566	360.75
323.795	390.75
324.024	370.75
324.253	394.75
324.482	384.75
324.71	392.75
324.939	395.75
325.168	392.75
325.397	381.75
325.626	379.75
325.855	401.75
326.084	417.75
326.313	407.75
326.542	414.75
326.77	409.75
326.999	391.75
327.228	402.75
327.457	380.75
327.686	400.75
327.914	390.75
328.143	393.75
328.372	388.75
328.6	400.75
328.829	399.75
329.058	394.75
329.287	412.75
329.515	400.75
329.744	385.75
329.972	412.75
330.201	412.75
330.43	392.75
330.658	397.75
330.887	409.75
331.115	404.75
331.344	407.75
331.572	407.75
331.801	415.75
332.03	418.75
332.258	398.75
332.486	416.75
332.715	420.75
332.943	432.75
333.172	455.75
333.4	465.75
333.629	436.75
333.857	432.75
334.085	450.75
334.314	451.75
334.542	449.75
334.771	465.75
334.999	466.75
335.227	452.75
335.455	433.75
335.684	438.75
335.912	465.75
336.14	462.75
336.369	472.75
336.597	444.75
336.825	453.75
337.053	470.75
337.281	468.75
337.51	455.75
337.738	465.75
337.966	417.75
338.194	446.75
338.422	442.75
338.65	439.75
338.878	432.75
339.106	435.75
339.334	410.75
339.562	432.75
339.79	443.75
340.018	408.75
340.246	433.75
340.474	440.75
340.702	430.75
340.93	438.75
341.158	429.75
341.386	429.75
341.614	419.75
341.842	448.75
342.07	397.75
342.298	413.75
342.526	433.75
342.754	407.75
342.981	428.75
343.209	423.75
343.437	441.75
343.665	443.75
343.893	462.75
344.12	460.75
344.348	470.75
344.576	451.75
344.804	451.75
345.031	445.75
345.259	433.75
345.487	455.75
345.714	435.75
345.942	417.75
346.17	425.75
346.397	432.75
346.625	434.75
346.853	422.75
347.08	428.75
347.308	435.75
347.535	396.75
347.763	412.75
347.99	411.75
348.218	411.75
348.445	427.75
348.673	424.75
348.9	429.75
349.128	434.75
349.355	434.75
349.583	416.75
349.81	397.75
350.037	425.75
350.265	425.75
350.492	407.75
350.72	437.75
350.947	397.75
351.174	403.75
351.402	408.75
351.629	422.75
351.856	425.75
352.083	394.75
352.311	410.75
352.538	413.75
352.765	414.75
352.992	408.75
353.22	410.75
353.447	411.75
353.674	422.75
353.901	406.75
354.128	426.75
354.355	408.75
354.583	395.75
354.81	402.75
355.037	417.75
355.264	404.75
355.491	381.75
355.718	432.75
355.945	422.75
356.172	406.75
356.399	418.75
356.626	440.75
356.853	443.75
357.08	419.75
357.307	424.75
357.534	437.75
357.761	406.75
357.988	428.75
358.215	432.75
358.441	439.75
358.668	423.75
358.895	438.75
359.122	422.75
359.349	425.75
359.576	408.75
359.802	425.75
360.029	417.75
360.256	429.75
360.483	425.75
360.709	434.75
360.936	428.75
361.163	443.75
361.39	446.75
361.616	424.75
361.843	435.75
362.07	434.75
362.296	432.75
362.523	434.75
362.749	442.75
362.976	417.75
363.203	438.75
363.429	443.75
363.656	427.75
363.882	438.75
364.109	409.75
364.335	454.75
364.562	441.75
364.788	446.75
365.015	451.75
365.241	445.75
365.468	441.75
365.694	435.75
365.92	416.75
366.147	433.75
366.373	428.75
366.599	429.75
366.826	442.75
367.052	465.75
367.278	430.75
367.505	434.75
367.731	438.75
367.957	443.75
368.184	438.75
368.41	467.75
368.636	455.75
368.862	458.75
369.089	452.75
369.315	465.75
369.541	442.75
369.767	460.75
369.993	463.75
370.219	458.75
370.445	443.75
370.672	463.75
370.898	467.75
371.124	479.75
371.35	463.75
371.576	468.75
371.802	453.75
372.028	473.75
372.254	448.75
372.48	448.75
372.706	466.75
372.932	459.75
373.158	483.75
373.384	460.75
373.61	497.75
373.835	462.75
374.061	461.75
374.287	469.75
374.513	471.75
374.739	486.75
374.965	510.75
375.191	500.75
375.416	475.75
375.642	477.75
375.868	483.75
376.094	493.75
376.319	473.75
376.545	478.75
376.771	478.75
376.997	467.75
377.222	496.75
377.448	462.75
377.674	445.75
377.899	477.75
378.125	468.75
378.35	455.75
378.576	454.75
378.802	478.75
379.027	476.75
379.253	464.75
379.478	483.75
379.704	467.75
379.929	477.75
380.155	489.75
380.38	467.75
380.606	480.75
380.831	473.75
381.057	478.75
381.282	471.75
381.507	504.75
381.733	484.75
381.958	485.75
382.184	493.75
382.409	491.75
382.634	521.75
382.86	485.75
383.085	502.75
383.31	493.75
383.535	504.75
383.761	513.75
383.986	482.75
384.211	510.75
384.436	506.75
384.662	510.75
384.887	497.75
385.112	538.75
385.337	492.75
385.562	536.75
385.787	520.75
386.013	513.75
386.238	540.75
386.463	516.75
386.688	554.75
386.913	524.75
387.138	520.75
387.363	514.75
387.588	537.75
387.813	537.75
388.038	525.75
388.263	541.75
388.488	542.75
388.713	537.75
388.938	523.75
389.163	541.75
389.387	552.75
389.612	530.75
389.837	551.75
390.062	524.75
390.287	543.75
390.512	557.75
390.736	548.75
390.961	549.75
391.186	554.75
391.411	554.75
391.636	549.75
391.86	539.75
392.085	536.75
392.31	564.75
392.534	585.75
392.759	585.75
392.984	550.75
393.208	554.75
393.433	598.75
393.658	594.75
393.882	563.75
394.107	576.75
394.331	542.75
394.556	525.75
394.78	567.75
395.005	573.75
395.229	570.75
395.454	549.75
395.678	581.75
395.903	585.75
396.127	584.75
396.352	580.75
396.576	595.75
396.801	599.75
397.025	592.75
397.249	600.75
397.474	602.75
397.698	601.75
397.922	599.75
398.147	591.75
398.371	599.75
398.595	604.75
398.82	613.75
399.044	636.75
399.268	650.75
399.492	678.75
399.717	701.75
399.941	696.75
400.165	692.75
400.389	676.75
400.613	641.75
400.837	652.75
401.062	632.75
401.286	645.75
401.51	632.75
401.734	620.75
401.958	645.75
402.182	616.75
402.406	630.75
402.63	600.75
402.854	614.75
403.078	598.75
403.302	637.75
403.526	633.75
403.75	611.75
403.974	626.75
404.198	627.75
404.422	629.75
404.645	648.75
404.869	650.75
405.093	630.75
405.317	636.75
405.541	626.75
405.765	642.75
405.988	656.75
406.212	639.75
406.436	646.75
406.66	687.75
406.883	656.75
407.107	688.75
407.331	692.75
407.555	712.75
407.778	733.75
408.002	690.75
408.226	690.75
408.449	683.75
408.673	690.75
408.896	684.75
409.12	655.75
409.344	683.75
409.567	677.75
409.791	676.75
410.014	685.75
410.238	649.75
410.461	665.75
410.685	644.75
410.908	650.75
411.132	662.75
411.355	660.75
411.578	654.75
411.802	638.75
412.025	648.75
412.249	655.75
412.472	644.75
412.695	668.75
412.919	650.75
413.142	646.75
413.365	619.75
413.589	616.75
413.812	633.75
414.035	615.75
414.258	649.75
414.482	650.75
414.705	624.75
414.928	620.75
415.151	665.75
415.374	611.75
415.597	613.75
415.821	617.75
416.044	611.75
416.267	615.75
416.49	614.75
416.713	618.75
416.936	636.75
417.159	625.75
417.382	594.75
417.605	608.75
417.828	589.75
418.051	624.75
418.274	596.75
418.497	590.75
418.72	604.75
418.943	597.75
419.166	643.75
419.389	665.75
419.611	676.75
419.834	640.75
420.057	628.75
420.28	622.75
420.503	601.75
420.726	583.75
420.948	569.75
421.171	580.75
421.394	590.75
421.617	611.75
421.839	584.75
422.062	601.75
422.285	583.75
422.507	609.75
422.73	611.75
422.953	589.75
423.175	588.75
423.398	594.75
423.621	594.75
423.843	597.75
424.066	604.75
424.288	593.75
424.511	572.75
424.733	592.75
424.956	581.75
425.178	591.75
425.401	613.75
425.623	603.75
425.846	585.75
426.068	601.75
426.291	593.75
426.513	584.75
426.735	582.75
426.958	589.75
427.18	592.75
427.402	596.75
427.625	587.75
427.847	568.75
428.069	585.75
428.292	580.75
428.514	602.75
428.736	569.75
428.958	577.75
429.181	572.75
429.403	576.75
429.625	571.75
429.847	566.75
430.069	576.75
430.292	558.75
430.514	599.75
430.736	597.75
430.958	602.75
431.18	603.75
431.402	580.75
431.624	590.75
431.846	589.75
432.068	574.75
432.29	594.75
432.512	566.75
432.734	589.75
432.956	589.75
433.178	584.75
433.4	605.75
433.622	578.75
433.844	583.75
434.066	607.75
434.287	585.75
434.509	592.75
434.731	592.75
434.953	590.75
435.175	608.75
435.397	605.75
435.618	594.75
435.84	598.75
436.062	566.75
436.284	587.75
436.505	569.75
436.727	578.75
436.949	586.75
437.17	572.75
437.392	553.75
437.614	570.75
437.835	538.75
438.057	590.75
438.278	570.75
438.5	595.75
438.721	548.75
438.943	565.75
439.165	567.75
439.386	568.75
439.608	577.75
439.829	563.75
440.05	572.75
440.272	569.75
440.493	573.75
440.715	590.75
440.936	590.75
441.158	578.75
441.379	572.75
441.6	585.75
441.822	593.75
442.043	604.75
442.264	584.75
442.486	596.75
442.707	582.75
442.928	608.75
443.149	578.75
443.371	577.75
443.592	581.75
443.813	586.75
444.034	589.75
444.255	629.75
444.476	619.75
444.698	607.75
444.919	611.75
445.14	676.75
445.361	654.75
445.582	630.75
445.803	598.75
446.024	590.75
446.245	583.75
446.466	596.75
446.687	577.75
446.908	589.75
447.129	559.75
447.35	571.75
447.571	564.75
447.792	557.75
448.013	548.75
448.234	571.75
448.455	542.75
448.675	552.75
448.896	537.75
449.117	535.75
449.338	564.75
449.559	546.75
449.779	536.75
450	554.75
450.221	540.75
450.442	548.75
450.662	567.75
450.883	547.75
451.104	545.75
451.324	534.75
451.545	540.75
451.766	570.75
451.986	537.75
452.207	519.75
452.428	526.75
452.648	554.75
452.869	541.75
453.089	537.75
453.31	540.75
453.53	533.75
453.751	535.75
453.971	526.75
454.192	520.75
454.412	530.75
454.633	531.75
454.853	506.75
455.073	513.75
455.294	546.75
455.514	526.75
455.734	527.75
455.955	501.75
456.175	523.75
456.395	517.75
456.616	521.75
456.836	535.75
457.056	520.75
457.276	524.75
457.497	520.75
457.717	547.75
457.937	546.75
458.157	530.75
458.377	543.75
458.598	562.75
458.818	540.75
459.038	560.75
459.258	553.75
459.478	564.75
459.698	611.75
459.918	589.75
460.138	588.75
460.358	601.75
460.578	587.75
460.798	580.75
461.018	628.75
461.238	632.75
461.458	633.75
461.678	617.75
461.898	627.75
462.118	625.75
462.338	650.75
462.558	673.75
462.777	660.75
462.997	658.75
463.217	666.75
463.437	677.75
463.657	690.75
463.876	676.75
464.096	676.75
464.316	658.75
464.536	651.75
464.755	654.75
464.975	639.75
465.195	606.75
465.414	637.75
465.634	608.75
465.854	601.75
466.073	602.75
466.293	585.75
466.512	592.75
466.732	583.75
466.951	584.75
467.171	579.75
467.391	594.75
467.61	565.75
467.829	558.75
468.049	573.75
468.268	579.75
468.488	567.75
468.707	554.75
468.927	558.75
469.146	591.75
469.365	590.75
469.585	592.75
469.804	564.75
470.023	583.75
470.243	557.75
470.462	574.75
470.681	569.75
470.901	599.75
471.12	576.75
471.339	595.75
471.558	586.75
471.777	589.75
471.997	583.75
472.216	584.75
472.435	588.75
472.654	576.75
472.873	602.75
473.092	580.75
473.311	582.75
473.53	603.75
473.749	586.75
473.968	598.75
474.187	554.75
474.406	572.75
474.625	590.75
474.844	590.75
475.063	596.75
475.282	569.75
475.501	578.75
475.72	608.75
475.939	604.75
476.158	581.75
476.377	607.75
476.596	631.75
476.814	643.75
477.033	608.75
477.252	638.75
477.471	636.75
477.69	626.75
477.908	614.75
478.127	633.75
478.346	666.75
478.564	660.75
478.783	642.75
479.002	680.75
479.22	665.75
479.439	685.75
479.658	688.75
479.876	656.75
480.095	644.75
480.313	702.75
480.532	701.75
480.751	678.75
480.969	706.75
481.188	694.75
481.406	674.75
481.624	676.75
481.843	652.75
482.061	666.75
482.28	673.75
482.498	665.75
482.717	691.75
482.935	692.75
483.153	690.75
483.372	702.75
483.59	672.75
483.808	690.75
484.027	661.75
484.245	702.75
484.463	692.75
484.681	682.75
484.9	710.75
485.118	685.75
485.336	677.75
485.554	699.75
485.772	666.75
485.99	695.75
486.209	715.75
486.427	696.75
486.645	694.75
486.863	690.75
487.081	718.75
487.299	677.75
487.517	706.75
487.735	705.75
487.953	712.75
488.171	718.75
488.389	687.75
488.607	700.75
488.825	701.75
489.043	677.75
489.261	719.75
489.479	713.75
489.696	694.75
489.914	716.75
490.132	694.75
490.35	709.75
490.568	692.75
490.786	733.75
491.003	707.75
491.221	722.75
491.439	726.75
491.657	730.75
491.874	704.75
492.092	744.75
492.31	732.75
492.527	744.75
492.745	722.75
492.963	737.75
493.18	733.75
493.398	724.75
493.615	757.75
493.833	754.75
494.05	741.75
494.268	767.75
494.485	748.75
494.703	739.75
494.92	747.75
495.138	749.75
495.355	745.75
495.573	783.75
495.79	757.75
496.008	780.75
496.225	774.75
496.442	787.75
496.66	800.75
496.877	803.75
497.094	792.75
497.312	808.75
497.529	804.75
497.746	829.75
497.963	839.75
498.181	840.75
498.398	849.75
498.615	894.75
498.832	928.75
499.049	913.75
499.267	988.75
499.484	975.75
499.701	1044.75
499.918	1071.75
500.135	1111.75
500.352	1126.75
500.569	1115.75
500.786	1160.75
501.003	1137.75
501.22	1092.75
501.437	1055.75
501.654	1000.75
501.871	988.75
502.088	936.75
502.305	927.75
502.522	900.75
502.739	907.75
502.956	902.75
503.172	865.75
503.389	854.75
503.606	832.75
503.823	804.75
504.04	817.75
504.256	808.75
504.473	786.75
504.69	800.75
504.907	801.75
505.123	749.75
505.34	772.75
505.557	759.75
505.773	749.75
505.99	726.75
506.207	690.75
506.423	698.75
506.64	728.75
506.856	697.75
507.073	706.75
507.289	710.75
507.506	681.75
507.722	686.75
507.939	676.75
508.155	692.75
508.372	661.75
508.588	655.75
508.805	674.75
509.021	657.75
509.238	667.75
509.454	640.75
509.67	638.75
509.887	645.75
510.103	628.75
510.319	640.75
510.536	640.75
510.752	633.75
510.968	621.75
511.184	611.75
511.401	650.75
511.617	624.75
511.833	632.75
512.049	633.75
512.265	610.75
512.481	624.75
512.698	630.75
512.914	633.75
513.13	642.75
513.346	617.75
513.562	616.75
513.778	648.75
513.994	622.75
514.21	624.75
514.426	626.75
514.642	634.75
514.858	611.75
515.074	624.75
515.29	636.75
515.506	637.75
515.721	666.75
515.937	667.75
516.153	650.75
516.369	660.75
516.585	680.75
516.801	644.75
517.016	678.75
517.232	677.75
517.448	702.75
517.664	692.75
517.879	680.75
518.095	683.75
518.311	692.75
518.527	668.75
518.742	664.75
518.958	659.75
519.173	659.75
519.389	640.75
519.605	659.75
519.82	637.75
520.036	658.75
520.251	635.75
520.467	614.75
520.682	609.75
520.898	627.75
521.113	603.75
521.329	618.75
521.544	610.75
521.76	626.75
521.975	600.75
522.19	606.75
522.406	596.75
522.621	620.75
522.836	633.75
523.052	613.75
523.267	604.75
523.482	603.75
523.698	601.75
523.913	585.75
524.128	583.75
524.343	582.75
524.559	593.75
524.774	571.75
524.989	579.75
525.204	600.75
525.419	555.75
525.634	578.75
525.849	567.75
526.064	573.75
526.28	572.75
526.495	578.75
526.71	597.75
526.925	579.75
527.14	570.75
527.355	595.75
527.57	595.75
527.785	577.75
527.999	568.75
528.214	600.75
528.429	594.75
528.644	586.75
528.859	572.75
529.074	567.75
529.289	586.75
529.503	571.75
529.718	580.75
529.933	574.75
530.148	597.75
530.363	594.75
530.577	571.75
530.792	582.75
531.007	564.75
531.221	566.75
531.436	584.75
531.651	568.75
531.865	552.75
532.08	559.75
532.295	568.75
532.509	558.75
532.724	544.75
532.938	573.75
533.153	576.75
533.367	538.75
533.582	546.75
533.796	540.75
534.011	569.75
534.225	552.75
534.44	535.75
534.654	557.75
534.868	542.75
535.083	549.75
535.297	554.75
535.511	580.75
535.726	555.75
535.94	563.75
536.154	554.75
536.369	538.75
536.583	549.75
536.797	553.75
537.011	518.75
537.225	540.75
537.44	553.75
537.654	521.75
537.868	527.75
538.082	540.75
538.296	530.75
538.51	533.75
538.724	541.75
538.938	513.75
539.153	545.75
539.367	540.75
539.581	506.75
539.795	532.75
540.009	516.75
540.222	530.75
540.436	526.75
540.65	519.75
540.864	514.75
541.078	537.75
541.292	539.75
541.506	541.75
541.72	521.75
541.934	536.75
542.147	532.75
542.361	521.75
542.575	529.75
542.789	510.75
543.002	527.75
543.216	529.75
543.43	516.75
543.644	541.75
543.857	546.75
544.071	534.75
544.285	525.75
544.498	537.75
544.712	529.75
544.925	537.75
545.139	524.75
545.352	536.75
545.566	526.75
545.779	533.75
545.993	512.75
546.206	536.75
546.42	527.75
546.633	499.75
546.847	517.75
547.06	515.75
547.274	536.75
547.487	548.75
547.7	531.75
547.914	510.75
548.127	526.75
548.34	521.75
548.554	520.75
548.767	523.75
548.98	526.75
549.193	525.75
549.407	523.75
549.62	532.75
549.833	498.75
550.046	517.75
550.259	513.75
550.473	525.75
550.686	505.75
550.899	535.75
551.112	505.75
551.325	513.75
551.538	514.75
551.751	526.75
551.964	509.75
552.177	523.75
552.39	556.75
552.603	519.75
552.816	525.75
553.029	538.75
553.242	521.75
553.455	527.75
553.667	509.75
553.88	522.75
554.093	520.75
554.306	510.75
554.519	493.75
554.732	492.75
554.944	497.75
555.157	498.75
555.37	501.75
555.583	477.75
555.795	475.75
556.008	493.75
556.221	477.75
556.433	492.75
556.646	481.75
556.859	459.75
557.071	471.75
557.284	467.75
557.496	473.75
557.709	464.75
557.921	486.75
558.134	476.75
558.346	464.75
558.559	469.75
558.771	471.75
558.984	456.75
559.196	462.75
559.409	437.75
559.621	463.75
559.833	456.75
560.046	473.75
560.258	442.75
560.47	461.75
560.683	462.75
560.895	447.75
561.107	449.75
561.32	443.75
561.532	456.75
561.744	478.75
561.956	453.75
562.168	450.75
562.381	437.75
562.593	445.75
562.805	474.75
563.017	454.75
563.229	459.75
563.441	460.75
563.653	455.75
563.865	454.75
564.077	449.75
564.289	463.75
564.501	463.75
564.713	485.75
564.925	504.75
565.137	475.75
565.349	475.75
565.561	494.75
565.773	498.75
565.985	488.75
566.197	492.75
566.408	505.75
566.62	515.75
566.832	538.75
567.044	500.75
567.255	511.75
567.467	560.75
567.679	523.75
567.891	510.75
568.102	516.75
568.314	523.75
568.526	507.75
568.737	481.75
568.949	498.75
569.161	494.75
569.372	450.75
569.584	495.75
569.795	468.75
570.007	453.75
570.218	423.75
570.43	425.75
570.641	453.75
570.853	446.75
571.064	419.75
571.276	428.75
571.487	427.75
571.698	397.75
571.91	407.75
572.121	413.75
572.333	399.75
572.544	390.75
572.755	395.75
572.966	402.75
573.178	375.75
573.389	392.75
573.6	395.75
573.811	374.75
574.023	376.75
574.234	374.75
574.445	363.75
574.656	365.75
574.867	361.75
575.078	398.75
575.289	374.75
575.501	364.75
575.712	369.75
575.923	358.75
576.134	376.75
576.345	358.75
576.556	349.75
576.767	387.75
576.978	378.75
577.188	354.75
577.399	376.75
577.61	361.75
577.821	357.75
578.032	345.75
578.243	346.75
578.454	357.75
578.665	348.75
578.875	329.75
579.086	339.75
579.297	334.75
579.508	346.75
579.718	362.75
579.929	336.75
580.14	338.75
580.35	347.75
580.561	331.75
580.772	347.75
580.982	346.75
581.193	338.75
581.403	336.75
581.614	340.75
581.825	345.75
582.035	329.75
582.246	330.75
582.456	331.75
582.667	336.75
582.877	306.75
583.087	311.75
583.298	331.75
583.508	317.75
583.719	329.75
583.929	334.75
584.139	336.75
584.35	318.75
584.56	312.75
584.77	342.75
584.981	323.75
585.191	333.75
585.401	290.75
585.611	329.75
585.821	320.75
586.032	322.75
586.242	308.75
586.452	295.75
586.662	304.75
586.872	321.75
587.082	313.75
587.292	311.75
587.502	322.75
587.713	315.75
587.923	336.75
588.133	333.75
588.343	305.75
588.553	324.75
588.762	315.75
588.972	333.75
589.182	397.75
589.392	381.75
589.602	347.75
589.812	375.75
590.022	351.75
590.232	330.75
590.441	324.75
590.651	308.75
590.861	309.75
591.071	298.75
591.281	319.75
591.49	306.75
591.7	316.75
591.91	316.75
592.119	328.75
592.329	327.75
592.539	314.75
592.748	317.75
592.958	315.75
593.167	317.75
593.377	311.75
593.587	329.75
593.796	311.75
594.006	337.75
594.215	298.75
594.424	314.75
594.634	300.75
594.843	341.75
595.053	309.75
595.262	292.75
595.472	306.75
595.681	304.75
595.89	304.75
596.1	295.75
596.309	299.75
596.518	299.75
596.727	298.75
596.937	286.75
597.146	273.75
597.355	289.75
597.564	281.75
597.774	272.75
597.983	288.75
598.192	285.75
598.401	284.75
598.61	280.75
598.819	275.75
599.028	286.75
599.237	256.75
599.446	266.75
599.655	275.75
599.864	264.75
600.073	248.75
600.282	278.75
600.491	272.75
600.7	257.75
600.909	272.75
601.118	282.75
601.327	271.75
601.536	273.75
601.745	283.75
601.953	283.75
602.162	282.75
602.371	259.75
602.58	260.75
602.789	253.75
602.997	248.75
603.206	265.75
603.415	274.75
603.623	260.75
603.832	250.75
604.041	258.75
604.249	248.75
604.458	252.75
604.666	249.75
604.875	255.75
605.084	231.75
605.292	243.75
605.501	267.75
605.709	264.75
605.918	256.75
606.126	253.75
606.334	271.75
606.543	252.75
606.751	245.75
606.96	266.75
607.168	260.75
607.376	260.75
607.585	265.75
607.793	261.75
608.001	254.75
608.21	260.75
608.418	246.75
608.626	247.75
608.834	263.75
609.043	238.75
609.251	257.75
609.459	253.75
609.667	236.75
609.875	269.75
610.083	244.75
610.291	256.75
610.499	248.75
610.707	248.75
610.916	256.75
611.124	237.75
611.332	252.75
611.54	254.75
611.748	257.75
611.955	260.75
612.163	228.75
612.371	263.75
612.579	245.75
612.787	254.75
612.995	244.75
613.203	250.75
613.411	237.75
613.618	232.75
613.826	235.75
614.034	229.75
614.242	258.75
614.449	225.75
614.657	234.75
614.865	237.75
615.072	243.75
615.28	225.75
615.488	226.75
615.695	227.75
615.903	242.75
616.111	235.75
616.318	242.75
616.526	246.75
616.733	236.75
616.941	228.75
617.148	227.75
617.356	235.75
617.563	219.75
617.771	230.75
617.978	243.75
618.185	235.75
618.393	234.75
618.6	226.75
618.807	237.75
619.015	244.75
619.222	234.75
619.429	244.75
619.637	231.75
619.844	225.75
620.051	242.75
620.258	218.75
620.466	232.75
620.673	216.75
620.88	231.75
621.087	234.75
621.294	242.75
621.501	206.75
621.708	225.75
621.915	230.75
622.122	220.75
622.329	228.75
622.536	217.75
622.743	212.75
622.95	217.75
623.157	209.75
623.364	225.75
623.571	220.75
623.778	213.75
623.985	218.75
624.192	214.75
624.399	203.75
624.606	208.75
624.812	205.75
625.019	214.75
625.226	207.75
625.433	214.75
625.639	220.75
625.846	224.75
626.053	208.75
626.259	198.75
626.466	220.75
626.673	225.75
626.879	215.75
627.086	192.75
627.293	200.75
627.499	208.75
627.706	202.75
627.912	202.75
628.119	192.75
628.325	209.75
628.532	213.75
628.738	209.75
628.945	202.75
629.151	204.75
629.357	207.75
629.564	210.75
629.77	192.75
629.976	203.75
630.183	199.75
630.389	205.75
630.595	186.75
630.802	202.75
631.008	211.75
631.214	205.75
631.42	197.75
631.627	198.75
631.833	186.75
632.039	186.75
632.245	186.75
632.451	186.75
632.657	198.75
632.863	190.75
633.069	206.75
633.275	205.75
633.481	202.75
633.688	200.75
633.893	189.75
634.099	204.75
634.305	180.75
634.511	195.75
634.717	186.75
634.923	184.75
635.129	185.75
635.335	191.75
635.541	186.75
635.747	183.75
635.952	211.75
636.158	188.75
636.364	194.75
636.57	188.75
636.775	187.75
636.981	187.75
637.187	177.75
637.392	190.75
637.598	191.75
637.804	178.75
638.009	193.75
638.215	192.75
638.421	198.75
638.626	203.75
638.832	184.75
639.037	183.75
639.243	170.75
639.448	169.75
639.654	172.75
639.859	176.75
640.065	176.75
640.27	190.75
640.475	185.75
640.681	173.75
640.886	189.75
641.091	201.75
641.297	189.75
641.502	187.75
641.707	183.75
641.913	190.75
642.118	180.75
642.323	183.75
642.528	172.75
642.733	180.75
642.939	167.75
643.144	171.75
643.349	179.75
643.554	178.75
643.759	184.75
643.964	191.75
644.169	174.75
644.374	164.75
644.579	165.75
644.784	171.75
644.989	164.75
645.194	180.75
645.399	183.75
645.604	188.75
645.809	196.75
646.014	189.75
646.219	192.75
646.423	182.75
646.628	193.75
646.833	183.75
647.038	175.75
647.243	183.75
647.447	185.75
647.652	169.75
647.857	184.75
648.062	180.75
648.266	186.75
648.471	180.75
648.676	200.75
648.88	171.75
649.085	166.75
649.289	189.75
649.494	166.75
649.698	188.75
649.903	192.75
650.107	168.75
650.312	187.75
650.516	177.75
650.721	172.75
650.925	178.75
651.13	164.75
651.334	186.75
651.539	172.75
651.743	180.75
651.947	169.75
652.152	166.75
652.356	174.75
652.56	171.75
652.764	172.75
652.969	148.75
653.173	156.75
653.377	170.75
653.581	158.75
653.785	155.75
653.99	154.75
654.194	155.75
654.398	160.75
654.602	138.75
654.806	153.75
655.01	158.75
655.214	155.75
655.418	157.75
655.622	166.75
655.826	157.75
656.03	163.75
656.234	146.75
656.438	161.75
656.642	165.75
656.846	148.75
657.049	139.75
657.253	152.75
657.457	146.75
657.661	145.75
657.865	141.75
658.068	141.75
658.272	122.75
658.476	142.75
658.68	127.75
658.883	122.75
659.087	113.75
659.291	102.75
659.494	131.75
659.698	104.75
659.901	102.75
660.105	104.75
660.309	98.75
660.512	101.75
660.716	98.75
660.919	85.75
661.123	93.75
661.326	103.75
661.53	96.75
661.733	108.75
661.936	92.75
662.14	96.75
662.343	97.75
662.546	93.75
662.75	93.75
662.953	84.75
663.156	84.75
663.36	94.75
663.563	90.75
663.766	87.75
663.969	89.75
664.173	85.75
664.376	70.75
664.579	88.75
664.782	98.75
664.985	80.75
665.188	77.75
665.391	94.75
665.594	93.75
665.797	87.75
666	83.75
666.203	89.75
666.406	64.75
666.609	69.75
666.812	82.75
667.015	85.75
667.218	90.75
667.421	96.75
667.624	77.75
667.827	62.75
668.03	73.75
668.232	86.75
668.435	72.75
668.638	81.75
668.841	81.75
669.043	84.75
669.246	85.75
669.449	74.75
669.651	93.75
669.854	77.75
670.057	85.75
670.259	76.75
670.462	72.75
670.665	82.75
670.867	90.75
671.07	91.75
671.272	88.75
671.475	85.75
671.677	82.75
671.88	84.75
672.082	87.75
672.284	98.75
672.487	91.75
672.689	87.75
672.892	69.75
