Data from Fe(NO3)3@0.0125M.TitratingCurve.Agarose3%dH2O.NegLispCup.LampEnergy10.LIBS07252019_HRD10591_16-59-49-336.txt Node
Date: Thu Jul 25 16:59:49 EDT 2019
User: cochatt
Spectrometer: HR+D1059
Trigger mode: 1
Integration Time (sec): 1.000000E-1
Scans to average: 1
Electric dark correction enabled: true
Nonlinearity correction enabled: false
Boxcar width: 0
XAxis mode: Wavelengths
Number of Pixels in Spectrum: 2048
>>>>>Begin Spectral Data<<<<<
223.165	-13.31
223.4	-13.31
223.635	-13.31
223.869	-18.31
224.104	-17.31
224.338	-7.31
224.573	-13.31
224.808	-11.31
225.042	-10.31
225.277	-6.31
225.511	-7.31
225.746	2.69
225.98	12.69
226.215	5.69
226.449	14.69
226.683	22.69
226.918	22.69
227.152	23.69
227.387	18.69
227.621	30.69
227.856	42.69
228.09	49.69
228.324	47.69
228.559	68.69
228.793	73.69
229.027	67.69
229.262	72.69
229.496	64.69
229.73	78.69
229.964	81.69
230.199	73.69
230.433	84.69
230.667	69.69
230.901	87.69
231.136	96.69
231.37	82.69
231.604	88.69
231.838	85.69
232.072	94.69
232.306	88.69
232.541	95.69
232.775	101.69
233.009	105.69
233.243	82.69
233.477	83.69
233.711	83.69
233.945	87.69
234.179	93.69
234.413	95.69
234.647	91.69
234.881	85.69
235.115	97.69
235.349	84.69
235.583	97.69
235.817	105.69
236.051	96.69
236.285	101.69
236.519	97.69
236.753	95.69
236.987	90.69
237.221	104.69
237.455	88.69
237.689	102.69
237.922	94.69
238.156	89.69
238.39	97.69
238.624	90.69
238.858	103.69
239.091	94.69
239.325	96.69
239.559	94.69
239.793	96.69
240.027	102.69
240.26	80.69
240.494	100.69
240.728	96.69
240.961	108.69
241.195	95.69
241.429	108.69
241.662	104.69
241.896	79.69
242.13	81.69
242.363	99.69
242.597	86.69
242.83	97.69
243.064	101.69
243.298	87.69
243.531	97.69
243.765	88.69
243.998	106.69
244.232	110.69
244.465	102.69
244.699	98.69
244.932	109.69
245.166	95.69
245.399	109.69
245.633	86.69
245.866	100.69
246.099	104.69
246.333	94.69
246.566	84.69
246.8	104.69
247.033	100.69
247.266	109.69
247.5	106.69
247.733	104.69
247.966	104.69
248.2	113.69
248.433	97.69
248.666	97.69
248.899	92.69
249.133	108.69
249.366	97.69
249.599	110.69
249.832	108.69
250.066	114.69
250.299	102.69
250.532	116.69
250.765	111.69
250.998	112.69
251.231	114.69
251.465	116.69
251.698	113.69
251.931	116.69
252.164	107.69
252.397	105.69
252.63	109.69
252.863	115.69
253.096	113.69
253.329	113.69
253.562	118.69
253.795	117.69
254.028	117.69
254.261	110.69
254.494	108.69
254.727	117.69
254.96	104.69
255.193	111.69
255.426	112.69
255.659	109.69
255.892	111.69
256.124	123.69
256.357	120.69
256.59	117.69
256.823	117.69
257.056	123.69
257.289	124.69
257.521	124.69
257.754	124.69
257.987	125.69
258.22	124.69
258.452	121.69
258.685	128.69
258.918	121.69
259.151	132.69
259.383	123.69
259.616	136.69
259.849	139.69
260.081	132.69
260.314	141.69
260.547	127.69
260.779	114.69
261.012	106.69
261.244	142.69
261.477	144.69
261.71	122.69
261.942	126.69
262.175	122.69
262.407	125.69
262.64	124.69
262.872	118.69
263.105	148.69
263.337	127.69
263.57	126.69
263.802	130.69
264.035	134.69
264.267	123.69
264.499	127.69
264.732	122.69
264.964	130.69
265.197	124.69
265.429	124.69
265.661	107.69
265.894	124.69
266.126	122.69
266.358	140.69
266.591	132.69
266.823	131.69
267.055	116.69
267.287	138.69
267.52	123.69
267.752	146.69
267.984	125.69
268.216	133.69
268.448	134.69
268.681	126.69
268.913	125.69
269.145	129.69
269.377	138.69
269.609	143.69
269.841	146.69
270.073	135.69
270.306	144.69
270.538	147.69
270.77	130.69
271.002	134.69
271.234	129.69
271.466	123.69
271.698	150.69
271.93	148.69
272.162	147.69
272.394	147.69
272.626	140.69
272.858	148.69
273.09	147.69
273.322	145.69
273.553	153.69
273.785	155.69
274.017	145.69
274.249	153.69
274.481	155.69
274.713	160.69
274.945	166.69
275.176	153.69
275.408	168.69
275.64	158.69
275.872	178.69
276.104	167.69
276.335	168.69
276.567	157.69
276.799	155.69
277.031	173.69
277.262	152.69
277.494	164.69
277.726	164.69
277.957	173.69
278.189	160.69
278.421	166.69
278.652	155.69
278.884	164.69
279.115	148.69
279.347	164.69
279.579	158.69
279.81	174.69
280.042	163.69
280.273	153.69
280.505	172.69
280.736	168.69
280.968	173.69
281.199	158.69
281.431	157.69
281.662	184.69
281.894	190.69
282.125	165.69
282.356	173.69
282.588	176.69
282.819	172.69
283.051	181.69
283.282	173.69
283.513	181.69
283.745	178.69
283.976	172.69
284.207	170.69
284.439	178.69
284.67	171.69
284.901	162.69
285.132	177.69
285.364	189.69
285.595	186.69
285.826	190.69
286.057	189.69
286.288	187.69
286.52	171.69
286.751	166.69
286.982	181.69
287.213	183.69
287.444	194.69
287.675	182.69
287.906	194.69
288.138	202.69
288.369	170.69
288.6	204.69
288.831	186.69
289.062	198.69
289.293	203.69
289.524	197.69
289.755	188.69
289.986	192.69
290.217	183.69
290.448	201.69
290.679	198.69
290.91	209.69
291.141	211.69
291.371	197.69
291.602	202.69
291.833	193.69
292.064	203.69
292.295	201.69
292.526	215.69
292.757	217.69
292.987	204.69
293.218	196.69
293.449	203.69
293.68	207.69
293.91	228.69
294.141	221.69
294.372	228.69
294.603	213.69
294.833	208.69
295.064	209.69
295.295	217.69
295.525	187.69
295.756	222.69
295.987	206.69
296.217	213.69
296.448	216.69
296.679	222.69
296.909	229.69
297.14	216.69
297.37	211.69
297.601	238.69
297.831	214.69
298.062	209.69
298.292	225.69
298.523	238.69
298.753	233.69
298.984	231.69
299.214	227.69
299.445	232.69
299.675	226.69
299.905	232.69
300.136	220.69
300.366	214.69
300.597	216.69
300.827	227.69
301.057	243.69
301.288	227.69
301.518	240.69
301.748	242.69
301.979	243.69
302.209	247.69
302.439	259.69
302.669	253.69
302.9	237.69
303.13	247.69
303.36	249.69
303.59	246.69
303.82	250.69
304.051	260.69
304.281	242.69
304.511	252.69
304.741	250.69
304.971	249.69
305.201	238.69
305.431	258.69
305.661	252.69
305.891	238.69
306.121	233.69
306.352	247.69
306.582	264.69
306.812	266.69
307.042	270.69
307.272	262.69
307.502	270.69
307.731	265.69
307.961	256.69
308.191	240.69
308.421	247.69
308.651	267.69
308.881	278.69
309.111	279.69
309.341	243.69
309.571	258.69
309.8	267.69
310.03	267.69
310.26	275.69
310.49	258.69
310.72	269.69
310.949	279.69
311.179	265.69
311.409	273.69
311.639	292.69
311.868	276.69
312.098	269.69
312.328	289.69
312.557	286.69
312.787	287.69
313.017	286.69
313.246	271.69
313.476	264.69
313.706	279.69
313.935	289.69
314.165	303.69
314.394	264.69
314.624	276.69
314.853	276.69
315.083	283.69
315.312	311.69
315.542	293.69
315.771	296.69
316.001	309.69
316.23	307.69
316.46	300.69
316.689	319.69
316.919	300.69
317.148	285.69
317.377	292.69
317.607	316.69
317.836	301.69
318.065	294.69
318.295	288.69
318.524	309.69
318.753	307.69
318.983	317.69
319.212	318.69
319.441	318.69
319.67	328.69
319.9	314.69
320.129	306.69
320.358	330.69
320.587	312.69
320.816	321.69
321.046	332.69
321.275	320.69
321.504	297.69
321.733	323.69
321.962	300.69
322.191	308.69
322.42	306.69
322.649	322.69
322.878	321.69
323.108	316.69
323.337	337.69
323.566	312.69
323.795	336.69
324.024	312.69
324.253	326.69
324.482	326.69
324.71	314.69
324.939	324.69
325.168	340.69
325.397	337.69
325.626	327.69
325.855	347.69
326.084	329.69
326.313	334.69
326.542	332.69
326.77	336.69
326.999	324.69
327.228	347.69
327.457	357.69
327.686	334.69
327.914	333.69
328.143	342.69
328.372	339.69
328.6	340.69
328.829	341.69
329.058	358.69
329.287	334.69
329.515	352.69
329.744	339.69
329.972	338.69
330.201	326.69
330.43	354.69
330.658	317.69
330.887	352.69
331.115	348.69
331.344	377.69
331.572	364.69
331.801	335.69
332.03	356.69
332.258	342.69
332.486	360.69
332.715	363.69
332.943	353.69
333.172	340.69
333.4	358.69
333.629	377.69
333.857	373.69
334.085	376.69
334.314	373.69
334.542	357.69
334.771	360.69
334.999	352.69
335.227	363.69
335.455	349.69
335.684	383.69
335.912	382.69
336.14	359.69
336.369	382.69
336.597	368.69
336.825	379.69
337.053	374.69
337.281	374.69
337.51	380.69
337.738	359.69
337.966	372.69
338.194	357.69
338.422	376.69
338.65	376.69
338.878	379.69
339.106	393.69
339.334	372.69
339.562	368.69
339.79	361.69
340.018	376.69
340.246	371.69
340.474	372.69
340.702	355.69
340.93	357.69
341.158	360.69
341.386	379.69
341.614	370.69
341.842	376.69
342.07	349.69
342.298	372.69
342.526	376.69
342.754	379.69
342.981	378.69
343.209	368.69
343.437	395.69
343.665	368.69
343.893	390.69
344.12	372.69
344.348	344.69
344.576	369.69
344.804	379.69
345.031	388.69
345.259	392.69
345.487	376.69
345.714	370.69
345.942	376.69
346.17	377.69
346.397	392.69
346.625	370.69
346.853	373.69
347.08	378.69
347.308	376.69
347.535	376.69
347.763	388.69
347.99	382.69
348.218	381.69
348.445	363.69
348.673	363.69
348.9	390.69
349.128	370.69
349.355	364.69
349.583	373.69
349.81	366.69
350.037	380.69
350.265	414.69
350.492	377.69
350.72	380.69
350.947	371.69
351.174	378.69
351.402	366.69
351.629	368.69
351.856	362.69
352.083	373.69
352.311	378.69
352.538	381.69
352.765	378.69
352.992	374.69
353.22	382.69
353.447	376.69
353.674	386.69
353.901	368.69
354.128	382.69
354.355	391.69
354.583	362.69
354.81	373.69
355.037	360.69
355.264	396.69
355.491	375.69
355.718	383.69
355.945	385.69
356.172	378.69
356.399	388.69
356.626	363.69
356.853	356.69
357.08	379.69
357.307	364.69
357.534	370.69
357.761	374.69
357.988	380.69
358.215	369.69
358.441	380.69
358.668	377.69
358.895	377.69
359.122	376.69
359.349	395.69
359.576	384.69
359.802	377.69
360.029	378.69
360.256	409.69
360.483	405.69
360.709	369.69
360.936	393.69
361.163	382.69
361.39	377.69
361.616	376.69
361.843	377.69
362.07	382.69
362.296	404.69
362.523	386.69
362.749	394.69
362.976	397.69
363.203	404.69
363.429	380.69
363.656	394.69
363.882	402.69
364.109	417.69
364.335	403.69
364.562	374.69
364.788	390.69
365.015	389.69
365.241	391.69
365.468	384.69
365.694	404.69
365.92	406.69
366.147	394.69
366.373	402.69
366.599	409.69
366.826	410.69
367.052	403.69
367.278	403.69
367.505	399.69
367.731	395.69
367.957	397.69
368.184	399.69
368.41	386.69
368.636	400.69
368.862	417.69
369.089	413.69
369.315	422.69
369.541	390.69
369.767	396.69
369.993	423.69
370.219	395.69
370.445	390.69
370.672	387.69
370.898	411.69
371.124	401.69
371.35	410.69
371.576	406.69
371.802	410.69
372.028	424.69
372.254	422.69
372.48	423.69
372.706	422.69
372.932	396.69
373.158	418.69
373.384	419.69
373.61	406.69
373.835	420.69
374.061	407.69
374.287	408.69
374.513	430.69
374.739	429.69
374.965	430.69
375.191	428.69
375.416	433.69
375.642	421.69
375.868	414.69
376.094	415.69
376.319	400.69
376.545	425.69
376.771	423.69
376.997	417.69
377.222	425.69
377.448	417.69
377.674	432.69
377.899	439.69
378.125	413.69
378.35	426.69
378.576	429.69
378.802	425.69
379.027	448.69
379.253	433.69
379.478	411.69
379.704	424.69
379.929	419.69
380.155	434.69
380.38	420.69
380.606	428.69
380.831	421.69
381.057	424.69
381.282	410.69
381.507	410.69
381.733	439.69
381.958	427.69
382.184	425.69
382.409	440.69
382.634	440.69
382.86	447.69
383.085	460.69
383.31	443.69
383.535	442.69
383.761	432.69
383.986	442.69
384.211	448.69
384.436	452.69
384.662	463.69
384.887	452.69
385.112	443.69
385.337	456.69
385.562	437.69
385.787	454.69
386.013	489.69
386.238	464.69
386.463	448.69
386.688	473.69
386.913	464.69
387.138	439.69
387.363	454.69
387.588	459.69
387.813	467.69
388.038	485.69
388.263	467.69
388.488	444.69
388.713	445.69
388.938	481.69
389.163	468.69
389.387	465.69
389.612	455.69
389.837	469.69
390.062	480.69
390.287	458.69
390.512	475.69
390.736	453.69
390.961	464.69
391.186	455.69
391.411	468.69
391.636	478.69
391.86	488.69
392.085	463.69
392.31	465.69
392.534	451.69
392.759	483.69
392.984	457.69
393.208	485.69
393.433	492.69
393.658	501.69
393.882	466.69
394.107	473.69
394.331	478.69
394.556	474.69
394.78	456.69
395.005	459.69
395.229	450.69
395.454	488.69
395.678	498.69
395.903	488.69
396.127	475.69
396.352	489.69
396.576	483.69
396.801	464.69
397.025	493.69
397.249	489.69
397.474	491.69
397.698	481.69
397.922	472.69
398.147	488.69
398.371	492.69
398.595	506.69
398.82	509.69
399.044	492.69
399.268	536.69
399.492	538.69
399.717	519.69
399.941	532.69
400.165	541.69
400.389	507.69
400.613	518.69
400.837	526.69
401.062	533.69
401.286	522.69
401.51	522.69
401.734	528.69
401.958	516.69
402.182	515.69
402.406	494.69
402.63	506.69
402.854	520.69
403.078	515.69
403.302	532.69
403.526	519.69
403.75	512.69
403.974	500.69
404.198	520.69
404.422	554.69
404.645	513.69
404.869	518.69
405.093	535.69
405.317	526.69
405.541	546.69
405.765	535.69
405.988	523.69
406.212	533.69
406.436	519.69
406.66	545.69
406.883	547.69
407.107	523.69
407.331	517.69
407.555	560.69
407.778	551.69
408.002	557.69
408.226	568.69
408.449	561.69
408.673	549.69
408.896	530.69
409.12	520.69
409.344	544.69
409.567	517.69
409.791	560.69
410.014	518.69
410.238	533.69
410.461	551.69
410.685	525.69
410.908	512.69
411.132	544.69
411.355	551.69
411.578	536.69
411.802	532.69
412.025	525.69
412.249	517.69
412.472	520.69
412.695	525.69
412.919	518.69
413.142	522.69
413.365	555.69
413.589	521.69
413.812	536.69
414.035	528.69
414.258	512.69
414.482	533.69
414.705	512.69
414.928	520.69
415.151	505.69
415.374	501.69
415.597	485.69
415.821	506.69
416.044	483.69
416.267	508.69
416.49	516.69
416.713	518.69
416.936	526.69
417.159	516.69
417.382	504.69
417.605	513.69
417.828	511.69
418.051	489.69
418.274	486.69
418.497	506.69
418.72	512.69
418.943	490.69
419.166	525.69
419.389	555.69
419.611	544.69
419.834	517.69
420.057	544.69
420.28	514.69
420.503	493.69
420.726	505.69
420.948	519.69
421.171	491.69
421.394	492.69
421.617	494.69
421.839	516.69
422.062	506.69
422.285	490.69
422.507	527.69
422.73	533.69
422.953	497.69
423.175	493.69
423.398	503.69
423.621	499.69
423.843	522.69
424.066	499.69
424.288	493.69
424.511	504.69
424.733	488.69
424.956	491.69
425.178	500.69
425.401	504.69
425.623	527.69
425.846	485.69
426.068	496.69
426.291	476.69
426.513	485.69
426.735	496.69
426.958	492.69
427.18	497.69
427.402	486.69
427.625	499.69
427.847	482.69
428.069	518.69
428.292	490.69
428.514	508.69
428.736	539.69
428.958	513.69
429.181	491.69
429.403	476.69
429.625	512.69
429.847	497.69
430.069	525.69
430.292	498.69
430.514	487.69
430.736	522.69
430.958	521.69
431.18	508.69
431.402	498.69
431.624	519.69
431.846	488.69
432.068	496.69
432.29	499.69
432.512	498.69
432.734	512.69
432.956	494.69
433.178	476.69
433.4	484.69
433.622	485.69
433.844	492.69
434.066	507.69
434.287	512.69
434.509	499.69
434.731	492.69
434.953	523.69
435.175	505.69
435.397	517.69
435.618	497.69
435.84	495.69
436.062	504.69
436.284	496.69
436.505	493.69
436.727	501.69
436.949	482.69
437.17	516.69
437.392	501.69
437.614	492.69
437.835	473.69
438.057	485.69
438.278	488.69
438.5	486.69
438.721	491.69
438.943	494.69
439.165	487.69
439.386	485.69
439.608	510.69
439.829	522.69
440.05	515.69
440.272	521.69
440.493	489.69
440.715	517.69
440.936	489.69
441.158	516.69
441.379	512.69
441.6	514.69
441.822	531.69
442.043	514.69
442.264	516.69
442.486	498.69
442.707	525.69
442.928	501.69
443.149	493.69
443.371	488.69
443.592	503.69
443.813	500.69
444.034	499.69
444.255	519.69
444.476	514.69
444.698	533.69
444.919	524.69
445.14	584.69
445.361	539.69
445.582	530.69
445.803	504.69
446.024	496.69
446.245	522.69
446.466	506.69
446.687	500.69
446.908	514.69
447.129	487.69
447.35	476.69
447.571	509.69
447.792	474.69
448.013	476.69
448.234	476.69
448.455	489.69
448.675	460.69
448.896	478.69
449.117	464.69
449.338	505.69
449.559	478.69
449.779	476.69
450	469.69
450.221	484.69
450.442	474.69
450.662	489.69
450.883	479.69
451.104	488.69
451.324	462.69
451.545	478.69
451.766	482.69
451.986	482.69
452.207	484.69
452.428	475.69
452.648	490.69
452.869	444.69
453.089	466.69
453.31	486.69
453.53	474.69
453.751	465.69
453.971	468.69
454.192	484.69
454.412	446.69
454.633	482.69
454.853	454.69
455.073	458.69
455.294	479.69
455.514	482.69
455.734	496.69
455.955	466.69
456.175	485.69
456.395	447.69
456.616	473.69
456.836	485.69
457.056	496.69
457.276	473.69
457.497	486.69
457.717	471.69
457.937	470.69
458.157	468.69
458.377	483.69
458.598	484.69
458.818	469.69
459.038	492.69
459.258	476.69
459.478	513.69
459.698	480.69
459.918	505.69
460.138	489.69
460.358	483.69
460.578	522.69
460.798	489.69
461.018	512.69
461.238	516.69
461.458	515.69
461.678	508.69
461.898	528.69
462.118	516.69
462.338	524.69
462.558	519.69
462.777	518.69
462.997	545.69
463.217	549.69
463.437	555.69
463.657	549.69
463.876	543.69
464.096	547.69
464.316	537.69
464.536	554.69
464.755	549.69
464.975	545.69
465.195	545.69
465.414	510.69
465.634	505.69
465.854	508.69
466.073	526.69
466.293	528.69
466.512	498.69
466.732	484.69
466.951	510.69
467.171	502.69
467.391	496.69
467.61	515.69
467.829	497.69
468.049	531.69
468.268	506.69
468.488	500.69
468.707	525.69
468.927	548.69
469.146	518.69
469.365	514.69
469.585	520.69
469.804	493.69
470.023	513.69
470.243	519.69
470.462	530.69
470.681	536.69
470.901	512.69
471.12	524.69
471.339	532.69
471.558	530.69
471.777	523.69
471.997	518.69
472.216	534.69
472.435	538.69
472.654	526.69
472.873	520.69
473.092	544.69
473.311	544.69
473.53	540.69
473.749	537.69
473.968	514.69
474.187	530.69
474.406	531.69
474.625	534.69
474.844	538.69
475.063	536.69
475.282	557.69
475.501	540.69
475.72	566.69
475.939	554.69
476.158	566.69
476.377	556.69
476.596	566.69
476.814	580.69
477.033	563.69
477.252	573.69
477.471	577.69
477.69	589.69
477.908	596.69
478.127	602.69
478.346	586.69
478.564	587.69
478.783	598.69
479.002	609.69
479.22	625.69
479.439	606.69
479.658	617.69
479.876	616.69
480.095	620.69
480.313	616.69
480.532	611.69
480.751	631.69
480.969	632.69
481.188	642.69
481.406	611.69
481.624	638.69
481.843	626.69
482.061	632.69
482.28	636.69
482.498	618.69
482.717	616.69
482.935	627.69
483.153	632.69
483.372	620.69
483.59	636.69
483.808	624.69
484.027	645.69
484.245	658.69
484.463	663.69
484.681	680.69
484.9	655.69
485.118	646.69
485.336	647.69
485.554	628.69
485.772	644.69
485.99	656.69
486.209	652.69
486.427	653.69
486.645	661.69
486.863	654.69
487.081	662.69
487.299	658.69
487.517	677.69
487.735	676.69
487.953	668.69
488.171	660.69
488.389	679.69
488.607	642.69
488.825	668.69
489.043	672.69
489.261	662.69
489.479	672.69
489.696	672.69
489.914	662.69
490.132	662.69
490.35	668.69
490.568	651.69
490.786	663.69
491.003	685.69
491.221	699.69
491.439	688.69
491.657	678.69
491.874	674.69
492.092	714.69
492.31	704.69
492.527	699.69
492.745	684.69
492.963	682.69
493.18	683.69
493.398	690.69
493.615	718.69
493.833	707.69
494.05	702.69
494.268	693.69
494.485	698.69
494.703	692.69
494.92	669.69
495.138	683.69
495.355	704.69
495.573	682.69
495.79	700.69
496.008	719.69
496.225	728.69
496.442	714.69
496.66	714.69
496.877	724.69
497.094	724.69
497.312	725.69
497.529	733.69
497.746	724.69
497.963	733.69
498.181	762.69
498.398	756.69
498.615	729.69
498.832	782.69
499.049	788.69
499.267	790.69
499.484	802.69
499.701	804.69
499.918	819.69
500.135	836.69
500.352	848.69
500.569	852.69
500.786	873.69
501.003	844.69
501.22	797.69
501.437	809.69
501.654	806.69
501.871	790.69
502.088	778.69
502.305	748.69
502.522	753.69
502.739	745.69
502.956	712.69
503.172	736.69
503.389	739.69
503.606	736.69
503.823	725.69
504.04	715.69
504.256	695.69
504.473	698.69
504.69	705.69
504.907	687.69
505.123	700.69
505.34	680.69
505.557	678.69
505.773	663.69
505.99	680.69
506.207	657.69
506.423	646.69
506.64	645.69
506.856	648.69
507.073	636.69
507.289	657.69
507.506	644.69
507.722	644.69
507.939	644.69
508.155	626.69
508.372	643.69
508.588	646.69
508.805	618.69
509.021	628.69
509.238	614.69
509.454	642.69
509.67	634.69
509.887	630.69
510.103	632.69
510.319	626.69
510.536	611.69
510.752	600.69
510.968	601.69
511.184	618.69
511.401	618.69
511.617	626.69
511.833	578.69
512.049	629.69
512.265	607.69
512.481	609.69
512.698	611.69
512.914	647.69
513.13	603.69
513.346	614.69
513.562	607.69
513.778	611.69
513.994	620.69
514.21	601.69
514.426	618.69
514.642	614.69
514.858	632.69
515.074	613.69
515.29	596.69
515.506	620.69
515.721	604.69
515.937	578.69
516.153	614.69
516.369	593.69
516.585	597.69
516.801	621.69
517.016	613.69
517.232	601.69
517.448	600.69
517.664	611.69
517.879	619.69
518.095	622.69
518.311	622.69
518.527	635.69
518.742	618.69
518.958	628.69
519.173	632.69
519.389	602.69
519.605	605.69
519.82	604.69
520.036	651.69
520.251	600.69
520.467	608.69
520.682	597.69
520.898	608.69
521.113	586.69
521.329	571.69
521.544	595.69
521.76	585.69
521.975	589.69
522.19	585.69
522.406	581.69
522.621	584.69
522.836	579.69
523.052	593.69
523.267	604.69
523.482	598.69
523.698	589.69
523.913	596.69
524.128	585.69
524.343	611.69
524.559	584.69
524.774	595.69
524.989	569.69
525.204	601.69
525.419	596.69
525.634	580.69
525.849	590.69
526.064	578.69
526.28	572.69
526.495	565.69
526.71	559.69
526.925	607.69
527.14	564.69
527.355	574.69
527.57	576.69
527.785	588.69
527.999	584.69
528.214	584.69
528.429	578.69
528.644	579.69
528.859	586.69
529.074	565.69
529.289	576.69
529.503	579.69
529.718	576.69
529.933	557.69
530.148	584.69
530.363	564.69
530.577	562.69
530.792	545.69
531.007	567.69
531.221	566.69
531.436	580.69
531.651	570.69
531.865	558.69
532.08	567.69
532.295	561.69
532.509	563.69
532.724	545.69
532.938	547.69
533.153	567.69
533.367	558.69
533.582	567.69
533.796	566.69
534.011	556.69
534.225	551.69
534.44	555.69
534.654	569.69
534.868	554.69
535.083	553.69
535.297	547.69
535.511	543.69
535.726	529.69
535.94	554.69
536.154	540.69
536.369	553.69
536.583	546.69
536.797	535.69
537.011	550.69
537.225	532.69
537.44	524.69
537.654	557.69
537.868	553.69
538.082	541.69
538.296	555.69
538.51	517.69
538.724	530.69
538.938	534.69
539.153	517.69
539.367	540.69
539.581	534.69
539.795	524.69
540.009	526.69
540.222	500.69
540.436	542.69
540.65	517.69
540.864	549.69
541.078	530.69
541.292	539.69
541.506	526.69
541.72	525.69
541.934	555.69
542.147	544.69
542.361	563.69
542.575	530.69
542.789	542.69
543.002	535.69
543.216	540.69
543.43	525.69
543.644	532.69
543.857	533.69
544.071	527.69
544.285	516.69
544.498	532.69
544.712	529.69
544.925	547.69
545.139	523.69
545.352	501.69
545.566	519.69
545.779	532.69
545.993	532.69
546.206	526.69
546.42	507.69
546.633	496.69
546.847	524.69
547.06	520.69
547.274	516.69
547.487	526.69
547.7	526.69
547.914	512.69
548.127	525.69
548.34	531.69
548.554	504.69
548.767	514.69
548.98	511.69
549.193	504.69
549.407	524.69
549.62	519.69
549.833	496.69
550.046	524.69
550.259	531.69
550.473	532.69
550.686	519.69
550.899	515.69
551.112	510.69
551.325	515.69
551.538	510.69
551.751	485.69
551.964	507.69
552.177	491.69
552.39	530.69
552.603	528.69
552.816	511.69
553.029	481.69
553.242	518.69
553.455	484.69
553.667	523.69
553.88	492.69
554.093	504.69
554.306	510.69
554.519	504.69
554.732	500.69
554.944	490.69
555.157	481.69
555.37	514.69
555.583	485.69
555.795	475.69
556.008	490.69
556.221	475.69
556.433	470.69
556.646	468.69
556.859	446.69
557.071	463.69
557.284	471.69
557.496	474.69
557.709	477.69
557.921	478.69
558.134	480.69
558.346	493.69
558.559	471.69
558.771	468.69
558.984	467.69
559.196	464.69
559.409	456.69
559.621	466.69
559.833	461.69
560.046	472.69
560.258	444.69
560.47	459.69
560.683	454.69
560.895	446.69
561.107	463.69
561.32	421.69
561.532	461.69
561.744	482.69
561.956	464.69
562.168	466.69
562.381	470.69
562.593	456.69
562.805	448.69
563.017	465.69
563.229	459.69
563.441	438.69
563.653	465.69
563.865	466.69
564.077	457.69
564.289	458.69
564.501	456.69
564.713	448.69
564.925	454.69
565.137	461.69
565.349	451.69
565.561	442.69
565.773	470.69
565.985	469.69
566.197	467.69
566.408	468.69
566.62	464.69
566.832	467.69
567.044	465.69
567.255	462.69
567.467	466.69
567.679	461.69
567.891	462.69
568.102	468.69
568.314	451.69
568.526	456.69
568.737	464.69
568.949	452.69
569.161	464.69
569.372	443.69
569.584	440.69
569.795	420.69
570.007	448.69
570.218	424.69
570.43	422.69
570.641	410.69
570.853	422.69
571.064	432.69
571.276	432.69
571.487	425.69
571.698	413.69
571.91	403.69
572.121	422.69
572.333	408.69
572.544	392.69
572.755	409.69
572.966	405.69
573.178	396.69
573.389	381.69
573.6	399.69
573.811	388.69
574.023	390.69
574.234	389.69
574.445	396.69
574.656	389.69
574.867	363.69
575.078	380.69
575.289	368.69
575.501	369.69
575.712	388.69
575.923	376.69
576.134	378.69
576.345	352.69
576.556	382.69
576.767	377.69
576.978	364.69
577.188	355.69
577.399	388.69
577.61	359.69
577.821	355.69
578.032	357.69
578.243	352.69
578.454	375.69
578.665	364.69
578.875	368.69
579.086	346.69
579.297	361.69
579.508	360.69
579.718	347.69
579.929	344.69
580.14	361.69
580.35	356.69
580.561	334.69
580.772	362.69
580.982	341.69
581.193	354.69
581.403	353.69
581.614	343.69
581.825	332.69
582.035	340.69
582.246	353.69
582.456	336.69
582.667	334.69
582.877	358.69
583.087	356.69
583.298	328.69
583.508	332.69
583.719	349.69
583.929	341.69
584.139	350.69
584.35	341.69
584.56	348.69
584.77	328.69
584.981	320.69
585.191	338.69
585.401	323.69
585.611	318.69
585.821	327.69
586.032	358.69
586.242	356.69
586.452	329.69
586.662	338.69
586.872	333.69
587.082	313.69
587.292	324.69
587.502	344.69
587.713	345.69
587.923	338.69
588.133	318.69
588.343	329.69
588.553	344.69
588.762	321.69
588.972	309.69
589.182	351.69
589.392	356.69
589.602	337.69
589.812	347.69
590.022	351.69
590.232	329.69
590.441	330.69
590.651	317.69
590.861	314.69
591.071	313.69
591.281	317.69
591.49	313.69
591.7	319.69
591.91	315.69
592.119	331.69
592.329	305.69
592.539	318.69
592.748	330.69
592.958	333.69
593.167	303.69
593.377	328.69
593.587	311.69
593.796	315.69
594.006	308.69
594.215	308.69
594.424	300.69
594.634	304.69
594.843	313.69
595.053	319.69
595.262	318.69
595.472	306.69
595.681	305.69
595.89	308.69
596.1	323.69
596.309	326.69
596.518	302.69
596.727	284.69
596.937	298.69
597.146	278.69
597.355	299.69
597.564	275.69
597.774	279.69
597.983	283.69
598.192	283.69
598.401	290.69
598.61	293.69
598.819	290.69
599.028	300.69
599.237	280.69
599.446	283.69
599.655	287.69
599.864	303.69
600.073	275.69
600.282	282.69
600.491	299.69
600.7	284.69
600.909	273.69
601.118	283.69
601.327	278.69
601.536	266.69
601.745	283.69
601.953	289.69
602.162	292.69
602.371	304.69
602.58	276.69
602.789	264.69
602.997	282.69
603.206	283.69
603.415	271.69
603.623	281.69
603.832	281.69
604.041	261.69
604.249	278.69
604.458	293.69
604.666	276.69
604.875	279.69
605.084	275.69
605.292	266.69
605.501	254.69
605.709	259.69
605.918	252.69
606.126	270.69
606.334	263.69
606.543	289.69
606.751	269.69
606.96	289.69
607.168	260.69
607.376	276.69
607.585	269.69
607.793	248.69
608.001	252.69
608.21	257.69
608.418	252.69
608.626	246.69
608.834	273.69
609.043	262.69
609.251	269.69
609.459	254.69
609.667	248.69
609.875	251.69
610.083	266.69
610.291	264.69
610.499	249.69
610.707	254.69
610.916	274.69
611.124	260.69
611.332	261.69
611.54	258.69
611.748	260.69
611.955	268.69
612.163	244.69
612.371	261.69
612.579	242.69
612.787	257.69
612.995	265.69
613.203	273.69
613.411	250.69
613.618	256.69
613.826	251.69
614.034	252.69
614.242	265.69
614.449	243.69
614.657	256.69
614.865	260.69
615.072	257.69
615.28	246.69
615.488	263.69
615.695	250.69
615.903	249.69
616.111	256.69
616.318	265.69
616.526	231.69
616.733	254.69
616.941	244.69
617.148	262.69
617.356	235.69
617.563	255.69
617.771	247.69
617.978	264.69
618.185	260.69
618.393	258.69
618.6	249.69
618.807	244.69
619.015	252.69
619.222	261.69
619.429	244.69
619.637	251.69
619.844	244.69
620.051	245.69
620.258	226.69
620.466	240.69
620.673	216.69
620.88	226.69
621.087	223.69
621.294	226.69
621.501	224.69
621.708	233.69
621.915	235.69
622.122	232.69
622.329	228.69
622.536	215.69
622.743	224.69
622.95	229.69
623.157	247.69
623.364	241.69
623.571	238.69
623.778	256.69
623.985	221.69
624.192	237.69
624.399	258.69
624.606	249.69
624.812	221.69
625.019	238.69
625.226	222.69
625.433	225.69
625.639	214.69
625.846	228.69
626.053	218.69
626.259	227.69
626.466	229.69
626.673	236.69
626.879	221.69
627.086	224.69
627.293	216.69
627.499	223.69
627.706	212.69
627.912	219.69
628.119	220.69
628.325	238.69
628.532	229.69
628.738	225.69
628.945	218.69
629.151	223.69
629.357	219.69
629.564	228.69
629.77	207.69
629.976	204.69
630.183	213.69
630.389	226.69
630.595	227.69
630.802	210.69
631.008	221.69
631.214	208.69
631.42	221.69
631.627	224.69
631.833	207.69
632.039	221.69
632.245	221.69
632.451	211.69
632.657	205.69
632.863	212.69
633.069	187.69
633.275	210.69
633.481	207.69
633.688	196.69
633.893	205.69
634.099	215.69
634.305	212.69
634.511	203.69
634.717	197.69
634.923	216.69
635.129	187.69
635.335	197.69
635.541	217.69
635.747	191.69
635.952	196.69
636.158	189.69
636.364	209.69
636.57	188.69
636.775	201.69
636.981	209.69
637.187	200.69
637.392	202.69
637.598	205.69
637.804	195.69
638.009	201.69
638.215	174.69
638.421	217.69
638.626	202.69
638.832	216.69
639.037	196.69
639.243	187.69
639.448	213.69
639.654	206.69
639.859	188.69
640.065	196.69
640.27	192.69
640.475	194.69
640.681	194.69
640.886	198.69
641.091	205.69
641.297	210.69
641.502	205.69
641.707	200.69
641.913	191.69
642.118	203.69
642.323	202.69
642.528	206.69
642.733	196.69
642.939	204.69
643.144	194.69
643.349	183.69
643.554	184.69
643.759	180.69
643.964	197.69
644.169	201.69
644.374	181.69
644.579	201.69
644.784	188.69
644.989	189.69
645.194	186.69
645.399	178.69
645.604	211.69
645.809	205.69
646.014	194.69
646.219	184.69
646.423	194.69
646.628	199.69
646.833	199.69
647.038	194.69
647.243	193.69
647.447	199.69
647.652	205.69
647.857	198.69
648.062	192.69
648.266	204.69
648.471	194.69
648.676	201.69
648.88	194.69
649.085	201.69
649.289	190.69
649.494	181.69
649.698	195.69
649.903	187.69
650.107	193.69
650.312	186.69
650.516	195.69
650.721	185.69
650.925	174.69
651.13	183.69
651.334	191.69
651.539	180.69
651.743	184.69
651.947	181.69
652.152	174.69
652.356	182.69
652.56	183.69
652.764	188.69
652.969	184.69
653.173	176.69
653.377	177.69
653.581	168.69
653.785	164.69
653.99	178.69
654.194	178.69
654.398	179.69
654.602	168.69
654.806	178.69
655.01	169.69
655.214	164.69
655.418	159.69
655.622	161.69
655.826	154.69
656.03	162.69
656.234	169.69
656.438	149.69
656.642	155.69
656.846	163.69
657.049	158.69
657.253	162.69
657.457	156.69
657.661	142.69
657.865	126.69
658.068	121.69
658.272	121.69
658.476	125.69
658.68	129.69
658.883	114.69
659.087	122.69
659.291	123.69
659.494	116.69
659.698	96.69
659.901	113.69
660.105	109.69
660.309	127.69
660.512	106.69
660.716	106.69
660.919	90.69
661.123	115.69
661.326	82.69
661.53	90.69
661.733	105.69
661.936	109.69
662.14	90.69
662.343	75.69
662.546	82.69
662.75	87.69
662.953	105.69
663.156	89.69
663.36	64.69
663.563	93.69
663.766	85.69
663.969	98.69
664.173	82.69
664.376	91.69
664.579	84.69
664.782	86.69
664.985	92.69
665.188	81.69
665.391	97.69
665.594	80.69
665.797	88.69
666	88.69
666.203	91.69
666.406	81.69
666.609	82.69
666.812	76.69
667.015	75.69
667.218	82.69
667.421	78.69
667.624	82.69
667.827	90.69
668.03	91.69
668.232	81.69
668.435	81.69
668.638	85.69
668.841	91.69
669.043	86.69
669.246	86.69
669.449	91.69
669.651	80.69
669.854	89.69
670.057	83.69
670.259	102.69
670.462	81.69
670.665	84.69
670.867	77.69
671.07	81.69
671.272	93.69
671.475	90.69
671.677	100.69
671.88	78.69
672.082	85.69
672.284	84.69
672.487	76.69
672.689	61.69
672.892	87.69
