Data from Fe(NO3)3@0.1M.TitratingCurve.Agarose3%dH2O.NegLispCup.LampEnergy10.LIBS07252019_HRD10591_16-40-42-333.txt Node
Date: Thu Jul 25 16:40:42 EDT 2019
User: cochatt
Spectrometer: HR+D1059
Trigger mode: 1
Integration Time (sec): 1.000000E-1
Scans to average: 1
Electric dark correction enabled: true
Nonlinearity correction enabled: false
Boxcar width: 0
XAxis mode: Wavelengths
Number of Pixels in Spectrum: 2048
>>>>>Begin Spectral Data<<<<<
223.165	-13.12
223.4	-13.12
223.635	-13.12
223.869	2.88
224.104	-21.12
224.338	-16.12
224.573	-11.12
224.808	-22.12
225.042	-10.12
225.277	-14.12
225.511	-18.12
225.746	-9.12
225.98	14.88
226.215	11.88
226.449	20.88
226.683	14.88
226.918	17.88
227.152	51.88
227.387	25.88
227.621	59.88
227.856	47.88
228.09	54.88
228.324	44.88
228.559	41.88
228.793	55.88
229.027	78.88
229.262	84.88
229.496	85.88
229.73	98.88
229.964	85.88
230.199	99.88
230.433	85.88
230.667	96.88
230.901	93.88
231.136	94.88
231.37	98.88
231.604	108.88
231.838	99.88
232.072	77.88
232.306	83.88
232.541	95.88
232.775	98.88
233.009	104.88
233.243	109.88
233.477	93.88
233.711	101.88
233.945	100.88
234.179	101.88
234.413	97.88
234.647	109.88
234.881	102.88
235.115	106.88
235.349	92.88
235.583	105.88
235.817	104.88
236.051	96.88
236.285	103.88
236.519	99.88
236.753	114.88
236.987	90.88
237.221	122.88
237.455	106.88
237.689	100.88
237.922	97.88
238.156	112.88
238.39	104.88
238.624	113.88
238.858	100.88
239.091	117.88
239.325	117.88
239.559	114.88
239.793	110.88
240.027	124.88
240.26	108.88
240.494	101.88
240.728	92.88
240.961	117.88
241.195	111.88
241.429	125.88
241.662	109.88
241.896	116.88
242.13	113.88
242.363	108.88
242.597	125.88
242.83	124.88
243.064	109.88
243.298	122.88
243.531	119.88
243.765	116.88
243.998	117.88
244.232	128.88
244.465	125.88
244.699	127.88
244.932	123.88
245.166	120.88
245.399	127.88
245.633	123.88
245.866	132.88
246.099	149.88
246.333	129.88
246.566	123.88
246.8	133.88
247.033	139.88
247.266	122.88
247.5	145.88
247.733	133.88
247.966	136.88
248.2	133.88
248.433	139.88
248.666	139.88
248.899	150.88
249.133	145.88
249.366	135.88
249.599	149.88
249.832	157.88
250.066	131.88
250.299	146.88
250.532	127.88
250.765	151.88
250.998	135.88
251.231	137.88
251.465	146.88
251.698	151.88
251.931	142.88
252.164	131.88
252.397	139.88
252.63	139.88
252.863	151.88
253.096	152.88
253.329	137.88
253.562	148.88
253.795	155.88
254.028	155.88
254.261	160.88
254.494	163.88
254.727	151.88
254.96	143.88
255.193	161.88
255.426	140.88
255.659	151.88
255.892	161.88
256.124	156.88
256.357	159.88
256.59	156.88
256.823	137.88
257.056	155.88
257.289	156.88
257.521	157.88
257.754	147.88
257.987	160.88
258.22	150.88
258.452	162.88
258.685	160.88
258.918	160.88
259.151	165.88
259.383	164.88
259.616	163.88
259.849	172.88
260.081	181.88
260.314	170.88
260.547	147.88
260.779	128.88
261.012	158.88
261.244	170.88
261.477	153.88
261.71	151.88
261.942	167.88
262.175	161.88
262.407	168.88
262.64	173.88
262.872	173.88
263.105	176.88
263.337	177.88
263.57	184.88
263.802	159.88
264.035	183.88
264.267	183.88
264.499	175.88
264.732	182.88
264.964	187.88
265.197	178.88
265.429	179.88
265.661	173.88
265.894	177.88
266.126	172.88
266.358	189.88
266.591	173.88
266.823	186.88
267.055	192.88
267.287	180.88
267.52	182.88
267.752	171.88
267.984	175.88
268.216	178.88
268.448	182.88
268.681	213.88
268.913	185.88
269.145	185.88
269.377	176.88
269.609	190.88
269.841	192.88
270.073	190.88
270.306	183.88
270.538	204.88
270.77	175.88
271.002	177.88
271.234	195.88
271.466	183.88
271.698	173.88
271.93	197.88
272.162	185.88
272.394	190.88
272.626	192.88
272.858	195.88
273.09	195.88
273.322	187.88
273.553	210.88
273.785	199.88
274.017	213.88
274.249	198.88
274.481	189.88
274.713	199.88
274.945	208.88
275.176	198.88
275.408	203.88
275.64	206.88
275.872	208.88
276.104	205.88
276.335	211.88
276.567	201.88
276.799	195.88
277.031	209.88
277.262	197.88
277.494	215.88
277.726	187.88
277.957	209.88
278.189	222.88
278.421	214.88
278.652	214.88
278.884	221.88
279.115	206.88
279.347	208.88
279.579	225.88
279.81	204.88
280.042	207.88
280.273	204.88
280.505	204.88
280.736	211.88
280.968	220.88
281.199	215.88
281.431	230.88
281.662	225.88
281.894	224.88
282.125	227.88
282.356	229.88
282.588	220.88
282.819	203.88
283.051	202.88
283.282	203.88
283.513	216.88
283.745	224.88
283.976	217.88
284.207	215.88
284.439	235.88
284.67	243.88
284.901	229.88
285.132	219.88
285.364	236.88
285.595	235.88
285.826	221.88
286.057	244.88
286.288	236.88
286.52	246.88
286.751	263.88
286.982	245.88
287.213	235.88
287.444	232.88
287.675	227.88
287.906	245.88
288.138	229.88
288.369	232.88
288.6	245.88
288.831	232.88
289.062	235.88
289.293	251.88
289.524	228.88
289.755	241.88
289.986	243.88
290.217	241.88
290.448	238.88
290.679	242.88
290.91	229.88
291.141	258.88
291.371	241.88
291.602	244.88
291.833	236.88
292.064	241.88
292.295	245.88
292.526	251.88
292.757	236.88
292.987	255.88
293.218	245.88
293.449	241.88
293.68	283.88
293.91	239.88
294.141	246.88
294.372	239.88
294.603	241.88
294.833	256.88
295.064	239.88
295.295	260.88
295.525	247.88
295.756	254.88
295.987	243.88
296.217	250.88
296.448	261.88
296.679	283.88
296.909	266.88
297.14	254.88
297.37	267.88
297.601	273.88
297.831	261.88
298.062	262.88
298.292	259.88
298.523	249.88
298.753	271.88
298.984	261.88
299.214	277.88
299.445	273.88
299.675	268.88
299.905	279.88
300.136	259.88
300.366	275.88
300.597	257.88
300.827	280.88
301.057	249.88
301.288	273.88
301.518	279.88
301.748	261.88
301.979	267.88
302.209	274.88
302.439	287.88
302.669	263.88
302.9	285.88
303.13	282.88
303.36	283.88
303.59	288.88
303.82	298.88
304.051	277.88
304.281	277.88
304.511	269.88
304.741	281.88
304.971	266.88
305.201	267.88
305.431	277.88
305.661	275.88
305.891	267.88
306.121	259.88
306.352	268.88
306.582	275.88
306.812	275.88
307.042	274.88
307.272	275.88
307.502	258.88
307.731	267.88
307.961	267.88
308.191	257.88
308.421	280.88
308.651	265.88
308.881	269.88
309.111	279.88
309.341	274.88
309.571	265.88
309.8	281.88
310.03	282.88
310.26	258.88
310.49	282.88
310.72	263.88
310.949	273.88
311.179	269.88
311.409	292.88
311.639	287.88
311.868	276.88
312.098	292.88
312.328	285.88
312.557	307.88
312.787	275.88
313.017	281.88
313.246	292.88
313.476	300.88
313.706	284.88
313.935	300.88
314.165	296.88
314.394	309.88
314.624	308.88
314.853	289.88
315.083	298.88
315.312	295.88
315.542	291.88
315.771	306.88
316.001	293.88
316.23	296.88
316.46	290.88
316.689	299.88
316.919	281.88
317.148	305.88
317.377	288.88
317.607	293.88
317.836	314.88
318.065	310.88
318.295	299.88
318.524	286.88
318.753	288.88
318.983	279.88
319.212	291.88
319.441	311.88
319.67	291.88
319.9	298.88
320.129	288.88
320.358	279.88
320.587	303.88
320.816	291.88
321.046	285.88
321.275	313.88
321.504	300.88
321.733	296.88
321.962	292.88
322.191	288.88
322.42	292.88
322.649	296.88
322.878	298.88
323.108	306.88
323.337	302.88
323.566	290.88
323.795	286.88
324.024	306.88
324.253	311.88
324.482	300.88
324.71	292.88
324.939	307.88
325.168	323.88
325.397	320.88
325.626	315.88
325.855	316.88
326.084	305.88
326.313	326.88
326.542	312.88
326.77	325.88
326.999	317.88
327.228	307.88
327.457	327.88
327.686	337.88
327.914	320.88
328.143	319.88
328.372	309.88
328.6	316.88
328.829	324.88
329.058	326.88
329.287	328.88
329.515	326.88
329.744	336.88
329.972	328.88
330.201	328.88
330.43	304.88
330.658	324.88
330.887	339.88
331.115	343.88
331.344	327.88
331.572	327.88
331.801	336.88
332.03	324.88
332.258	336.88
332.486	365.88
332.715	375.88
332.943	381.88
333.172	405.88
333.4	401.88
333.629	415.88
333.857	397.88
334.085	395.88
334.314	395.88
334.542	389.88
334.771	396.88
334.999	380.88
335.227	379.88
335.455	389.88
335.684	396.88
335.912	400.88
336.14	378.88
336.369	388.88
336.597	379.88
336.825	377.88
337.053	370.88
337.281	379.88
337.51	345.88
337.738	364.88
337.966	353.88
338.194	350.88
338.422	344.88
338.65	352.88
338.878	364.88
339.106	343.88
339.334	319.88
339.562	323.88
339.79	332.88
340.018	337.88
340.246	347.88
340.474	337.88
340.702	331.88
340.93	329.88
341.158	337.88
341.386	324.88
341.614	349.88
341.842	337.88
342.07	348.88
342.298	344.88
342.526	324.88
342.754	311.88
342.981	339.88
343.209	348.88
343.437	359.88
343.665	372.88
343.893	381.88
344.12	394.88
344.348	369.88
344.576	382.88
344.804	363.88
345.031	339.88
345.259	344.88
345.487	343.88
345.714	340.88
345.942	329.88
346.17	327.88
346.397	320.88
346.625	331.88
346.853	320.88
347.08	319.88
347.308	322.88
347.535	311.88
347.763	320.88
347.99	324.88
348.218	327.88
348.445	325.88
348.673	337.88
348.9	311.88
349.128	332.88
349.355	327.88
349.583	317.88
349.81	317.88
350.037	338.88
350.265	315.88
350.492	337.88
350.72	314.88
350.947	313.88
351.174	321.88
351.402	319.88
351.629	325.88
351.856	309.88
352.083	313.88
352.311	299.88
352.538	321.88
352.765	292.88
352.992	328.88
353.22	324.88
353.447	314.88
353.674	317.88
353.901	320.88
354.128	329.88
354.355	332.88
354.583	328.88
354.81	315.88
355.037	308.88
355.264	338.88
355.491	316.88
355.718	319.88
355.945	326.88
356.172	339.88
356.399	323.88
356.626	323.88
356.853	331.88
357.08	328.88
357.307	304.88
357.534	340.88
357.761	330.88
357.988	308.88
358.215	309.88
358.441	298.88
358.668	322.88
358.895	313.88
359.122	318.88
359.349	314.88
359.576	338.88
359.802	316.88
360.029	327.88
360.256	322.88
360.483	327.88
360.709	296.88
360.936	328.88
361.163	304.88
361.39	323.88
361.616	315.88
361.843	311.88
362.07	332.88
362.296	315.88
362.523	332.88
362.749	328.88
362.976	314.88
363.203	332.88
363.429	322.88
363.656	320.88
363.882	317.88
364.109	317.88
364.335	323.88
364.562	321.88
364.788	293.88
365.015	326.88
365.241	331.88
365.468	340.88
365.694	328.88
365.92	317.88
366.147	303.88
366.373	332.88
366.599	313.88
366.826	323.88
367.052	322.88
367.278	316.88
367.505	337.88
367.731	338.88
367.957	337.88
368.184	320.88
368.41	328.88
368.636	332.88
368.862	316.88
369.089	339.88
369.315	299.88
369.541	334.88
369.767	337.88
369.993	325.88
370.219	347.88
370.445	344.88
370.672	352.88
370.898	329.88
371.124	343.88
371.35	344.88
371.576	336.88
371.802	334.88
372.028	363.88
372.254	352.88
372.48	336.88
372.706	361.88
372.932	361.88
373.158	371.88
373.384	360.88
373.61	342.88
373.835	347.88
374.061	347.88
374.287	353.88
374.513	368.88
374.739	360.88
374.965	367.88
375.191	371.88
375.416	405.88
375.642	391.88
375.868	370.88
376.094	371.88
376.319	373.88
376.545	352.88
376.771	347.88
376.997	345.88
377.222	349.88
377.448	355.88
377.674	364.88
377.899	369.88
378.125	358.88
378.35	360.88
378.576	353.88
378.802	329.88
379.027	347.88
379.253	351.88
379.478	353.88
379.704	337.88
379.929	352.88
380.155	352.88
380.38	355.88
380.606	340.88
380.831	356.88
381.057	360.88
381.282	360.88
381.507	348.88
381.733	372.88
381.958	380.88
382.184	349.88
382.409	349.88
382.634	374.88
382.86	375.88
383.085	388.88
383.31	381.88
383.535	376.88
383.761	365.88
383.986	356.88
384.211	405.88
384.436	397.88
384.662	405.88
384.887	409.88
385.112	424.88
385.337	400.88
385.562	419.88
385.787	416.88
386.013	423.88
386.238	415.88
386.463	414.88
386.688	394.88
386.913	433.88
387.138	428.88
387.363	406.88
387.588	421.88
387.813	399.88
388.038	408.88
388.263	424.88
388.488	427.88
388.713	423.88
388.938	412.88
389.163	418.88
389.387	411.88
389.612	408.88
389.837	411.88
390.062	413.88
390.287	423.88
390.512	415.88
390.736	419.88
390.961	412.88
391.186	421.88
391.411	443.88
391.636	449.88
391.86	453.88
392.085	437.88
392.31	447.88
392.534	463.88
392.759	460.88
392.984	449.88
393.208	443.88
393.433	448.88
393.658	437.88
393.882	433.88
394.107	436.88
394.331	426.88
394.556	444.88
394.78	434.88
395.005	443.88
395.229	438.88
395.454	461.88
395.678	469.88
395.903	432.88
396.127	451.88
396.352	429.88
396.576	436.88
396.801	441.88
397.025	435.88
397.249	458.88
397.474	468.88
397.698	462.88
397.922	500.88
398.147	459.88
398.371	476.88
398.595	492.88
398.82	497.88
399.044	551.88
399.268	556.88
399.492	658.88
399.717	691.88
399.941	680.88
400.165	613.88
400.389	571.88
400.613	545.88
400.837	547.88
401.062	521.88
401.286	521.88
401.51	526.88
401.734	513.88
401.958	513.88
402.182	526.88
402.406	521.88
402.63	531.88
402.854	525.88
403.078	531.88
403.302	551.88
403.526	563.88
403.75	551.88
403.974	553.88
404.198	587.88
404.422	559.88
404.645	565.88
404.869	564.88
405.093	563.88
405.317	546.88
405.541	549.88
405.765	525.88
405.988	554.88
406.212	537.88
406.436	552.88
406.66	592.88
406.883	546.88
407.107	615.88
407.331	650.88
407.555	639.88
407.778	647.88
408.002	609.88
408.226	615.88
408.449	588.88
408.673	584.88
408.896	591.88
409.12	571.88
409.344	592.88
409.567	567.88
409.791	585.88
410.014	575.88
410.238	580.88
410.461	549.88
410.685	562.88
410.908	557.88
411.132	537.88
411.355	547.88
411.578	522.88
411.802	541.88
412.025	548.88
412.249	528.88
412.472	525.88
412.695	519.88
412.919	522.88
413.142	544.88
413.365	550.88
413.589	513.88
413.812	518.88
414.035	518.88
414.258	508.88
414.482	533.88
414.705	531.88
414.928	539.88
415.151	533.88
415.374	507.88
415.597	516.88
415.821	495.88
416.044	499.88
416.267	506.88
416.49	515.88
416.713	513.88
416.936	513.88
417.159	499.88
417.382	521.88
417.605	485.88
417.828	508.88
418.051	521.88
418.274	538.88
418.497	512.88
418.72	514.88
418.943	523.88
419.166	534.88
419.389	602.88
419.611	556.88
419.834	539.88
420.057	526.88
420.28	533.88
420.503	504.88
420.726	519.88
420.948	499.88
421.171	506.88
421.394	489.88
421.617	519.88
421.839	507.88
422.062	490.88
422.285	501.88
422.507	503.88
422.73	508.88
422.953	509.88
423.175	517.88
423.398	541.88
423.621	531.88
423.843	548.88
424.066	540.88
424.288	524.88
424.511	531.88
424.733	533.88
424.956	505.88
425.178	515.88
425.401	493.88
425.623	488.88
425.846	484.88
426.068	482.88
426.291	488.88
426.513	497.88
426.735	474.88
426.958	479.88
427.18	459.88
427.402	459.88
427.625	471.88
427.847	476.88
428.069	459.88
428.292	467.88
428.514	489.88
428.736	476.88
428.958	465.88
429.181	456.88
429.403	431.88
429.625	448.88
429.847	473.88
430.069	465.88
430.292	465.88
430.514	447.88
430.736	460.88
430.958	483.88
431.18	468.88
431.402	467.88
431.624	457.88
431.846	468.88
432.068	480.88
432.29	454.88
432.512	458.88
432.734	461.88
432.956	462.88
433.178	467.88
433.4	469.88
433.622	471.88
433.844	488.88
434.066	470.88
434.287	489.88
434.509	482.88
434.731	502.88
434.953	505.88
435.175	505.88
435.397	486.88
435.618	499.88
435.84	493.88
436.062	458.88
436.284	473.88
436.505	467.88
436.727	475.88
436.949	479.88
437.17	465.88
437.392	475.88
437.614	475.88
437.835	444.88
438.057	451.88
438.278	438.88
438.5	448.88
438.721	462.88
438.943	466.88
439.165	464.88
439.386	449.88
439.608	497.88
439.829	485.88
440.05	453.88
440.272	488.88
440.493	460.88
440.715	464.88
440.936	473.88
441.158	499.88
441.379	493.88
441.6	531.88
441.822	506.88
442.043	530.88
442.264	508.88
442.486	506.88
442.707	532.88
442.928	532.88
443.149	508.88
443.371	519.88
443.592	505.88
443.813	515.88
444.034	544.88
444.255	562.88
444.476	561.88
444.698	581.88
444.919	586.88
445.14	674.88
445.361	589.88
445.582	550.88
445.803	527.88
446.024	495.88
446.245	483.88
446.466	504.88
446.687	486.88
446.908	475.88
447.129	467.88
447.35	452.88
447.571	463.88
447.792	477.88
448.013	483.88
448.234	468.88
448.455	451.88
448.675	456.88
448.896	443.88
449.117	453.88
449.338	445.88
449.559	448.88
449.779	439.88
450	429.88
450.221	453.88
450.442	450.88
450.662	459.88
450.883	464.88
451.104	442.88
451.324	449.88
451.545	449.88
451.766	436.88
451.986	438.88
452.207	451.88
452.428	432.88
452.648	440.88
452.869	437.88
453.089	416.88
453.31	425.88
453.53	431.88
453.751	407.88
453.971	406.88
454.192	417.88
454.412	413.88
454.633	423.88
454.853	419.88
455.073	433.88
455.294	403.88
455.514	419.88
455.734	418.88
455.955	401.88
456.175	413.88
456.395	400.88
456.616	424.88
456.836	388.88
457.056	400.88
457.276	396.88
457.497	405.88
457.717	412.88
457.937	424.88
458.157	425.88
458.377	425.88
458.598	437.88
458.818	419.88
459.038	459.88
459.258	470.88
459.478	476.88
459.698	478.88
459.918	484.88
460.138	489.88
460.358	539.88
460.578	526.88
460.798	532.88
461.018	529.88
461.238	532.88
461.458	552.88
461.678	526.88
461.898	537.88
462.118	544.88
462.338	537.88
462.558	579.88
462.777	585.88
462.997	621.88
463.217	680.88
463.437	652.88
463.657	637.88
463.876	627.88
464.096	613.88
464.316	581.88
464.536	589.88
464.755	588.88
464.975	579.88
465.195	548.88
465.414	503.88
465.634	485.88
465.854	458.88
466.073	466.88
466.293	460.88
466.512	468.88
466.732	466.88
466.951	462.88
467.171	446.88
467.391	461.88
467.61	471.88
467.829	449.88
468.049	452.88
468.268	423.88
468.488	434.88
468.707	427.88
468.927	447.88
469.146	455.88
469.365	442.88
469.585	444.88
469.804	453.88
470.023	457.88
470.243	460.88
470.462	476.88
470.681	458.88
470.901	471.88
471.12	460.88
471.339	450.88
471.558	476.88
471.777	443.88
471.997	428.88
472.216	458.88
472.435	429.88
472.654	441.88
472.873	428.88
473.092	419.88
473.311	435.88
473.53	422.88
473.749	427.88
473.968	442.88
474.187	427.88
474.406	409.88
474.625	441.88
474.844	408.88
475.063	424.88
475.282	410.88
475.501	415.88
475.72	435.88
475.939	421.88
476.158	450.88
476.377	440.88
476.596	437.88
476.814	437.88
477.033	452.88
477.252	449.88
477.471	472.88
477.69	471.88
477.908	480.88
478.127	490.88
478.346	470.88
478.564	491.88
478.783	472.88
479.002	497.88
479.22	532.88
479.439	522.88
479.658	503.88
479.876	507.88
480.095	501.88
480.313	529.88
480.532	548.88
480.751	549.88
480.969	522.88
481.188	486.88
481.406	495.88
481.624	476.88
481.843	473.88
482.061	466.88
482.28	473.88
482.498	467.88
482.717	475.88
482.935	472.88
483.153	467.88
483.372	449.88
483.59	481.88
483.808	488.88
484.027	475.88
484.245	462.88
484.463	474.88
484.681	507.88
484.9	483.88
485.118	490.88
485.336	481.88
485.554	482.88
485.772	511.88
485.99	497.88
486.209	498.88
486.427	490.88
486.645	493.88
486.863	520.88
487.081	499.88
487.299	475.88
487.517	471.88
487.735	484.88
487.953	513.88
488.171	497.88
488.389	513.88
488.607	497.88
488.825	470.88
489.043	490.88
489.261	490.88
489.479	480.88
489.696	490.88
489.914	509.88
490.132	473.88
490.35	490.88
490.568	497.88
490.786	513.88
491.003	501.88
491.221	475.88
491.439	518.88
491.657	517.88
491.874	495.88
492.092	517.88
492.31	506.88
492.527	503.88
492.745	509.88
492.963	513.88
493.18	512.88
493.398	523.88
493.615	525.88
493.833	524.88
494.05	524.88
494.268	517.88
494.485	544.88
494.703	527.88
494.92	521.88
495.138	505.88
495.355	535.88
495.573	506.88
495.79	517.88
496.008	530.88
496.225	549.88
496.442	543.88
496.66	554.88
496.877	559.88
497.094	545.88
497.312	567.88
497.529	582.88
497.746	593.88
497.963	595.88
498.181	635.88
498.398	626.88
498.615	677.88
498.832	710.88
499.049	746.88
499.267	797.88
499.484	829.88
499.701	953.88
499.918	1027.88
500.135	1127.88
500.352	1259.88
500.569	1246.88
500.786	1257.88
501.003	1206.88
501.22	1074.88
501.437	996.88
501.654	876.88
501.871	813.88
502.088	785.88
502.305	724.88
502.522	672.88
502.739	701.88
502.956	636.88
503.172	623.88
503.389	604.88
503.606	575.88
503.823	585.88
504.04	584.88
504.256	573.88
504.473	594.88
504.69	604.88
504.907	593.88
505.123	572.88
505.34	528.88
505.557	519.88
505.773	507.88
505.99	528.88
506.207	497.88
506.423	484.88
506.64	490.88
506.856	480.88
507.073	455.88
507.289	465.88
507.506	466.88
507.722	451.88
507.939	464.88
508.155	458.88
508.372	452.88
508.588	450.88
508.805	439.88
509.021	435.88
509.238	441.88
509.454	422.88
509.67	426.88
509.887	424.88
510.103	453.88
510.319	428.88
510.536	444.88
510.752	447.88
510.968	409.88
511.184	428.88
511.401	438.88
511.617	433.88
511.833	431.88
512.049	428.88
512.265	395.88
512.481	422.88
512.698	419.88
512.914	432.88
513.13	428.88
513.346	437.88
513.562	427.88
513.778	405.88
513.994	435.88
514.21	416.88
514.426	441.88
514.642	464.88
514.858	437.88
515.074	450.88
515.29	439.88
515.506	441.88
515.721	434.88
515.937	453.88
516.153	461.88
516.369	493.88
516.585	468.88
516.801	490.88
517.016	507.88
517.232	524.88
517.448	525.88
517.664	532.88
517.879	539.88
518.095	535.88
518.311	537.88
518.527	520.88
518.742	504.88
518.958	496.88
519.173	486.88
519.389	436.88
519.605	451.88
519.82	436.88
520.036	436.88
520.251	445.88
520.467	446.88
520.682	413.88
520.898	418.88
521.113	405.88
521.329	417.88
521.544	397.88
521.76	422.88
521.975	416.88
522.19	401.88
522.406	411.88
522.621	401.88
522.836	393.88
523.052	395.88
523.267	384.88
523.482	391.88
523.698	397.88
523.913	394.88
524.128	393.88
524.343	398.88
524.559	403.88
524.774	393.88
524.989	393.88
525.204	380.88
525.419	375.88
525.634	389.88
525.849	393.88
526.064	393.88
526.28	388.88
526.495	410.88
526.71	369.88
526.925	391.88
527.14	361.88
527.355	369.88
527.57	386.88
527.785	402.88
527.999	367.88
528.214	389.88
528.429	368.88
528.644	381.88
528.859	391.88
529.074	388.88
529.289	401.88
529.503	385.88
529.718	396.88
529.933	387.88
530.148	362.88
530.363	379.88
530.577	372.88
530.792	378.88
531.007	389.88
531.221	385.88
531.436	388.88
531.651	390.88
531.865	367.88
532.08	375.88
532.295	389.88
532.509	395.88
532.724	363.88
532.938	379.88
533.153	381.88
533.367	381.88
533.582	384.88
533.796	377.88
534.011	368.88
534.225	364.88
534.44	375.88
534.654	385.88
534.868	375.88
535.083	369.88
535.297	370.88
535.511	364.88
535.726	371.88
535.94	367.88
536.154	364.88
536.369	367.88
536.583	363.88
536.797	385.88
537.011	366.88
537.225	356.88
537.44	352.88
537.654	347.88
537.868	355.88
538.082	357.88
538.296	362.88
538.51	373.88
538.724	367.88
538.938	364.88
539.153	343.88
539.367	360.88
539.581	358.88
539.795	343.88
540.009	367.88
540.222	347.88
540.436	360.88
540.65	348.88
540.864	339.88
541.078	372.88
541.292	369.88
541.506	348.88
541.72	334.88
541.934	355.88
542.147	359.88
542.361	360.88
542.575	363.88
542.789	348.88
543.002	350.88
543.216	344.88
543.43	356.88
543.644	345.88
543.857	347.88
544.071	352.88
544.285	371.88
544.498	355.88
544.712	349.88
544.925	350.88
545.139	353.88
545.352	372.88
545.566	367.88
545.779	348.88
545.993	346.88
546.206	339.88
546.42	347.88
546.633	350.88
546.847	356.88
547.06	337.88
547.274	354.88
547.487	348.88
547.7	367.88
547.914	353.88
548.127	357.88
548.34	369.88
548.554	346.88
548.767	348.88
548.98	367.88
549.193	357.88
549.407	363.88
549.62	349.88
549.833	349.88
550.046	362.88
550.259	355.88
550.473	344.88
550.686	339.88
550.899	345.88
551.112	364.88
551.325	346.88
551.538	341.88
551.751	361.88
551.964	339.88
552.177	357.88
552.39	348.88
552.603	363.88
552.816	369.88
553.029	363.88
553.242	385.88
553.455	379.88
553.667	404.88
553.88	379.88
554.093	364.88
554.306	387.88
554.519	347.88
554.732	363.88
554.944	332.88
555.157	360.88
555.37	339.88
555.583	328.88
555.795	340.88
556.008	330.88
556.221	316.88
556.433	301.88
556.646	332.88
556.859	309.88
557.071	306.88
557.284	306.88
557.496	320.88
557.709	304.88
557.921	299.88
558.134	319.88
558.346	310.88
558.559	300.88
558.771	299.88
558.984	309.88
559.196	319.88
559.409	306.88
559.621	315.88
559.833	298.88
560.046	291.88
560.258	299.88
560.47	283.88
560.683	286.88
560.895	305.88
561.107	308.88
561.32	290.88
561.532	299.88
561.744	303.88
561.956	305.88
562.168	300.88
562.381	291.88
562.593	298.88
562.805	311.88
563.017	297.88
563.229	296.88
563.441	297.88
563.653	297.88
563.865	311.88
564.077	309.88
564.289	307.88
564.501	330.88
564.713	325.88
564.925	326.88
565.137	345.88
565.349	334.88
565.561	338.88
565.773	357.88
565.985	364.88
566.197	365.88
566.408	404.88
566.62	405.88
566.832	426.88
567.044	433.88
567.255	429.88
567.467	459.88
567.679	474.88
567.891	479.88
568.102	467.88
568.314	467.88
568.526	415.88
568.737	421.88
568.949	383.88
569.161	375.88
569.372	338.88
569.584	344.88
569.795	315.88
570.007	310.88
570.218	307.88
570.43	325.88
570.641	288.88
570.853	315.88
571.064	301.88
571.276	303.88
571.487	293.88
571.698	285.88
571.91	284.88
572.121	281.88
572.333	285.88
572.544	289.88
572.755	274.88
572.966	272.88
573.178	251.88
573.389	259.88
573.6	244.88
573.811	263.88
574.023	263.88
574.234	259.88
574.445	246.88
574.656	254.88
574.867	255.88
575.078	260.88
575.289	247.88
575.501	264.88
575.712	247.88
575.923	255.88
576.134	246.88
576.345	231.88
576.556	256.88
576.767	254.88
576.978	240.88
577.188	243.88
577.399	231.88
577.61	249.88
577.821	236.88
578.032	241.88
578.243	224.88
578.454	237.88
578.665	227.88
578.875	218.88
579.086	221.88
579.297	224.88
579.508	236.88
579.718	237.88
579.929	220.88
580.14	223.88
580.35	234.88
580.561	225.88
580.772	205.88
580.982	241.88
581.193	225.88
581.403	220.88
581.614	219.88
581.825	250.88
582.035	211.88
582.246	209.88
582.456	239.88
582.667	238.88
582.877	204.88
583.087	215.88
583.298	219.88
583.508	219.88
583.719	211.88
583.929	213.88
584.139	228.88
584.35	221.88
584.56	230.88
584.77	226.88
584.981	198.88
585.191	208.88
585.401	212.88
585.611	213.88
585.821	229.88
586.032	209.88
586.242	205.88
586.452	204.88
586.662	205.88
586.872	216.88
587.082	202.88
587.292	217.88
587.502	220.88
587.713	211.88
587.923	202.88
588.133	213.88
588.343	200.88
588.553	208.88
588.762	227.88
588.972	217.88
589.182	202.88
589.392	200.88
589.602	214.88
589.812	195.88
590.022	207.88
590.232	216.88
590.441	210.88
590.651	223.88
590.861	224.88
591.071	232.88
591.281	213.88
591.49	241.88
591.7	219.88
591.91	217.88
592.119	224.88
592.329	234.88
592.539	235.88
592.748	224.88
592.958	245.88
593.167	244.88
593.377	254.88
593.587	268.88
593.796	255.88
594.006	255.88
594.215	248.88
594.424	255.88
594.634	241.88
594.843	256.88
595.053	244.88
595.262	244.88
595.472	230.88
595.681	234.88
595.89	223.88
596.1	209.88
596.309	202.88
596.518	230.88
596.727	205.88
596.937	217.88
597.146	200.88
597.355	209.88
597.564	206.88
597.774	200.88
597.983	187.88
598.192	199.88
598.401	188.88
598.61	189.88
598.819	190.88
599.028	196.88
599.237	204.88
599.446	195.88
599.655	185.88
599.864	187.88
600.073	184.88
600.282	189.88
600.491	188.88
600.7	185.88
600.909	191.88
601.118	179.88
601.327	181.88
601.536	188.88
601.745	174.88
601.953	188.88
602.162	198.88
602.371	184.88
602.58	186.88
602.789	178.88
602.997	190.88
603.206	183.88
603.415	177.88
603.623	187.88
603.832	178.88
604.041	190.88
604.249	182.88
604.458	187.88
604.666	176.88
604.875	169.88
605.084	167.88
605.292	175.88
605.501	173.88
605.709	179.88
605.918	179.88
606.126	183.88
606.334	168.88
606.543	169.88
606.751	186.88
606.96	178.88
607.168	194.88
607.376	180.88
607.585	170.88
607.793	170.88
608.001	181.88
608.21	187.88
608.418	181.88
608.626	172.88
608.834	164.88
609.043	179.88
609.251	170.88
609.459	186.88
609.667	166.88
609.875	193.88
610.083	167.88
610.291	168.88
610.499	161.88
610.707	172.88
610.916	168.88
611.124	162.88
611.332	168.88
611.54	179.88
611.748	170.88
611.955	177.88
612.163	175.88
612.371	177.88
612.579	159.88
612.787	143.88
612.995	177.88
613.203	171.88
613.411	157.88
613.618	165.88
613.826	183.88
614.034	179.88
614.242	163.88
614.449	167.88
614.657	162.88
614.865	179.88
615.072	172.88
615.28	171.88
615.488	171.88
615.695	170.88
615.903	169.88
616.111	162.88
616.318	177.88
616.526	182.88
616.733	172.88
616.941	171.88
617.148	167.88
617.356	167.88
617.563	186.88
617.771	163.88
617.978	174.88
618.185	165.88
618.393	161.88
618.6	169.88
618.807	173.88
619.015	156.88
619.222	183.88
619.429	177.88
619.637	171.88
619.844	166.88
620.051	167.88
620.258	162.88
620.466	165.88
620.673	172.88
620.88	168.88
621.087	155.88
621.294	169.88
621.501	148.88
621.708	154.88
621.915	141.88
622.122	145.88
622.329	146.88
622.536	149.88
622.743	147.88
622.95	156.88
623.157	160.88
623.364	158.88
623.571	155.88
623.778	157.88
623.985	163.88
624.192	180.88
624.399	155.88
624.606	155.88
624.812	167.88
625.019	168.88
625.226	155.88
625.433	154.88
625.639	148.88
625.846	133.88
626.053	161.88
626.259	178.88
626.466	160.88
626.673	156.88
626.879	147.88
627.086	147.88
627.293	155.88
627.499	148.88
627.706	141.88
627.912	159.88
628.119	141.88
628.325	146.88
628.532	147.88
628.738	148.88
628.945	120.88
629.151	146.88
629.357	127.88
629.564	151.88
629.77	159.88
629.976	152.88
630.183	145.88
630.389	144.88
630.595	129.88
630.802	149.88
631.008	146.88
631.214	149.88
631.42	141.88
631.627	145.88
631.833	150.88
632.039	154.88
632.245	135.88
632.451	137.88
632.657	144.88
632.863	131.88
633.069	131.88
633.275	147.88
633.481	142.88
633.688	153.88
633.893	135.88
634.099	130.88
634.305	141.88
634.511	143.88
634.717	132.88
634.923	129.88
635.129	148.88
635.335	133.88
635.541	131.88
635.747	139.88
635.952	128.88
636.158	127.88
636.364	144.88
636.57	131.88
636.775	125.88
636.981	147.88
637.187	135.88
637.392	151.88
637.598	133.88
637.804	141.88
638.009	127.88
638.215	123.88
638.421	131.88
638.626	127.88
638.832	136.88
639.037	136.88
639.243	139.88
639.448	143.88
639.654	137.88
639.859	139.88
640.065	122.88
640.27	153.88
640.475	123.88
640.681	135.88
640.886	128.88
641.091	131.88
641.297	155.88
641.502	139.88
641.707	125.88
641.913	129.88
642.118	129.88
642.323	147.88
642.528	119.88
642.733	118.88
642.939	147.88
643.144	139.88
643.349	141.88
643.554	131.88
643.759	127.88
643.964	117.88
644.169	124.88
644.374	148.88
644.579	149.88
644.784	124.88
644.989	132.88
645.194	123.88
645.399	131.88
645.604	116.88
645.809	123.88
646.014	135.88
646.219	128.88
646.423	129.88
646.628	140.88
646.833	141.88
647.038	117.88
647.243	129.88
647.447	138.88
647.652	131.88
647.857	144.88
648.062	130.88
648.266	123.88
648.471	136.88
648.676	123.88
648.88	119.88
649.085	140.88
649.289	127.88
649.494	123.88
649.698	131.88
649.903	131.88
650.107	134.88
650.312	136.88
650.516	123.88
650.721	128.88
650.925	135.88
651.13	117.88
651.334	113.88
651.539	119.88
651.743	132.88
651.947	127.88
652.152	108.88
652.356	105.88
652.56	110.88
652.764	111.88
652.969	125.88
653.173	121.88
653.377	107.88
653.581	119.88
653.785	101.88
653.99	119.88
654.194	118.88
654.398	119.88
654.602	120.88
654.806	116.88
655.01	108.88
655.214	123.88
655.418	120.88
655.622	104.88
655.826	111.88
656.03	119.88
656.234	116.88
656.438	102.88
656.642	106.88
656.846	112.88
657.049	105.88
657.253	109.88
657.457	113.88
657.661	103.88
657.865	119.88
658.068	101.88
658.272	111.88
658.476	100.88
658.68	94.88
658.883	87.88
659.087	92.88
659.291	97.88
659.494	106.88
659.698	89.88
659.901	84.88
660.105	77.88
660.309	83.88
660.512	83.88
660.716	89.88
660.919	98.88
661.123	89.88
661.326	88.88
661.53	89.88
661.733	89.88
661.936	97.88
662.14	85.88
662.343	78.88
662.546	81.88
662.75	74.88
662.953	88.88
663.156	82.88
663.36	79.88
663.563	79.88
663.766	75.88
663.969	87.88
664.173	75.88
664.376	91.88
664.579	83.88
664.782	89.88
664.985	79.88
665.188	79.88
665.391	73.88
665.594	72.88
665.797	87.88
666	74.88
666.203	69.88
666.406	77.88
666.609	74.88
666.812	78.88
667.015	88.88
667.218	81.88
667.421	86.88
667.624	81.88
667.827	84.88
668.03	87.88
668.232	78.88
668.435	69.88
668.638	54.88
668.841	85.88
669.043	85.88
669.246	88.88
669.449	81.88
669.651	85.88
669.854	75.88
670.057	74.88
670.259	77.88
670.462	73.88
670.665	85.88
670.867	90.88
671.07	93.88
671.272	92.88
671.475	85.88
671.677	96.88
671.88	76.88
672.082	77.88
672.284	66.88
672.487	75.88
672.689	75.88
672.892	79.88
