Data from Fe(NO3)3@0.05M.TitratingCurve.Agarose3%dH2O.NegLispCup.LampEnergy10.LIBS07252019_HRD10591_16-47-48-334.txt Node
Date: Thu Jul 25 16:47:48 EDT 2019
User: cochatt
Spectrometer: HR+D1059
Trigger mode: 1
Integration Time (sec): 1.000000E-1
Scans to average: 1
Electric dark correction enabled: true
Nonlinearity correction enabled: false
Boxcar width: 0
XAxis mode: Wavelengths
Number of Pixels in Spectrum: 2048
>>>>>Begin Spectral Data<<<<<
223.165	-14.62
223.4	-14.62
223.635	-14.62
223.869	-22.62
224.104	-26.62
224.338	-5.62
224.573	-14.62
224.808	-15.62
225.042	-8.62
225.277	-2.62
225.511	-11.62
225.746	0.38
225.98	3.38
226.215	17.38
226.449	23.38
226.683	22.38
226.918	26.38
227.152	29.38
227.387	27.38
227.621	43.38
227.856	29.38
228.09	46.38
228.324	40.38
228.559	52.38
228.793	65.38
229.027	76.38
229.262	88.38
229.496	72.38
229.73	74.38
229.964	85.38
230.199	93.38
230.433	105.38
230.667	98.38
230.901	97.38
231.136	100.38
231.37	83.38
231.604	99.38
231.838	100.38
232.072	94.38
232.306	110.38
232.541	101.38
232.775	102.38
233.009	109.38
233.243	96.38
233.477	114.38
233.711	95.38
233.945	119.38
234.179	111.38
234.413	102.38
234.647	104.38
234.881	110.38
235.115	91.38
235.349	99.38
235.583	106.38
235.817	104.38
236.051	109.38
236.285	102.38
236.519	107.38
236.753	104.38
236.987	111.38
237.221	97.38
237.455	102.38
237.689	106.38
237.922	106.38
238.156	90.38
238.39	103.38
238.624	104.38
238.858	95.38
239.091	101.38
239.325	105.38
239.559	108.38
239.793	113.38
240.027	122.38
240.26	102.38
240.494	111.38
240.728	113.38
240.961	124.38
241.195	106.38
241.429	99.38
241.662	103.38
241.896	110.38
242.13	117.38
242.363	105.38
242.597	126.38
242.83	123.38
243.064	120.38
243.298	122.38
243.531	103.38
243.765	110.38
243.998	125.38
244.232	114.38
244.465	120.38
244.699	123.38
244.932	117.38
245.166	119.38
245.399	126.38
245.633	117.38
245.866	117.38
246.099	119.38
246.333	118.38
246.566	117.38
246.8	116.38
247.033	127.38
247.266	123.38
247.5	126.38
247.733	135.38
247.966	118.38
248.2	128.38
248.433	129.38
248.666	120.38
248.899	134.38
249.133	119.38
249.366	135.38
249.599	137.38
249.832	144.38
250.066	135.38
250.299	125.38
250.532	131.38
250.765	132.38
250.998	132.38
251.231	153.38
251.465	136.38
251.698	125.38
251.931	143.38
252.164	119.38
252.397	137.38
252.63	131.38
252.863	123.38
253.096	122.38
253.329	145.38
253.562	132.38
253.795	144.38
254.028	143.38
254.261	159.38
254.494	156.38
254.727	139.38
254.96	154.38
255.193	144.38
255.426	145.38
255.659	129.38
255.892	138.38
256.124	145.38
256.357	136.38
256.59	149.38
256.823	143.38
257.056	145.38
257.289	145.38
257.521	139.38
257.754	138.38
257.987	155.38
258.22	148.38
258.452	147.38
258.685	138.38
258.918	139.38
259.151	157.38
259.383	152.38
259.616	154.38
259.849	158.38
260.081	175.38
260.314	163.38
260.547	156.38
260.779	162.38
261.012	155.38
261.244	161.38
261.477	170.38
261.71	152.38
261.942	147.38
262.175	161.38
262.407	146.38
262.64	156.38
262.872	164.38
263.105	162.38
263.337	157.38
263.57	161.38
263.802	175.38
264.035	162.38
264.267	151.38
264.499	162.38
264.732	147.38
264.964	152.38
265.197	160.38
265.429	167.38
265.661	159.38
265.894	169.38
266.126	184.38
266.358	163.38
266.591	168.38
266.823	175.38
267.055	143.38
267.287	173.38
267.52	173.38
267.752	173.38
267.984	175.38
268.216	177.38
268.448	160.38
268.681	173.38
268.913	157.38
269.145	171.38
269.377	167.38
269.609	185.38
269.841	187.38
270.073	175.38
270.306	173.38
270.538	183.38
270.77	185.38
271.002	167.38
271.234	185.38
271.466	169.38
271.698	178.38
271.93	187.38
272.162	188.38
272.394	190.38
272.626	182.38
272.858	189.38
273.09	182.38
273.322	173.38
273.553	185.38
273.785	186.38
274.017	195.38
274.249	193.38
274.481	175.38
274.713	187.38
274.945	207.38
275.176	186.38
275.408	190.38
275.64	192.38
275.872	201.38
276.104	203.38
276.335	191.38
276.567	192.38
276.799	179.38
277.031	191.38
277.262	184.38
277.494	185.38
277.726	196.38
277.957	189.38
278.189	193.38
278.421	186.38
278.652	202.38
278.884	209.38
279.115	187.38
279.347	199.38
279.579	189.38
279.81	192.38
280.042	202.38
280.273	205.38
280.505	218.38
280.736	198.38
280.968	206.38
281.199	200.38
281.431	215.38
281.662	212.38
281.894	222.38
282.125	202.38
282.356	213.38
282.588	210.38
282.819	207.38
283.051	210.38
283.282	207.38
283.513	201.38
283.745	221.38
283.976	215.38
284.207	195.38
284.439	210.38
284.67	194.38
284.901	218.38
285.132	213.38
285.364	213.38
285.595	216.38
285.826	222.38
286.057	220.38
286.288	208.38
286.52	221.38
286.751	215.38
286.982	218.38
287.213	221.38
287.444	212.38
287.675	219.38
287.906	225.38
288.138	213.38
288.369	207.38
288.6	213.38
288.831	214.38
289.062	224.38
289.293	236.38
289.524	221.38
289.755	228.38
289.986	229.38
290.217	225.38
290.448	213.38
290.679	211.38
290.91	219.38
291.141	239.38
291.371	222.38
291.602	227.38
291.833	219.38
292.064	237.38
292.295	231.38
292.526	217.38
292.757	208.38
292.987	246.38
293.218	222.38
293.449	226.38
293.68	226.38
293.91	222.38
294.141	218.38
294.372	217.38
294.603	205.38
294.833	248.38
295.064	218.38
295.295	225.38
295.525	211.38
295.756	238.38
295.987	230.38
296.217	214.38
296.448	222.38
296.679	239.38
296.909	238.38
297.14	250.38
297.37	232.38
297.601	243.38
297.831	253.38
298.062	238.38
298.292	237.38
298.523	236.38
298.753	254.38
298.984	233.38
299.214	237.38
299.445	227.38
299.675	246.38
299.905	225.38
300.136	237.38
300.366	229.38
300.597	235.38
300.827	236.38
301.057	257.38
301.288	241.38
301.518	249.38
301.748	261.38
301.979	243.38
302.209	268.38
302.439	243.38
302.669	240.38
302.9	253.38
303.13	242.38
303.36	246.38
303.59	238.38
303.82	242.38
304.051	229.38
304.281	266.38
304.511	270.38
304.741	242.38
304.971	259.38
305.201	246.38
305.431	248.38
305.661	245.38
305.891	251.38
306.121	231.38
306.352	257.38
306.582	244.38
306.812	248.38
307.042	237.38
307.272	255.38
307.502	260.38
307.731	259.38
307.961	258.38
308.191	218.38
308.421	241.38
308.651	246.38
308.881	248.38
309.111	249.38
309.341	244.38
309.571	246.38
309.8	256.38
310.03	253.38
310.26	246.38
310.49	253.38
310.72	228.38
310.949	244.38
311.179	249.38
311.409	269.38
311.639	254.38
311.868	257.38
312.098	239.38
312.328	254.38
312.557	267.38
312.787	267.38
313.017	253.38
313.246	245.38
313.476	253.38
313.706	276.38
313.935	247.38
314.165	264.38
314.394	279.38
314.624	267.38
314.853	271.38
315.083	264.38
315.312	265.38
315.542	255.38
315.771	266.38
316.001	279.38
316.23	265.38
316.46	256.38
316.689	252.38
316.919	265.38
317.148	253.38
317.377	269.38
317.607	266.38
317.836	245.38
318.065	262.38
318.295	256.38
318.524	251.38
318.753	257.38
318.983	284.38
319.212	242.38
319.441	249.38
319.67	269.38
319.9	257.38
320.129	268.38
320.358	267.38
320.587	272.38
320.816	262.38
321.046	278.38
321.275	279.38
321.504	265.38
321.733	268.38
321.962	257.38
322.191	258.38
322.42	257.38
322.649	265.38
322.878	278.38
323.108	262.38
323.337	271.38
323.566	282.38
323.795	274.38
324.024	287.38
324.253	261.38
324.482	277.38
324.71	264.38
324.939	265.38
325.168	274.38
325.397	286.38
325.626	267.38
325.855	273.38
326.084	285.38
326.313	293.38
326.542	275.38
326.77	287.38
326.999	301.38
327.228	290.38
327.457	273.38
327.686	263.38
327.914	283.38
328.143	278.38
328.372	298.38
328.6	304.38
328.829	279.38
329.058	273.38
329.287	287.38
329.515	269.38
329.744	291.38
329.972	294.38
330.201	310.38
330.43	279.38
330.658	278.38
330.887	282.38
331.115	285.38
331.344	301.38
331.572	313.38
331.801	296.38
332.03	307.38
332.258	321.38
332.486	322.38
332.715	305.38
332.943	344.38
333.172	340.38
333.4	384.38
333.629	381.38
333.857	366.38
334.085	379.38
334.314	365.38
334.542	342.38
334.771	370.38
334.999	352.38
335.227	334.38
335.455	338.38
335.684	340.38
335.912	340.38
336.14	303.38
336.369	326.38
336.597	330.38
336.825	332.38
337.053	335.38
337.281	315.38
337.51	341.38
337.738	322.38
337.966	315.38
338.194	314.38
338.422	309.38
338.65	307.38
338.878	304.38
339.106	293.38
339.334	296.38
339.562	305.38
339.79	302.38
340.018	299.38
340.246	318.38
340.474	302.38
340.702	293.38
340.93	292.38
341.158	297.38
341.386	298.38
341.614	309.38
341.842	305.38
342.07	301.38
342.298	303.38
342.526	294.38
342.754	305.38
342.981	308.38
343.209	290.38
343.437	327.38
343.665	344.38
343.893	365.38
344.12	373.38
344.348	343.38
344.576	335.38
344.804	317.38
345.031	327.38
345.259	309.38
345.487	295.38
345.714	297.38
345.942	319.38
346.17	293.38
346.397	285.38
346.625	294.38
346.853	294.38
347.08	283.38
347.308	301.38
347.535	290.38
347.763	299.38
347.99	289.38
348.218	294.38
348.445	287.38
348.673	303.38
348.9	291.38
349.128	290.38
349.355	302.38
349.583	303.38
349.81	279.38
350.037	304.38
350.265	280.38
350.492	290.38
350.72	272.38
350.947	298.38
351.174	291.38
351.402	275.38
351.629	288.38
351.856	272.38
352.083	291.38
352.311	262.38
352.538	292.38
352.765	291.38
352.992	288.38
353.22	275.38
353.447	267.38
353.674	288.38
353.901	282.38
354.128	273.38
354.355	275.38
354.583	277.38
354.81	313.38
355.037	292.38
355.264	277.38
355.491	266.38
355.718	280.38
355.945	279.38
356.172	312.38
356.399	286.38
356.626	307.38
356.853	305.38
357.08	281.38
357.307	298.38
357.534	282.38
357.761	298.38
357.988	302.38
358.215	287.38
358.441	297.38
358.668	287.38
358.895	272.38
359.122	277.38
359.349	287.38
359.576	268.38
359.802	302.38
360.029	295.38
360.256	298.38
360.483	285.38
360.709	282.38
360.936	301.38
361.163	280.38
361.39	290.38
361.616	296.38
361.843	270.38
362.07	269.38
362.296	275.38
362.523	276.38
362.749	283.38
362.976	282.38
363.203	290.38
363.429	300.38
363.656	296.38
363.882	276.38
364.109	294.38
364.335	288.38
364.562	278.38
364.788	274.38
365.015	288.38
365.241	278.38
365.468	286.38
365.694	289.38
365.92	287.38
366.147	279.38
366.373	275.38
366.599	282.38
366.826	293.38
367.052	281.38
367.278	287.38
367.505	295.38
367.731	316.38
367.957	285.38
368.184	274.38
368.41	287.38
368.636	309.38
368.862	286.38
369.089	293.38
369.315	311.38
369.541	302.38
369.767	318.38
369.993	299.38
370.219	292.38
370.445	297.38
370.672	310.38
370.898	313.38
371.124	309.38
371.35	313.38
371.576	310.38
371.802	305.38
372.028	329.38
372.254	332.38
372.48	319.38
372.706	321.38
372.932	330.38
373.158	328.38
373.384	324.38
373.61	338.38
373.835	336.38
374.061	322.38
374.287	319.38
374.513	330.38
374.739	334.38
374.965	331.38
375.191	339.38
375.416	346.38
375.642	339.38
375.868	340.38
376.094	337.38
376.319	327.38
376.545	318.38
376.771	322.38
376.997	304.38
377.222	316.38
377.448	313.38
377.674	317.38
377.899	321.38
378.125	320.38
378.35	318.38
378.576	308.38
378.802	327.38
379.027	321.38
379.253	328.38
379.478	319.38
379.704	326.38
379.929	314.38
380.155	319.38
380.38	325.38
380.606	333.38
380.831	324.38
381.057	322.38
381.282	334.38
381.507	305.38
381.733	315.38
381.958	333.38
382.184	335.38
382.409	326.38
382.634	333.38
382.86	326.38
383.085	344.38
383.31	365.38
383.535	367.38
383.761	336.38
383.986	344.38
384.211	353.38
384.436	358.38
384.662	374.38
384.887	357.38
385.112	359.38
385.337	377.38
385.562	365.38
385.787	392.38
386.013	386.38
386.238	376.38
386.463	359.38
386.688	385.38
386.913	383.38
387.138	385.38
387.363	378.38
387.588	372.38
387.813	362.38
388.038	367.38
388.263	379.38
388.488	398.38
388.713	386.38
388.938	380.38
389.163	385.38
389.387	398.38
389.612	371.38
389.837	360.38
390.062	385.38
390.287	383.38
390.512	365.38
390.736	371.38
390.961	393.38
391.186	379.38
391.411	390.38
391.636	399.38
391.86	415.38
392.085	420.38
392.31	426.38
392.534	409.38
392.759	398.38
392.984	412.38
393.208	405.38
393.433	410.38
393.658	405.38
393.882	393.38
394.107	376.38
394.331	411.38
394.556	399.38
394.78	414.38
395.005	404.38
395.229	407.38
395.454	402.38
395.678	431.38
395.903	421.38
396.127	419.38
396.352	408.38
396.576	395.38
396.801	399.38
397.025	427.38
397.249	429.38
397.474	431.38
397.698	437.38
397.922	421.38
398.147	425.38
398.371	422.38
398.595	459.38
398.82	443.38
399.044	485.38
399.268	522.38
399.492	592.38
399.717	639.38
399.941	656.38
400.165	590.38
400.389	554.38
400.613	520.38
400.837	487.38
401.062	482.38
401.286	483.38
401.51	480.38
401.734	489.38
401.958	488.38
402.182	485.38
402.406	470.38
402.63	483.38
402.854	481.38
403.078	501.38
403.302	514.38
403.526	533.38
403.75	515.38
403.974	537.38
404.198	509.38
404.422	532.38
404.645	547.38
404.869	531.38
405.093	522.38
405.317	522.38
405.541	515.38
405.765	513.38
405.988	514.38
406.212	529.38
406.436	525.38
406.66	520.38
406.883	523.38
407.107	548.38
407.331	581.38
407.555	611.38
407.778	576.38
408.002	571.38
408.226	559.38
408.449	559.38
408.673	549.38
408.896	532.38
409.12	541.38
409.344	559.38
409.567	531.38
409.791	547.38
410.014	522.38
410.238	528.38
410.461	526.38
410.685	522.38
410.908	502.38
411.132	526.38
411.355	480.38
411.578	501.38
411.802	498.38
412.025	507.38
412.249	494.38
412.472	497.38
412.695	487.38
412.919	495.38
413.142	488.38
413.365	475.38
413.589	499.38
413.812	496.38
414.035	489.38
414.258	493.38
414.482	480.38
414.705	500.38
414.928	497.38
415.151	477.38
415.374	481.38
415.597	484.38
415.821	490.38
416.044	476.38
416.267	467.38
416.49	456.38
416.713	465.38
416.936	488.38
417.159	474.38
417.382	469.38
417.605	466.38
417.828	472.38
418.051	466.38
418.274	477.38
418.497	472.38
418.72	479.38
418.943	479.38
419.166	512.38
419.389	549.38
419.611	524.38
419.834	505.38
420.057	501.38
420.28	483.38
420.503	477.38
420.726	480.38
420.948	475.38
421.171	477.38
421.394	482.38
421.617	471.38
421.839	475.38
422.062	485.38
422.285	480.38
422.507	500.38
422.73	496.38
422.953	479.38
423.175	497.38
423.398	495.38
423.621	499.38
423.843	498.38
424.066	511.38
424.288	482.38
424.511	499.38
424.733	509.38
424.956	457.38
425.178	495.38
425.401	481.38
425.623	483.38
425.846	475.38
426.068	487.38
426.291	461.38
426.513	477.38
426.735	464.38
426.958	458.38
427.18	452.38
427.402	454.38
427.625	458.38
427.847	455.38
428.069	441.38
428.292	455.38
428.514	445.38
428.736	438.38
428.958	442.38
429.181	433.38
429.403	424.38
429.625	442.38
429.847	411.38
430.069	430.38
430.292	455.38
430.514	457.38
430.736	430.38
430.958	443.38
431.18	429.38
431.402	448.38
431.624	435.38
431.846	446.38
432.068	440.38
432.29	451.38
432.512	456.38
432.734	434.38
432.956	463.38
433.178	449.38
433.4	450.38
433.622	435.38
433.844	459.38
434.066	442.38
434.287	479.38
434.509	470.38
434.731	474.38
434.953	486.38
435.175	508.38
435.397	493.38
435.618	487.38
435.84	466.38
436.062	445.38
436.284	453.38
436.505	441.38
436.727	437.38
436.949	434.38
437.17	433.38
437.392	450.38
437.614	465.38
437.835	441.38
438.057	444.38
438.278	425.38
438.5	435.38
438.721	435.38
438.943	433.38
439.165	417.38
439.386	446.38
439.608	459.38
439.829	480.38
440.05	460.38
440.272	468.38
440.493	438.38
440.715	443.38
440.936	470.38
441.158	477.38
441.379	457.38
441.6	472.38
441.822	514.38
442.043	491.38
442.264	495.38
442.486	485.38
442.707	495.38
442.928	496.38
443.149	490.38
443.371	499.38
443.592	495.38
443.813	494.38
444.034	513.38
444.255	529.38
444.476	532.38
444.698	547.38
444.919	562.38
445.14	643.38
445.361	581.38
445.582	505.38
445.803	487.38
446.024	470.38
446.245	509.38
446.466	482.38
446.687	471.38
446.908	486.38
447.129	437.38
447.35	440.38
447.571	429.38
447.792	433.38
448.013	430.38
448.234	442.38
448.455	431.38
448.675	436.38
448.896	433.38
449.117	446.38
449.338	432.38
449.559	439.38
449.779	406.38
450	409.38
450.221	401.38
450.442	431.38
450.662	435.38
450.883	443.38
451.104	434.38
451.324	440.38
451.545	449.38
451.766	438.38
451.986	421.38
452.207	424.38
452.428	433.38
452.648	424.38
452.869	416.38
453.089	419.38
453.31	433.38
453.53	411.38
453.751	401.38
453.971	395.38
454.192	405.38
454.412	401.38
454.633	392.38
454.853	407.38
455.073	396.38
455.294	396.38
455.514	400.38
455.734	393.38
455.955	393.38
456.175	383.38
456.395	389.38
456.616	395.38
456.836	401.38
457.056	398.38
457.276	395.38
457.497	405.38
457.717	368.38
457.937	394.38
458.157	385.38
458.377	393.38
458.598	419.38
458.818	426.38
459.038	413.38
459.258	429.38
459.478	440.38
459.698	465.38
459.918	456.38
460.138	486.38
460.358	504.38
460.578	511.38
460.798	512.38
461.018	509.38
461.238	533.38
461.458	523.38
461.678	536.38
461.898	523.38
462.118	534.38
462.338	559.38
462.558	545.38
462.777	581.38
462.997	590.38
463.217	625.38
463.437	656.38
463.657	594.38
463.876	596.38
464.096	566.38
464.316	583.38
464.536	598.38
464.755	551.38
464.975	569.38
465.195	546.38
465.414	499.38
465.634	487.38
465.854	471.38
466.073	477.38
466.293	447.38
466.512	439.38
466.732	459.38
466.951	444.38
467.171	465.38
467.391	447.38
467.61	447.38
467.829	449.38
468.049	468.38
468.268	437.38
468.488	424.38
468.707	429.38
468.927	431.38
469.146	439.38
469.365	452.38
469.585	437.38
469.804	431.38
470.023	421.38
470.243	461.38
470.462	455.38
470.681	437.38
470.901	446.38
471.12	444.38
471.339	456.38
471.558	425.38
471.777	419.38
471.997	435.38
472.216	422.38
472.435	417.38
472.654	411.38
472.873	402.38
473.092	429.38
473.311	417.38
473.53	417.38
473.749	416.38
473.968	409.38
474.187	417.38
474.406	414.38
474.625	439.38
474.844	423.38
475.063	406.38
475.282	411.38
475.501	417.38
475.72	412.38
475.939	413.38
476.158	420.38
476.377	441.38
476.596	449.38
476.814	456.38
477.033	439.38
477.252	441.38
477.471	450.38
477.69	437.38
477.908	472.38
478.127	477.38
478.346	469.38
478.564	501.38
478.783	501.38
479.002	504.38
479.22	496.38
479.439	497.38
479.658	486.38
479.876	482.38
480.095	496.38
480.313	527.38
480.532	521.38
480.751	519.38
480.969	515.38
481.188	481.38
481.406	498.38
481.624	467.38
481.843	458.38
482.061	477.38
482.28	479.38
482.498	477.38
482.717	457.38
482.935	464.38
483.153	467.38
483.372	479.38
483.59	463.38
483.808	446.38
484.027	468.38
484.245	472.38
484.463	454.38
484.681	473.38
484.9	482.38
485.118	487.38
485.336	496.38
485.554	469.38
485.772	464.38
485.99	486.38
486.209	509.38
486.427	519.38
486.645	478.38
486.863	481.38
487.081	493.38
487.299	505.38
487.517	494.38
487.735	496.38
487.953	495.38
488.171	494.38
488.389	479.38
488.607	489.38
488.825	479.38
489.043	488.38
489.261	486.38
489.479	497.38
489.696	489.38
489.914	499.38
490.132	488.38
490.35	490.38
490.568	478.38
490.786	502.38
491.003	479.38
491.221	485.38
491.439	480.38
491.657	487.38
491.874	509.38
492.092	523.38
492.31	511.38
492.527	514.38
492.745	496.38
492.963	501.38
493.18	523.38
493.398	509.38
493.615	498.38
493.833	496.38
494.05	521.38
494.268	513.38
494.485	511.38
494.703	535.38
494.92	520.38
495.138	493.38
495.355	535.38
495.573	517.38
495.79	514.38
496.008	511.38
496.225	512.38
496.442	541.38
496.66	562.38
496.877	552.38
497.094	554.38
497.312	558.38
497.529	554.38
497.746	562.38
497.963	580.38
498.181	603.38
498.398	617.38
498.615	657.38
498.832	674.38
499.049	725.38
499.267	770.38
499.484	875.38
499.701	903.38
499.918	978.38
500.135	1111.38
500.352	1189.38
500.569	1283.38
500.786	1245.38
501.003	1189.38
501.22	1093.38
501.437	955.38
501.654	886.38
501.871	827.38
502.088	775.38
502.305	707.38
502.522	696.38
502.739	656.38
502.956	625.38
503.172	619.38
503.389	614.38
503.606	568.38
503.823	583.38
504.04	563.38
504.256	563.38
504.473	581.38
504.69	573.38
504.907	552.38
505.123	554.38
505.34	529.38
505.557	508.38
505.773	504.38
505.99	486.38
506.207	510.38
506.423	481.38
506.64	474.38
506.856	457.38
507.073	459.38
507.289	453.38
507.506	453.38
507.722	439.38
507.939	442.38
508.155	446.38
508.372	448.38
508.588	448.38
508.805	465.38
509.021	426.38
509.238	445.38
509.454	415.38
509.67	419.38
509.887	416.38
510.103	428.38
510.319	410.38
510.536	409.38
510.752	408.38
510.968	386.38
511.184	388.38
511.401	405.38
511.617	411.38
511.833	404.38
512.049	418.38
512.265	410.38
512.481	401.38
512.698	425.38
512.914	413.38
513.13	413.38
513.346	405.38
513.562	416.38
513.778	409.38
513.994	416.38
514.21	409.38
514.426	437.38
514.642	419.38
514.858	451.38
515.074	423.38
515.29	427.38
515.506	440.38
515.721	438.38
515.937	439.38
516.153	449.38
516.369	457.38
516.585	489.38
516.801	464.38
517.016	510.38
517.232	499.38
517.448	541.38
517.664	533.38
517.879	530.38
518.095	541.38
518.311	523.38
518.527	517.38
518.742	493.38
518.958	479.38
519.173	481.38
519.389	460.38
519.605	460.38
519.82	440.38
520.036	448.38
520.251	433.38
520.467	425.38
520.682	402.38
520.898	413.38
521.113	410.38
521.329	410.38
521.544	407.38
521.76	397.38
521.975	403.38
522.19	408.38
522.406	379.38
522.621	394.38
522.836	379.38
523.052	396.38
523.267	389.38
523.482	373.38
523.698	398.38
523.913	376.38
524.128	362.38
524.343	398.38
524.559	397.38
524.774	385.38
524.989	410.38
525.204	392.38
525.419	380.38
525.634	384.38
525.849	382.38
526.064	385.38
526.28	381.38
526.495	369.38
526.71	372.38
526.925	374.38
527.14	376.38
527.355	368.38
527.57	362.38
527.785	367.38
527.999	377.38
528.214	387.38
528.429	382.38
528.644	370.38
528.859	375.38
529.074	372.38
529.289	381.38
529.503	390.38
529.718	390.38
529.933	385.38
530.148	364.38
530.363	399.38
530.577	385.38
530.792	385.38
531.007	379.38
531.221	394.38
531.436	362.38
531.651	377.38
531.865	383.38
532.08	402.38
532.295	356.38
532.509	377.38
532.724	363.38
532.938	365.38
533.153	363.38
533.367	373.38
533.582	376.38
533.796	393.38
534.011	378.38
534.225	381.38
534.44	387.38
534.654	358.38
534.868	341.38
535.083	375.38
535.297	380.38
535.511	374.38
535.726	352.38
535.94	358.38
536.154	370.38
536.369	365.38
536.583	350.38
536.797	357.38
537.011	333.38
537.225	352.38
537.44	365.38
537.654	351.38
537.868	351.38
538.082	330.38
538.296	362.38
538.51	348.38
538.724	365.38
538.938	333.38
539.153	349.38
539.367	363.38
539.581	348.38
539.795	333.38
540.009	336.38
540.222	346.38
540.436	352.38
540.65	349.38
540.864	359.38
541.078	349.38
541.292	340.38
541.506	343.38
541.72	334.38
541.934	338.38
542.147	343.38
542.361	362.38
542.575	338.38
542.789	346.38
543.002	341.38
543.216	337.38
543.43	340.38
543.644	365.38
543.857	351.38
544.071	371.38
544.285	351.38
544.498	360.38
544.712	332.38
544.925	355.38
545.139	354.38
545.352	362.38
545.566	380.38
545.779	384.38
545.993	353.38
546.206	356.38
546.42	358.38
546.633	367.38
546.847	369.38
547.06	353.38
547.274	363.38
547.487	344.38
547.7	360.38
547.914	346.38
548.127	359.38
548.34	363.38
548.554	335.38
548.767	358.38
548.98	358.38
549.193	350.38
549.407	359.38
549.62	347.38
549.833	355.38
550.046	346.38
550.259	353.38
550.473	338.38
550.686	359.38
550.899	357.38
551.112	349.38
551.325	350.38
551.538	351.38
551.751	346.38
551.964	345.38
552.177	353.38
552.39	360.38
552.603	366.38
552.816	372.38
553.029	386.38
553.242	375.38
553.455	360.38
553.667	369.38
553.88	377.38
554.093	371.38
554.306	372.38
554.519	358.38
554.732	372.38
554.944	337.38
555.157	342.38
555.37	343.38
555.583	350.38
555.795	336.38
556.008	332.38
556.221	313.38
556.433	320.38
556.646	311.38
556.859	296.38
557.071	327.38
557.284	331.38
557.496	321.38
557.709	294.38
557.921	303.38
558.134	317.38
558.346	328.38
558.559	306.38
558.771	314.38
558.984	312.38
559.196	290.38
559.409	308.38
559.621	290.38
559.833	307.38
560.046	310.38
560.258	293.38
560.47	320.38
560.683	305.38
560.895	314.38
561.107	287.38
561.32	305.38
561.532	285.38
561.744	295.38
561.956	302.38
562.168	306.38
562.381	301.38
562.593	311.38
562.805	301.38
563.017	291.38
563.229	314.38
563.441	301.38
563.653	297.38
563.865	305.38
564.077	316.38
564.289	325.38
564.501	326.38
564.713	318.38
564.925	314.38
565.137	304.38
565.349	341.38
565.561	329.38
565.773	349.38
565.985	341.38
566.197	366.38
566.408	373.38
566.62	399.38
566.832	446.38
567.044	429.38
567.255	438.38
567.467	446.38
567.679	471.38
567.891	472.38
568.102	495.38
568.314	459.38
568.526	426.38
568.737	427.38
568.949	385.38
569.161	358.38
569.372	338.38
569.584	326.38
569.795	315.38
570.007	323.38
570.218	306.38
570.43	308.38
570.641	317.38
570.853	310.38
571.064	317.38
571.276	298.38
571.487	306.38
571.698	305.38
571.91	278.38
572.121	286.38
572.333	295.38
572.544	294.38
572.755	295.38
572.966	291.38
573.178	253.38
573.389	253.38
573.6	242.38
573.811	244.38
574.023	237.38
574.234	257.38
574.445	266.38
574.656	270.38
574.867	247.38
575.078	266.38
575.289	245.38
575.501	259.38
575.712	267.38
575.923	255.38
576.134	244.38
576.345	231.38
576.556	244.38
576.767	242.38
576.978	245.38
577.188	242.38
577.399	231.38
577.61	238.38
577.821	234.38
578.032	254.38
578.243	230.38
578.454	240.38
578.665	239.38
578.875	231.38
579.086	244.38
579.297	222.38
579.508	217.38
579.718	232.38
579.929	227.38
580.14	211.38
580.35	211.38
580.561	221.38
580.772	212.38
580.982	226.38
581.193	209.38
581.403	231.38
581.614	214.38
581.825	231.38
582.035	211.38
582.246	218.38
582.456	233.38
582.667	213.38
582.877	219.38
583.087	224.38
583.298	237.38
583.508	202.38
583.719	223.38
583.929	218.38
584.139	221.38
584.35	214.38
584.56	220.38
584.77	232.38
584.981	213.38
585.191	206.38
585.401	207.38
585.611	216.38
585.821	198.38
586.032	209.38
586.242	230.38
586.452	211.38
586.662	208.38
586.872	210.38
587.082	196.38
587.292	201.38
587.502	216.38
587.713	222.38
587.923	216.38
588.133	216.38
588.343	209.38
588.553	228.38
588.762	207.38
588.972	207.38
589.182	225.38
589.392	208.38
589.602	212.38
589.812	221.38
590.022	204.38
590.232	213.38
590.441	205.38
590.651	226.38
590.861	223.38
591.071	218.38
591.281	237.38
591.49	226.38
591.7	210.38
591.91	231.38
592.119	220.38
592.329	228.38
592.539	228.38
592.748	226.38
592.958	251.38
593.167	237.38
593.377	271.38
593.587	248.38
593.796	259.38
594.006	275.38
594.215	241.38
594.424	240.38
594.634	251.38
594.843	259.38
595.053	241.38
595.262	224.38
595.472	201.38
595.681	210.38
595.89	214.38
596.1	214.38
596.309	207.38
596.518	213.38
596.727	197.38
596.937	194.38
597.146	215.38
597.355	202.38
597.564	214.38
597.774	195.38
597.983	204.38
598.192	192.38
598.401	190.38
598.61	194.38
598.819	190.38
599.028	188.38
599.237	184.38
599.446	173.38
599.655	194.38
599.864	182.38
600.073	187.38
600.282	192.38
600.491	173.38
600.7	189.38
600.909	190.38
601.118	188.38
601.327	191.38
601.536	194.38
601.745	179.38
601.953	177.38
602.162	194.38
602.371	185.38
602.58	176.38
602.789	195.38
602.997	198.38
603.206	200.38
603.415	194.38
603.623	172.38
603.832	165.38
604.041	184.38
604.249	190.38
604.458	191.38
604.666	190.38
604.875	163.38
605.084	176.38
605.292	175.38
605.501	177.38
605.709	162.38
605.918	174.38
606.126	173.38
606.334	181.38
606.543	189.38
606.751	178.38
606.96	178.38
607.168	168.38
607.376	186.38
607.585	192.38
607.793	166.38
608.001	179.38
608.21	176.38
608.418	167.38
608.626	190.38
608.834	173.38
609.043	184.38
609.251	173.38
609.459	169.38
609.667	176.38
609.875	172.38
610.083	162.38
610.291	177.38
610.499	162.38
610.707	166.38
610.916	165.38
611.124	159.38
611.332	183.38
611.54	186.38
611.748	160.38
611.955	148.38
612.163	174.38
612.371	179.38
612.579	162.38
612.787	184.38
612.995	169.38
613.203	171.38
613.411	171.38
613.618	165.38
613.826	176.38
614.034	173.38
614.242	182.38
614.449	171.38
614.657	177.38
614.865	145.38
615.072	174.38
615.28	162.38
615.488	158.38
615.695	160.38
615.903	169.38
616.111	174.38
616.318	189.38
616.526	163.38
616.733	178.38
616.941	181.38
617.148	175.38
617.356	175.38
617.563	184.38
617.771	171.38
617.978	163.38
618.185	161.38
618.393	168.38
618.6	169.38
618.807	181.38
619.015	177.38
619.222	178.38
619.429	145.38
619.637	159.38
619.844	159.38
620.051	165.38
620.258	145.38
620.466	177.38
620.673	157.38
620.88	158.38
621.087	157.38
621.294	153.38
621.501	176.38
621.708	161.38
621.915	146.38
622.122	164.38
622.329	165.38
622.536	155.38
622.743	152.38
622.95	159.38
623.157	143.38
623.364	153.38
623.571	153.38
623.778	164.38
623.985	160.38
624.192	149.38
624.399	127.38
624.606	159.38
624.812	161.38
625.019	147.38
625.226	162.38
625.433	162.38
625.639	144.38
625.846	144.38
626.053	139.38
626.259	149.38
626.466	146.38
626.673	155.38
626.879	139.38
627.086	147.38
627.293	141.38
627.499	144.38
627.706	149.38
627.912	149.38
628.119	144.38
628.325	141.38
628.532	135.38
628.738	148.38
628.945	136.38
629.151	139.38
629.357	155.38
629.564	138.38
629.77	157.38
629.976	150.38
630.183	133.38
630.389	155.38
630.595	141.38
630.802	157.38
631.008	146.38
631.214	135.38
631.42	151.38
631.627	134.38
631.833	132.38
632.039	135.38
632.245	129.38
632.451	137.38
632.657	134.38
632.863	137.38
633.069	138.38
633.275	138.38
633.481	145.38
633.688	133.38
633.893	135.38
634.099	136.38
634.305	135.38
634.511	139.38
634.717	134.38
634.923	139.38
635.129	151.38
635.335	139.38
635.541	130.38
635.747	142.38
635.952	133.38
636.158	152.38
636.364	133.38
636.57	147.38
636.775	154.38
636.981	141.38
637.187	135.38
637.392	137.38
637.598	140.38
637.804	136.38
638.009	142.38
638.215	135.38
638.421	143.38
638.626	156.38
638.832	135.38
639.037	143.38
639.243	121.38
639.448	139.38
639.654	150.38
639.859	137.38
640.065	142.38
640.27	138.38
640.475	127.38
640.681	129.38
640.886	145.38
641.091	121.38
641.297	137.38
641.502	137.38
641.707	131.38
641.913	139.38
642.118	126.38
642.323	130.38
642.528	131.38
642.733	126.38
642.939	146.38
643.144	123.38
643.349	136.38
643.554	125.38
643.759	137.38
643.964	125.38
644.169	140.38
644.374	129.38
644.579	127.38
644.784	126.38
644.989	132.38
645.194	125.38
645.399	140.38
645.604	125.38
645.809	137.38
646.014	124.38
646.219	138.38
646.423	133.38
646.628	126.38
646.833	129.38
647.038	124.38
647.243	126.38
647.447	130.38
647.652	134.38
647.857	122.38
648.062	118.38
648.266	139.38
648.471	139.38
648.676	150.38
648.88	124.38
649.085	120.38
649.289	122.38
649.494	124.38
649.698	141.38
649.903	127.38
650.107	137.38
650.312	129.38
650.516	124.38
650.721	140.38
650.925	107.38
651.13	130.38
651.334	125.38
651.539	115.38
651.743	112.38
651.947	131.38
652.152	129.38
652.356	127.38
652.56	117.38
652.764	130.38
652.969	109.38
653.173	109.38
653.377	125.38
653.581	121.38
653.785	120.38
653.99	113.38
654.194	100.38
654.398	106.38
654.602	127.38
654.806	99.38
655.01	120.38
655.214	109.38
655.418	109.38
655.622	110.38
655.826	103.38
656.03	115.38
656.234	113.38
656.438	98.38
656.642	102.38
656.846	119.38
657.049	107.38
657.253	116.38
657.457	115.38
657.661	106.38
657.865	101.38
658.068	97.38
658.272	96.38
658.476	93.38
658.68	96.38
658.883	110.38
659.087	77.38
659.291	91.38
659.494	94.38
659.698	80.38
659.901	83.38
660.105	92.38
660.309	101.38
660.512	81.38
660.716	77.38
660.919	87.38
661.123	84.38
661.326	69.38
661.53	89.38
661.733	88.38
661.936	93.38
662.14	87.38
662.343	75.38
662.546	71.38
662.75	90.38
662.953	77.38
663.156	73.38
663.36	74.38
663.563	82.38
663.766	77.38
663.969	66.38
664.173	84.38
664.376	96.38
664.579	79.38
664.782	75.38
664.985	62.38
665.188	73.38
665.391	93.38
665.594	81.38
665.797	87.38
666	83.38
666.203	89.38
666.406	76.38
666.609	84.38
666.812	72.38
667.015	69.38
667.218	86.38
667.421	68.38
667.624	70.38
667.827	93.38
668.03	89.38
668.232	80.38
668.435	83.38
668.638	75.38
668.841	83.38
669.043	78.38
669.246	83.38
669.449	79.38
669.651	82.38
669.854	101.38
670.057	67.38
670.259	76.38
670.462	63.38
670.665	75.38
670.867	67.38
671.07	73.38
671.272	63.38
671.475	83.38
671.677	67.38
671.88	85.38
672.082	70.38
672.284	81.38
672.487	82.38
672.689	87.38
672.892	73.38
