Data from Fe(NO3)3@0.05M.TitratingCurve.Agarose3%dH2O.NegLispCup.LampEnergy10.LIBS07252019_HRD10591_16-47-44-333.txt Node
Date: Thu Jul 25 16:47:44 EDT 2019
User: cochatt
Spectrometer: HR+D1059
Trigger mode: 1
Integration Time (sec): 1.000000E-1
Scans to average: 1
Electric dark correction enabled: true
Nonlinearity correction enabled: false
Boxcar width: 0
XAxis mode: Wavelengths
Number of Pixels in Spectrum: 2048
>>>>>Begin Spectral Data<<<<<
223.165	-18.12
223.4	-18.12
223.635	-18.12
223.869	-22.12
224.104	-19.12
224.338	-3.12
224.573	-16.12
224.808	-11.12
225.042	-7.12
225.277	-8.12
225.511	-5.12
225.746	0.88
225.98	3.88
226.215	8.88
226.449	20.88
226.683	13.88
226.918	24.88
227.152	36.88
227.387	43.88
227.621	43.88
227.856	35.88
228.09	50.88
228.324	47.88
228.559	58.88
228.793	69.88
229.027	63.88
229.262	64.88
229.496	84.88
229.73	89.88
229.964	86.88
230.199	97.88
230.433	86.88
230.667	91.88
230.901	98.88
231.136	84.88
231.37	96.88
231.604	93.88
231.838	96.88
232.072	93.88
232.306	95.88
232.541	102.88
232.775	99.88
233.009	99.88
233.243	113.88
233.477	100.88
233.711	121.88
233.945	116.88
234.179	97.88
234.413	115.88
234.647	110.88
234.881	95.88
235.115	103.88
235.349	103.88
235.583	113.88
235.817	110.88
236.051	99.88
236.285	100.88
236.519	106.88
236.753	115.88
236.987	103.88
237.221	102.88
237.455	94.88
237.689	113.88
237.922	95.88
238.156	98.88
238.39	112.88
238.624	111.88
238.858	114.88
239.091	111.88
239.325	111.88
239.559	114.88
239.793	123.88
240.027	112.88
240.26	110.88
240.494	123.88
240.728	116.88
240.961	116.88
241.195	92.88
241.429	116.88
241.662	113.88
241.896	129.88
242.13	106.88
242.363	117.88
242.597	101.88
242.83	112.88
243.064	105.88
243.298	110.88
243.531	119.88
243.765	120.88
243.998	114.88
244.232	131.88
244.465	109.88
244.699	131.88
244.932	122.88
245.166	121.88
245.399	129.88
245.633	129.88
245.866	122.88
246.099	122.88
246.333	131.88
246.566	122.88
246.8	135.88
247.033	117.88
247.266	121.88
247.5	112.88
247.733	130.88
247.966	125.88
248.2	132.88
248.433	131.88
248.666	132.88
248.899	119.88
249.133	127.88
249.366	145.88
249.599	133.88
249.832	123.88
250.066	140.88
250.299	144.88
250.532	133.88
250.765	137.88
250.998	140.88
251.231	137.88
251.465	125.88
251.698	146.88
251.931	147.88
252.164	144.88
252.397	125.88
252.63	159.88
252.863	149.88
253.096	148.88
253.329	135.88
253.562	129.88
253.795	150.88
254.028	148.88
254.261	148.88
254.494	161.88
254.727	140.88
254.96	149.88
255.193	149.88
255.426	145.88
255.659	132.88
255.892	145.88
256.124	146.88
256.357	159.88
256.59	151.88
256.823	151.88
257.056	143.88
257.289	151.88
257.521	148.88
257.754	159.88
257.987	149.88
258.22	154.88
258.452	163.88
258.685	165.88
258.918	162.88
259.151	150.88
259.383	161.88
259.616	141.88
259.849	153.88
260.081	163.88
260.314	174.88
260.547	170.88
260.779	150.88
261.012	168.88
261.244	182.88
261.477	170.88
261.71	173.88
261.942	171.88
262.175	162.88
262.407	168.88
262.64	161.88
262.872	170.88
263.105	188.88
263.337	173.88
263.57	175.88
263.802	164.88
264.035	175.88
264.267	184.88
264.499	159.88
264.732	178.88
264.964	177.88
265.197	176.88
265.429	180.88
265.661	162.88
265.894	173.88
266.126	165.88
266.358	180.88
266.591	177.88
266.823	164.88
267.055	175.88
267.287	179.88
267.52	189.88
267.752	187.88
267.984	180.88
268.216	175.88
268.448	172.88
268.681	177.88
268.913	175.88
269.145	165.88
269.377	166.88
269.609	170.88
269.841	173.88
270.073	173.88
270.306	187.88
270.538	185.88
270.77	184.88
271.002	187.88
271.234	179.88
271.466	180.88
271.698	178.88
271.93	175.88
272.162	180.88
272.394	191.88
272.626	187.88
272.858	188.88
273.09	192.88
273.322	189.88
273.553	196.88
273.785	197.88
274.017	199.88
274.249	193.88
274.481	200.88
274.713	196.88
274.945	211.88
275.176	218.88
275.408	207.88
275.64	219.88
275.872	204.88
276.104	199.88
276.335	196.88
276.567	204.88
276.799	206.88
277.031	192.88
277.262	189.88
277.494	189.88
277.726	207.88
277.957	197.88
278.189	208.88
278.421	201.88
278.652	198.88
278.884	199.88
279.115	203.88
279.347	206.88
279.579	226.88
279.81	185.88
280.042	204.88
280.273	188.88
280.505	199.88
280.736	197.88
280.968	212.88
281.199	210.88
281.431	210.88
281.662	197.88
281.894	199.88
282.125	199.88
282.356	227.88
282.588	207.88
282.819	196.88
283.051	203.88
283.282	207.88
283.513	219.88
283.745	209.88
283.976	203.88
284.207	223.88
284.439	216.88
284.67	218.88
284.901	209.88
285.132	219.88
285.364	229.88
285.595	231.88
285.826	232.88
286.057	219.88
286.288	216.88
286.52	226.88
286.751	229.88
286.982	224.88
287.213	230.88
287.444	215.88
287.675	205.88
287.906	249.88
288.138	231.88
288.369	237.88
288.6	235.88
288.831	236.88
289.062	239.88
289.293	245.88
289.524	215.88
289.755	225.88
289.986	246.88
290.217	203.88
290.448	206.88
290.679	211.88
290.91	221.88
291.141	237.88
291.371	228.88
291.602	218.88
291.833	213.88
292.064	234.88
292.295	222.88
292.526	225.88
292.757	225.88
292.987	215.88
293.218	226.88
293.449	230.88
293.68	225.88
293.91	220.88
294.141	234.88
294.372	225.88
294.603	227.88
294.833	245.88
295.064	251.88
295.295	236.88
295.525	227.88
295.756	232.88
295.987	227.88
296.217	224.88
296.448	235.88
296.679	239.88
296.909	235.88
297.14	231.88
297.37	250.88
297.601	232.88
297.831	248.88
298.062	253.88
298.292	257.88
298.523	256.88
298.753	260.88
298.984	245.88
299.214	256.88
299.445	251.88
299.675	241.88
299.905	261.88
300.136	251.88
300.366	260.88
300.597	258.88
300.827	244.88
301.057	255.88
301.288	284.88
301.518	246.88
301.748	264.88
301.979	269.88
302.209	252.88
302.439	263.88
302.669	273.88
302.9	255.88
303.13	273.88
303.36	247.88
303.59	259.88
303.82	266.88
304.051	266.88
304.281	258.88
304.511	256.88
304.741	256.88
304.971	264.88
305.201	261.88
305.431	266.88
305.661	257.88
305.891	244.88
306.121	273.88
306.352	250.88
306.582	262.88
306.812	237.88
307.042	241.88
307.272	251.88
307.502	244.88
307.731	270.88
307.961	242.88
308.191	243.88
308.421	263.88
308.651	255.88
308.881	268.88
309.111	248.88
309.341	251.88
309.571	269.88
309.8	267.88
310.03	259.88
310.26	259.88
310.49	255.88
310.72	255.88
310.949	261.88
311.179	263.88
311.409	241.88
311.639	275.88
311.868	261.88
312.098	268.88
312.328	258.88
312.557	257.88
312.787	257.88
313.017	282.88
313.246	272.88
313.476	283.88
313.706	277.88
313.935	269.88
314.165	247.88
314.394	271.88
314.624	260.88
314.853	273.88
315.083	258.88
315.312	265.88
315.542	287.88
315.771	259.88
316.001	260.88
316.23	272.88
316.46	261.88
316.689	255.88
316.919	269.88
317.148	273.88
317.377	271.88
317.607	271.88
317.836	283.88
318.065	278.88
318.295	265.88
318.524	271.88
318.753	265.88
318.983	261.88
319.212	298.88
319.441	280.88
319.67	267.88
319.9	268.88
320.129	282.88
320.358	283.88
320.587	289.88
320.816	277.88
321.046	280.88
321.275	259.88
321.504	277.88
321.733	272.88
321.962	276.88
322.191	279.88
322.42	259.88
322.649	288.88
322.878	273.88
323.108	265.88
323.337	277.88
323.566	280.88
323.795	287.88
324.024	265.88
324.253	288.88
324.482	286.88
324.71	282.88
324.939	292.88
325.168	295.88
325.397	301.88
325.626	294.88
325.855	292.88
326.084	296.88
326.313	301.88
326.542	313.88
326.77	282.88
326.999	288.88
327.228	303.88
327.457	312.88
327.686	286.88
327.914	308.88
328.143	284.88
328.372	285.88
328.6	296.88
328.829	316.88
329.058	297.88
329.287	303.88
329.515	301.88
329.744	303.88
329.972	296.88
330.201	313.88
330.43	315.88
330.658	277.88
330.887	312.88
331.115	307.88
331.344	297.88
331.572	315.88
331.801	325.88
332.03	333.88
332.258	329.88
332.486	317.88
332.715	337.88
332.943	323.88
333.172	365.88
333.4	377.88
333.629	365.88
333.857	389.88
334.085	373.88
334.314	354.88
334.542	353.88
334.771	359.88
334.999	352.88
335.227	348.88
335.455	363.88
335.684	369.88
335.912	360.88
336.14	337.88
336.369	342.88
336.597	356.88
336.825	341.88
337.053	352.88
337.281	333.88
337.51	337.88
337.738	329.88
337.966	343.88
338.194	355.88
338.422	320.88
338.65	315.88
338.878	326.88
339.106	320.88
339.334	329.88
339.562	296.88
339.79	315.88
340.018	315.88
340.246	315.88
340.474	317.88
340.702	316.88
340.93	293.88
341.158	305.88
341.386	307.88
341.614	319.88
341.842	299.88
342.07	314.88
342.298	306.88
342.526	312.88
342.754	303.88
342.981	296.88
343.209	326.88
343.437	333.88
343.665	349.88
343.893	386.88
344.12	364.88
344.348	377.88
344.576	348.88
344.804	328.88
345.031	315.88
345.259	331.88
345.487	315.88
345.714	292.88
345.942	291.88
346.17	303.88
346.397	316.88
346.625	300.88
346.853	322.88
347.08	309.88
347.308	307.88
347.535	317.88
347.763	320.88
347.99	303.88
348.218	312.88
348.445	305.88
348.673	294.88
348.9	299.88
349.128	318.88
349.355	297.88
349.583	312.88
349.81	297.88
350.037	298.88
350.265	299.88
350.492	276.88
350.72	300.88
350.947	313.88
351.174	302.88
351.402	297.88
351.629	303.88
351.856	307.88
352.083	291.88
352.311	304.88
352.538	296.88
352.765	283.88
352.992	315.88
353.22	303.88
353.447	294.88
353.674	274.88
353.901	296.88
354.128	325.88
354.355	279.88
354.583	291.88
354.81	291.88
355.037	305.88
355.264	296.88
355.491	309.88
355.718	304.88
355.945	290.88
356.172	307.88
356.399	283.88
356.626	312.88
356.853	300.88
357.08	305.88
357.307	321.88
357.534	304.88
357.761	293.88
357.988	315.88
358.215	324.88
358.441	311.88
358.668	310.88
358.895	313.88
359.122	307.88
359.349	302.88
359.576	307.88
359.802	296.88
360.029	289.88
360.256	288.88
360.483	306.88
360.709	291.88
360.936	321.88
361.163	305.88
361.39	304.88
361.616	298.88
361.843	318.88
362.07	279.88
362.296	315.88
362.523	293.88
362.749	307.88
362.976	313.88
363.203	304.88
363.429	325.88
363.656	317.88
363.882	306.88
364.109	285.88
364.335	305.88
364.562	290.88
364.788	306.88
365.015	308.88
365.241	303.88
365.468	296.88
365.694	290.88
365.92	285.88
366.147	287.88
366.373	306.88
366.599	290.88
366.826	286.88
367.052	309.88
367.278	295.88
367.505	299.88
367.731	317.88
367.957	289.88
368.184	294.88
368.41	315.88
368.636	311.88
368.862	334.88
369.089	312.88
369.315	312.88
369.541	316.88
369.767	319.88
369.993	311.88
370.219	321.88
370.445	330.88
370.672	337.88
370.898	343.88
371.124	338.88
371.35	348.88
371.576	345.88
371.802	322.88
372.028	339.88
372.254	327.88
372.48	314.88
372.706	345.88
372.932	341.88
373.158	349.88
373.384	347.88
373.61	346.88
373.835	344.88
374.061	344.88
374.287	359.88
374.513	344.88
374.739	362.88
374.965	371.88
375.191	355.88
375.416	372.88
375.642	359.88
375.868	352.88
376.094	360.88
376.319	357.88
376.545	347.88
376.771	333.88
376.997	343.88
377.222	344.88
377.448	327.88
377.674	342.88
377.899	340.88
378.125	339.88
378.35	324.88
378.576	331.88
378.802	343.88
379.027	342.88
379.253	347.88
379.478	329.88
379.704	333.88
379.929	331.88
380.155	336.88
380.38	331.88
380.606	340.88
380.831	344.88
381.057	339.88
381.282	322.88
381.507	348.88
381.733	342.88
381.958	345.88
382.184	358.88
382.409	374.88
382.634	331.88
382.86	348.88
383.085	358.88
383.31	355.88
383.535	365.88
383.761	374.88
383.986	376.88
384.211	370.88
384.436	380.88
384.662	387.88
384.887	379.88
385.112	397.88
385.337	402.88
385.562	388.88
385.787	414.88
386.013	401.88
386.238	404.88
386.463	387.88
386.688	382.88
386.913	377.88
387.138	395.88
387.363	380.88
387.588	405.88
387.813	410.88
388.038	381.88
388.263	413.88
388.488	397.88
388.713	398.88
388.938	387.88
389.163	391.88
389.387	395.88
389.612	390.88
389.837	395.88
390.062	391.88
390.287	396.88
390.512	390.88
390.736	410.88
390.961	403.88
391.186	406.88
391.411	428.88
391.636	435.88
391.86	433.88
392.085	452.88
392.31	459.88
392.534	424.88
392.759	428.88
392.984	446.88
393.208	439.88
393.433	395.88
393.658	426.88
393.882	435.88
394.107	423.88
394.331	434.88
394.556	444.88
394.78	427.88
395.005	431.88
395.229	436.88
395.454	461.88
395.678	436.88
395.903	447.88
396.127	416.88
396.352	444.88
396.576	448.88
396.801	446.88
397.025	443.88
397.249	424.88
397.474	435.88
397.698	487.88
397.922	452.88
398.147	467.88
398.371	452.88
398.595	494.88
398.82	487.88
399.044	538.88
399.268	550.88
399.492	620.88
399.717	657.88
399.941	679.88
400.165	626.88
400.389	581.88
400.613	566.88
400.837	495.88
401.062	521.88
401.286	498.88
401.51	508.88
401.734	495.88
401.958	503.88
402.182	508.88
402.406	519.88
402.63	501.88
402.854	512.88
403.078	534.88
403.302	529.88
403.526	516.88
403.75	551.88
403.974	566.88
404.198	545.88
404.422	565.88
404.645	543.88
404.869	541.88
405.093	546.88
405.317	554.88
405.541	545.88
405.765	547.88
405.988	523.88
406.212	528.88
406.436	556.88
406.66	580.88
406.883	572.88
407.107	585.88
407.331	613.88
407.555	615.88
407.778	633.88
408.002	607.88
408.226	583.88
408.449	593.88
408.673	591.88
408.896	561.88
409.12	578.88
409.344	580.88
409.567	551.88
409.791	585.88
410.014	555.88
410.238	556.88
410.461	551.88
410.685	546.88
410.908	547.88
411.132	534.88
411.355	515.88
411.578	520.88
411.802	521.88
412.025	537.88
412.249	538.88
412.472	544.88
412.695	530.88
412.919	517.88
413.142	526.88
413.365	532.88
413.589	518.88
413.812	495.88
414.035	502.88
414.258	512.88
414.482	526.88
414.705	522.88
414.928	526.88
415.151	524.88
415.374	512.88
415.597	498.88
415.821	510.88
416.044	493.88
416.267	483.88
416.49	505.88
416.713	507.88
416.936	513.88
417.159	487.88
417.382	487.88
417.605	490.88
417.828	483.88
418.051	500.88
418.274	514.88
418.497	514.88
418.72	499.88
418.943	527.88
419.166	545.88
419.389	572.88
419.611	543.88
419.834	545.88
420.057	544.88
420.28	552.88
420.503	510.88
420.726	491.88
420.948	502.88
421.171	490.88
421.394	508.88
421.617	521.88
421.839	509.88
422.062	520.88
422.285	507.88
422.507	524.88
422.73	521.88
422.953	527.88
423.175	505.88
423.398	517.88
423.621	523.88
423.843	532.88
424.066	507.88
424.288	517.88
424.511	523.88
424.733	512.88
424.956	516.88
425.178	509.88
425.401	513.88
425.623	527.88
425.846	503.88
426.068	521.88
426.291	488.88
426.513	479.88
426.735	492.88
426.958	482.88
427.18	487.88
427.402	491.88
427.625	471.88
427.847	458.88
428.069	472.88
428.292	463.88
428.514	463.88
428.736	446.88
428.958	471.88
429.181	463.88
429.403	462.88
429.625	453.88
429.847	445.88
430.069	466.88
430.292	467.88
430.514	440.88
430.736	449.88
430.958	475.88
431.18	479.88
431.402	481.88
431.624	464.88
431.846	447.88
432.068	456.88
432.29	471.88
432.512	466.88
432.734	477.88
432.956	490.88
433.178	487.88
433.4	487.88
433.622	489.88
433.844	509.88
434.066	474.88
434.287	472.88
434.509	457.88
434.731	495.88
434.953	514.88
435.175	518.88
435.397	523.88
435.618	491.88
435.84	491.88
436.062	496.88
436.284	499.88
436.505	470.88
436.727	451.88
436.949	499.88
437.17	464.88
437.392	473.88
437.614	465.88
437.835	463.88
438.057	460.88
438.278	456.88
438.5	452.88
438.721	491.88
438.943	481.88
439.165	475.88
439.386	458.88
439.608	476.88
439.829	465.88
440.05	483.88
440.272	485.88
440.493	462.88
440.715	486.88
440.936	500.88
441.158	489.88
441.379	529.88
441.6	517.88
441.822	494.88
442.043	516.88
442.264	524.88
442.486	501.88
442.707	503.88
442.928	512.88
443.149	530.88
443.371	519.88
443.592	515.88
443.813	519.88
444.034	543.88
444.255	537.88
444.476	534.88
444.698	570.88
444.919	566.88
445.14	659.88
445.361	588.88
445.582	552.88
445.803	509.88
446.024	515.88
446.245	515.88
446.466	495.88
446.687	473.88
446.908	487.88
447.129	485.88
447.35	468.88
447.571	478.88
447.792	460.88
448.013	476.88
448.234	453.88
448.455	478.88
448.675	450.88
448.896	466.88
449.117	460.88
449.338	471.88
449.559	459.88
449.779	470.88
450	426.88
450.221	440.88
450.442	473.88
450.662	464.88
450.883	427.88
451.104	444.88
451.324	451.88
451.545	455.88
451.766	429.88
451.986	460.88
452.207	462.88
452.428	447.88
452.648	445.88
452.869	447.88
453.089	435.88
453.31	432.88
453.53	419.88
453.751	425.88
453.971	426.88
454.192	409.88
454.412	421.88
454.633	426.88
454.853	436.88
455.073	418.88
455.294	443.88
455.514	414.88
455.734	420.88
455.955	423.88
456.175	424.88
456.395	405.88
456.616	414.88
456.836	435.88
457.056	405.88
457.276	412.88
457.497	414.88
457.717	426.88
457.937	431.88
458.157	429.88
458.377	439.88
458.598	427.88
458.818	449.88
459.038	444.88
459.258	460.88
459.478	486.88
459.698	458.88
459.918	481.88
460.138	507.88
460.358	539.88
460.578	508.88
460.798	524.88
461.018	554.88
461.238	532.88
461.458	540.88
461.678	548.88
461.898	571.88
462.118	543.88
462.338	563.88
462.558	603.88
462.777	608.88
462.997	644.88
463.217	673.88
463.437	664.88
463.657	638.88
463.876	627.88
464.096	616.88
464.316	615.88
464.536	594.88
464.755	611.88
464.975	595.88
465.195	553.88
465.414	531.88
465.634	538.88
465.854	509.88
466.073	514.88
466.293	486.88
466.512	480.88
466.732	471.88
466.951	471.88
467.171	462.88
467.391	463.88
467.61	452.88
467.829	461.88
468.049	470.88
468.268	450.88
468.488	449.88
468.707	433.88
468.927	464.88
469.146	452.88
469.365	477.88
469.585	466.88
469.804	474.88
470.023	477.88
470.243	461.88
470.462	472.88
470.681	482.88
470.901	473.88
471.12	486.88
471.339	487.88
471.558	459.88
471.777	451.88
471.997	452.88
472.216	448.88
472.435	454.88
472.654	434.88
472.873	443.88
473.092	444.88
473.311	425.88
473.53	420.88
473.749	429.88
473.968	437.88
474.187	440.88
474.406	428.88
474.625	451.88
474.844	456.88
475.063	460.88
475.282	449.88
475.501	435.88
475.72	429.88
475.939	434.88
476.158	472.88
476.377	438.88
476.596	476.88
476.814	493.88
477.033	469.88
477.252	485.88
477.471	475.88
477.69	488.88
477.908	482.88
478.127	503.88
478.346	492.88
478.564	540.88
478.783	505.88
479.002	530.88
479.22	536.88
479.439	547.88
479.658	548.88
479.876	537.88
480.095	535.88
480.313	541.88
480.532	537.88
480.751	532.88
480.969	543.88
481.188	529.88
481.406	512.88
481.624	508.88
481.843	489.88
482.061	505.88
482.28	507.88
482.498	488.88
482.717	481.88
482.935	496.88
483.153	487.88
483.372	502.88
483.59	515.88
483.808	515.88
484.027	516.88
484.245	517.88
484.463	494.88
484.681	498.88
484.9	514.88
485.118	516.88
485.336	513.88
485.554	480.88
485.772	487.88
485.99	524.88
486.209	493.88
486.427	511.88
486.645	508.88
486.863	529.88
487.081	520.88
487.299	517.88
487.517	511.88
487.735	531.88
487.953	555.88
488.171	541.88
488.389	515.88
488.607	537.88
488.825	491.88
489.043	500.88
489.261	497.88
489.479	511.88
489.696	529.88
489.914	513.88
490.132	524.88
490.35	521.88
490.568	515.88
490.786	529.88
491.003	544.88
491.221	555.88
491.439	532.88
491.657	519.88
491.874	552.88
492.092	556.88
492.31	551.88
492.527	533.88
492.745	552.88
492.963	563.88
493.18	584.88
493.398	542.88
493.615	551.88
493.833	537.88
494.05	550.88
494.268	559.88
494.485	571.88
494.703	578.88
494.92	572.88
495.138	565.88
495.355	553.88
495.573	536.88
495.79	562.88
496.008	585.88
496.225	577.88
496.442	545.88
496.66	586.88
496.877	582.88
497.094	593.88
497.312	602.88
497.529	605.88
497.746	621.88
497.963	634.88
498.181	639.88
498.398	673.88
498.615	707.88
498.832	731.88
499.049	795.88
499.267	820.88
499.484	894.88
499.701	954.88
499.918	1065.88
500.135	1129.88
500.352	1231.88
500.569	1279.88
500.786	1256.88
501.003	1209.88
501.22	1111.88
501.437	1020.88
501.654	929.88
501.871	901.88
502.088	797.88
502.305	744.88
502.522	738.88
502.739	718.88
502.956	680.88
503.172	651.88
503.389	657.88
503.606	620.88
503.823	638.88
504.04	601.88
504.256	599.88
504.473	628.88
504.69	612.88
504.907	615.88
505.123	591.88
505.34	555.88
505.557	529.88
505.773	523.88
505.99	522.88
506.207	515.88
506.423	498.88
506.64	512.88
506.856	495.88
507.073	497.88
507.289	478.88
507.506	479.88
507.722	481.88
507.939	504.88
508.155	483.88
508.372	473.88
508.588	474.88
508.805	477.88
509.021	472.88
509.238	475.88
509.454	445.88
509.67	441.88
509.887	441.88
510.103	440.88
510.319	468.88
510.536	459.88
510.752	453.88
510.968	445.88
511.184	450.88
511.401	461.88
511.617	459.88
511.833	448.88
512.049	464.88
512.265	453.88
512.481	433.88
512.698	423.88
512.914	445.88
513.13	457.88
513.346	445.88
513.562	455.88
513.778	458.88
513.994	424.88
514.21	448.88
514.426	431.88
514.642	437.88
514.858	444.88
515.074	453.88
515.29	472.88
515.506	469.88
515.721	445.88
515.937	468.88
516.153	459.88
516.369	482.88
516.585	511.88
516.801	489.88
517.016	532.88
517.232	521.88
517.448	553.88
517.664	564.88
517.879	588.88
518.095	574.88
518.311	549.88
518.527	537.88
518.742	519.88
518.958	519.88
519.173	507.88
519.389	506.88
519.605	481.88
519.82	467.88
520.036	479.88
520.251	461.88
520.467	454.88
520.682	437.88
520.898	433.88
521.113	432.88
521.329	435.88
521.544	452.88
521.76	416.88
521.975	429.88
522.19	435.88
522.406	415.88
522.621	433.88
522.836	421.88
523.052	427.88
523.267	431.88
523.482	409.88
523.698	412.88
523.913	406.88
524.128	397.88
524.343	402.88
524.559	405.88
524.774	397.88
524.989	417.88
525.204	395.88
525.419	402.88
525.634	411.88
525.849	395.88
526.064	385.88
526.28	411.88
526.495	398.88
526.71	422.88
526.925	419.88
527.14	406.88
527.355	397.88
527.57	388.88
527.785	415.88
527.999	397.88
528.214	387.88
528.429	392.88
528.644	420.88
528.859	399.88
529.074	403.88
529.289	408.88
529.503	391.88
529.718	410.88
529.933	395.88
530.148	395.88
530.363	401.88
530.577	407.88
530.792	399.88
531.007	406.88
531.221	387.88
531.436	403.88
531.651	409.88
531.865	417.88
532.08	409.88
532.295	412.88
532.509	429.88
532.724	403.88
532.938	396.88
533.153	408.88
533.367	403.88
533.582	411.88
533.796	412.88
534.011	390.88
534.225	398.88
534.44	394.88
534.654	383.88
534.868	410.88
535.083	404.88
535.297	383.88
535.511	394.88
535.726	376.88
535.94	376.88
536.154	376.88
536.369	387.88
536.583	358.88
536.797	363.88
537.011	370.88
537.225	380.88
537.44	373.88
537.654	380.88
537.868	385.88
538.082	375.88
538.296	376.88
538.51	375.88
538.724	365.88
538.938	386.88
539.153	377.88
539.367	375.88
539.581	367.88
539.795	379.88
540.009	368.88
540.222	364.88
540.436	367.88
540.65	377.88
540.864	387.88
541.078	376.88
541.292	362.88
541.506	380.88
541.72	356.88
541.934	387.88
542.147	397.88
542.361	369.88
542.575	375.88
542.789	387.88
543.002	378.88
543.216	371.88
543.43	362.88
543.644	361.88
543.857	365.88
544.071	371.88
544.285	379.88
544.498	378.88
544.712	374.88
544.925	382.88
545.139	369.88
545.352	379.88
545.566	375.88
545.779	378.88
545.993	374.88
546.206	394.88
546.42	377.88
546.633	375.88
546.847	361.88
547.06	369.88
547.274	384.88
547.487	373.88
547.7	381.88
547.914	406.88
548.127	395.88
548.34	380.88
548.554	384.88
548.767	390.88
548.98	392.88
549.193	373.88
549.407	393.88
549.62	375.88
549.833	396.88
550.046	377.88
550.259	386.88
550.473	383.88
550.686	383.88
550.899	365.88
551.112	372.88
551.325	383.88
551.538	373.88
551.751	377.88
551.964	397.88
552.177	370.88
552.39	380.88
552.603	394.88
552.816	397.88
553.029	380.88
553.242	403.88
553.455	404.88
553.667	383.88
553.88	400.88
554.093	380.88
554.306	390.88
554.519	399.88
554.732	381.88
554.944	358.88
555.157	354.88
555.37	352.88
555.583	341.88
555.795	348.88
556.008	342.88
556.221	364.88
556.433	339.88
556.646	335.88
556.859	336.88
557.071	333.88
557.284	345.88
557.496	337.88
557.709	334.88
557.921	348.88
558.134	335.88
558.346	348.88
558.559	333.88
558.771	322.88
558.984	326.88
559.196	316.88
559.409	309.88
559.621	318.88
559.833	344.88
560.046	328.88
560.258	305.88
560.47	322.88
560.683	321.88
560.895	317.88
561.107	323.88
561.32	334.88
561.532	322.88
561.744	310.88
561.956	325.88
562.168	324.88
562.381	321.88
562.593	314.88
562.805	315.88
563.017	315.88
563.229	317.88
563.441	335.88
563.653	321.88
563.865	303.88
564.077	309.88
564.289	316.88
564.501	336.88
564.713	340.88
564.925	324.88
565.137	329.88
565.349	342.88
565.561	353.88
565.773	387.88
565.985	373.88
566.197	380.88
566.408	399.88
566.62	419.88
566.832	436.88
567.044	439.88
567.255	472.88
567.467	479.88
567.679	467.88
567.891	486.88
568.102	489.88
568.314	484.88
568.526	452.88
568.737	413.88
568.949	388.88
569.161	382.88
569.372	359.88
569.584	336.88
569.795	359.88
570.007	333.88
570.218	332.88
570.43	328.88
570.641	314.88
570.853	323.88
571.064	334.88
571.276	325.88
571.487	314.88
571.698	312.88
571.91	292.88
572.121	295.88
572.333	301.88
572.544	293.88
572.755	284.88
572.966	286.88
573.178	270.88
573.389	279.88
573.6	269.88
573.811	270.88
574.023	253.88
574.234	274.88
574.445	259.88
574.656	275.88
574.867	237.88
575.078	277.88
575.289	271.88
575.501	283.88
575.712	267.88
575.923	246.88
576.134	243.88
576.345	255.88
576.556	249.88
576.767	279.88
576.978	265.88
577.188	244.88
577.399	253.88
577.61	246.88
577.821	241.88
578.032	252.88
578.243	242.88
578.454	264.88
578.665	253.88
578.875	248.88
579.086	247.88
579.297	257.88
579.508	257.88
579.718	242.88
579.929	231.88
580.14	255.88
580.35	236.88
580.561	248.88
580.772	245.88
580.982	227.88
581.193	251.88
581.403	236.88
581.614	227.88
581.825	228.88
582.035	230.88
582.246	232.88
582.456	251.88
582.667	230.88
582.877	241.88
583.087	241.88
583.298	249.88
583.508	233.88
583.719	239.88
583.929	236.88
584.139	226.88
584.35	228.88
584.56	221.88
584.77	264.88
584.981	231.88
585.191	227.88
585.401	243.88
585.611	220.88
585.821	235.88
586.032	249.88
586.242	228.88
586.452	251.88
586.662	215.88
586.872	229.88
587.082	220.88
587.292	201.88
587.502	219.88
587.713	213.88
587.923	221.88
588.133	213.88
588.343	229.88
588.553	245.88
588.762	216.88
588.972	244.88
589.182	225.88
589.392	237.88
589.602	234.88
589.812	218.88
590.022	247.88
590.232	222.88
590.441	230.88
590.651	227.88
590.861	240.88
591.071	224.88
591.281	215.88
591.49	217.88
591.7	225.88
591.91	236.88
592.119	224.88
592.329	234.88
592.539	224.88
592.748	240.88
592.958	265.88
593.167	263.88
593.377	263.88
593.587	266.88
593.796	263.88
594.006	255.88
594.215	260.88
594.424	271.88
594.634	251.88
594.843	243.88
595.053	242.88
595.262	259.88
595.472	236.88
595.681	223.88
595.89	226.88
596.1	203.88
596.309	226.88
596.518	232.88
596.727	223.88
596.937	210.88
597.146	209.88
597.355	221.88
597.564	219.88
597.774	231.88
597.983	207.88
598.192	189.88
598.401	208.88
598.61	217.88
598.819	210.88
599.028	209.88
599.237	204.88
599.446	191.88
599.655	209.88
599.864	203.88
600.073	191.88
600.282	202.88
600.491	212.88
600.7	207.88
600.909	192.88
601.118	184.88
601.327	201.88
601.536	212.88
601.745	197.88
601.953	194.88
602.162	207.88
602.371	197.88
602.58	199.88
602.789	197.88
602.997	203.88
603.206	200.88
603.415	202.88
603.623	173.88
603.832	193.88
604.041	199.88
604.249	199.88
604.458	188.88
604.666	183.88
604.875	195.88
605.084	165.88
605.292	188.88
605.501	180.88
605.709	187.88
605.918	188.88
606.126	183.88
606.334	179.88
606.543	194.88
606.751	193.88
606.96	192.88
607.168	179.88
607.376	177.88
607.585	176.88
607.793	186.88
608.001	180.88
608.21	179.88
608.418	199.88
608.626	196.88
608.834	175.88
609.043	199.88
609.251	201.88
609.459	177.88
609.667	184.88
609.875	179.88
610.083	194.88
610.291	185.88
610.499	181.88
610.707	183.88
610.916	180.88
611.124	195.88
611.332	191.88
611.54	183.88
611.748	179.88
611.955	179.88
612.163	170.88
612.371	179.88
612.579	198.88
612.787	176.88
612.995	183.88
613.203	185.88
613.411	169.88
613.618	168.88
613.826	187.88
614.034	197.88
614.242	183.88
614.449	182.88
614.657	163.88
614.865	190.88
615.072	171.88
615.28	186.88
615.488	161.88
615.695	181.88
615.903	165.88
616.111	195.88
616.318	194.88
616.526	195.88
616.733	177.88
616.941	169.88
617.148	172.88
617.356	184.88
617.563	186.88
617.771	198.88
617.978	171.88
618.185	169.88
618.393	168.88
618.6	183.88
618.807	167.88
619.015	183.88
619.222	185.88
619.429	179.88
619.637	157.88
619.844	184.88
620.051	172.88
620.258	163.88
620.466	152.88
620.673	161.88
620.88	171.88
621.087	172.88
621.294	172.88
621.501	160.88
621.708	165.88
621.915	174.88
622.122	154.88
622.329	192.88
622.536	173.88
622.743	160.88
622.95	152.88
623.157	170.88
623.364	177.88
623.571	167.88
623.778	169.88
623.985	171.88
624.192	159.88
624.399	159.88
624.606	148.88
624.812	163.88
625.019	164.88
625.226	160.88
625.433	165.88
625.639	159.88
625.846	151.88
626.053	160.88
626.259	154.88
626.466	181.88
626.673	163.88
626.879	153.88
627.086	150.88
627.293	161.88
627.499	149.88
627.706	161.88
627.912	147.88
628.119	159.88
628.325	166.88
628.532	144.88
628.738	173.88
628.945	134.88
629.151	163.88
629.357	152.88
629.564	156.88
629.77	164.88
629.976	157.88
630.183	149.88
630.389	154.88
630.595	156.88
630.802	154.88
631.008	157.88
631.214	156.88
631.42	147.88
631.627	142.88
631.833	147.88
632.039	146.88
632.245	156.88
632.451	153.88
632.657	160.88
632.863	155.88
633.069	147.88
633.275	146.88
633.481	163.88
633.688	137.88
633.893	147.88
634.099	151.88
634.305	161.88
634.511	124.88
634.717	147.88
634.923	135.88
635.129	134.88
635.335	158.88
635.541	156.88
635.747	140.88
635.952	140.88
636.158	150.88
636.364	154.88
636.57	136.88
636.775	146.88
636.981	133.88
637.187	140.88
637.392	127.88
637.598	143.88
637.804	139.88
638.009	141.88
638.215	163.88
638.421	152.88
638.626	142.88
638.832	153.88
639.037	147.88
639.243	121.88
639.448	135.88
639.654	143.88
639.859	137.88
640.065	124.88
640.27	160.88
640.475	139.88
640.681	155.88
640.886	145.88
641.091	135.88
641.297	105.88
641.502	139.88
641.707	135.88
641.913	134.88
642.118	144.88
642.323	137.88
642.528	132.88
642.733	128.88
642.939	127.88
643.144	141.88
643.349	145.88
643.554	145.88
643.759	137.88
643.964	140.88
644.169	150.88
644.374	118.88
644.579	125.88
644.784	139.88
644.989	141.88
645.194	138.88
645.399	141.88
645.604	139.88
645.809	148.88
646.014	137.88
646.219	141.88
646.423	125.88
646.628	153.88
646.833	139.88
647.038	128.88
647.243	152.88
647.447	139.88
647.652	142.88
647.857	151.88
648.062	143.88
648.266	139.88
648.471	128.88
648.676	148.88
648.88	135.88
649.085	155.88
649.289	135.88
649.494	137.88
649.698	131.88
649.903	141.88
650.107	129.88
650.312	147.88
650.516	124.88
650.721	133.88
650.925	149.88
651.13	128.88
651.334	124.88
651.539	134.88
651.743	130.88
651.947	114.88
652.152	124.88
652.356	134.88
652.56	134.88
652.764	142.88
652.969	101.88
653.173	135.88
653.377	119.88
653.581	127.88
653.785	132.88
653.99	127.88
654.194	141.88
654.398	121.88
654.602	127.88
654.806	127.88
655.01	127.88
655.214	136.88
655.418	130.88
655.622	107.88
655.826	113.88
656.03	120.88
656.234	111.88
656.438	121.88
656.642	114.88
656.846	118.88
657.049	119.88
657.253	108.88
657.457	106.88
657.661	121.88
657.865	121.88
658.068	104.88
658.272	108.88
658.476	115.88
658.68	106.88
658.883	103.88
659.087	95.88
659.291	103.88
659.494	99.88
659.698	99.88
659.901	92.88
660.105	97.88
660.309	83.88
660.512	96.88
660.716	84.88
660.919	67.88
661.123	84.88
661.326	87.88
661.53	87.88
661.733	88.88
661.936	79.88
662.14	86.88
662.343	103.88
662.546	81.88
662.75	85.88
662.953	84.88
663.156	81.88
663.36	76.88
663.563	95.88
663.766	90.88
663.969	74.88
664.173	74.88
664.376	78.88
664.579	84.88
664.782	82.88
664.985	92.88
665.188	83.88
665.391	73.88
665.594	90.88
665.797	81.88
666	91.88
666.203	81.88
666.406	73.88
666.609	77.88
666.812	83.88
667.015	96.88
667.218	89.88
667.421	76.88
667.624	73.88
667.827	90.88
668.03	83.88
668.232	79.88
668.435	75.88
668.638	90.88
668.841	68.88
669.043	71.88
669.246	93.88
669.449	81.88
669.651	86.88
669.854	70.88
670.057	70.88
670.259	96.88
670.462	70.88
670.665	88.88
670.867	92.88
671.07	84.88
671.272	84.88
671.475	90.88
671.677	73.88
671.88	87.88
672.082	71.88
672.284	80.88
672.487	88.88
672.689	83.88
672.892	74.88
