Data from Fe(NO3)3@0.0125M.TitratingCurve.Agarose3%dH2O.NegLispCup.LampEnergy10.LIBS07252019_HRD10591_17-01-17-337.txt Node
Date: Thu Jul 25 17:01:17 EDT 2019
User: cochatt
Spectrometer: HR+D1059
Trigger mode: 1
Integration Time (sec): 1.000000E-1
Scans to average: 1
Electric dark correction enabled: true
Nonlinearity correction enabled: false
Boxcar width: 0
XAxis mode: Wavelengths
Number of Pixels in Spectrum: 2048
>>>>>Begin Spectral Data<<<<<
223.165	-11.62
223.4	-11.62
223.635	-11.62
223.869	-26.62
224.104	-26.62
224.338	-7.62
224.573	-11.62
224.808	-17.62
225.042	-7.62
225.277	-17.62
225.511	1.38
225.746	5.38
225.98	2.38
226.215	11.38
226.449	17.38
226.683	21.38
226.918	16.38
227.152	51.38
227.387	12.38
227.621	42.38
227.856	56.38
228.09	45.38
228.324	52.38
228.559	54.38
228.793	62.38
229.027	63.38
229.262	84.38
229.496	91.38
229.73	98.38
229.964	94.38
230.199	89.38
230.433	83.38
230.667	92.38
230.901	89.38
231.136	102.38
231.37	101.38
231.604	97.38
231.838	85.38
232.072	111.38
232.306	102.38
232.541	90.38
232.775	94.38
233.009	106.38
233.243	105.38
233.477	98.38
233.711	102.38
233.945	106.38
234.179	113.38
234.413	107.38
234.647	97.38
234.881	97.38
235.115	99.38
235.349	114.38
235.583	104.38
235.817	108.38
236.051	107.38
236.285	100.38
236.519	118.38
236.753	105.38
236.987	121.38
237.221	97.38
237.455	98.38
237.689	105.38
237.922	116.38
238.156	104.38
238.39	103.38
238.624	113.38
238.858	118.38
239.091	118.38
239.325	103.38
239.559	115.38
239.793	97.38
240.027	112.38
240.26	103.38
240.494	100.38
240.728	97.38
240.961	100.38
241.195	124.38
241.429	111.38
241.662	115.38
241.896	122.38
242.13	106.38
242.363	113.38
242.597	116.38
242.83	131.38
243.064	116.38
243.298	118.38
243.531	114.38
243.765	109.38
243.998	128.38
244.232	133.38
244.465	110.38
244.699	109.38
244.932	136.38
245.166	99.38
245.399	124.38
245.633	112.38
245.866	105.38
246.099	114.38
246.333	117.38
246.566	117.38
246.8	112.38
247.033	132.38
247.266	94.38
247.5	121.38
247.733	123.38
247.966	120.38
248.2	132.38
248.433	134.38
248.666	134.38
248.899	126.38
249.133	133.38
249.366	132.38
249.599	135.38
249.832	133.38
250.066	126.38
250.299	113.38
250.532	138.38
250.765	131.38
250.998	124.38
251.231	126.38
251.465	123.38
251.698	125.38
251.931	126.38
252.164	123.38
252.397	129.38
252.63	153.38
252.863	138.38
253.096	143.38
253.329	142.38
253.562	131.38
253.795	146.38
254.028	145.38
254.261	137.38
254.494	136.38
254.727	147.38
254.96	136.38
255.193	137.38
255.426	142.38
255.659	138.38
255.892	149.38
256.124	139.38
256.357	149.38
256.59	150.38
256.823	132.38
257.056	140.38
257.289	147.38
257.521	159.38
257.754	143.38
257.987	144.38
258.22	142.38
258.452	152.38
258.685	150.38
258.918	146.38
259.151	164.38
259.383	159.38
259.616	151.38
259.849	164.38
260.081	168.38
260.314	164.38
260.547	154.38
260.779	154.38
261.012	160.38
261.244	161.38
261.477	155.38
261.71	155.38
261.942	151.38
262.175	156.38
262.407	164.38
262.64	160.38
262.872	171.38
263.105	164.38
263.337	166.38
263.57	150.38
263.802	173.38
264.035	163.38
264.267	147.38
264.499	162.38
264.732	157.38
264.964	171.38
265.197	169.38
265.429	171.38
265.661	148.38
265.894	164.38
266.126	167.38
266.358	165.38
266.591	172.38
266.823	177.38
267.055	148.38
267.287	159.38
267.52	168.38
267.752	170.38
267.984	171.38
268.216	171.38
268.448	176.38
268.681	168.38
268.913	167.38
269.145	176.38
269.377	178.38
269.609	178.38
269.841	179.38
270.073	188.38
270.306	175.38
270.538	170.38
270.77	180.38
271.002	176.38
271.234	181.38
271.466	194.38
271.698	180.38
271.93	161.38
272.162	180.38
272.394	183.38
272.626	199.38
272.858	166.38
273.09	194.38
273.322	186.38
273.553	185.38
273.785	181.38
274.017	175.38
274.249	204.38
274.481	195.38
274.713	205.38
274.945	203.38
275.176	199.38
275.408	195.38
275.64	198.38
275.872	200.38
276.104	189.38
276.335	197.38
276.567	200.38
276.799	203.38
277.031	197.38
277.262	185.38
277.494	201.38
277.726	190.38
277.957	207.38
278.189	191.38
278.421	195.38
278.652	197.38
278.884	206.38
279.115	201.38
279.347	185.38
279.579	206.38
279.81	223.38
280.042	212.38
280.273	197.38
280.505	222.38
280.736	219.38
280.968	199.38
281.199	219.38
281.431	213.38
281.662	202.38
281.894	206.38
282.125	222.38
282.356	225.38
282.588	225.38
282.819	200.38
283.051	209.38
283.282	212.38
283.513	226.38
283.745	215.38
283.976	220.38
284.207	216.38
284.439	213.38
284.67	230.38
284.901	219.38
285.132	217.38
285.364	234.38
285.595	200.38
285.826	212.38
286.057	228.38
286.288	227.38
286.52	233.38
286.751	224.38
286.982	224.38
287.213	203.38
287.444	214.38
287.675	230.38
287.906	220.38
288.138	216.38
288.369	229.38
288.6	215.38
288.831	232.38
289.062	223.38
289.293	228.38
289.524	223.38
289.755	222.38
289.986	230.38
290.217	224.38
290.448	210.38
290.679	223.38
290.91	235.38
291.141	236.38
291.371	227.38
291.602	222.38
291.833	227.38
292.064	210.38
292.295	227.38
292.526	231.38
292.757	240.38
292.987	242.38
293.218	224.38
293.449	232.38
293.68	237.38
293.91	221.38
294.141	224.38
294.372	235.38
294.603	221.38
294.833	228.38
295.064	235.38
295.295	232.38
295.525	220.38
295.756	254.38
295.987	253.38
296.217	254.38
296.448	240.38
296.679	231.38
296.909	245.38
297.14	236.38
297.37	249.38
297.601	248.38
297.831	234.38
298.062	264.38
298.292	244.38
298.523	250.38
298.753	247.38
298.984	248.38
299.214	250.38
299.445	274.38
299.675	245.38
299.905	247.38
300.136	244.38
300.366	243.38
300.597	226.38
300.827	256.38
301.057	260.38
301.288	266.38
301.518	276.38
301.748	266.38
301.979	274.38
302.209	265.38
302.439	272.38
302.669	251.38
302.9	279.38
303.13	260.38
303.36	270.38
303.59	273.38
303.82	276.38
304.051	260.38
304.281	277.38
304.511	281.38
304.741	257.38
304.971	262.38
305.201	268.38
305.431	279.38
305.661	274.38
305.891	276.38
306.121	274.38
306.352	273.38
306.582	285.38
306.812	264.38
307.042	264.38
307.272	245.38
307.502	265.38
307.731	264.38
307.961	261.38
308.191	275.38
308.421	277.38
308.651	267.38
308.881	261.38
309.111	282.38
309.341	267.38
309.571	268.38
309.8	278.38
310.03	266.38
310.26	289.38
310.49	267.38
310.72	280.38
310.949	266.38
311.179	279.38
311.409	294.38
311.639	271.38
311.868	270.38
312.098	271.38
312.328	292.38
312.557	281.38
312.787	272.38
313.017	276.38
313.246	278.38
313.476	294.38
313.706	297.38
313.935	290.38
314.165	308.38
314.394	294.38
314.624	280.38
314.853	298.38
315.083	279.38
315.312	278.38
315.542	284.38
315.771	301.38
316.001	293.38
316.23	277.38
316.46	297.38
316.689	293.38
316.919	283.38
317.148	290.38
317.377	289.38
317.607	296.38
317.836	300.38
318.065	288.38
318.295	301.38
318.524	291.38
318.753	298.38
318.983	291.38
319.212	294.38
319.441	312.38
319.67	298.38
319.9	306.38
320.129	308.38
320.358	299.38
320.587	292.38
320.816	295.38
321.046	301.38
321.275	288.38
321.504	315.38
321.733	299.38
321.962	301.38
322.191	310.38
322.42	312.38
322.649	315.38
322.878	304.38
323.108	316.38
323.337	330.38
323.566	316.38
323.795	310.38
324.024	296.38
324.253	310.38
324.482	322.38
324.71	312.38
324.939	324.38
325.168	315.38
325.397	300.38
325.626	330.38
325.855	310.38
326.084	339.38
326.313	331.38
326.542	322.38
326.77	316.38
326.999	334.38
327.228	330.38
327.457	324.38
327.686	316.38
327.914	324.38
328.143	329.38
328.372	318.38
328.6	336.38
328.829	322.38
329.058	318.38
329.287	314.38
329.515	338.38
329.744	337.38
329.972	325.38
330.201	320.38
330.43	333.38
330.658	306.38
330.887	339.38
331.115	324.38
331.344	327.38
331.572	349.38
331.801	331.38
332.03	354.38
332.258	324.38
332.486	342.38
332.715	350.38
332.943	369.38
333.172	356.38
333.4	365.38
333.629	384.38
333.857	378.38
334.085	384.38
334.314	370.38
334.542	362.38
334.771	366.38
334.999	378.38
335.227	366.38
335.455	376.38
335.684	378.38
335.912	381.38
336.14	348.38
336.369	377.38
336.597	374.38
336.825	364.38
337.053	355.38
337.281	344.38
337.51	377.38
337.738	356.38
337.966	367.38
338.194	339.38
338.422	338.38
338.65	342.38
338.878	362.38
339.106	368.38
339.334	356.38
339.562	349.38
339.79	360.38
340.018	344.38
340.246	339.38
340.474	338.38
340.702	341.38
340.93	344.38
341.158	346.38
341.386	348.38
341.614	331.38
341.842	341.38
342.07	335.38
342.298	336.38
342.526	337.38
342.754	342.38
342.981	338.38
343.209	347.38
343.437	358.38
343.665	362.38
343.893	360.38
344.12	385.38
344.348	370.38
344.576	376.38
344.804	369.38
345.031	358.38
345.259	341.38
345.487	337.38
345.714	343.38
345.942	320.38
346.17	364.38
346.397	342.38
346.625	337.38
346.853	353.38
347.08	332.38
347.308	338.38
347.535	365.38
347.763	343.38
347.99	357.38
348.218	347.38
348.445	322.38
348.673	348.38
348.9	321.38
349.128	323.38
349.355	349.38
349.583	329.38
349.81	335.38
350.037	333.38
350.265	320.38
350.492	339.38
350.72	320.38
350.947	337.38
351.174	340.38
351.402	343.38
351.629	339.38
351.856	326.38
352.083	337.38
352.311	328.38
352.538	340.38
352.765	330.38
352.992	325.38
353.22	316.38
353.447	330.38
353.674	321.38
353.901	346.38
354.128	337.38
354.355	333.38
354.583	316.38
354.81	332.38
355.037	342.38
355.264	338.38
355.491	324.38
355.718	318.38
355.945	320.38
356.172	320.38
356.399	354.38
356.626	331.38
356.853	340.38
357.08	342.38
357.307	339.38
357.534	328.38
357.761	340.38
357.988	348.38
358.215	357.38
358.441	349.38
358.668	334.38
358.895	342.38
359.122	348.38
359.349	331.38
359.576	327.38
359.802	325.38
360.029	314.38
360.256	323.38
360.483	340.38
360.709	339.38
360.936	338.38
361.163	328.38
361.39	338.38
361.616	328.38
361.843	334.38
362.07	333.38
362.296	353.38
362.523	363.38
362.749	336.38
362.976	346.38
363.203	348.38
363.429	351.38
363.656	348.38
363.882	344.38
364.109	341.38
364.335	333.38
364.562	345.38
364.788	351.38
365.015	340.38
365.241	366.38
365.468	328.38
365.694	338.38
365.92	338.38
366.147	355.38
366.373	336.38
366.599	320.38
366.826	350.38
367.052	332.38
367.278	360.38
367.505	354.38
367.731	364.38
367.957	352.38
368.184	346.38
368.41	350.38
368.636	368.38
368.862	341.38
369.089	353.38
369.315	346.38
369.541	362.38
369.767	337.38
369.993	374.38
370.219	368.38
370.445	354.38
370.672	388.38
370.898	357.38
371.124	363.38
371.35	362.38
371.576	361.38
371.802	375.38
372.028	363.38
372.254	388.38
372.48	379.38
372.706	361.38
372.932	404.38
373.158	366.38
373.384	380.38
373.61	370.38
373.835	380.38
374.061	389.38
374.287	381.38
374.513	393.38
374.739	380.38
374.965	408.38
375.191	394.38
375.416	383.38
375.642	381.38
375.868	374.38
376.094	387.38
376.319	372.38
376.545	388.38
376.771	360.38
376.997	369.38
377.222	355.38
377.448	352.38
377.674	350.38
377.899	352.38
378.125	351.38
378.35	378.38
378.576	372.38
378.802	356.38
379.027	360.38
379.253	347.38
379.478	348.38
379.704	361.38
379.929	377.38
380.155	372.38
380.38	363.38
380.606	380.38
380.831	363.38
381.057	378.38
381.282	370.38
381.507	374.38
381.733	375.38
381.958	390.38
382.184	400.38
382.409	370.38
382.634	385.38
382.86	374.38
383.085	386.38
383.31	397.38
383.535	391.38
383.761	388.38
383.986	366.38
384.211	402.38
384.436	400.38
384.662	413.38
384.887	392.38
385.112	392.38
385.337	406.38
385.562	421.38
385.787	414.38
386.013	424.38
386.238	431.38
386.463	436.38
386.688	440.38
386.913	413.38
387.138	416.38
387.363	411.38
387.588	416.38
387.813	418.38
388.038	427.38
388.263	415.38
388.488	420.38
388.713	419.38
388.938	423.38
389.163	416.38
389.387	403.38
389.612	421.38
389.837	430.38
390.062	416.38
390.287	411.38
390.512	425.38
390.736	421.38
390.961	422.38
391.186	423.38
391.411	437.38
391.636	432.38
391.86	451.38
392.085	458.38
392.31	441.38
392.534	440.38
392.759	447.38
392.984	442.38
393.208	452.38
393.433	446.38
393.658	448.38
393.882	425.38
394.107	437.38
394.331	452.38
394.556	452.38
394.78	454.38
395.005	467.38
395.229	429.38
395.454	453.38
395.678	426.38
395.903	438.38
396.127	447.38
396.352	437.38
396.576	458.38
396.801	435.38
397.025	460.38
397.249	460.38
397.474	446.38
397.698	462.38
397.922	472.38
398.147	468.38
398.371	502.38
398.595	493.38
398.82	503.38
399.044	530.38
399.268	521.38
399.492	559.38
399.717	575.38
399.941	586.38
400.165	579.38
400.389	552.38
400.613	523.38
400.837	507.38
401.062	491.38
401.286	494.38
401.51	490.38
401.734	474.38
401.958	499.38
402.182	481.38
402.406	513.38
402.63	493.38
402.854	502.38
403.078	493.38
403.302	505.38
403.526	522.38
403.75	519.38
403.974	516.38
404.198	492.38
404.422	501.38
404.645	520.38
404.869	534.38
405.093	512.38
405.317	518.38
405.541	505.38
405.765	526.38
405.988	526.38
406.212	518.38
406.436	508.38
406.66	538.38
406.883	536.38
407.107	552.38
407.331	554.38
407.555	549.38
407.778	574.38
408.002	564.38
408.226	575.38
408.449	583.38
408.673	536.38
408.896	542.38
409.12	526.38
409.344	507.38
409.567	512.38
409.791	531.38
410.014	527.38
410.238	536.38
410.461	522.38
410.685	510.38
410.908	521.38
411.132	510.38
411.355	515.38
411.578	518.38
411.802	521.38
412.025	531.38
412.249	521.38
412.472	503.38
412.695	502.38
412.919	509.38
413.142	498.38
413.365	487.38
413.589	507.38
413.812	501.38
414.035	519.38
414.258	479.38
414.482	507.38
414.705	492.38
414.928	519.38
415.151	497.38
415.374	503.38
415.597	499.38
415.821	487.38
416.044	469.38
416.267	465.38
416.49	490.38
416.713	490.38
416.936	475.38
417.159	496.38
417.382	490.38
417.605	488.38
417.828	482.38
418.051	487.38
418.274	479.38
418.497	491.38
418.72	499.38
418.943	469.38
419.166	510.38
419.389	510.38
419.611	504.38
419.834	496.38
420.057	501.38
420.28	480.38
420.503	477.38
420.726	488.38
420.948	488.38
421.171	499.38
421.394	486.38
421.617	472.38
421.839	465.38
422.062	491.38
422.285	464.38
422.507	466.38
422.73	460.38
422.953	456.38
423.175	489.38
423.398	504.38
423.621	472.38
423.843	477.38
424.066	457.38
424.288	462.38
424.511	458.38
424.733	467.38
424.956	480.38
425.178	460.38
425.401	469.38
425.623	487.38
425.846	469.38
426.068	449.38
426.291	462.38
426.513	449.38
426.735	448.38
426.958	458.38
427.18	445.38
427.402	447.38
427.625	475.38
427.847	465.38
428.069	460.38
428.292	467.38
428.514	463.38
428.736	426.38
428.958	442.38
429.181	458.38
429.403	441.38
429.625	436.38
429.847	448.38
430.069	446.38
430.292	440.38
430.514	428.38
430.736	429.38
430.958	458.38
431.18	440.38
431.402	449.38
431.624	436.38
431.846	470.38
432.068	452.38
432.29	455.38
432.512	451.38
432.734	467.38
432.956	448.38
433.178	459.38
433.4	452.38
433.622	454.38
433.844	487.38
434.066	456.38
434.287	452.38
434.509	480.38
434.731	436.38
434.953	452.38
435.175	473.38
435.397	480.38
435.618	464.38
435.84	451.38
436.062	429.38
436.284	448.38
436.505	443.38
436.727	440.38
436.949	449.38
437.17	448.38
437.392	459.38
437.614	431.38
437.835	435.38
438.057	428.38
438.278	441.38
438.5	452.38
438.721	429.38
438.943	432.38
439.165	442.38
439.386	417.38
439.608	440.38
439.829	456.38
440.05	465.38
440.272	448.38
440.493	446.38
440.715	443.38
440.936	459.38
441.158	419.38
441.379	452.38
441.6	469.38
441.822	479.38
442.043	459.38
442.264	448.38
442.486	476.38
442.707	477.38
442.928	461.38
443.149	481.38
443.371	467.38
443.592	471.38
443.813	470.38
444.034	486.38
444.255	471.38
444.476	489.38
444.698	517.38
444.919	512.38
445.14	562.38
445.361	532.38
445.582	485.38
445.803	472.38
446.024	457.38
446.245	457.38
446.466	471.38
446.687	449.38
446.908	451.38
447.129	443.38
447.35	432.38
447.571	426.38
447.792	409.38
448.013	423.38
448.234	426.38
448.455	420.38
448.675	437.38
448.896	425.38
449.117	429.38
449.338	414.38
449.559	434.38
449.779	411.38
450	416.38
450.221	429.38
450.442	434.38
450.662	412.38
450.883	407.38
451.104	433.38
451.324	435.38
451.545	414.38
451.766	397.38
451.986	418.38
452.207	420.38
452.428	407.38
452.648	419.38
452.869	412.38
453.089	395.38
453.31	404.38
453.53	392.38
453.751	411.38
453.971	395.38
454.192	407.38
454.412	384.38
454.633	373.38
454.853	390.38
455.073	397.38
455.294	391.38
455.514	390.38
455.734	389.38
455.955	395.38
456.175	369.38
456.395	389.38
456.616	400.38
456.836	402.38
457.056	375.38
457.276	394.38
457.497	413.38
457.717	404.38
457.937	401.38
458.157	407.38
458.377	415.38
458.598	424.38
458.818	426.38
459.038	444.38
459.258	441.38
459.478	426.38
459.698	447.38
459.918	456.38
460.138	467.38
460.358	477.38
460.578	463.38
460.798	471.38
461.018	487.38
461.238	482.38
461.458	496.38
461.678	472.38
461.898	504.38
462.118	497.38
462.338	487.38
462.558	516.38
462.777	515.38
462.997	544.38
463.217	548.38
463.437	553.38
463.657	517.38
463.876	544.38
464.096	541.38
464.316	514.38
464.536	524.38
464.755	515.38
464.975	519.38
465.195	497.38
465.414	481.38
465.634	479.38
465.854	454.38
466.073	479.38
466.293	448.38
466.512	457.38
466.732	450.38
466.951	424.38
467.171	448.38
467.391	460.38
467.61	440.38
467.829	433.38
468.049	442.38
468.268	440.38
468.488	417.38
468.707	420.38
468.927	425.38
469.146	411.38
469.365	417.38
469.585	410.38
469.804	432.38
470.023	464.38
470.243	406.38
470.462	446.38
470.681	418.38
470.901	444.38
471.12	449.38
471.339	436.38
471.558	432.38
471.777	440.38
471.997	425.38
472.216	418.38
472.435	414.38
472.654	440.38
472.873	429.38
473.092	434.38
473.311	440.38
473.53	422.38
473.749	429.38
473.968	431.38
474.187	442.38
474.406	432.38
474.625	419.38
474.844	432.38
475.063	436.38
475.282	440.38
475.501	434.38
475.72	448.38
475.939	449.38
476.158	442.38
476.377	466.38
476.596	457.38
476.814	466.38
477.033	438.38
477.252	462.38
477.471	462.38
477.69	497.38
477.908	484.38
478.127	482.38
478.346	477.38
478.564	504.38
478.783	491.38
479.002	503.38
479.22	525.38
479.439	507.38
479.658	501.38
479.876	505.38
480.095	509.38
480.313	537.38
480.532	523.38
480.751	548.38
480.969	517.38
481.188	521.38
481.406	496.38
481.624	489.38
481.843	508.38
482.061	513.38
482.28	532.38
482.498	512.38
482.717	503.38
482.935	531.38
483.153	504.38
483.372	492.38
483.59	509.38
483.808	510.38
484.027	518.38
484.245	520.38
484.463	524.38
484.681	538.38
484.9	526.38
485.118	512.38
485.336	520.38
485.554	526.38
485.772	520.38
485.99	520.38
486.209	530.38
486.427	531.38
486.645	528.38
486.863	533.38
487.081	524.38
487.299	545.38
487.517	540.38
487.735	528.38
487.953	533.38
488.171	523.38
488.389	512.38
488.607	522.38
488.825	536.38
489.043	541.38
489.261	512.38
489.479	532.38
489.696	522.38
489.914	514.38
490.132	538.38
490.35	533.38
490.568	498.38
490.786	528.38
491.003	533.38
491.221	530.38
491.439	548.38
491.657	553.38
491.874	548.38
492.092	535.38
492.31	532.38
492.527	516.38
492.745	532.38
492.963	526.38
493.18	542.38
493.398	545.38
493.615	536.38
493.833	555.38
494.05	534.38
494.268	550.38
494.485	547.38
494.703	553.38
494.92	547.38
495.138	568.38
495.355	557.38
495.573	541.38
495.79	577.38
496.008	557.38
496.225	551.38
496.442	545.38
496.66	574.38
496.877	586.38
497.094	609.38
497.312	596.38
497.529	616.38
497.746	599.38
497.963	647.38
498.181	655.38
498.398	650.38
498.615	702.38
498.832	693.38
499.049	705.38
499.267	745.38
499.484	782.38
499.701	851.38
499.918	857.38
500.135	933.38
500.352	960.38
500.569	972.38
500.786	1010.38
501.003	960.38
501.22	900.38
501.437	853.38
501.654	818.38
501.871	787.38
502.088	728.38
502.305	717.38
502.522	728.38
502.739	696.38
502.956	633.38
503.172	614.38
503.389	646.38
503.606	616.38
503.823	617.38
504.04	618.38
504.256	603.38
504.473	595.38
504.69	593.38
504.907	584.38
505.123	575.38
505.34	562.38
505.557	554.38
505.773	538.38
505.99	533.38
506.207	553.38
506.423	516.38
506.64	531.38
506.856	480.38
507.073	514.38
507.289	488.38
507.506	506.38
507.722	483.38
507.939	496.38
508.155	476.38
508.372	498.38
508.588	474.38
508.805	470.38
509.021	487.38
509.238	469.38
509.454	461.38
509.67	498.38
509.887	466.38
510.103	459.38
510.319	456.38
510.536	461.38
510.752	443.38
510.968	482.38
511.184	461.38
511.401	475.38
511.617	467.38
511.833	449.38
512.049	436.38
512.265	448.38
512.481	462.38
512.698	436.38
512.914	452.38
513.13	452.38
513.346	480.38
513.562	465.38
513.778	452.38
513.994	457.38
514.21	445.38
514.426	460.38
514.642	481.38
514.858	454.38
515.074	476.38
515.29	459.38
515.506	471.38
515.721	465.38
515.937	478.38
516.153	487.38
516.369	494.38
516.585	493.38
516.801	508.38
517.016	504.38
517.232	496.38
517.448	516.38
517.664	502.38
517.879	502.38
518.095	511.38
518.311	501.38
518.527	508.38
518.742	520.38
518.958	492.38
519.173	487.38
519.389	490.38
519.605	486.38
519.82	455.38
520.036	452.38
520.251	453.38
520.467	424.38
520.682	437.38
520.898	439.38
521.113	445.38
521.329	413.38
521.544	442.38
521.76	433.38
521.975	430.38
522.19	410.38
522.406	414.38
522.621	426.38
522.836	425.38
523.052	454.38
523.267	417.38
523.482	416.38
523.698	424.38
523.913	436.38
524.128	414.38
524.343	420.38
524.559	428.38
524.774	405.38
524.989	400.38
525.204	410.38
525.419	413.38
525.634	402.38
525.849	396.38
526.064	429.38
526.28	406.38
526.495	412.38
526.71	410.38
526.925	416.38
527.14	411.38
527.355	410.38
527.57	415.38
527.785	402.38
527.999	400.38
528.214	402.38
528.429	420.38
528.644	394.38
528.859	397.38
529.074	418.38
529.289	409.38
529.503	406.38
529.718	414.38
529.933	418.38
530.148	408.38
530.363	392.38
530.577	387.38
530.792	409.38
531.007	393.38
531.221	397.38
531.436	406.38
531.651	412.38
531.865	423.38
532.08	400.38
532.295	397.38
532.509	400.38
532.724	382.38
532.938	404.38
533.153	406.38
533.367	403.38
533.582	402.38
533.796	395.38
534.011	398.38
534.225	385.38
534.44	384.38
534.654	384.38
534.868	397.38
535.083	388.38
535.297	390.38
535.511	394.38
535.726	388.38
535.94	403.38
536.154	380.38
536.369	400.38
536.583	400.38
536.797	390.38
537.011	350.38
537.225	378.38
537.44	378.38
537.654	398.38
537.868	379.38
538.082	378.38
538.296	382.38
538.51	369.38
538.724	392.38
538.938	382.38
539.153	392.38
539.367	411.38
539.581	394.38
539.795	376.38
540.009	374.38
540.222	396.38
540.436	374.38
540.65	374.38
540.864	386.38
541.078	392.38
541.292	395.38
541.506	366.38
541.72	354.38
541.934	359.38
542.147	379.38
542.361	366.38
542.575	384.38
542.789	371.38
543.002	368.38
543.216	380.38
543.43	382.38
543.644	383.38
543.857	382.38
544.071	367.38
544.285	382.38
544.498	382.38
544.712	367.38
544.925	367.38
545.139	397.38
545.352	364.38
545.566	388.38
545.779	380.38
545.993	375.38
546.206	376.38
546.42	377.38
546.633	376.38
546.847	374.38
547.06	380.38
547.274	388.38
547.487	399.38
547.7	380.38
547.914	367.38
548.127	390.38
548.34	391.38
548.554	388.38
548.767	401.38
548.98	376.38
549.193	378.38
549.407	376.38
549.62	366.38
549.833	386.38
550.046	388.38
550.259	395.38
550.473	374.38
550.686	380.38
550.899	389.38
551.112	377.38
551.325	380.38
551.538	388.38
551.751	371.38
551.964	362.38
552.177	385.38
552.39	388.38
552.603	406.38
552.816	374.38
553.029	379.38
553.242	380.38
553.455	410.38
553.667	389.38
553.88	382.38
554.093	379.38
554.306	390.38
554.519	379.38
554.732	374.38
554.944	349.38
555.157	370.38
555.37	364.38
555.583	351.38
555.795	332.38
556.008	356.38
556.221	336.38
556.433	335.38
556.646	330.38
556.859	347.38
557.071	355.38
557.284	349.38
557.496	338.38
557.709	326.38
557.921	324.38
558.134	332.38
558.346	330.38
558.559	336.38
558.771	343.38
558.984	344.38
559.196	332.38
559.409	352.38
559.621	317.38
559.833	337.38
560.046	318.38
560.258	334.38
560.47	326.38
560.683	309.38
560.895	330.38
561.107	333.38
561.32	315.38
561.532	327.38
561.744	342.38
561.956	325.38
562.168	307.38
562.381	340.38
562.593	345.38
562.805	335.38
563.017	339.38
563.229	352.38
563.441	335.38
563.653	336.38
563.865	328.38
564.077	334.38
564.289	348.38
564.501	359.38
564.713	349.38
564.925	344.38
565.137	342.38
565.349	356.38
565.561	364.38
565.773	370.38
565.985	354.38
566.197	367.38
566.408	400.38
566.62	404.38
566.832	412.38
567.044	426.38
567.255	420.38
567.467	426.38
567.679	441.38
567.891	436.38
568.102	436.38
568.314	410.38
568.526	389.38
568.737	374.38
568.949	364.38
569.161	357.38
569.372	345.38
569.584	343.38
569.795	342.38
570.007	332.38
570.218	301.38
570.43	315.38
570.641	320.38
570.853	306.38
571.064	329.38
571.276	297.38
571.487	302.38
571.698	305.38
571.91	303.38
572.121	289.38
572.333	289.38
572.544	298.38
572.755	276.38
572.966	297.38
573.178	271.38
573.389	275.38
573.6	284.38
573.811	280.38
574.023	281.38
574.234	295.38
574.445	288.38
574.656	271.38
574.867	270.38
575.078	271.38
575.289	292.38
575.501	276.38
575.712	265.38
575.923	272.38
576.134	282.38
576.345	277.38
576.556	269.38
576.767	245.38
576.978	275.38
577.188	264.38
577.399	281.38
577.61	261.38
577.821	282.38
578.032	265.38
578.243	272.38
578.454	236.38
578.665	261.38
578.875	265.38
579.086	228.38
579.297	248.38
579.508	260.38
579.718	263.38
579.929	268.38
580.14	229.38
580.35	240.38
580.561	252.38
580.772	232.38
580.982	236.38
581.193	221.38
581.403	264.38
581.614	231.38
581.825	252.38
582.035	240.38
582.246	237.38
582.456	249.38
582.667	236.38
582.877	252.38
583.087	237.38
583.298	226.38
583.508	232.38
583.719	242.38
583.929	252.38
584.139	245.38
584.35	240.38
584.56	245.38
584.77	234.38
584.981	240.38
585.191	232.38
585.401	231.38
585.611	240.38
585.821	235.38
586.032	224.38
586.242	245.38
586.452	216.38
586.662	231.38
586.872	239.38
587.082	233.38
587.292	232.38
587.502	241.38
587.713	239.38
587.923	233.38
588.133	238.38
588.343	221.38
588.553	243.38
588.762	241.38
588.972	232.38
589.182	252.38
589.392	252.38
589.602	234.38
589.812	241.38
590.022	244.38
590.232	224.38
590.441	244.38
590.651	242.38
590.861	227.38
591.071	234.38
591.281	232.38
591.49	223.38
591.7	246.38
591.91	237.38
592.119	254.38
592.329	224.38
592.539	265.38
592.748	243.38
592.958	262.38
593.167	241.38
593.377	258.38
593.587	246.38
593.796	254.38
594.006	259.38
594.215	231.38
594.424	258.38
594.634	245.38
594.843	256.38
595.053	232.38
595.262	226.38
595.472	234.38
595.681	240.38
595.89	233.38
596.1	202.38
596.309	227.38
596.518	208.38
596.727	209.38
596.937	213.38
597.146	213.38
597.355	215.38
597.564	206.38
597.774	205.38
597.983	202.38
598.192	210.38
598.401	216.38
598.61	218.38
598.819	219.38
599.028	204.38
599.237	200.38
599.446	209.38
599.655	207.38
599.864	216.38
600.073	202.38
600.282	188.38
600.491	190.38
600.7	203.38
600.909	212.38
601.118	218.38
601.327	204.38
601.536	213.38
601.745	196.38
601.953	224.38
602.162	209.38
602.371	196.38
602.58	197.38
602.789	190.38
602.997	202.38
603.206	211.38
603.415	209.38
603.623	192.38
603.832	207.38
604.041	198.38
604.249	185.38
604.458	197.38
604.666	205.38
604.875	186.38
605.084	206.38
605.292	199.38
605.501	206.38
605.709	203.38
605.918	185.38
606.126	186.38
606.334	194.38
606.543	190.38
606.751	202.38
606.96	207.38
607.168	206.38
607.376	181.38
607.585	181.38
607.793	200.38
608.001	202.38
608.21	184.38
608.418	195.38
608.626	212.38
608.834	191.38
609.043	201.38
609.251	192.38
609.459	196.38
609.667	189.38
609.875	168.38
610.083	186.38
610.291	203.38
610.499	171.38
610.707	186.38
610.916	195.38
611.124	180.38
611.332	191.38
611.54	192.38
611.748	187.38
611.955	179.38
612.163	191.38
612.371	180.38
612.579	171.38
612.787	180.38
612.995	183.38
613.203	178.38
613.411	184.38
613.618	170.38
613.826	176.38
614.034	198.38
614.242	168.38
614.449	172.38
614.657	188.38
614.865	189.38
615.072	180.38
615.28	181.38
615.488	170.38
615.695	175.38
615.903	192.38
616.111	184.38
616.318	189.38
616.526	188.38
616.733	188.38
616.941	173.38
617.148	187.38
617.356	180.38
617.563	178.38
617.771	172.38
617.978	169.38
618.185	179.38
618.393	178.38
618.6	196.38
618.807	174.38
619.015	167.38
619.222	181.38
619.429	167.38
619.637	181.38
619.844	171.38
620.051	171.38
620.258	181.38
620.466	178.38
620.673	176.38
620.88	183.38
621.087	164.38
621.294	186.38
621.501	171.38
621.708	164.38
621.915	172.38
622.122	180.38
622.329	185.38
622.536	179.38
622.743	173.38
622.95	185.38
623.157	177.38
623.364	164.38
623.571	184.38
623.778	185.38
623.985	185.38
624.192	165.38
624.399	158.38
624.606	180.38
624.812	183.38
625.019	170.38
625.226	169.38
625.433	181.38
625.639	180.38
625.846	164.38
626.053	171.38
626.259	150.38
626.466	166.38
626.673	172.38
626.879	155.38
627.086	161.38
627.293	174.38
627.499	180.38
627.706	166.38
627.912	171.38
628.119	148.38
628.325	176.38
628.532	158.38
628.738	162.38
628.945	180.38
629.151	159.38
629.357	173.38
629.564	155.38
629.77	158.38
629.976	153.38
630.183	163.38
630.389	158.38
630.595	165.38
630.802	145.38
631.008	160.38
631.214	164.38
631.42	165.38
631.627	168.38
631.833	161.38
632.039	168.38
632.245	144.38
632.451	154.38
632.657	152.38
632.863	169.38
633.069	174.38
633.275	157.38
633.481	156.38
633.688	144.38
633.893	146.38
634.099	157.38
634.305	154.38
634.511	157.38
634.717	162.38
634.923	133.38
635.129	156.38
635.335	149.38
635.541	165.38
635.747	153.38
635.952	140.38
636.158	153.38
636.364	151.38
636.57	155.38
636.775	157.38
636.981	161.38
637.187	148.38
637.392	136.38
637.598	141.38
637.804	134.38
638.009	147.38
638.215	154.38
638.421	152.38
638.626	141.38
638.832	138.38
639.037	157.38
639.243	149.38
639.448	151.38
639.654	156.38
639.859	155.38
640.065	153.38
640.27	154.38
640.475	155.38
640.681	152.38
640.886	151.38
641.091	155.38
641.297	131.38
641.502	153.38
641.707	147.38
641.913	146.38
642.118	143.38
642.323	149.38
642.528	140.38
642.733	157.38
642.939	150.38
643.144	158.38
643.349	133.38
643.554	150.38
643.759	158.38
643.964	144.38
644.169	150.38
644.374	147.38
644.579	148.38
644.784	150.38
644.989	150.38
645.194	142.38
645.399	142.38
645.604	139.38
645.809	148.38
646.014	152.38
646.219	158.38
646.423	147.38
646.628	154.38
646.833	149.38
647.038	152.38
647.243	154.38
647.447	164.38
647.652	169.38
647.857	168.38
648.062	150.38
648.266	148.38
648.471	153.38
648.676	154.38
648.88	142.38
649.085	164.38
649.289	147.38
649.494	165.38
649.698	158.38
649.903	153.38
650.107	147.38
650.312	168.38
650.516	149.38
650.721	155.38
650.925	140.38
651.13	147.38
651.334	148.38
651.539	151.38
651.743	144.38
651.947	138.38
652.152	150.38
652.356	152.38
652.56	136.38
652.764	134.38
652.969	153.38
653.173	141.38
653.377	150.38
653.581	144.38
653.785	149.38
653.99	148.38
654.194	145.38
654.398	139.38
654.602	155.38
654.806	144.38
655.01	129.38
655.214	158.38
655.418	152.38
655.622	152.38
655.826	158.38
656.03	179.38
656.234	164.38
656.438	147.38
656.642	164.38
656.846	153.38
657.049	164.38
657.253	129.38
657.457	164.38
657.661	143.38
657.865	134.38
658.068	139.38
658.272	126.38
658.476	114.38
658.68	123.38
658.883	122.38
659.087	120.38
659.291	95.38
659.494	114.38
659.698	110.38
659.901	106.38
660.105	106.38
660.309	99.38
660.512	101.38
660.716	97.38
660.919	98.38
661.123	92.38
661.326	85.38
661.53	91.38
661.733	75.38
661.936	91.38
662.14	97.38
662.343	77.38
662.546	81.38
662.75	84.38
662.953	87.38
663.156	83.38
663.36	99.38
663.563	95.38
663.766	82.38
663.969	86.38
664.173	82.38
664.376	88.38
664.579	72.38
664.782	92.38
664.985	77.38
665.188	84.38
665.391	77.38
665.594	93.38
665.797	82.38
666	82.38
666.203	94.38
666.406	80.38
666.609	89.38
666.812	91.38
667.015	101.38
667.218	73.38
667.421	84.38
667.624	86.38
667.827	89.38
668.03	99.38
668.232	96.38
668.435	89.38
668.638	76.38
668.841	86.38
669.043	83.38
669.246	80.38
669.449	92.38
669.651	82.38
669.854	100.38
670.057	77.38
670.259	82.38
670.462	79.38
670.665	100.38
670.867	96.38
671.07	91.38
671.272	88.38
671.475	70.38
671.677	76.38
671.88	81.38
672.082	71.38
672.284	88.38
672.487	90.38
672.689	81.38
672.892	81.38
