Data from Fe(NO3)3@0.05M.TitratingCurve.Agarose3%dH2O.NegLispCup.LampEnergy10.LIBS07252019_HRD10591_16-46-48-334.txt Node
Date: Thu Jul 25 16:46:48 EDT 2019
User: cochatt
Spectrometer: HR+D1059
Trigger mode: 1
Integration Time (sec): 1.000000E-1
Scans to average: 1
Electric dark correction enabled: true
Nonlinearity correction enabled: false
Boxcar width: 0
XAxis mode: Wavelengths
Number of Pixels in Spectrum: 2048
>>>>>Begin Spectral Data<<<<<
223.165	-13.75
223.4	-13.75
223.635	-13.75
223.869	-15.75
224.104	-17.75
224.338	-22.75
224.573	-15.75
224.808	-14.75
225.042	-1.75
225.277	-0.75
225.511	-7.75
225.746	14.25
225.98	3.25
226.215	10.25
226.449	12.25
226.683	23.25
226.918	12.25
227.152	35.25
227.387	39.25
227.621	35.25
227.856	44.25
228.09	62.25
228.324	44.25
228.559	59.25
228.793	75.25
229.027	98.25
229.262	114.25
229.496	117.25
229.73	126.25
229.964	133.25
230.199	127.25
230.433	119.25
230.667	138.25
230.901	135.25
231.136	140.25
231.37	136.25
231.604	136.25
231.838	146.25
232.072	138.25
232.306	159.25
232.541	145.25
232.775	137.25
233.009	151.25
233.243	155.25
233.477	167.25
233.711	156.25
233.945	169.25
234.179	168.25
234.413	165.25
234.647	159.25
234.881	169.25
235.115	178.25
235.349	177.25
235.583	180.25
235.817	172.25
236.051	170.25
236.285	180.25
236.519	180.25
236.753	200.25
236.987	166.25
237.221	167.25
237.455	162.25
237.689	190.25
237.922	173.25
238.156	200.25
238.39	207.25
238.624	227.25
238.858	214.25
239.091	203.25
239.325	181.25
239.559	190.25
239.793	216.25
240.027	225.25
240.26	208.25
240.494	217.25
240.728	214.25
240.961	212.25
241.195	228.25
241.429	232.25
241.662	224.25
241.896	190.25
242.13	217.25
242.363	209.25
242.597	233.25
242.83	234.25
243.064	227.25
243.298	232.25
243.531	226.25
243.765	232.25
243.998	235.25
244.232	230.25
244.465	241.25
244.699	213.25
244.932	255.25
245.166	228.25
245.399	245.25
245.633	221.25
245.866	227.25
246.099	217.25
246.333	267.25
246.566	267.25
246.8	262.25
247.033	262.25
247.266	259.25
247.5	261.25
247.733	266.25
247.966	263.25
248.2	269.25
248.433	294.25
248.666	280.25
248.899	277.25
249.133	282.25
249.366	297.25
249.599	310.25
249.832	290.25
250.066	283.25
250.299	283.25
250.532	299.25
250.765	276.25
250.998	275.25
251.231	284.25
251.465	302.25
251.698	306.25
251.931	313.25
252.164	289.25
252.397	303.25
252.63	299.25
252.863	315.25
253.096	334.25
253.329	315.25
253.562	305.25
253.795	327.25
254.028	346.25
254.261	336.25
254.494	339.25
254.727	332.25
254.96	319.25
255.193	346.25
255.426	339.25
255.659	324.25
255.892	312.25
256.124	342.25
256.357	347.25
256.59	323.25
256.823	321.25
257.056	332.25
257.289	332.25
257.521	330.25
257.754	349.25
257.987	354.25
258.22	347.25
258.452	365.25
258.685	373.25
258.918	378.25
259.151	361.25
259.383	377.25
259.616	368.25
259.849	379.25
260.081	437.25
260.314	453.25
260.547	368.25
260.779	373.25
261.012	393.25
261.244	391.25
261.477	404.25
261.71	393.25
261.942	387.25
262.175	385.25
262.407	379.25
262.64	390.25
262.872	392.25
263.105	411.25
263.337	428.25
263.57	442.25
263.802	377.25
264.035	395.25
264.267	359.25
264.499	374.25
264.732	379.25
264.964	391.25
265.197	377.25
265.429	381.25
265.661	369.25
265.894	390.25
266.126	376.25
266.358	401.25
266.591	403.25
266.823	433.25
267.055	417.25
267.287	415.25
267.52	392.25
267.752	407.25
267.984	396.25
268.216	411.25
268.448	409.25
268.681	407.25
268.913	416.25
269.145	415.25
269.377	403.25
269.609	425.25
269.841	426.25
270.073	415.25
270.306	447.25
270.538	423.25
270.77	417.25
271.002	428.25
271.234	445.25
271.466	464.25
271.698	463.25
271.93	448.25
272.162	451.25
272.394	449.25
272.626	448.25
272.858	475.25
273.09	459.25
273.322	458.25
273.553	474.25
273.785	467.25
274.017	501.25
274.249	525.25
274.481	528.25
274.713	550.25
274.945	580.25
275.176	572.25
275.408	560.25
275.64	561.25
275.872	573.25
276.104	512.25
276.335	474.25
276.567	503.25
276.799	492.25
277.031	523.25
277.262	516.25
277.494	506.25
277.726	499.25
277.957	490.25
278.189	482.25
278.421	488.25
278.652	501.25
278.884	498.25
279.115	509.25
279.347	487.25
279.579	511.25
279.81	504.25
280.042	487.25
280.273	473.25
280.505	504.25
280.736	504.25
280.968	510.25
281.199	494.25
281.431	511.25
281.662	519.25
281.894	518.25
282.125	524.25
282.356	513.25
282.588	512.25
282.819	532.25
283.051	540.25
283.282	529.25
283.513	522.25
283.745	531.25
283.976	556.25
284.207	558.25
284.439	529.25
284.67	549.25
284.901	563.25
285.132	537.25
285.364	556.25
285.595	562.25
285.826	551.25
286.057	566.25
286.288	558.25
286.52	552.25
286.751	581.25
286.982	553.25
287.213	565.25
287.444	571.25
287.675	560.25
287.906	557.25
288.138	567.25
288.369	561.25
288.6	573.25
288.831	575.25
289.062	584.25
289.293	564.25
289.524	561.25
289.755	589.25
289.986	564.25
290.217	577.25
290.448	570.25
290.679	579.25
290.91	571.25
291.141	574.25
291.371	608.25
291.602	575.25
291.833	570.25
292.064	577.25
292.295	562.25
292.526	597.25
292.757	588.25
292.987	567.25
293.218	583.25
293.449	601.25
293.68	599.25
293.91	580.25
294.141	581.25
294.372	603.25
294.603	577.25
294.833	599.25
295.064	566.25
295.295	593.25
295.525	595.25
295.756	604.25
295.987	586.25
296.217	621.25
296.448	610.25
296.679	611.25
296.909	602.25
297.14	593.25
297.37	643.25
297.601	607.25
297.831	612.25
298.062	623.25
298.292	616.25
298.523	641.25
298.753	647.25
298.984	623.25
299.214	643.25
299.445	641.25
299.675	630.25
299.905	637.25
300.136	620.25
300.366	643.25
300.597	661.25
300.827	660.25
301.057	644.25
301.288	663.25
301.518	639.25
301.748	657.25
301.979	655.25
302.209	671.25
302.439	672.25
302.669	648.25
302.9	660.25
303.13	660.25
303.36	651.25
303.59	650.25
303.82	675.25
304.051	656.25
304.281	669.25
304.511	701.25
304.741	678.25
304.971	664.25
305.201	657.25
305.431	657.25
305.661	684.25
305.891	685.25
306.121	683.25
306.352	653.25
306.582	654.25
306.812	657.25
307.042	660.25
307.272	677.25
307.502	683.25
307.731	676.25
307.961	660.25
308.191	661.25
308.421	663.25
308.651	681.25
308.881	656.25
309.111	668.25
309.341	639.25
309.571	683.25
309.8	681.25
310.03	641.25
310.26	668.25
310.49	677.25
310.72	671.25
310.949	676.25
311.179	695.25
311.409	683.25
311.639	690.25
311.868	682.25
312.098	705.25
312.328	714.25
312.557	695.25
312.787	709.25
313.017	677.25
313.246	720.25
313.476	709.25
313.706	719.25
313.935	700.25
314.165	728.25
314.394	704.25
314.624	733.25
314.853	717.25
315.083	705.25
315.312	729.25
315.542	745.25
315.771	739.25
316.001	717.25
316.23	727.25
316.46	725.25
316.689	715.25
316.919	735.25
317.148	746.25
317.377	721.25
317.607	747.25
317.836	757.25
318.065	733.25
318.295	756.25
318.524	771.25
318.753	760.25
318.983	721.25
319.212	724.25
319.441	718.25
319.67	739.25
319.9	732.25
320.129	733.25
320.358	747.25
320.587	735.25
320.816	756.25
321.046	744.25
321.275	746.25
321.504	740.25
321.733	739.25
321.962	743.25
322.191	761.25
322.42	746.25
322.649	780.25
322.878	768.25
323.108	753.25
323.337	754.25
323.566	749.25
323.795	819.25
324.024	766.25
324.253	770.25
324.482	784.25
324.71	795.25
324.939	797.25
325.168	762.25
325.397	771.25
325.626	793.25
325.855	786.25
326.084	790.25
326.313	789.25
326.542	777.25
326.77	812.25
326.999	796.25
327.228	789.25
327.457	788.25
327.686	773.25
327.914	783.25
328.143	805.25
328.372	809.25
328.6	825.25
328.829	779.25
329.058	799.25
329.287	825.25
329.515	800.25
329.744	807.25
329.972	806.25
330.201	802.25
330.43	800.25
330.658	839.25
330.887	811.25
331.115	818.25
331.344	820.25
331.572	811.25
331.801	844.25
332.03	843.25
332.258	853.25
332.486	871.25
332.715	876.25
332.943	863.25
333.172	911.25
333.4	906.25
333.629	913.25
333.857	933.25
334.085	920.25
334.314	936.25
334.542	955.25
334.771	926.25
334.999	948.25
335.227	921.25
335.455	951.25
335.684	936.25
335.912	940.25
336.14	940.25
336.369	916.25
336.597	928.25
336.825	920.25
337.053	925.25
337.281	908.25
337.51	897.25
337.738	904.25
337.966	896.25
338.194	918.25
338.422	879.25
338.65	892.25
338.878	885.25
339.106	872.25
339.334	891.25
339.562	873.25
339.79	870.25
340.018	880.25
340.246	871.25
340.474	859.25
340.702	885.25
340.93	857.25
341.158	863.25
341.386	857.25
341.614	901.25
341.842	879.25
342.07	844.25
342.298	845.25
342.526	845.25
342.754	874.25
342.981	866.25
343.209	882.25
343.437	911.25
343.665	911.25
343.893	900.25
344.12	951.25
344.348	933.25
344.576	938.25
344.804	920.25
345.031	875.25
345.259	872.25
345.487	856.25
345.714	844.25
345.942	852.25
346.17	858.25
346.397	845.25
346.625	836.25
346.853	847.25
347.08	835.25
347.308	815.25
347.535	844.25
347.763	845.25
347.99	804.25
348.218	824.25
348.445	815.25
348.673	813.25
348.9	804.25
349.128	828.25
349.355	817.25
349.583	829.25
349.81	812.25
350.037	788.25
350.265	819.25
350.492	806.25
350.72	817.25
350.947	790.25
351.174	799.25
351.402	815.25
351.629	789.25
351.856	800.25
352.083	791.25
352.311	799.25
352.538	818.25
352.765	807.25
352.992	818.25
353.22	796.25
353.447	802.25
353.674	789.25
353.901	824.25
354.128	821.25
354.355	788.25
354.583	795.25
354.81	822.25
355.037	842.25
355.264	796.25
355.491	792.25
355.718	833.25
355.945	805.25
356.172	841.25
356.399	839.25
356.626	833.25
356.853	840.25
357.08	844.25
357.307	824.25
357.534	839.25
357.761	808.25
357.988	819.25
358.215	837.25
358.441	848.25
358.668	834.25
358.895	848.25
359.122	837.25
359.349	810.25
359.576	835.25
359.802	819.25
360.029	817.25
360.256	835.25
360.483	839.25
360.709	828.25
360.936	847.25
361.163	840.25
361.39	840.25
361.616	830.25
361.843	825.25
362.07	855.25
362.296	828.25
362.523	820.25
362.749	833.25
362.976	839.25
363.203	866.25
363.429	842.25
363.656	853.25
363.882	828.25
364.109	847.25
364.335	838.25
364.562	842.25
364.788	859.25
365.015	851.25
365.241	834.25
365.468	829.25
365.694	825.25
365.92	836.25
366.147	853.25
366.373	841.25
366.599	839.25
366.826	821.25
367.052	854.25
367.278	827.25
367.505	849.25
367.731	849.25
367.957	846.25
368.184	868.25
368.41	853.25
368.636	864.25
368.862	877.25
369.089	870.25
369.315	871.25
369.541	869.25
369.767	859.25
369.993	893.25
370.219	871.25
370.445	895.25
370.672	879.25
370.898	908.25
371.124	908.25
371.35	901.25
371.576	865.25
371.802	910.25
372.028	935.25
372.254	930.25
372.48	935.25
372.706	876.25
372.932	931.25
373.158	938.25
373.384	895.25
373.61	953.25
373.835	950.25
374.061	938.25
374.287	950.25
374.513	940.25
374.739	955.25
374.965	968.25
375.191	1018.25
375.416	981.25
375.642	953.25
375.868	943.25
376.094	955.25
376.319	938.25
376.545	937.25
376.771	920.25
376.997	928.25
377.222	907.25
377.448	915.25
377.674	900.25
377.899	909.25
378.125	891.25
378.35	891.25
378.576	890.25
378.802	920.25
379.027	897.25
379.253	913.25
379.478	915.25
379.704	933.25
379.929	916.25
380.155	948.25
380.38	943.25
380.606	915.25
380.831	924.25
381.057	965.25
381.282	934.25
381.507	931.25
381.733	971.25
381.958	966.25
382.184	954.25
382.409	976.25
382.634	970.25
382.86	978.25
383.085	983.25
383.31	964.25
383.535	965.25
383.761	968.25
383.986	997.25
384.211	1045.25
384.436	988.25
384.662	1014.25
384.887	1031.25
385.112	1046.25
385.337	1034.25
385.562	1031.25
385.787	1053.25
386.013	1092.25
386.238	1071.25
386.463	1071.25
386.688	1075.25
386.913	1059.25
387.138	1038.25
387.363	1090.25
387.588	1094.25
387.813	1089.25
388.038	1064.25
388.263	1087.25
388.488	1064.25
388.713	1093.25
388.938	1071.25
389.163	1081.25
389.387	1110.25
389.612	1073.25
389.837	1091.25
390.062	1087.25
390.287	1089.25
390.512	1100.25
390.736	1099.25
390.961	1096.25
391.186	1112.25
391.411	1127.25
391.636	1135.25
391.86	1171.25
392.085	1161.25
392.31	1139.25
392.534	1153.25
392.759	1150.25
392.984	1144.25
393.208	1133.25
393.433	1139.25
393.658	1118.25
393.882	1121.25
394.107	1110.25
394.331	1165.25
394.556	1122.25
394.78	1151.25
395.005	1161.25
395.229	1153.25
395.454	1181.25
395.678	1201.25
395.903	1157.25
396.127	1184.25
396.352	1206.25
396.576	1176.25
396.801	1170.25
397.025	1189.25
397.249	1188.25
397.474	1227.25
397.698	1220.25
397.922	1234.25
398.147	1230.25
398.371	1297.25
398.595	1288.25
398.82	1281.25
399.044	1354.25
399.268	1423.25
399.492	1479.25
399.717	1540.25
399.941	1585.25
400.165	1523.25
400.389	1458.25
400.613	1433.25
400.837	1427.25
401.062	1372.25
401.286	1353.25
401.51	1328.25
401.734	1332.25
401.958	1310.25
402.182	1313.25
402.406	1355.25
402.63	1339.25
402.854	1323.25
403.078	1289.25
403.302	1351.25
403.526	1338.25
403.75	1354.25
403.974	1355.25
404.198	1312.25
404.422	1333.25
404.645	1363.25
404.869	1391.25
405.093	1362.25
405.317	1337.25
405.541	1364.25
405.765	1334.25
405.988	1373.25
406.212	1393.25
406.436	1419.25
406.66	1446.25
406.883	1421.25
407.107	1481.25
407.331	1491.25
407.555	1538.25
407.778	1509.25
408.002	1497.25
408.226	1469.25
408.449	1524.25
408.673	1436.25
408.896	1409.25
409.12	1442.25
409.344	1465.25
409.567	1415.25
409.791	1411.25
410.014	1388.25
410.238	1403.25
410.461	1391.25
410.685	1386.25
410.908	1395.25
411.132	1346.25
411.355	1339.25
411.578	1361.25
411.802	1354.25
412.025	1329.25
412.249	1336.25
412.472	1366.25
412.695	1354.25
412.919	1327.25
413.142	1370.25
413.365	1328.25
413.589	1361.25
413.812	1319.25
414.035	1318.25
414.258	1344.25
414.482	1283.25
414.705	1331.25
414.928	1352.25
415.151	1313.25
415.374	1321.25
415.597	1284.25
415.821	1249.25
416.044	1288.25
416.267	1265.25
416.49	1300.25
416.713	1290.25
416.936	1273.25
417.159	1257.25
417.382	1269.25
417.605	1256.25
417.828	1260.25
418.051	1272.25
418.274	1249.25
418.497	1218.25
418.72	1281.25
418.943	1279.25
419.166	1333.25
419.389	1381.25
419.611	1375.25
419.834	1357.25
420.057	1347.25
420.28	1290.25
420.503	1244.25
420.726	1252.25
420.948	1252.25
421.171	1248.25
421.394	1274.25
421.617	1228.25
421.839	1235.25
422.062	1258.25
422.285	1243.25
422.507	1262.25
422.73	1240.25
422.953	1251.25
423.175	1271.25
423.398	1271.25
423.621	1263.25
423.843	1247.25
424.066	1285.25
424.288	1252.25
424.511	1285.25
424.733	1257.25
424.956	1260.25
425.178	1266.25
425.401	1243.25
425.623	1257.25
425.846	1223.25
426.068	1233.25
426.291	1249.25
426.513	1220.25
426.735	1246.25
426.958	1224.25
427.18	1207.25
427.402	1228.25
427.625	1211.25
427.847	1188.25
428.069	1175.25
428.292	1208.25
428.514	1189.25
428.736	1214.25
428.958	1217.25
429.181	1181.25
429.403	1196.25
429.625	1173.25
429.847	1154.25
430.069	1193.25
430.292	1214.25
430.514	1175.25
430.736	1193.25
430.958	1193.25
431.18	1183.25
431.402	1171.25
431.624	1170.25
431.846	1165.25
432.068	1177.25
432.29	1204.25
432.512	1232.25
432.734	1213.25
432.956	1202.25
433.178	1190.25
433.4	1203.25
433.622	1226.25
433.844	1223.25
434.066	1200.25
434.287	1225.25
434.509	1240.25
434.731	1239.25
434.953	1257.25
435.175	1263.25
435.397	1286.25
435.618	1234.25
435.84	1225.25
436.062	1210.25
436.284	1205.25
436.505	1193.25
436.727	1205.25
436.949	1231.25
437.17	1183.25
437.392	1176.25
437.614	1135.25
437.835	1173.25
438.057	1170.25
438.278	1137.25
438.5	1183.25
438.721	1189.25
438.943	1174.25
439.165	1145.25
439.386	1183.25
439.608	1183.25
439.829	1211.25
440.05	1192.25
440.272	1179.25
440.493	1205.25
440.715	1225.25
440.936	1215.25
441.158	1222.25
441.379	1184.25
441.6	1253.25
441.822	1248.25
442.043	1246.25
442.264	1223.25
442.486	1234.25
442.707	1247.25
442.928	1232.25
443.149	1234.25
443.371	1261.25
443.592	1248.25
443.813	1301.25
444.034	1271.25
444.255	1280.25
444.476	1273.25
444.698	1303.25
444.919	1319.25
445.14	1400.25
445.361	1363.25
445.582	1259.25
445.803	1272.25
446.024	1226.25
446.245	1232.25
446.466	1208.25
446.687	1189.25
446.908	1225.25
447.129	1164.25
447.35	1143.25
447.571	1148.25
447.792	1128.25
448.013	1098.25
448.234	1115.25
448.455	1146.25
448.675	1113.25
448.896	1087.25
449.117	1115.25
449.338	1112.25
449.559	1115.25
449.779	1077.25
450	1107.25
450.221	1069.25
450.442	1088.25
450.662	1083.25
450.883	1065.25
451.104	1077.25
451.324	1072.25
451.545	1100.25
451.766	1101.25
451.986	1082.25
452.207	1041.25
452.428	1043.25
452.648	1084.25
452.869	1053.25
453.089	1045.25
453.31	1039.25
453.53	1040.25
453.751	1054.25
453.971	1067.25
454.192	1074.25
454.412	1024.25
454.633	1065.25
454.853	1054.25
455.073	1045.25
455.294	1047.25
455.514	1043.25
455.734	1042.25
455.955	1035.25
456.175	1064.25
456.395	1035.25
456.616	1052.25
456.836	1055.25
457.056	1069.25
457.276	1039.25
457.497	1063.25
457.717	1057.25
457.937	1073.25
458.157	1089.25
458.377	1080.25
458.598	1091.25
458.818	1128.25
459.038	1126.25
459.258	1139.25
459.478	1181.25
459.698	1205.25
459.918	1169.25
460.138	1226.25
460.358	1245.25
460.578	1263.25
460.798	1280.25
461.018	1294.25
461.238	1294.25
461.458	1296.25
461.678	1333.25
461.898	1350.25
462.118	1341.25
462.338	1350.25
462.558	1351.25
462.777	1426.25
462.997	1415.25
463.217	1477.25
463.437	1536.25
463.657	1447.25
463.876	1434.25
464.096	1424.25
464.316	1404.25
464.536	1408.25
464.755	1450.25
464.975	1398.25
465.195	1325.25
465.414	1272.25
465.634	1250.25
465.854	1203.25
466.073	1202.25
466.293	1164.25
466.512	1178.25
466.732	1174.25
466.951	1205.25
467.171	1169.25
467.391	1178.25
467.61	1152.25
467.829	1140.25
468.049	1170.25
468.268	1135.25
468.488	1166.25
468.707	1149.25
468.927	1148.25
469.146	1155.25
469.365	1150.25
469.585	1141.25
469.804	1190.25
470.023	1173.25
470.243	1167.25
470.462	1157.25
470.681	1187.25
470.901	1144.25
471.12	1171.25
471.339	1175.25
471.558	1155.25
471.777	1183.25
471.997	1158.25
472.216	1170.25
472.435	1173.25
472.654	1132.25
472.873	1147.25
473.092	1153.25
473.311	1171.25
473.53	1171.25
473.749	1157.25
473.968	1148.25
474.187	1164.25
474.406	1125.25
474.625	1155.25
474.844	1155.25
475.063	1163.25
475.282	1183.25
475.501	1168.25
475.72	1176.25
475.939	1211.25
476.158	1206.25
476.377	1239.25
476.596	1244.25
476.814	1292.25
477.033	1246.25
477.252	1255.25
477.471	1232.25
477.69	1297.25
477.908	1269.25
478.127	1347.25
478.346	1306.25
478.564	1329.25
478.783	1340.25
479.002	1375.25
479.22	1369.25
479.439	1384.25
479.658	1371.25
479.876	1391.25
480.095	1376.25
480.313	1411.25
480.532	1442.25
480.751	1410.25
480.969	1404.25
481.188	1401.25
481.406	1370.25
481.624	1371.25
481.843	1378.25
482.061	1358.25
482.28	1379.25
482.498	1366.25
482.717	1345.25
482.935	1364.25
483.153	1362.25
483.372	1378.25
483.59	1353.25
483.808	1369.25
484.027	1369.25
484.245	1391.25
484.463	1387.25
484.681	1389.25
484.9	1414.25
485.118	1394.25
485.336	1396.25
485.554	1387.25
485.772	1400.25
485.99	1407.25
486.209	1401.25
486.427	1383.25
486.645	1405.25
486.863	1412.25
487.081	1422.25
487.299	1390.25
487.517	1426.25
487.735	1405.25
487.953	1364.25
488.171	1411.25
488.389	1381.25
488.607	1431.25
488.825	1405.25
489.043	1372.25
489.261	1400.25
489.479	1391.25
489.696	1401.25
489.914	1417.25
490.132	1395.25
490.35	1383.25
490.568	1386.25
490.786	1428.25
491.003	1439.25
491.221	1433.25
491.439	1453.25
491.657	1413.25
491.874	1420.25
492.092	1447.25
492.31	1471.25
492.527	1465.25
492.745	1455.25
492.963	1450.25
493.18	1455.25
493.398	1470.25
493.615	1486.25
493.833	1463.25
494.05	1489.25
494.268	1436.25
494.485	1471.25
494.703	1457.25
494.92	1528.25
495.138	1492.25
495.355	1481.25
495.573	1472.25
495.79	1536.25
496.008	1509.25
496.225	1548.25
496.442	1572.25
496.66	1561.25
496.877	1567.25
497.094	1605.25
497.312	1622.25
497.529	1635.25
497.746	1655.25
497.963	1710.25
498.181	1764.25
498.398	1792.25
498.615	1854.25
498.832	1929.25
499.049	1997.25
499.267	2080.25
499.484	2180.25
499.701	2278.25
499.918	2363.25
500.135	2507.25
500.352	2629.25
500.569	2691.25
500.786	2654.25
501.003	2635.25
501.22	2449.25
501.437	2337.25
501.654	2242.25
501.871	2177.25
502.088	2055.25
502.305	1928.25
502.522	1914.25
502.739	1887.25
502.956	1815.25
503.172	1736.25
503.389	1669.25
503.606	1666.25
503.823	1629.25
504.04	1621.25
504.256	1604.25
504.473	1593.25
504.69	1572.25
504.907	1542.25
505.123	1542.25
505.34	1459.25
505.557	1433.25
505.773	1396.25
505.99	1407.25
506.207	1388.25
506.423	1341.25
506.64	1396.25
506.856	1361.25
507.073	1331.25
507.289	1292.25
507.506	1249.25
507.722	1305.25
507.939	1265.25
508.155	1261.25
508.372	1266.25
508.588	1252.25
508.805	1258.25
509.021	1230.25
509.238	1186.25
509.454	1169.25
509.67	1213.25
509.887	1205.25
510.103	1196.25
510.319	1195.25
510.536	1185.25
510.752	1163.25
510.968	1179.25
511.184	1186.25
511.401	1165.25
511.617	1162.25
511.833	1154.25
512.049	1143.25
512.265	1154.25
512.481	1183.25
512.698	1162.25
512.914	1174.25
513.13	1172.25
513.346	1155.25
513.562	1150.25
513.778	1166.25
513.994	1162.25
514.21	1194.25
514.426	1155.25
514.642	1147.25
514.858	1154.25
515.074	1195.25
515.29	1207.25
515.506	1211.25
515.721	1235.25
515.937	1216.25
516.153	1228.25
516.369	1235.25
516.585	1244.25
516.801	1265.25
517.016	1300.25
517.232	1341.25
517.448	1353.25
517.664	1335.25
517.879	1342.25
518.095	1317.25
518.311	1313.25
518.527	1292.25
518.742	1285.25
518.958	1318.25
519.173	1259.25
519.389	1230.25
519.605	1221.25
519.82	1221.25
520.036	1234.25
520.251	1218.25
520.467	1163.25
520.682	1169.25
520.898	1135.25
521.113	1117.25
521.329	1123.25
521.544	1132.25
521.76	1119.25
521.975	1121.25
522.19	1079.25
522.406	1090.25
522.621	1119.25
522.836	1122.25
523.052	1071.25
523.267	1075.25
523.482	1036.25
523.698	1068.25
523.913	1076.25
524.128	1096.25
524.343	1067.25
524.559	1031.25
524.774	1012.25
524.989	1043.25
525.204	1046.25
525.419	1062.25
525.634	1037.25
525.849	1053.25
526.064	1034.25
526.28	1057.25
526.495	1091.25
526.71	1093.25
526.925	1028.25
527.14	1028.25
527.355	1011.25
527.57	1023.25
527.785	1042.25
527.999	1019.25
528.214	1017.25
528.429	1009.25
528.644	1045.25
528.859	995.25
529.074	988.25
529.289	1048.25
529.503	982.25
529.718	1010.25
529.933	996.25
530.148	1019.25
530.363	1025.25
530.577	1009.25
530.792	1016.25
531.007	1020.25
531.221	1009.25
531.436	982.25
531.651	987.25
531.865	994.25
532.08	993.25
532.295	962.25
532.509	988.25
532.724	1000.25
532.938	987.25
533.153	993.25
533.367	997.25
533.582	989.25
533.796	987.25
534.011	967.25
534.225	962.25
534.44	964.25
534.654	967.25
534.868	963.25
535.083	929.25
535.297	940.25
535.511	952.25
535.726	971.25
535.94	923.25
536.154	953.25
536.369	972.25
536.583	929.25
536.797	917.25
537.011	929.25
537.225	959.25
537.44	940.25
537.654	959.25
537.868	909.25
538.082	928.25
538.296	922.25
538.51	941.25
538.724	917.25
538.938	922.25
539.153	894.25
539.367	924.25
539.581	927.25
539.795	895.25
540.009	916.25
540.222	902.25
540.436	884.25
540.65	911.25
540.864	907.25
541.078	883.25
541.292	916.25
541.506	903.25
541.72	908.25
541.934	880.25
542.147	916.25
542.361	903.25
542.575	891.25
542.789	872.25
543.002	903.25
543.216	907.25
543.43	887.25
543.644	864.25
543.857	872.25
544.071	877.25
544.285	863.25
544.498	879.25
544.712	901.25
544.925	890.25
545.139	869.25
545.352	900.25
545.566	897.25
545.779	887.25
545.993	908.25
546.206	877.25
546.42	891.25
546.633	905.25
546.847	893.25
547.06	891.25
547.274	898.25
547.487	894.25
547.7	877.25
547.914	892.25
548.127	919.25
548.34	913.25
548.554	889.25
548.767	924.25
548.98	922.25
549.193	907.25
549.407	915.25
549.62	882.25
549.833	908.25
550.046	905.25
550.259	917.25
550.473	893.25
550.686	901.25
550.899	896.25
551.112	881.25
551.325	872.25
551.538	895.25
551.751	884.25
551.964	885.25
552.177	898.25
552.39	880.25
552.603	916.25
552.816	921.25
553.029	915.25
553.242	897.25
553.455	913.25
553.667	925.25
553.88	928.25
554.093	862.25
554.306	876.25
554.519	876.25
554.732	866.25
554.944	852.25
555.157	852.25
555.37	841.25
555.583	847.25
555.795	860.25
556.008	825.25
556.221	820.25
556.433	804.25
556.646	802.25
556.859	820.25
557.071	791.25
557.284	795.25
557.496	760.25
557.709	785.25
557.921	792.25
558.134	793.25
558.346	795.25
558.559	752.25
558.771	760.25
558.984	777.25
559.196	782.25
559.409	753.25
559.621	767.25
559.833	747.25
560.046	742.25
560.258	753.25
560.47	740.25
560.683	736.25
560.895	771.25
561.107	763.25
561.32	739.25
561.532	741.25
561.744	752.25
561.956	760.25
562.168	756.25
562.381	746.25
562.593	765.25
562.805	787.25
563.017	767.25
563.229	780.25
563.441	783.25
563.653	775.25
563.865	764.25
564.077	781.25
564.289	785.25
564.501	788.25
564.713	815.25
564.925	809.25
565.137	836.25
565.349	834.25
565.561	830.25
565.773	855.25
565.985	866.25
566.197	901.25
566.408	951.25
566.62	945.25
566.832	944.25
567.044	965.25
567.255	1004.25
567.467	970.25
567.679	1003.25
567.891	1008.25
568.102	1017.25
568.314	985.25
568.526	973.25
568.737	925.25
568.949	860.25
569.161	827.25
569.372	813.25
569.584	797.25
569.795	790.25
570.007	783.25
570.218	779.25
570.43	750.25
570.641	734.25
570.853	731.25
571.064	717.25
571.276	714.25
571.487	706.25
571.698	685.25
571.91	710.25
572.121	672.25
572.333	662.25
572.544	682.25
572.755	657.25
572.966	632.25
573.178	656.25
573.389	636.25
573.6	619.25
573.811	620.25
574.023	618.25
574.234	640.25
574.445	623.25
574.656	604.25
574.867	613.25
575.078	616.25
575.289	619.25
575.501	596.25
575.712	581.25
575.923	606.25
576.134	614.25
576.345	583.25
576.556	579.25
576.767	589.25
576.978	583.25
577.188	564.25
577.399	575.25
577.61	577.25
577.821	565.25
578.032	564.25
578.243	549.25
578.454	542.25
578.665	556.25
578.875	587.25
579.086	569.25
579.297	566.25
579.508	559.25
579.718	548.25
579.929	535.25
580.14	532.25
580.35	516.25
580.561	551.25
580.772	538.25
580.982	516.25
581.193	515.25
581.403	532.25
581.614	526.25
581.825	523.25
582.035	507.25
582.246	531.25
582.456	518.25
582.667	519.25
582.877	513.25
583.087	521.25
583.298	506.25
583.508	499.25
583.719	500.25
583.929	492.25
584.139	495.25
584.35	489.25
584.56	505.25
584.77	500.25
584.981	491.25
585.191	519.25
585.401	499.25
585.611	497.25
585.821	507.25
586.032	521.25
586.242	492.25
586.452	489.25
586.662	487.25
586.872	495.25
587.082	463.25
587.292	499.25
587.502	471.25
587.713	486.25
587.923	481.25
588.133	511.25
588.343	500.25
588.553	480.25
588.762	492.25
588.972	493.25
589.182	517.25
589.392	524.25
589.602	490.25
589.812	508.25
590.022	491.25
590.232	510.25
590.441	500.25
590.651	498.25
590.861	488.25
591.071	511.25
591.281	506.25
591.49	483.25
591.7	493.25
591.91	492.25
592.119	515.25
592.329	539.25
592.539	514.25
592.748	534.25
592.958	539.25
593.167	516.25
593.377	525.25
593.587	545.25
593.796	518.25
594.006	504.25
594.215	538.25
594.424	524.25
594.634	539.25
594.843	511.25
595.053	491.25
595.262	475.25
595.472	482.25
595.681	496.25
595.89	462.25
596.1	459.25
596.309	453.25
596.518	463.25
596.727	451.25
596.937	448.25
597.146	443.25
597.355	451.25
597.564	455.25
597.774	445.25
597.983	413.25
598.192	420.25
598.401	435.25
598.61	450.25
598.819	422.25
599.028	412.25
599.237	429.25
599.446	413.25
599.655	411.25
599.864	412.25
600.073	409.25
600.282	424.25
600.491	413.25
600.7	394.25
600.909	389.25
601.118	386.25
601.327	403.25
601.536	389.25
601.745	413.25
601.953	403.25
602.162	391.25
602.371	407.25
602.58	389.25
602.789	377.25
602.997	385.25
603.206	405.25
603.415	379.25
603.623	386.25
603.832	379.25
604.041	391.25
604.249	368.25
604.458	375.25
604.666	361.25
604.875	394.25
605.084	376.25
605.292	379.25
605.501	386.25
605.709	355.25
605.918	376.25
606.126	361.25
606.334	375.25
606.543	351.25
606.751	376.25
606.96	365.25
607.168	387.25
607.376	392.25
607.585	379.25
607.793	365.25
608.001	381.25
608.21	380.25
608.418	367.25
608.626	359.25
608.834	375.25
609.043	369.25
609.251	368.25
609.459	352.25
609.667	357.25
609.875	360.25
610.083	362.25
610.291	370.25
610.499	367.25
610.707	358.25
610.916	365.25
611.124	348.25
611.332	371.25
611.54	360.25
611.748	351.25
611.955	337.25
612.163	362.25
612.371	338.25
612.579	361.25
612.787	351.25
612.995	360.25
613.203	338.25
613.411	337.25
613.618	356.25
613.826	381.25
614.034	333.25
614.242	363.25
614.449	345.25
614.657	348.25
614.865	346.25
615.072	347.25
615.28	343.25
615.488	349.25
615.695	354.25
615.903	347.25
616.111	356.25
616.318	354.25
616.526	333.25
616.733	327.25
616.941	332.25
617.148	342.25
617.356	344.25
617.563	326.25
617.771	333.25
617.978	315.25
618.185	344.25
618.393	333.25
618.6	343.25
618.807	358.25
619.015	325.25
619.222	354.25
619.429	337.25
619.637	312.25
619.844	340.25
620.051	329.25
620.258	327.25
620.466	328.25
620.673	324.25
620.88	333.25
621.087	327.25
621.294	321.25
621.501	318.25
621.708	336.25
621.915	312.25
622.122	330.25
622.329	317.25
622.536	339.25
622.743	315.25
622.95	312.25
623.157	327.25
623.364	319.25
623.571	309.25
623.778	316.25
623.985	297.25
624.192	305.25
624.399	296.25
624.606	329.25
624.812	307.25
625.019	314.25
625.226	285.25
625.433	313.25
625.639	303.25
625.846	301.25
626.053	290.25
626.259	307.25
626.466	297.25
626.673	291.25
626.879	308.25
627.086	309.25
627.293	285.25
627.499	313.25
627.706	283.25
627.912	288.25
628.119	278.25
628.325	293.25
628.532	296.25
628.738	296.25
628.945	295.25
629.151	284.25
629.357	279.25
629.564	296.25
629.77	274.25
629.976	277.25
630.183	257.25
630.389	279.25
630.595	279.25
630.802	272.25
631.008	294.25
631.214	279.25
631.42	287.25
631.627	270.25
631.833	283.25
632.039	287.25
632.245	280.25
632.451	273.25
632.657	265.25
632.863	269.25
633.069	277.25
633.275	254.25
633.481	259.25
633.688	252.25
633.893	287.25
634.099	261.25
634.305	283.25
634.511	265.25
634.717	269.25
634.923	263.25
635.129	251.25
635.335	265.25
635.541	269.25
635.747	278.25
635.952	269.25
636.158	256.25
636.364	277.25
636.57	253.25
636.775	266.25
636.981	258.25
637.187	257.25
637.392	260.25
637.598	242.25
637.804	255.25
638.009	251.25
638.215	259.25
638.421	269.25
638.626	253.25
638.832	239.25
639.037	266.25
639.243	265.25
639.448	263.25
639.654	243.25
639.859	255.25
640.065	260.25
640.27	258.25
640.475	259.25
640.681	242.25
640.886	261.25
641.091	264.25
641.297	262.25
641.502	243.25
641.707	231.25
641.913	232.25
642.118	242.25
642.323	226.25
642.528	248.25
642.733	237.25
642.939	241.25
643.144	248.25
643.349	259.25
643.554	248.25
643.759	260.25
643.964	243.25
644.169	252.25
644.374	244.25
644.579	246.25
644.784	251.25
644.989	231.25
645.194	253.25
645.399	233.25
645.604	249.25
645.809	255.25
646.014	251.25
646.219	250.25
646.423	256.25
646.628	261.25
646.833	245.25
647.038	253.25
647.243	249.25
647.447	249.25
647.652	246.25
647.857	258.25
648.062	261.25
648.266	270.25
648.471	259.25
648.676	258.25
648.88	263.25
649.085	287.25
649.289	252.25
649.494	259.25
649.698	261.25
649.903	248.25
650.107	252.25
650.312	267.25
650.516	245.25
650.721	253.25
650.925	247.25
651.13	259.25
651.334	245.25
651.539	253.25
651.743	243.25
651.947	228.25
652.152	241.25
652.356	245.25
652.56	227.25
652.764	236.25
652.969	240.25
653.173	218.25
653.377	232.25
653.581	250.25
653.785	238.25
653.99	229.25
654.194	215.25
654.398	243.25
654.602	243.25
654.806	226.25
655.01	239.25
655.214	227.25
655.418	239.25
655.622	224.25
655.826	221.25
656.03	240.25
656.234	232.25
656.438	244.25
656.642	232.25
656.846	232.25
657.049	228.25
657.253	189.25
657.457	183.25
657.661	179.25
657.865	179.25
658.068	165.25
658.272	164.25
658.476	154.25
658.68	144.25
658.883	152.25
659.087	139.25
659.291	149.25
659.494	133.25
659.698	128.25
659.901	110.25
660.105	122.25
660.309	99.25
660.512	102.25
660.716	108.25
660.919	99.25
661.123	102.25
661.326	105.25
661.53	103.25
661.733	102.25
661.936	101.25
662.14	110.25
662.343	96.25
662.546	84.25
662.75	84.25
662.953	112.25
663.156	92.25
663.36	87.25
663.563	102.25
663.766	83.25
663.969	91.25
664.173	71.25
664.376	91.25
664.579	72.25
664.782	68.25
664.985	84.25
665.188	84.25
665.391	76.25
665.594	68.25
665.797	85.25
666	87.25
666.203	85.25
666.406	75.25
666.609	79.25
666.812	86.25
667.015	85.25
667.218	66.25
667.421	83.25
667.624	71.25
667.827	69.25
668.03	80.25
668.232	89.25
668.435	71.25
668.638	86.25
668.841	95.25
669.043	74.25
669.246	74.25
669.449	73.25
669.651	76.25
669.854	73.25
670.057	78.25
670.259	88.25
670.462	86.25
670.665	80.25
670.867	85.25
671.07	88.25
671.272	90.25
671.475	75.25
671.677	71.25
671.88	74.25
672.082	88.25
672.284	87.25
672.487	91.25
672.689	76.25
672.892	80.25
