Data from Fe(NO3)3@0.05M.TitratingCurve.Agarose3%dH2O.NegLispCup.LampEnergy10.LIBS07252019_HRD10591_16-46-11-334.txt Node
Date: Thu Jul 25 16:46:11 EDT 2019
User: cochatt
Spectrometer: HR+D1059
Trigger mode: 1
Integration Time (sec): 1.000000E-1
Scans to average: 1
Electric dark correction enabled: true
Nonlinearity correction enabled: false
Boxcar width: 0
XAxis mode: Wavelengths
Number of Pixels in Spectrum: 2048
>>>>>Begin Spectral Data<<<<<
223.165	-20.94
223.4	-20.94
223.635	-20.94
223.869	-24.94
224.104	0.06
224.338	-20.94
224.573	-6.94
224.808	-21.94
225.042	-3.94
225.277	-1.94
225.511	-24.94
225.746	0.06
225.98	7.06
226.215	13.06
226.449	12.06
226.683	20.06
226.918	42.06
227.152	32.06
227.387	22.06
227.621	43.06
227.856	52.06
228.09	39.06
228.324	50.06
228.559	60.06
228.793	84.06
229.027	116.06
229.262	148.06
229.496	126.06
229.73	145.06
229.964	153.06
230.199	149.06
230.433	156.06
230.667	150.06
230.901	162.06
231.136	172.06
231.37	162.06
231.604	178.06
231.838	165.06
232.072	170.06
232.306	160.06
232.541	174.06
232.775	167.06
233.009	178.06
233.243	183.06
233.477	174.06
233.711	197.06
233.945	188.06
234.179	195.06
234.413	201.06
234.647	195.06
234.881	226.06
235.115	220.06
235.349	212.06
235.583	212.06
235.817	192.06
236.051	201.06
236.285	209.06
236.519	222.06
236.753	229.06
236.987	204.06
237.221	219.06
237.455	229.06
237.689	217.06
237.922	213.06
238.156	245.06
238.39	249.06
238.624	284.06
238.858	259.06
239.091	233.06
239.325	253.06
239.559	256.06
239.793	273.06
240.027	294.06
240.26	264.06
240.494	266.06
240.728	265.06
240.961	297.06
241.195	285.06
241.429	284.06
241.662	273.06
241.896	245.06
242.13	250.06
242.363	260.06
242.597	266.06
242.83	274.06
243.064	265.06
243.298	272.06
243.531	276.06
243.765	289.06
243.998	299.06
244.232	297.06
244.465	280.06
244.699	269.06
244.932	301.06
245.166	301.06
245.399	276.06
245.633	293.06
245.866	293.06
246.099	323.06
246.333	317.06
246.566	323.06
246.8	309.06
247.033	345.06
247.266	330.06
247.5	330.06
247.733	323.06
247.966	324.06
248.2	329.06
248.433	330.06
248.666	354.06
248.899	353.06
249.133	341.06
249.366	369.06
249.599	409.06
249.832	374.06
250.066	348.06
250.299	372.06
250.532	345.06
250.765	357.06
250.998	348.06
251.231	364.06
251.465	364.06
251.698	359.06
251.931	369.06
252.164	360.06
252.397	366.06
252.63	386.06
252.863	411.06
253.096	406.06
253.329	395.06
253.562	402.06
253.795	422.06
254.028	442.06
254.261	473.06
254.494	429.06
254.727	412.06
254.96	398.06
255.193	409.06
255.426	419.06
255.659	388.06
255.892	389.06
256.124	395.06
256.357	409.06
256.59	446.06
256.823	411.06
257.056	428.06
257.289	399.06
257.521	404.06
257.754	430.06
257.987	429.06
258.22	412.06
258.452	407.06
258.685	452.06
258.918	466.06
259.151	467.06
259.383	461.06
259.616	471.06
259.849	511.06
260.081	578.06
260.314	633.06
260.547	529.06
260.779	496.06
261.012	530.06
261.244	500.06
261.477	529.06
261.71	530.06
261.942	503.06
262.175	478.06
262.407	488.06
262.64	503.06
262.872	526.06
263.105	517.06
263.337	571.06
263.57	545.06
263.802	477.06
264.035	466.06
264.267	490.06
264.499	451.06
264.732	459.06
264.964	466.06
265.197	476.06
265.429	457.06
265.661	453.06
265.894	488.06
266.126	489.06
266.358	493.06
266.591	501.06
266.823	512.06
267.055	514.06
267.287	486.06
267.52	523.06
267.752	513.06
267.984	496.06
268.216	483.06
268.448	522.06
268.681	500.06
268.913	514.06
269.145	516.06
269.377	532.06
269.609	514.06
269.841	510.06
270.073	508.06
270.306	520.06
270.538	514.06
270.77	537.06
271.002	548.06
271.234	534.06
271.466	554.06
271.698	564.06
271.93	562.06
272.162	587.06
272.394	574.06
272.626	572.06
272.858	575.06
273.09	610.06
273.322	584.06
273.553	577.06
273.785	622.06
274.017	653.06
274.249	724.06
274.481	705.06
274.713	708.06
274.945	779.06
275.176	780.06
275.408	736.06
275.64	729.06
275.872	733.06
276.104	664.06
276.335	616.06
276.567	594.06
276.799	599.06
277.031	606.06
277.262	632.06
277.494	631.06
277.726	618.06
277.957	608.06
278.189	628.06
278.421	624.06
278.652	627.06
278.884	632.06
279.115	613.06
279.347	624.06
279.579	631.06
279.81	622.06
280.042	592.06
280.273	636.06
280.505	645.06
280.736	631.06
280.968	617.06
281.199	621.06
281.431	634.06
281.662	652.06
281.894	631.06
282.125	632.06
282.356	642.06
282.588	660.06
282.819	631.06
283.051	646.06
283.282	630.06
283.513	667.06
283.745	676.06
283.976	655.06
284.207	666.06
284.439	681.06
284.67	674.06
284.901	668.06
285.132	690.06
285.364	684.06
285.595	660.06
285.826	674.06
286.057	699.06
286.288	673.06
286.52	658.06
286.751	653.06
286.982	682.06
287.213	690.06
287.444	681.06
287.675	704.06
287.906	704.06
288.138	679.06
288.369	694.06
288.6	694.06
288.831	682.06
289.062	717.06
289.293	700.06
289.524	693.06
289.755	683.06
289.986	676.06
290.217	698.06
290.448	700.06
290.679	686.06
290.91	696.06
291.141	674.06
291.371	689.06
291.602	718.06
291.833	682.06
292.064	714.06
292.295	719.06
292.526	710.06
292.757	686.06
292.987	704.06
293.218	704.06
293.449	727.06
293.68	725.06
293.91	737.06
294.141	692.06
294.372	711.06
294.603	721.06
294.833	721.06
295.064	712.06
295.295	738.06
295.525	708.06
295.756	740.06
295.987	712.06
296.217	734.06
296.448	744.06
296.679	746.06
296.909	721.06
297.14	734.06
297.37	736.06
297.601	746.06
297.831	737.06
298.062	732.06
298.292	723.06
298.523	767.06
298.753	766.06
298.984	768.06
299.214	741.06
299.445	750.06
299.675	742.06
299.905	769.06
300.136	746.06
300.366	796.06
300.597	788.06
300.827	789.06
301.057	770.06
301.288	796.06
301.518	764.06
301.748	801.06
301.979	824.06
302.209	822.06
302.439	830.06
302.669	839.06
302.9	823.06
303.13	794.06
303.36	801.06
303.59	787.06
303.82	802.06
304.051	805.06
304.281	794.06
304.511	813.06
304.741	785.06
304.971	810.06
305.201	816.06
305.431	776.06
305.661	799.06
305.891	835.06
306.121	814.06
306.352	805.06
306.582	818.06
306.812	806.06
307.042	820.06
307.272	824.06
307.502	797.06
307.731	806.06
307.961	820.06
308.191	802.06
308.421	800.06
308.651	817.06
308.881	825.06
309.111	770.06
309.341	817.06
309.571	813.06
309.8	817.06
310.03	842.06
310.26	841.06
310.49	813.06
310.72	839.06
310.949	814.06
311.179	839.06
311.409	837.06
311.639	865.06
311.868	853.06
312.098	836.06
312.328	867.06
312.557	852.06
312.787	842.06
313.017	852.06
313.246	864.06
313.476	851.06
313.706	865.06
313.935	872.06
314.165	848.06
314.394	881.06
314.624	872.06
314.853	892.06
315.083	875.06
315.312	876.06
315.542	864.06
315.771	896.06
316.001	889.06
316.23	898.06
316.46	903.06
316.689	887.06
316.919	866.06
317.148	893.06
317.377	900.06
317.607	894.06
317.836	873.06
318.065	899.06
318.295	875.06
318.524	914.06
318.753	936.06
318.983	889.06
319.212	892.06
319.441	869.06
319.67	890.06
319.9	901.06
320.129	898.06
320.358	892.06
320.587	891.06
320.816	920.06
321.046	917.06
321.275	938.06
321.504	920.06
321.733	916.06
321.962	909.06
322.191	908.06
322.42	912.06
322.649	925.06
322.878	931.06
323.108	950.06
323.337	931.06
323.566	957.06
323.795	936.06
324.024	965.06
324.253	941.06
324.482	947.06
324.71	945.06
324.939	964.06
325.168	947.06
325.397	945.06
325.626	929.06
325.855	949.06
326.084	950.06
326.313	981.06
326.542	955.06
326.77	978.06
326.999	943.06
327.228	962.06
327.457	960.06
327.686	967.06
327.914	975.06
328.143	979.06
328.372	960.06
328.6	968.06
328.829	973.06
329.058	964.06
329.287	968.06
329.515	985.06
329.744	950.06
329.972	968.06
330.201	1013.06
330.43	979.06
330.658	1013.06
330.887	1022.06
331.115	1022.06
331.344	1016.06
331.572	992.06
331.801	1044.06
332.03	1028.06
332.258	1034.06
332.486	1032.06
332.715	1040.06
332.943	1069.06
333.172	1064.06
333.4	1090.06
333.629	1078.06
333.857	1122.06
334.085	1106.06
334.314	1114.06
334.542	1137.06
334.771	1148.06
334.999	1105.06
335.227	1132.06
335.455	1142.06
335.684	1114.06
335.912	1094.06
336.14	1108.06
336.369	1142.06
336.597	1115.06
336.825	1094.06
337.053	1141.06
337.281	1082.06
337.51	1097.06
337.738	1114.06
337.966	1094.06
338.194	1061.06
338.422	1077.06
338.65	1091.06
338.878	1051.06
339.106	1054.06
339.334	1041.06
339.562	1066.06
339.79	1057.06
340.018	1071.06
340.246	1063.06
340.474	1078.06
340.702	1043.06
340.93	1038.06
341.158	1064.06
341.386	1068.06
341.614	1043.06
341.842	1055.06
342.07	1026.06
342.298	1042.06
342.526	1048.06
342.754	1065.06
342.981	1056.06
343.209	1048.06
343.437	1059.06
343.665	1075.06
343.893	1130.06
344.12	1142.06
344.348	1121.06
344.576	1116.06
344.804	1093.06
345.031	1080.06
345.259	1075.06
345.487	1047.06
345.714	1067.06
345.942	1056.06
346.17	1050.06
346.397	1026.06
346.625	1035.06
346.853	1022.06
347.08	1007.06
347.308	1029.06
347.535	1044.06
347.763	997.06
347.99	982.06
348.218	988.06
348.445	1017.06
348.673	1001.06
348.9	1033.06
349.128	1000.06
349.355	1013.06
349.583	998.06
349.81	981.06
350.037	981.06
350.265	990.06
350.492	1023.06
350.72	1013.06
350.947	1004.06
351.174	1007.06
351.402	1003.06
351.629	988.06
351.856	1005.06
352.083	990.06
352.311	979.06
352.538	987.06
352.765	988.06
352.992	993.06
353.22	964.06
353.447	944.06
353.674	959.06
353.901	1013.06
354.128	991.06
354.355	983.06
354.583	978.06
354.81	958.06
355.037	1003.06
355.264	1008.06
355.491	997.06
355.718	1011.06
355.945	987.06
356.172	987.06
356.399	978.06
356.626	1003.06
356.853	1026.06
357.08	1010.06
357.307	1041.06
357.534	996.06
357.761	1018.06
357.988	1002.06
358.215	1002.06
358.441	1021.06
358.668	1017.06
358.895	990.06
359.122	988.06
359.349	984.06
359.576	974.06
359.802	1008.06
360.029	980.06
360.256	991.06
360.483	984.06
360.709	993.06
360.936	1034.06
361.163	1023.06
361.39	1009.06
361.616	1012.06
361.843	1002.06
362.07	1030.06
362.296	1009.06
362.523	1016.06
362.749	1008.06
362.976	1000.06
363.203	1002.06
363.429	1038.06
363.656	992.06
363.882	998.06
364.109	1051.06
364.335	1000.06
364.562	1015.06
364.788	1030.06
365.015	1037.06
365.241	1048.06
365.468	1035.06
365.694	1001.06
365.92	1006.06
366.147	1017.06
366.373	1040.06
366.599	1041.06
366.826	1042.06
367.052	1039.06
367.278	1031.06
367.505	1028.06
367.731	1039.06
367.957	1037.06
368.184	1055.06
368.41	1055.06
368.636	1076.06
368.862	1074.06
369.089	1070.06
369.315	1076.06
369.541	1065.06
369.767	1056.06
369.993	1080.06
370.219	1064.06
370.445	1063.06
370.672	1076.06
370.898	1084.06
371.124	1094.06
371.35	1107.06
371.576	1061.06
371.802	1127.06
372.028	1108.06
372.254	1142.06
372.48	1136.06
372.706	1133.06
372.932	1128.06
373.158	1131.06
373.384	1146.06
373.61	1152.06
373.835	1160.06
374.061	1159.06
374.287	1151.06
374.513	1141.06
374.739	1178.06
374.965	1202.06
375.191	1217.06
375.416	1163.06
375.642	1164.06
375.868	1186.06
376.094	1160.06
376.319	1151.06
376.545	1160.06
376.771	1140.06
376.997	1147.06
377.222	1128.06
377.448	1103.06
377.674	1125.06
377.899	1090.06
378.125	1095.06
378.35	1112.06
378.576	1099.06
378.802	1121.06
379.027	1144.06
379.253	1107.06
379.478	1108.06
379.704	1145.06
379.929	1100.06
380.155	1108.06
380.38	1106.06
380.606	1111.06
380.831	1111.06
381.057	1140.06
381.282	1116.06
381.507	1120.06
381.733	1162.06
381.958	1157.06
382.184	1163.06
382.409	1206.06
382.634	1197.06
382.86	1202.06
383.085	1172.06
383.31	1171.06
383.535	1206.06
383.761	1207.06
383.986	1213.06
384.211	1253.06
384.436	1257.06
384.662	1208.06
384.887	1268.06
385.112	1245.06
385.337	1269.06
385.562	1236.06
385.787	1255.06
386.013	1324.06
386.238	1257.06
386.463	1277.06
386.688	1292.06
386.913	1317.06
387.138	1293.06
387.363	1322.06
387.588	1271.06
387.813	1282.06
388.038	1330.06
388.263	1305.06
388.488	1307.06
388.713	1320.06
388.938	1299.06
389.163	1304.06
389.387	1332.06
389.612	1314.06
389.837	1309.06
390.062	1304.06
390.287	1325.06
390.512	1312.06
390.736	1324.06
390.961	1345.06
391.186	1362.06
391.411	1386.06
391.636	1348.06
391.86	1393.06
392.085	1393.06
392.31	1386.06
392.534	1383.06
392.759	1402.06
392.984	1362.06
393.208	1359.06
393.433	1359.06
393.658	1355.06
393.882	1375.06
394.107	1352.06
394.331	1372.06
394.556	1351.06
394.78	1386.06
395.005	1395.06
395.229	1346.06
395.454	1375.06
395.678	1377.06
395.903	1393.06
396.127	1422.06
396.352	1422.06
396.576	1397.06
396.801	1393.06
397.025	1441.06
397.249	1443.06
397.474	1462.06
397.698	1441.06
397.922	1487.06
398.147	1501.06
398.371	1499.06
398.595	1537.06
398.82	1533.06
399.044	1612.06
399.268	1638.06
399.492	1684.06
399.717	1805.06
399.941	1827.06
400.165	1751.06
400.389	1755.06
400.613	1696.06
400.837	1668.06
401.062	1629.06
401.286	1584.06
401.51	1569.06
401.734	1565.06
401.958	1568.06
402.182	1529.06
402.406	1558.06
402.63	1538.06
402.854	1569.06
403.078	1597.06
403.302	1584.06
403.526	1554.06
403.75	1537.06
403.974	1570.06
404.198	1592.06
404.422	1554.06
404.645	1569.06
404.869	1619.06
405.093	1595.06
405.317	1604.06
405.541	1615.06
405.765	1618.06
405.988	1624.06
406.212	1640.06
406.436	1653.06
406.66	1682.06
406.883	1687.06
407.107	1756.06
407.331	1768.06
407.555	1777.06
407.778	1778.06
408.002	1782.06
408.226	1766.06
408.449	1788.06
408.673	1705.06
408.896	1758.06
409.12	1717.06
409.344	1709.06
409.567	1659.06
409.791	1628.06
410.014	1627.06
410.238	1656.06
410.461	1664.06
410.685	1641.06
410.908	1640.06
411.132	1679.06
411.355	1628.06
411.578	1637.06
411.802	1639.06
412.025	1662.06
412.249	1640.06
412.472	1610.06
412.695	1567.06
412.919	1634.06
413.142	1568.06
413.365	1603.06
413.589	1597.06
413.812	1613.06
414.035	1595.06
414.258	1583.06
414.482	1577.06
414.705	1588.06
414.928	1592.06
415.151	1608.06
415.374	1592.06
415.597	1570.06
415.821	1547.06
416.044	1535.06
416.267	1524.06
416.49	1508.06
416.713	1524.06
416.936	1499.06
417.159	1482.06
417.382	1538.06
417.605	1499.06
417.828	1494.06
418.051	1532.06
418.274	1502.06
418.497	1484.06
418.72	1478.06
418.943	1502.06
419.166	1589.06
419.389	1696.06
419.611	1666.06
419.834	1629.06
420.057	1554.06
420.28	1520.06
420.503	1500.06
420.726	1474.06
420.948	1459.06
421.171	1470.06
421.394	1464.06
421.617	1474.06
421.839	1492.06
422.062	1487.06
422.285	1484.06
422.507	1528.06
422.73	1509.06
422.953	1489.06
423.175	1479.06
423.398	1539.06
423.621	1485.06
423.843	1502.06
424.066	1493.06
424.288	1450.06
424.511	1467.06
424.733	1478.06
424.956	1451.06
425.178	1477.06
425.401	1461.06
425.623	1478.06
425.846	1455.06
426.068	1470.06
426.291	1464.06
426.513	1469.06
426.735	1450.06
426.958	1463.06
427.18	1440.06
427.402	1471.06
427.625	1483.06
427.847	1425.06
428.069	1458.06
428.292	1461.06
428.514	1479.06
428.736	1461.06
428.958	1460.06
429.181	1426.06
429.403	1423.06
429.625	1394.06
429.847	1410.06
430.069	1392.06
430.292	1411.06
430.514	1400.06
430.736	1439.06
430.958	1438.06
431.18	1409.06
431.402	1428.06
431.624	1410.06
431.846	1396.06
432.068	1406.06
432.29	1415.06
432.512	1432.06
432.734	1498.06
432.956	1452.06
433.178	1460.06
433.4	1440.06
433.622	1477.06
433.844	1517.06
434.066	1478.06
434.287	1456.06
434.509	1495.06
434.731	1496.06
434.953	1487.06
435.175	1495.06
435.397	1499.06
435.618	1465.06
435.84	1486.06
436.062	1451.06
436.284	1454.06
436.505	1446.06
436.727	1441.06
436.949	1422.06
437.17	1434.06
437.392	1377.06
437.614	1435.06
437.835	1367.06
438.057	1400.06
438.278	1396.06
438.5	1428.06
438.721	1457.06
438.943	1444.06
439.165	1400.06
439.386	1422.06
439.608	1421.06
439.829	1436.06
440.05	1428.06
440.272	1425.06
440.493	1399.06
440.715	1474.06
440.936	1451.06
441.158	1449.06
441.379	1435.06
441.6	1440.06
441.822	1460.06
442.043	1504.06
442.264	1436.06
442.486	1481.06
442.707	1474.06
442.928	1445.06
443.149	1485.06
443.371	1444.06
443.592	1447.06
443.813	1490.06
444.034	1452.06
444.255	1483.06
444.476	1520.06
444.698	1520.06
444.919	1562.06
445.14	1672.06
445.361	1573.06
445.582	1510.06
445.803	1446.06
446.024	1441.06
446.245	1482.06
446.466	1437.06
446.687	1432.06
446.908	1429.06
447.129	1407.06
447.35	1386.06
447.571	1376.06
447.792	1351.06
448.013	1346.06
448.234	1357.06
448.455	1358.06
448.675	1367.06
448.896	1354.06
449.117	1308.06
449.338	1335.06
449.559	1308.06
449.779	1282.06
450	1319.06
450.221	1296.06
450.442	1308.06
450.662	1264.06
450.883	1312.06
451.104	1316.06
451.324	1286.06
451.545	1280.06
451.766	1307.06
451.986	1270.06
452.207	1258.06
452.428	1272.06
452.648	1315.06
452.869	1297.06
453.089	1246.06
453.31	1268.06
453.53	1249.06
453.751	1268.06
453.971	1200.06
454.192	1280.06
454.412	1226.06
454.633	1261.06
454.853	1241.06
455.073	1257.06
455.294	1268.06
455.514	1228.06
455.734	1237.06
455.955	1239.06
456.175	1266.06
456.395	1244.06
456.616	1261.06
456.836	1304.06
457.056	1248.06
457.276	1282.06
457.497	1266.06
457.717	1254.06
457.937	1260.06
458.157	1299.06
458.377	1272.06
458.598	1325.06
458.818	1333.06
459.038	1316.06
459.258	1352.06
459.478	1369.06
459.698	1417.06
459.918	1388.06
460.138	1436.06
460.358	1494.06
460.578	1470.06
460.798	1492.06
461.018	1506.06
461.238	1515.06
461.458	1530.06
461.678	1494.06
461.898	1536.06
462.118	1537.06
462.338	1629.06
462.558	1604.06
462.777	1635.06
462.997	1642.06
463.217	1690.06
463.437	1731.06
463.657	1666.06
463.876	1664.06
464.096	1677.06
464.316	1656.06
464.536	1639.06
464.755	1637.06
464.975	1626.06
465.195	1558.06
465.414	1563.06
465.634	1513.06
465.854	1481.06
466.073	1460.06
466.293	1432.06
466.512	1435.06
466.732	1418.06
466.951	1411.06
467.171	1400.06
467.391	1371.06
467.61	1370.06
467.829	1364.06
468.049	1379.06
468.268	1369.06
468.488	1378.06
468.707	1352.06
468.927	1399.06
469.146	1416.06
469.365	1415.06
469.585	1370.06
469.804	1376.06
470.023	1426.06
470.243	1368.06
470.462	1357.06
470.681	1420.06
470.901	1414.06
471.12	1407.06
471.339	1389.06
471.558	1377.06
471.777	1372.06
471.997	1410.06
472.216	1410.06
472.435	1416.06
472.654	1380.06
472.873	1398.06
473.092	1389.06
473.311	1406.06
473.53	1382.06
473.749	1379.06
473.968	1402.06
474.187	1414.06
474.406	1395.06
474.625	1426.06
474.844	1408.06
475.063	1429.06
475.282	1424.06
475.501	1403.06
475.72	1437.06
475.939	1428.06
476.158	1459.06
476.377	1498.06
476.596	1536.06
476.814	1600.06
477.033	1506.06
477.252	1527.06
477.471	1522.06
477.69	1549.06
477.908	1573.06
478.127	1603.06
478.346	1573.06
478.564	1582.06
478.783	1606.06
479.002	1640.06
479.22	1690.06
479.439	1719.06
479.658	1718.06
479.876	1679.06
480.095	1688.06
480.313	1725.06
480.532	1718.06
480.751	1685.06
480.969	1694.06
481.188	1707.06
481.406	1735.06
481.624	1723.06
481.843	1689.06
482.061	1696.06
482.28	1677.06
482.498	1769.06
482.717	1670.06
482.935	1685.06
483.153	1684.06
483.372	1675.06
483.59	1705.06
483.808	1732.06
484.027	1702.06
484.245	1729.06
484.463	1730.06
484.681	1742.06
484.9	1703.06
485.118	1740.06
485.336	1729.06
485.554	1753.06
485.772	1748.06
485.99	1746.06
486.209	1726.06
486.427	1747.06
486.645	1773.06
486.863	1781.06
487.081	1756.06
487.299	1758.06
487.517	1767.06
487.735	1763.06
487.953	1741.06
488.171	1718.06
488.389	1761.06
488.607	1722.06
488.825	1724.06
489.043	1726.06
489.261	1755.06
489.479	1752.06
489.696	1746.06
489.914	1730.06
490.132	1754.06
490.35	1752.06
490.568	1740.06
490.786	1726.06
491.003	1745.06
491.221	1736.06
491.439	1734.06
491.657	1780.06
491.874	1805.06
492.092	1773.06
492.31	1798.06
492.527	1785.06
492.745	1847.06
492.963	1788.06
493.18	1806.06
493.398	1778.06
493.615	1778.06
493.833	1792.06
494.05	1745.06
494.268	1815.06
494.485	1810.06
494.703	1793.06
494.92	1804.06
495.138	1805.06
495.355	1788.06
495.573	1800.06
495.79	1817.06
496.008	1862.06
496.225	1832.06
496.442	1868.06
496.66	1886.06
496.877	1900.06
497.094	1915.06
497.312	1932.06
497.529	1944.06
497.746	2004.06
497.963	2019.06
498.181	2109.06
498.398	2144.06
498.615	2224.06
498.832	2264.06
499.049	2368.06
499.267	2433.06
499.484	2474.06
499.701	2588.06
499.918	2738.06
500.135	2834.06
500.352	2938.06
500.569	2944.06
500.786	2932.06
501.003	2898.06
501.22	2819.06
501.437	2688.06
501.654	2586.06
501.871	2480.06
502.088	2356.06
502.305	2299.06
502.522	2209.06
502.739	2173.06
502.956	2124.06
503.172	2061.06
503.389	2002.06
503.606	1967.06
503.823	1928.06
504.04	1896.06
504.256	1905.06
504.473	1866.06
504.69	1874.06
504.907	1878.06
505.123	1788.06
505.34	1778.06
505.557	1768.06
505.773	1722.06
505.99	1709.06
506.207	1697.06
506.423	1691.06
506.64	1618.06
506.856	1621.06
507.073	1601.06
507.289	1603.06
507.506	1583.06
507.722	1555.06
507.939	1555.06
508.155	1570.06
508.372	1502.06
508.588	1508.06
508.805	1523.06
509.021	1450.06
509.238	1472.06
509.454	1445.06
509.67	1414.06
509.887	1475.06
510.103	1456.06
510.319	1449.06
510.536	1436.06
510.752	1402.06
510.968	1407.06
511.184	1395.06
511.401	1423.06
511.617	1414.06
511.833	1397.06
512.049	1401.06
512.265	1393.06
512.481	1403.06
512.698	1419.06
512.914	1429.06
513.13	1391.06
513.346	1410.06
513.562	1377.06
513.778	1419.06
513.994	1427.06
514.21	1385.06
514.426	1381.06
514.642	1415.06
514.858	1423.06
515.074	1433.06
515.29	1434.06
515.506	1409.06
515.721	1444.06
515.937	1458.06
516.153	1446.06
516.369	1460.06
516.585	1465.06
516.801	1516.06
517.016	1514.06
517.232	1557.06
517.448	1575.06
517.664	1599.06
517.879	1564.06
518.095	1538.06
518.311	1543.06
518.527	1543.06
518.742	1522.06
518.958	1495.06
519.173	1522.06
519.389	1460.06
519.605	1485.06
519.82	1453.06
520.036	1485.06
520.251	1514.06
520.467	1433.06
520.682	1367.06
520.898	1388.06
521.113	1380.06
521.329	1365.06
521.544	1354.06
521.76	1336.06
521.975	1334.06
522.19	1298.06
522.406	1297.06
522.621	1358.06
522.836	1339.06
523.052	1302.06
523.267	1314.06
523.482	1306.06
523.698	1294.06
523.913	1284.06
524.128	1284.06
524.343	1280.06
524.559	1268.06
524.774	1277.06
524.989	1236.06
525.204	1252.06
525.419	1264.06
525.634	1260.06
525.849	1261.06
526.064	1268.06
526.28	1259.06
526.495	1284.06
526.71	1234.06
526.925	1235.06
527.14	1240.06
527.355	1248.06
527.57	1216.06
527.785	1217.06
527.999	1191.06
528.214	1188.06
528.429	1203.06
528.644	1207.06
528.859	1224.06
529.074	1180.06
529.289	1233.06
529.503	1216.06
529.718	1210.06
529.933	1184.06
530.148	1208.06
530.363	1237.06
530.577	1190.06
530.792	1186.06
531.007	1183.06
531.221	1187.06
531.436	1178.06
531.651	1191.06
531.865	1164.06
532.08	1192.06
532.295	1171.06
532.509	1161.06
532.724	1184.06
532.938	1176.06
533.153	1214.06
533.367	1176.06
533.582	1193.06
533.796	1180.06
534.011	1153.06
534.225	1137.06
534.44	1138.06
534.654	1150.06
534.868	1157.06
535.083	1146.06
535.297	1164.06
535.511	1140.06
535.726	1148.06
535.94	1160.06
536.154	1121.06
536.369	1092.06
536.583	1126.06
536.797	1120.06
537.011	1096.06
537.225	1102.06
537.44	1122.06
537.654	1128.06
537.868	1116.06
538.082	1093.06
538.296	1115.06
538.51	1087.06
538.724	1102.06
538.938	1090.06
539.153	1098.06
539.367	1088.06
539.581	1109.06
539.795	1098.06
540.009	1090.06
540.222	1073.06
540.436	1083.06
540.65	1048.06
540.864	1084.06
541.078	1070.06
541.292	1073.06
541.506	1076.06
541.72	1060.06
541.934	1077.06
542.147	1068.06
542.361	1066.06
542.575	1065.06
542.789	1085.06
543.002	1040.06
543.216	1070.06
543.43	1054.06
543.644	1057.06
543.857	1058.06
544.071	1082.06
544.285	1081.06
544.498	1051.06
544.712	1056.06
544.925	1074.06
545.139	1076.06
545.352	1072.06
545.566	1049.06
545.779	1095.06
545.993	1066.06
546.206	1061.06
546.42	1073.06
546.633	1096.06
546.847	1094.06
547.06	1077.06
547.274	1084.06
547.487	1051.06
547.7	1066.06
547.914	1061.06
548.127	1097.06
548.34	1108.06
548.554	1084.06
548.767	1080.06
548.98	1085.06
549.193	1043.06
549.407	1060.06
549.62	1107.06
549.833	1075.06
550.046	1096.06
550.259	1092.06
550.473	1096.06
550.686	1079.06
550.899	1066.06
551.112	1059.06
551.325	1034.06
551.538	1068.06
551.751	1026.06
551.964	1022.06
552.177	1046.06
552.39	1067.06
552.603	1078.06
552.816	1061.06
553.029	1052.06
553.242	1067.06
553.455	1056.06
553.667	1057.06
553.88	1052.06
554.093	1050.06
554.306	1059.06
554.519	1010.06
554.732	1016.06
554.944	1016.06
555.157	988.06
555.37	962.06
555.583	1011.06
555.795	978.06
556.008	945.06
556.221	966.06
556.433	939.06
556.646	950.06
556.859	935.06
557.071	930.06
557.284	938.06
557.496	959.06
557.709	956.06
557.921	939.06
558.134	918.06
558.346	922.06
558.559	930.06
558.771	904.06
558.984	924.06
559.196	904.06
559.409	918.06
559.621	921.06
559.833	909.06
560.046	878.06
560.258	906.06
560.47	887.06
560.683	879.06
560.895	893.06
561.107	878.06
561.32	866.06
561.532	911.06
561.744	871.06
561.956	901.06
562.168	877.06
562.381	899.06
562.593	894.06
562.805	893.06
563.017	878.06
563.229	875.06
563.441	869.06
563.653	909.06
563.865	910.06
564.077	905.06
564.289	885.06
564.501	911.06
564.713	947.06
564.925	936.06
565.137	952.06
565.349	977.06
565.561	989.06
565.773	995.06
565.985	1034.06
566.197	1032.06
566.408	1060.06
566.62	1058.06
566.832	1109.06
567.044	1109.06
567.255	1120.06
567.467	1128.06
567.679	1125.06
567.891	1148.06
568.102	1100.06
568.314	1104.06
568.526	1067.06
568.737	1049.06
568.949	1019.06
569.161	978.06
569.372	977.06
569.584	939.06
569.795	889.06
570.007	886.06
570.218	891.06
570.43	885.06
570.641	841.06
570.853	842.06
571.064	837.06
571.276	810.06
571.487	816.06
571.698	820.06
571.91	811.06
572.121	788.06
572.333	806.06
572.544	778.06
572.755	774.06
572.966	770.06
573.178	744.06
573.389	730.06
573.6	738.06
573.811	713.06
574.023	726.06
574.234	729.06
574.445	726.06
574.656	706.06
574.867	732.06
575.078	706.06
575.289	688.06
575.501	705.06
575.712	681.06
575.923	660.06
576.134	679.06
576.345	686.06
576.556	685.06
576.767	678.06
576.978	673.06
577.188	667.06
577.399	686.06
577.61	660.06
577.821	648.06
578.032	650.06
578.243	638.06
578.454	645.06
578.665	660.06
578.875	633.06
579.086	637.06
579.297	645.06
579.508	637.06
579.718	642.06
579.929	625.06
580.14	637.06
580.35	633.06
580.561	647.06
580.772	616.06
580.982	612.06
581.193	611.06
581.403	630.06
581.614	617.06
581.825	591.06
582.035	601.06
582.246	610.06
582.456	611.06
582.667	590.06
582.877	592.06
583.087	608.06
583.298	590.06
583.508	579.06
583.719	598.06
583.929	586.06
584.139	604.06
584.35	606.06
584.56	621.06
584.77	633.06
584.981	572.06
585.191	570.06
585.401	585.06
585.611	600.06
585.821	583.06
586.032	582.06
586.242	573.06
586.452	596.06
586.662	579.06
586.872	572.06
587.082	575.06
587.292	572.06
587.502	564.06
587.713	573.06
587.923	569.06
588.133	577.06
588.343	600.06
588.553	568.06
588.762	608.06
588.972	572.06
589.182	615.06
589.392	606.06
589.602	581.06
589.812	574.06
590.022	595.06
590.232	566.06
590.441	573.06
590.651	568.06
590.861	562.06
591.071	572.06
591.281	566.06
591.49	596.06
591.7	579.06
591.91	594.06
592.119	584.06
592.329	579.06
592.539	593.06
592.748	576.06
592.958	597.06
593.167	602.06
593.377	606.06
593.587	613.06
593.796	600.06
594.006	590.06
594.215	601.06
594.424	587.06
594.634	613.06
594.843	603.06
595.053	587.06
595.262	584.06
595.472	583.06
595.681	556.06
595.89	545.06
596.1	543.06
596.309	544.06
596.518	533.06
596.727	525.06
596.937	514.06
597.146	531.06
597.355	506.06
597.564	521.06
597.774	513.06
597.983	490.06
598.192	492.06
598.401	505.06
598.61	488.06
598.819	477.06
599.028	480.06
599.237	479.06
599.446	496.06
599.655	508.06
599.864	483.06
600.073	486.06
600.282	444.06
600.491	472.06
600.7	450.06
600.909	479.06
601.118	464.06
601.327	483.06
601.536	461.06
601.745	461.06
601.953	465.06
602.162	460.06
602.371	466.06
602.58	442.06
602.789	442.06
602.997	451.06
603.206	436.06
603.415	450.06
603.623	442.06
603.832	435.06
604.041	449.06
604.249	458.06
604.458	451.06
604.666	429.06
604.875	438.06
605.084	444.06
605.292	449.06
605.501	437.06
605.709	437.06
605.918	436.06
606.126	450.06
606.334	442.06
606.543	429.06
606.751	436.06
606.96	413.06
607.168	459.06
607.376	443.06
607.585	434.06
607.793	436.06
608.001	432.06
608.21	411.06
608.418	418.06
608.626	420.06
608.834	408.06
609.043	434.06
609.251	432.06
609.459	424.06
609.667	413.06
609.875	410.06
610.083	427.06
610.291	411.06
610.499	407.06
610.707	410.06
610.916	441.06
611.124	421.06
611.332	418.06
611.54	417.06
611.748	422.06
611.955	400.06
612.163	434.06
612.371	401.06
612.579	399.06
612.787	421.06
612.995	393.06
613.203	424.06
613.411	401.06
613.618	394.06
613.826	408.06
614.034	402.06
614.242	398.06
614.449	384.06
614.657	387.06
614.865	406.06
615.072	396.06
615.28	392.06
615.488	405.06
615.695	392.06
615.903	396.06
616.111	391.06
616.318	410.06
616.526	392.06
616.733	380.06
616.941	404.06
617.148	385.06
617.356	396.06
617.563	408.06
617.771	393.06
617.978	397.06
618.185	386.06
618.393	373.06
618.6	389.06
618.807	384.06
619.015	392.06
619.222	384.06
619.429	377.06
619.637	377.06
619.844	382.06
620.051	376.06
620.258	398.06
620.466	363.06
620.673	370.06
620.88	366.06
621.087	369.06
621.294	380.06
621.501	380.06
621.708	376.06
621.915	380.06
622.122	391.06
622.329	365.06
622.536	377.06
622.743	355.06
622.95	375.06
623.157	378.06
623.364	368.06
623.571	364.06
623.778	358.06
623.985	364.06
624.192	356.06
624.399	371.06
624.606	350.06
624.812	352.06
625.019	356.06
625.226	368.06
625.433	348.06
625.639	346.06
625.846	340.06
626.053	375.06
626.259	325.06
626.466	340.06
626.673	344.06
626.879	349.06
627.086	355.06
627.293	344.06
627.499	349.06
627.706	342.06
627.912	324.06
628.119	355.06
628.325	342.06
628.532	331.06
628.738	336.06
628.945	347.06
629.151	332.06
629.357	345.06
629.564	313.06
629.77	317.06
629.976	317.06
630.183	326.06
630.389	318.06
630.595	316.06
630.802	320.06
631.008	313.06
631.214	322.06
631.42	306.06
631.627	317.06
631.833	332.06
632.039	317.06
632.245	304.06
632.451	291.06
632.657	310.06
632.863	328.06
633.069	309.06
633.275	322.06
633.481	290.06
633.688	304.06
633.893	305.06
634.099	288.06
634.305	322.06
634.511	289.06
634.717	282.06
634.923	290.06
635.129	289.06
635.335	291.06
635.541	280.06
635.747	305.06
635.952	296.06
636.158	310.06
636.364	309.06
636.57	281.06
636.775	297.06
636.981	298.06
637.187	304.06
637.392	289.06
637.598	280.06
637.804	293.06
638.009	302.06
638.215	299.06
638.421	310.06
638.626	292.06
638.832	290.06
639.037	304.06
639.243	286.06
639.448	288.06
639.654	300.06
639.859	285.06
640.065	297.06
640.27	293.06
640.475	291.06
640.681	297.06
640.886	283.06
641.091	279.06
641.297	288.06
641.502	279.06
641.707	276.06
641.913	290.06
642.118	289.06
642.323	290.06
642.528	306.06
642.733	280.06
642.939	286.06
643.144	295.06
643.349	291.06
643.554	299.06
643.759	311.06
643.964	292.06
644.169	280.06
644.374	272.06
644.579	270.06
644.784	276.06
644.989	286.06
645.194	288.06
645.399	266.06
645.604	288.06
645.809	282.06
646.014	285.06
646.219	292.06
646.423	284.06
646.628	274.06
646.833	305.06
647.038	298.06
647.243	292.06
647.447	312.06
647.652	295.06
647.857	301.06
648.062	289.06
648.266	292.06
648.471	300.06
648.676	309.06
648.88	317.06
649.085	299.06
649.289	304.06
649.494	305.06
649.698	294.06
649.903	286.06
650.107	310.06
650.312	310.06
650.516	297.06
650.721	300.06
650.925	285.06
651.13	295.06
651.334	276.06
651.539	278.06
651.743	298.06
651.947	306.06
652.152	298.06
652.356	281.06
652.56	289.06
652.764	297.06
652.969	290.06
653.173	279.06
653.377	302.06
653.581	279.06
653.785	280.06
653.99	278.06
654.194	295.06
654.398	268.06
654.602	280.06
654.806	291.06
655.01	290.06
655.214	279.06
655.418	297.06
655.622	307.06
655.826	307.06
656.03	292.06
656.234	312.06
656.438	313.06
656.642	298.06
656.846	284.06
657.049	298.06
657.253	249.06
657.457	241.06
657.661	231.06
657.865	213.06
658.068	213.06
658.272	203.06
658.476	180.06
658.68	187.06
658.883	155.06
659.087	157.06
659.291	164.06
659.494	155.06
659.698	140.06
659.901	146.06
660.105	136.06
660.309	128.06
660.512	135.06
660.716	122.06
660.919	121.06
661.123	125.06
661.326	107.06
661.53	112.06
661.733	115.06
661.936	95.06
662.14	90.06
662.343	116.06
662.546	95.06
662.75	101.06
662.953	89.06
663.156	87.06
663.36	101.06
663.563	83.06
663.766	91.06
663.969	98.06
664.173	92.06
664.376	80.06
664.579	73.06
664.782	80.06
664.985	88.06
665.188	83.06
665.391	88.06
665.594	79.06
665.797	87.06
666	77.06
666.203	77.06
666.406	76.06
666.609	88.06
666.812	87.06
667.015	95.06
667.218	92.06
667.421	83.06
667.624	85.06
667.827	96.06
668.03	84.06
668.232	98.06
668.435	87.06
668.638	82.06
668.841	68.06
669.043	88.06
669.246	90.06
669.449	82.06
669.651	81.06
669.854	94.06
670.057	76.06
670.259	79.06
670.462	74.06
670.665	72.06
670.867	96.06
671.07	85.06
671.272	93.06
671.475	83.06
671.677	81.06
671.88	81.06
672.082	78.06
672.284	73.06
672.487	77.06
672.689	87.06
672.892	90.06
