Data from Fe(NO3)3@0.05M.TitratingCurve.Agarose3%dH2O.NegLispCup.LampEnergy10.LIBS07252019_HRD10591_16-45-53-334.txt Node
Date: Thu Jul 25 16:45:53 EDT 2019
User: cochatt
Spectrometer: HR+D1059
Trigger mode: 1
Integration Time (sec): 1.000000E-1
Scans to average: 1
Electric dark correction enabled: true
Nonlinearity correction enabled: false
Boxcar width: 0
XAxis mode: Wavelengths
Number of Pixels in Spectrum: 2048
>>>>>Begin Spectral Data<<<<<
223.165	-13.56
223.4	-13.56
223.635	-13.56
223.869	-17.56
224.104	-25.56
224.338	-5.56
224.573	-13.56
224.808	-9.56
225.042	-8.56
225.277	-7.56
225.511	-4.56
225.746	2.44
225.98	13.44
226.215	1.44
226.449	15.44
226.683	18.44
226.918	22.44
227.152	32.44
227.387	28.44
227.621	46.44
227.856	26.44
228.09	38.44
228.324	38.44
228.559	59.44
228.793	66.44
229.027	88.44
229.262	101.44
229.496	101.44
229.73	107.44
229.964	119.44
230.199	114.44
230.433	130.44
230.667	124.44
230.901	127.44
231.136	115.44
231.37	121.44
231.604	138.44
231.838	126.44
232.072	135.44
232.306	143.44
232.541	131.44
232.775	146.44
233.009	144.44
233.243	152.44
233.477	150.44
233.711	147.44
233.945	130.44
234.179	147.44
234.413	140.44
234.647	148.44
234.881	157.44
235.115	151.44
235.349	123.44
235.583	165.44
235.817	151.44
236.051	156.44
236.285	129.44
236.519	148.44
236.753	151.44
236.987	151.44
237.221	163.44
237.455	163.44
237.689	167.44
237.922	164.44
238.156	156.44
238.39	185.44
238.624	191.44
238.858	177.44
239.091	167.44
239.325	148.44
239.559	168.44
239.793	180.44
240.027	202.44
240.26	196.44
240.494	170.44
240.728	182.44
240.961	183.44
241.195	195.44
241.429	177.44
241.662	197.44
241.896	171.44
242.13	170.44
242.363	186.44
242.597	164.44
242.83	199.44
243.064	164.44
243.298	184.44
243.531	187.44
243.765	176.44
243.998	203.44
244.232	199.44
244.465	195.44
244.699	196.44
244.932	190.44
245.166	216.44
245.399	194.44
245.633	196.44
245.866	196.44
246.099	213.44
246.333	214.44
246.566	218.44
246.8	208.44
247.033	209.44
247.266	213.44
247.5	222.44
247.733	204.44
247.966	210.44
248.2	226.44
248.433	220.44
248.666	230.44
248.899	212.44
249.133	220.44
249.366	244.44
249.599	240.44
249.832	226.44
250.066	234.44
250.299	227.44
250.532	226.44
250.765	240.44
250.998	225.44
251.231	214.44
251.465	238.44
251.698	231.44
251.931	247.44
252.164	233.44
252.397	242.44
252.63	261.44
252.863	251.44
253.096	276.44
253.329	247.44
253.562	264.44
253.795	271.44
254.028	294.44
254.261	282.44
254.494	292.44
254.727	260.44
254.96	252.44
255.193	266.44
255.426	267.44
255.659	274.44
255.892	267.44
256.124	273.44
256.357	269.44
256.59	274.44
256.823	272.44
257.056	262.44
257.289	274.44
257.521	260.44
257.754	271.44
257.987	294.44
258.22	298.44
258.452	283.44
258.685	266.44
258.918	288.44
259.151	282.44
259.383	290.44
259.616	303.44
259.849	324.44
260.081	330.44
260.314	367.44
260.547	308.44
260.779	302.44
261.012	314.44
261.244	319.44
261.477	331.44
261.71	325.44
261.942	297.44
262.175	298.44
262.407	312.44
262.64	310.44
262.872	319.44
263.105	325.44
263.337	351.44
263.57	341.44
263.802	315.44
264.035	296.44
264.267	295.44
264.499	319.44
264.732	328.44
264.964	310.44
265.197	328.44
265.429	311.44
265.661	294.44
265.894	324.44
266.126	309.44
266.358	321.44
266.591	326.44
266.823	342.44
267.055	323.44
267.287	320.44
267.52	314.44
267.752	326.44
267.984	324.44
268.216	314.44
268.448	327.44
268.681	340.44
268.913	332.44
269.145	341.44
269.377	325.44
269.609	336.44
269.841	329.44
270.073	345.44
270.306	329.44
270.538	329.44
270.77	332.44
271.002	333.44
271.234	334.44
271.466	355.44
271.698	352.44
271.93	324.44
272.162	359.44
272.394	371.44
272.626	385.44
272.858	361.44
273.09	366.44
273.322	358.44
273.553	388.44
273.785	376.44
274.017	397.44
274.249	419.44
274.481	435.44
274.713	437.44
274.945	460.44
275.176	459.44
275.408	453.44
275.64	418.44
275.872	412.44
276.104	402.44
276.335	391.44
276.567	380.44
276.799	392.44
277.031	404.44
277.262	395.44
277.494	398.44
277.726	388.44
277.957	390.44
278.189	402.44
278.421	357.44
278.652	376.44
278.884	395.44
279.115	384.44
279.347	406.44
279.579	401.44
279.81	397.44
280.042	379.44
280.273	391.44
280.505	403.44
280.736	400.44
280.968	405.44
281.199	396.44
281.431	391.44
281.662	398.44
281.894	385.44
282.125	394.44
282.356	402.44
282.588	426.44
282.819	405.44
283.051	414.44
283.282	398.44
283.513	404.44
283.745	435.44
283.976	416.44
284.207	421.44
284.439	408.44
284.67	414.44
284.901	418.44
285.132	407.44
285.364	416.44
285.595	417.44
285.826	403.44
286.057	411.44
286.288	411.44
286.52	419.44
286.751	428.44
286.982	453.44
287.213	437.44
287.444	451.44
287.675	447.44
287.906	441.44
288.138	425.44
288.369	425.44
288.6	454.44
288.831	439.44
289.062	466.44
289.293	419.44
289.524	418.44
289.755	425.44
289.986	437.44
290.217	440.44
290.448	440.44
290.679	432.44
290.91	443.44
291.141	458.44
291.371	456.44
291.602	437.44
291.833	434.44
292.064	465.44
292.295	424.44
292.526	450.44
292.757	423.44
292.987	461.44
293.218	451.44
293.449	452.44
293.68	450.44
293.91	451.44
294.141	461.44
294.372	458.44
294.603	458.44
294.833	448.44
295.064	475.44
295.295	454.44
295.525	452.44
295.756	464.44
295.987	467.44
296.217	464.44
296.448	478.44
296.679	470.44
296.909	464.44
297.14	466.44
297.37	478.44
297.601	484.44
297.831	473.44
298.062	474.44
298.292	479.44
298.523	484.44
298.753	489.44
298.984	479.44
299.214	500.44
299.445	503.44
299.675	480.44
299.905	473.44
300.136	474.44
300.366	490.44
300.597	498.44
300.827	487.44
301.057	507.44
301.288	481.44
301.518	506.44
301.748	510.44
301.979	521.44
302.209	516.44
302.439	522.44
302.669	495.44
302.9	503.44
303.13	520.44
303.36	500.44
303.59	508.44
303.82	510.44
304.051	510.44
304.281	499.44
304.511	496.44
304.741	489.44
304.971	495.44
305.201	516.44
305.431	524.44
305.661	523.44
305.891	498.44
306.121	518.44
306.352	527.44
306.582	506.44
306.812	510.44
307.042	508.44
307.272	509.44
307.502	512.44
307.731	520.44
307.961	488.44
308.191	524.44
308.421	534.44
308.651	520.44
308.881	534.44
309.111	512.44
309.341	529.44
309.571	533.44
309.8	528.44
310.03	516.44
310.26	518.44
310.49	511.44
310.72	517.44
310.949	496.44
311.179	520.44
311.409	511.44
311.639	530.44
311.868	528.44
312.098	522.44
312.328	536.44
312.557	551.44
312.787	540.44
313.017	528.44
313.246	536.44
313.476	540.44
313.706	566.44
313.935	564.44
314.165	552.44
314.394	519.44
314.624	560.44
314.853	544.44
315.083	543.44
315.312	539.44
315.542	570.44
315.771	559.44
316.001	553.44
316.23	549.44
316.46	561.44
316.689	554.44
316.919	563.44
317.148	555.44
317.377	552.44
317.607	578.44
317.836	564.44
318.065	549.44
318.295	555.44
318.524	547.44
318.753	562.44
318.983	547.44
319.212	564.44
319.441	567.44
319.67	552.44
319.9	570.44
320.129	566.44
320.358	552.44
320.587	566.44
320.816	555.44
321.046	563.44
321.275	571.44
321.504	558.44
321.733	579.44
321.962	569.44
322.191	576.44
322.42	593.44
322.649	598.44
322.878	582.44
323.108	581.44
323.337	596.44
323.566	574.44
323.795	565.44
324.024	574.44
324.253	595.44
324.482	586.44
324.71	576.44
324.939	596.44
325.168	589.44
325.397	582.44
325.626	592.44
325.855	595.44
326.084	605.44
326.313	588.44
326.542	584.44
326.77	605.44
326.999	579.44
327.228	590.44
327.457	617.44
327.686	619.44
327.914	619.44
328.143	599.44
328.372	585.44
328.6	595.44
328.829	615.44
329.058	598.44
329.287	619.44
329.515	649.44
329.744	623.44
329.972	645.44
330.201	620.44
330.43	611.44
330.658	624.44
330.887	616.44
331.115	632.44
331.344	629.44
331.572	649.44
331.801	640.44
332.03	630.44
332.258	649.44
332.486	665.44
332.715	659.44
332.943	660.44
333.172	656.44
333.4	676.44
333.629	689.44
333.857	709.44
334.085	689.44
334.314	693.44
334.542	706.44
334.771	708.44
334.999	716.44
335.227	718.44
335.455	722.44
335.684	712.44
335.912	723.44
336.14	703.44
336.369	728.44
336.597	704.44
336.825	705.44
337.053	730.44
337.281	697.44
337.51	691.44
337.738	693.44
337.966	667.44
338.194	699.44
338.422	666.44
338.65	690.44
338.878	666.44
339.106	676.44
339.334	668.44
339.562	651.44
339.79	641.44
340.018	671.44
340.246	659.44
340.474	668.44
340.702	639.44
340.93	654.44
341.158	654.44
341.386	642.44
341.614	653.44
341.842	649.44
342.07	648.44
342.298	668.44
342.526	641.44
342.754	650.44
342.981	667.44
343.209	642.44
343.437	709.44
343.665	686.44
343.893	683.44
344.12	711.44
344.348	724.44
344.576	708.44
344.804	707.44
345.031	680.44
345.259	661.44
345.487	656.44
345.714	692.44
345.942	662.44
346.17	636.44
346.397	646.44
346.625	636.44
346.853	632.44
347.08	631.44
347.308	639.44
347.535	651.44
347.763	644.44
347.99	638.44
348.218	633.44
348.445	633.44
348.673	601.44
348.9	618.44
349.128	624.44
349.355	629.44
349.583	630.44
349.81	609.44
350.037	640.44
350.265	598.44
350.492	628.44
350.72	611.44
350.947	612.44
351.174	611.44
351.402	624.44
351.629	616.44
351.856	607.44
352.083	601.44
352.311	614.44
352.538	609.44
352.765	615.44
352.992	614.44
353.22	618.44
353.447	618.44
353.674	601.44
353.901	611.44
354.128	606.44
354.355	617.44
354.583	632.44
354.81	612.44
355.037	598.44
355.264	642.44
355.491	611.44
355.718	647.44
355.945	626.44
356.172	632.44
356.399	602.44
356.626	608.44
356.853	626.44
357.08	638.44
357.307	644.44
357.534	627.44
357.761	644.44
357.988	618.44
358.215	642.44
358.441	667.44
358.668	648.44
358.895	642.44
359.122	617.44
359.349	617.44
359.576	615.44
359.802	591.44
360.029	615.44
360.256	619.44
360.483	587.44
360.709	644.44
360.936	634.44
361.163	628.44
361.39	627.44
361.616	588.44
361.843	628.44
362.07	638.44
362.296	627.44
362.523	612.44
362.749	640.44
362.976	627.44
363.203	615.44
363.429	628.44
363.656	622.44
363.882	633.44
364.109	636.44
364.335	636.44
364.562	619.44
364.788	628.44
365.015	640.44
365.241	644.44
365.468	651.44
365.694	626.44
365.92	628.44
366.147	623.44
366.373	633.44
366.599	617.44
366.826	632.44
367.052	636.44
367.278	668.44
367.505	648.44
367.731	652.44
367.957	644.44
368.184	652.44
368.41	671.44
368.636	663.44
368.862	676.44
369.089	630.44
369.315	675.44
369.541	672.44
369.767	675.44
369.993	668.44
370.219	661.44
370.445	695.44
370.672	690.44
370.898	687.44
371.124	676.44
371.35	699.44
371.576	668.44
371.802	689.44
372.028	700.44
372.254	715.44
372.48	711.44
372.706	728.44
372.932	731.44
373.158	681.44
373.384	735.44
373.61	747.44
373.835	740.44
374.061	737.44
374.287	722.44
374.513	738.44
374.739	753.44
374.965	755.44
375.191	756.44
375.416	754.44
375.642	715.44
375.868	737.44
376.094	736.44
376.319	721.44
376.545	708.44
376.771	747.44
376.997	706.44
377.222	680.44
377.448	701.44
377.674	695.44
377.899	690.44
378.125	688.44
378.35	688.44
378.576	705.44
378.802	703.44
379.027	705.44
379.253	718.44
379.478	722.44
379.704	704.44
379.929	719.44
380.155	698.44
380.38	706.44
380.606	706.44
380.831	707.44
381.057	693.44
381.282	723.44
381.507	715.44
381.733	717.44
381.958	731.44
382.184	744.44
382.409	769.44
382.634	728.44
382.86	755.44
383.085	729.44
383.31	760.44
383.535	774.44
383.761	725.44
383.986	771.44
384.211	776.44
384.436	766.44
384.662	767.44
384.887	785.44
385.112	792.44
385.337	778.44
385.562	809.44
385.787	819.44
386.013	822.44
386.238	842.44
386.463	794.44
386.688	820.44
386.913	793.44
387.138	797.44
387.363	811.44
387.588	848.44
387.813	847.44
388.038	830.44
388.263	818.44
388.488	823.44
388.713	827.44
388.938	865.44
389.163	836.44
389.387	810.44
389.612	815.44
389.837	835.44
390.062	844.44
390.287	850.44
390.512	828.44
390.736	855.44
390.961	835.44
391.186	884.44
391.411	868.44
391.636	872.44
391.86	928.44
392.085	871.44
392.31	891.44
392.534	888.44
392.759	910.44
392.984	873.44
393.208	870.44
393.433	878.44
393.658	886.44
393.882	827.44
394.107	858.44
394.331	884.44
394.556	874.44
394.78	856.44
395.005	872.44
395.229	904.44
395.454	879.44
395.678	906.44
395.903	892.44
396.127	890.44
396.352	882.44
396.576	909.44
396.801	898.44
397.025	914.44
397.249	938.44
397.474	918.44
397.698	942.44
397.922	935.44
398.147	930.44
398.371	964.44
398.595	978.44
398.82	994.44
399.044	1016.44
399.268	1069.44
399.492	1097.44
399.717	1118.44
399.941	1145.44
400.165	1168.44
400.389	1122.44
400.613	1123.44
400.837	1091.44
401.062	1061.44
401.286	1030.44
401.51	1008.44
401.734	1007.44
401.958	1054.44
402.182	1028.44
402.406	1018.44
402.63	1014.44
402.854	1004.44
403.078	1010.44
403.302	997.44
403.526	1014.44
403.75	1011.44
403.974	1032.44
404.198	1000.44
404.422	1035.44
404.645	1063.44
404.869	1032.44
405.093	1061.44
405.317	1022.44
405.541	1028.44
405.765	1058.44
405.988	1045.44
406.212	1066.44
406.436	1066.44
406.66	1094.44
406.883	1083.44
407.107	1120.44
407.331	1178.44
407.555	1202.44
407.778	1188.44
408.002	1143.44
408.226	1151.44
408.449	1177.44
408.673	1142.44
408.896	1137.44
409.12	1122.44
409.344	1131.44
409.567	1095.44
409.791	1126.44
410.014	1078.44
410.238	1104.44
410.461	1095.44
410.685	1093.44
410.908	1054.44
411.132	1093.44
411.355	1056.44
411.578	1094.44
411.802	1065.44
412.025	1078.44
412.249	1080.44
412.472	1070.44
412.695	1043.44
412.919	1064.44
413.142	1069.44
413.365	1042.44
413.589	1050.44
413.812	1026.44
414.035	1018.44
414.258	995.44
414.482	1024.44
414.705	1048.44
414.928	1021.44
415.151	1001.44
415.374	1034.44
415.597	1038.44
415.821	1043.44
416.044	1001.44
416.267	999.44
416.49	1016.44
416.713	1047.44
416.936	980.44
417.159	994.44
417.382	964.44
417.605	988.44
417.828	1013.44
418.051	1005.44
418.274	978.44
418.497	965.44
418.72	990.44
418.943	983.44
419.166	1015.44
419.389	1137.44
419.611	1136.44
419.834	1092.44
420.057	1038.44
420.28	1002.44
420.503	988.44
420.726	945.44
420.948	967.44
421.171	977.44
421.394	976.44
421.617	1001.44
421.839	988.44
422.062	1003.44
422.285	962.44
422.507	1006.44
422.73	982.44
422.953	979.44
423.175	968.44
423.398	981.44
423.621	995.44
423.843	999.44
424.066	987.44
424.288	985.44
424.511	988.44
424.733	959.44
424.956	975.44
425.178	994.44
425.401	1001.44
425.623	962.44
425.846	964.44
426.068	975.44
426.291	983.44
426.513	962.44
426.735	976.44
426.958	962.44
427.18	968.44
427.402	972.44
427.625	987.44
427.847	951.44
428.069	962.44
428.292	957.44
428.514	937.44
428.736	927.44
428.958	944.44
429.181	957.44
429.403	923.44
429.625	922.44
429.847	944.44
430.069	912.44
430.292	914.44
430.514	927.44
430.736	942.44
430.958	972.44
431.18	962.44
431.402	969.44
431.624	947.44
431.846	938.44
432.068	948.44
432.29	961.44
432.512	938.44
432.734	982.44
432.956	982.44
433.178	955.44
433.4	959.44
433.622	988.44
433.844	991.44
434.066	937.44
434.287	944.44
434.509	970.44
434.731	968.44
434.953	1007.44
435.175	970.44
435.397	998.44
435.618	972.44
435.84	970.44
436.062	939.44
436.284	933.44
436.505	957.44
436.727	953.44
436.949	943.44
437.17	927.44
437.392	926.44
437.614	916.44
437.835	943.44
438.057	908.44
438.278	920.44
438.5	930.44
438.721	950.44
438.943	930.44
439.165	889.44
439.386	924.44
439.608	954.44
439.829	929.44
440.05	944.44
440.272	932.44
440.493	954.44
440.715	978.44
440.936	957.44
441.158	953.44
441.379	983.44
441.6	978.44
441.822	975.44
442.043	1013.44
442.264	965.44
442.486	966.44
442.707	1003.44
442.928	962.44
443.149	974.44
443.371	984.44
443.592	983.44
443.813	990.44
444.034	999.44
444.255	1038.44
444.476	1006.44
444.698	1047.44
444.919	1027.44
445.14	1138.44
445.361	1089.44
445.582	1005.44
445.803	982.44
446.024	969.44
446.245	992.44
446.466	994.44
446.687	965.44
446.908	958.44
447.129	958.44
447.35	931.44
447.571	921.44
447.792	934.44
448.013	901.44
448.234	887.44
448.455	908.44
448.675	888.44
448.896	884.44
449.117	885.44
449.338	907.44
449.559	842.44
449.779	865.44
450	871.44
450.221	871.44
450.442	873.44
450.662	858.44
450.883	856.44
451.104	888.44
451.324	828.44
451.545	874.44
451.766	869.44
451.986	843.44
452.207	839.44
452.428	862.44
452.648	855.44
452.869	868.44
453.089	841.44
453.31	866.44
453.53	848.44
453.751	843.44
453.971	828.44
454.192	824.44
454.412	821.44
454.633	837.44
454.853	819.44
455.073	804.44
455.294	848.44
455.514	828.44
455.734	861.44
455.955	848.44
456.175	803.44
456.395	800.44
456.616	837.44
456.836	823.44
457.056	824.44
457.276	842.44
457.497	848.44
457.717	855.44
457.937	859.44
458.157	844.44
458.377	839.44
458.598	868.44
458.818	892.44
459.038	888.44
459.258	886.44
459.478	935.44
459.698	933.44
459.918	943.44
460.138	958.44
460.358	977.44
460.578	980.44
460.798	992.44
461.018	1033.44
461.238	1022.44
461.458	1038.44
461.678	1012.44
461.898	1061.44
462.118	1027.44
462.338	1080.44
462.558	1091.44
462.777	1123.44
462.997	1127.44
463.217	1125.44
463.437	1169.44
463.657	1146.44
463.876	1135.44
464.096	1150.44
464.316	1103.44
464.536	1094.44
464.755	1098.44
464.975	1050.44
465.195	1035.44
465.414	1037.44
465.634	1001.44
465.854	957.44
466.073	960.44
466.293	942.44
466.512	955.44
466.732	944.44
466.951	931.44
467.171	894.44
467.391	898.44
467.61	907.44
467.829	914.44
468.049	933.44
468.268	888.44
468.488	894.44
468.707	897.44
468.927	910.44
469.146	935.44
469.365	914.44
469.585	893.44
469.804	914.44
470.023	907.44
470.243	886.44
470.462	938.44
470.681	949.44
470.901	928.44
471.12	938.44
471.339	926.44
471.558	878.44
471.777	927.44
471.997	901.44
472.216	907.44
472.435	931.44
472.654	918.44
472.873	898.44
473.092	884.44
473.311	894.44
473.53	933.44
473.749	902.44
473.968	911.44
474.187	910.44
474.406	903.44
474.625	904.44
474.844	901.44
475.063	893.44
475.282	897.44
475.501	920.44
475.72	918.44
475.939	957.44
476.158	946.44
476.377	943.44
476.596	952.44
476.814	1012.44
477.033	991.44
477.252	974.44
477.471	983.44
477.69	997.44
477.908	987.44
478.127	999.44
478.346	1031.44
478.564	1011.44
478.783	1037.44
479.002	1023.44
479.22	1060.44
479.439	1085.44
479.658	1078.44
479.876	1065.44
480.095	1087.44
480.313	1080.44
480.532	1091.44
480.751	1076.44
480.969	1078.44
481.188	1094.44
481.406	1083.44
481.624	1082.44
481.843	1068.44
482.061	1064.44
482.28	1078.44
482.498	1058.44
482.717	1081.44
482.935	1059.44
483.153	1040.44
483.372	1055.44
483.59	1082.44
483.808	1069.44
484.027	1081.44
484.245	1051.44
484.463	1034.44
484.681	1086.44
484.9	1080.44
485.118	1060.44
485.336	1066.44
485.554	1093.44
485.772	1071.44
485.99	1101.44
486.209	1108.44
486.427	1061.44
486.645	1088.44
486.863	1058.44
487.081	1121.44
487.299	1105.44
487.517	1111.44
487.735	1098.44
487.953	1081.44
488.171	1125.44
488.389	1052.44
488.607	1075.44
488.825	1082.44
489.043	1060.44
489.261	1090.44
489.479	1089.44
489.696	1112.44
489.914	1082.44
490.132	1104.44
490.35	1083.44
490.568	1088.44
490.786	1100.44
491.003	1100.44
491.221	1120.44
491.439	1126.44
491.657	1093.44
491.874	1130.44
492.092	1118.44
492.31	1142.44
492.527	1118.44
492.745	1125.44
492.963	1145.44
493.18	1134.44
493.398	1150.44
493.615	1145.44
493.833	1118.44
494.05	1140.44
494.268	1125.44
494.485	1118.44
494.703	1151.44
494.92	1151.44
495.138	1171.44
495.355	1160.44
495.573	1118.44
495.79	1167.44
496.008	1177.44
496.225	1170.44
496.442	1172.44
496.66	1201.44
496.877	1234.44
497.094	1244.44
497.312	1246.44
497.529	1267.44
497.746	1267.44
497.963	1290.44
498.181	1347.44
498.398	1399.44
498.615	1409.44
498.832	1466.44
499.049	1520.44
499.267	1579.44
499.484	1619.44
499.701	1739.44
499.918	1791.44
500.135	1869.44
500.352	1943.44
500.569	1986.44
500.786	1956.44
501.003	1948.44
501.22	1865.44
501.437	1812.44
501.654	1704.44
501.871	1656.44
502.088	1601.44
502.305	1509.44
502.522	1445.44
502.739	1425.44
502.956	1417.44
503.172	1358.44
503.389	1298.44
503.606	1269.44
503.823	1257.44
504.04	1235.44
504.256	1226.44
504.473	1204.44
504.69	1192.44
504.907	1193.44
505.123	1161.44
505.34	1155.44
505.557	1159.44
505.773	1099.44
505.99	1111.44
506.207	1064.44
506.423	1063.44
506.64	1054.44
506.856	1041.44
507.073	1015.44
507.289	1016.44
507.506	1009.44
507.722	1011.44
507.939	991.44
508.155	986.44
508.372	986.44
508.588	937.44
508.805	967.44
509.021	942.44
509.238	939.44
509.454	946.44
509.67	947.44
509.887	934.44
510.103	907.44
510.319	920.44
510.536	920.44
510.752	894.44
510.968	906.44
511.184	895.44
511.401	900.44
511.617	903.44
511.833	897.44
512.049	911.44
512.265	901.44
512.481	902.44
512.698	926.44
512.914	889.44
513.13	908.44
513.346	907.44
513.562	868.44
513.778	905.44
513.994	897.44
514.21	900.44
514.426	920.44
514.642	900.44
514.858	896.44
515.074	915.44
515.29	937.44
515.506	927.44
515.721	927.44
515.937	949.44
516.153	954.44
516.369	970.44
516.585	978.44
516.801	987.44
517.016	994.44
517.232	1022.44
517.448	1048.44
517.664	1029.44
517.879	1055.44
518.095	1037.44
518.311	1025.44
518.527	1026.44
518.742	964.44
518.958	958.44
519.173	952.44
519.389	966.44
519.605	943.44
519.82	929.44
520.036	967.44
520.251	963.44
520.467	925.44
520.682	909.44
520.898	879.44
521.113	880.44
521.329	872.44
521.544	886.44
521.76	894.44
521.975	892.44
522.19	844.44
522.406	856.44
522.621	851.44
522.836	886.44
523.052	859.44
523.267	835.44
523.482	844.44
523.698	871.44
523.913	859.44
524.128	841.44
524.343	840.44
524.559	830.44
524.774	849.44
524.989	825.44
525.204	835.44
525.419	811.44
525.634	810.44
525.849	808.44
526.064	824.44
526.28	815.44
526.495	820.44
526.71	809.44
526.925	816.44
527.14	848.44
527.355	806.44
527.57	816.44
527.785	802.44
527.999	790.44
528.214	799.44
528.429	787.44
528.644	799.44
528.859	807.44
529.074	784.44
529.289	810.44
529.503	808.44
529.718	802.44
529.933	779.44
530.148	783.44
530.363	771.44
530.577	800.44
530.792	790.44
531.007	731.44
531.221	774.44
531.436	779.44
531.651	781.44
531.865	758.44
532.08	792.44
532.295	792.44
532.509	807.44
532.724	770.44
532.938	799.44
533.153	778.44
533.367	758.44
533.582	766.44
533.796	764.44
534.011	779.44
534.225	771.44
534.44	785.44
534.654	768.44
534.868	776.44
535.083	756.44
535.297	748.44
535.511	755.44
535.726	762.44
535.94	733.44
536.154	756.44
536.369	752.44
536.583	723.44
536.797	735.44
537.011	747.44
537.225	712.44
537.44	737.44
537.654	729.44
537.868	738.44
538.082	726.44
538.296	712.44
538.51	710.44
538.724	748.44
538.938	715.44
539.153	723.44
539.367	723.44
539.581	742.44
539.795	720.44
540.009	715.44
540.222	728.44
540.436	714.44
540.65	717.44
540.864	723.44
541.078	726.44
541.292	713.44
541.506	737.44
541.72	723.44
541.934	720.44
542.147	722.44
542.361	728.44
542.575	727.44
542.789	706.44
543.002	715.44
543.216	707.44
543.43	705.44
543.644	705.44
543.857	723.44
544.071	704.44
544.285	716.44
544.498	707.44
544.712	721.44
544.925	706.44
545.139	711.44
545.352	743.44
545.566	723.44
545.779	715.44
545.993	738.44
546.206	720.44
546.42	714.44
546.633	722.44
546.847	727.44
547.06	732.44
547.274	709.44
547.487	725.44
547.7	706.44
547.914	719.44
548.127	706.44
548.34	750.44
548.554	718.44
548.767	694.44
548.98	706.44
549.193	702.44
549.407	735.44
549.62	736.44
549.833	751.44
550.046	738.44
550.259	743.44
550.473	706.44
550.686	719.44
550.899	704.44
551.112	706.44
551.325	709.44
551.538	728.44
551.751	705.44
551.964	693.44
552.177	721.44
552.39	724.44
552.603	738.44
552.816	725.44
553.029	706.44
553.242	749.44
553.455	698.44
553.667	731.44
553.88	720.44
554.093	708.44
554.306	699.44
554.519	690.44
554.732	702.44
554.944	663.44
555.157	676.44
555.37	662.44
555.583	677.44
555.795	655.44
556.008	653.44
556.221	634.44
556.433	656.44
556.646	645.44
556.859	636.44
557.071	659.44
557.284	622.44
557.496	624.44
557.709	639.44
557.921	646.44
558.134	631.44
558.346	630.44
558.559	611.44
558.771	586.44
558.984	603.44
559.196	615.44
559.409	611.44
559.621	628.44
559.833	624.44
560.046	603.44
560.258	630.44
560.47	601.44
560.683	595.44
560.895	623.44
561.107	582.44
561.32	599.44
561.532	619.44
561.744	618.44
561.956	592.44
562.168	614.44
562.381	612.44
562.593	618.44
562.805	607.44
563.017	624.44
563.229	606.44
563.441	616.44
563.653	609.44
563.865	615.44
564.077	611.44
564.289	613.44
564.501	630.44
564.713	632.44
564.925	663.44
565.137	667.44
565.349	636.44
565.561	680.44
565.773	659.44
565.985	704.44
566.197	717.44
566.408	711.44
566.62	739.44
566.832	769.44
567.044	789.44
567.255	762.44
567.467	763.44
567.679	789.44
567.891	814.44
568.102	751.44
568.314	745.44
568.526	748.44
568.737	727.44
568.949	686.44
569.161	639.44
569.372	647.44
569.584	640.44
569.795	607.44
570.007	630.44
570.218	611.44
570.43	602.44
570.641	600.44
570.853	590.44
571.064	578.44
571.276	562.44
571.487	568.44
571.698	543.44
571.91	547.44
572.121	530.44
572.333	549.44
572.544	528.44
572.755	528.44
572.966	511.44
573.178	505.44
573.389	505.44
573.6	507.44
573.811	487.44
574.023	487.44
574.234	476.44
574.445	485.44
574.656	499.44
574.867	480.44
575.078	467.44
575.289	482.44
575.501	515.44
575.712	472.44
575.923	449.44
576.134	487.44
576.345	464.44
576.556	470.44
576.767	449.44
576.978	468.44
577.188	470.44
577.399	447.44
577.61	456.44
577.821	439.44
578.032	457.44
578.243	456.44
578.454	441.44
578.665	440.44
578.875	447.44
579.086	421.44
579.297	432.44
579.508	442.44
579.718	445.44
579.929	437.44
580.14	436.44
580.35	433.44
580.561	437.44
580.772	447.44
580.982	432.44
581.193	417.44
581.403	432.44
581.614	440.44
581.825	418.44
582.035	424.44
582.246	406.44
582.456	388.44
582.667	427.44
582.877	433.44
583.087	395.44
583.298	418.44
583.508	404.44
583.719	434.44
583.929	439.44
584.139	414.44
584.35	396.44
584.56	402.44
584.77	414.44
584.981	404.44
585.191	401.44
585.401	407.44
585.611	413.44
585.821	388.44
586.032	382.44
586.242	382.44
586.452	392.44
586.662	380.44
586.872	405.44
587.082	392.44
587.292	394.44
587.502	386.44
587.713	410.44
587.923	389.44
588.133	369.44
588.343	410.44
588.553	393.44
588.762	413.44
588.972	410.44
589.182	443.44
589.392	426.44
589.602	408.44
589.812	416.44
590.022	405.44
590.232	384.44
590.441	411.44
590.651	415.44
590.861	396.44
591.071	400.44
591.281	411.44
591.49	411.44
591.7	404.44
591.91	398.44
592.119	400.44
592.329	401.44
592.539	422.44
592.748	414.44
592.958	418.44
593.167	395.44
593.377	413.44
593.587	427.44
593.796	418.44
594.006	423.44
594.215	413.44
594.424	421.44
594.634	415.44
594.843	419.44
595.053	406.44
595.262	412.44
595.472	388.44
595.681	380.44
595.89	395.44
596.1	378.44
596.309	384.44
596.518	377.44
596.727	382.44
596.937	375.44
597.146	358.44
597.355	374.44
597.564	377.44
597.774	367.44
597.983	353.44
598.192	350.44
598.401	369.44
598.61	345.44
598.819	332.44
599.028	347.44
599.237	344.44
599.446	333.44
599.655	349.44
599.864	362.44
600.073	346.44
600.282	344.44
600.491	332.44
600.7	327.44
600.909	337.44
601.118	347.44
601.327	324.44
601.536	320.44
601.745	350.44
601.953	327.44
602.162	337.44
602.371	327.44
602.58	328.44
602.789	324.44
602.997	326.44
603.206	328.44
603.415	321.44
603.623	310.44
603.832	290.44
604.041	314.44
604.249	321.44
604.458	332.44
604.666	310.44
604.875	305.44
605.084	314.44
605.292	334.44
605.501	297.44
605.709	305.44
605.918	295.44
606.126	329.44
606.334	308.44
606.543	316.44
606.751	311.44
606.96	308.44
607.168	297.44
607.376	300.44
607.585	303.44
607.793	325.44
608.001	302.44
608.21	318.44
608.418	299.44
608.626	315.44
608.834	320.44
609.043	326.44
609.251	308.44
609.459	295.44
609.667	315.44
609.875	288.44
610.083	299.44
610.291	303.44
610.499	313.44
610.707	284.44
610.916	296.44
611.124	306.44
611.332	285.44
611.54	317.44
611.748	306.44
611.955	305.44
612.163	307.44
612.371	306.44
612.579	292.44
612.787	294.44
612.995	292.44
613.203	308.44
613.411	287.44
613.618	296.44
613.826	308.44
614.034	289.44
614.242	284.44
614.449	298.44
614.657	318.44
614.865	286.44
615.072	292.44
615.28	297.44
615.488	288.44
615.695	296.44
615.903	290.44
616.111	290.44
616.318	309.44
616.526	289.44
616.733	300.44
616.941	303.44
617.148	284.44
617.356	279.44
617.563	266.44
617.771	267.44
617.978	297.44
618.185	278.44
618.393	288.44
618.6	291.44
618.807	271.44
619.015	286.44
619.222	271.44
619.429	272.44
619.637	273.44
619.844	249.44
620.051	244.44
620.258	276.44
620.466	268.44
620.673	281.44
620.88	268.44
621.087	264.44
621.294	275.44
621.501	267.44
621.708	256.44
621.915	283.44
622.122	266.44
622.329	270.44
622.536	278.44
622.743	274.44
622.95	269.44
623.157	256.44
623.364	262.44
623.571	260.44
623.778	263.44
623.985	279.44
624.192	254.44
624.399	254.44
624.606	252.44
624.812	245.44
625.019	248.44
625.226	255.44
625.433	228.44
625.639	243.44
625.846	237.44
626.053	238.44
626.259	258.44
626.466	257.44
626.673	234.44
626.879	247.44
627.086	221.44
627.293	239.44
627.499	239.44
627.706	266.44
627.912	274.44
628.119	256.44
628.325	241.44
628.532	228.44
628.738	233.44
628.945	229.44
629.151	230.44
629.357	238.44
629.564	254.44
629.77	238.44
629.976	246.44
630.183	235.44
630.389	240.44
630.595	226.44
630.802	232.44
631.008	228.44
631.214	218.44
631.42	219.44
631.627	239.44
631.833	236.44
632.039	226.44
632.245	203.44
632.451	217.44
632.657	240.44
632.863	217.44
633.069	216.44
633.275	222.44
633.481	213.44
633.688	232.44
633.893	231.44
634.099	226.44
634.305	230.44
634.511	218.44
634.717	201.44
634.923	217.44
635.129	204.44
635.335	200.44
635.541	222.44
635.747	211.44
635.952	204.44
636.158	223.44
636.364	207.44
636.57	224.44
636.775	203.44
636.981	221.44
637.187	216.44
637.392	210.44
637.598	213.44
637.804	203.44
638.009	213.44
638.215	204.44
638.421	201.44
638.626	217.44
638.832	201.44
639.037	221.44
639.243	215.44
639.448	216.44
639.654	203.44
639.859	204.44
640.065	211.44
640.27	225.44
640.475	207.44
640.681	218.44
640.886	211.44
641.091	207.44
641.297	219.44
641.502	192.44
641.707	201.44
641.913	216.44
642.118	203.44
642.323	201.44
642.528	217.44
642.733	209.44
642.939	207.44
643.144	187.44
643.349	208.44
643.554	192.44
643.759	204.44
643.964	203.44
644.169	210.44
644.374	210.44
644.579	196.44
644.784	201.44
644.989	210.44
645.194	207.44
645.399	197.44
645.604	208.44
645.809	219.44
646.014	215.44
646.219	216.44
646.423	231.44
646.628	206.44
646.833	206.44
647.038	215.44
647.243	206.44
647.447	206.44
647.652	223.44
647.857	208.44
648.062	207.44
648.266	200.44
648.471	214.44
648.676	199.44
648.88	219.44
649.085	202.44
649.289	210.44
649.494	210.44
649.698	206.44
649.903	207.44
650.107	204.44
650.312	219.44
650.516	215.44
650.721	208.44
650.925	197.44
651.13	196.44
651.334	196.44
651.539	191.44
651.743	204.44
651.947	195.44
652.152	198.44
652.356	190.44
652.56	172.44
652.764	189.44
652.969	186.44
653.173	178.44
653.377	196.44
653.581	187.44
653.785	185.44
653.99	198.44
654.194	204.44
654.398	192.44
654.602	160.44
654.806	180.44
655.01	191.44
655.214	181.44
655.418	185.44
655.622	167.44
655.826	169.44
656.03	175.44
656.234	184.44
656.438	183.44
656.642	170.44
656.846	168.44
657.049	164.44
657.253	163.44
657.457	162.44
657.661	157.44
657.865	171.44
658.068	151.44
658.272	144.44
658.476	131.44
658.68	141.44
658.883	127.44
659.087	118.44
659.291	105.44
659.494	112.44
659.698	111.44
659.901	106.44
660.105	98.44
660.309	111.44
660.512	107.44
660.716	96.44
660.919	98.44
661.123	104.44
661.326	95.44
661.53	90.44
661.733	84.44
661.936	99.44
662.14	91.44
662.343	85.44
662.546	102.44
662.75	81.44
662.953	77.44
663.156	83.44
663.36	95.44
663.563	81.44
663.766	62.44
663.969	76.44
664.173	89.44
664.376	77.44
664.579	78.44
664.782	84.44
664.985	90.44
665.188	79.44
665.391	90.44
665.594	99.44
665.797	77.44
666	83.44
666.203	70.44
666.406	79.44
666.609	84.44
666.812	90.44
667.015	79.44
667.218	97.44
667.421	99.44
667.624	88.44
667.827	74.44
668.03	100.44
668.232	79.44
668.435	84.44
668.638	88.44
668.841	95.44
669.043	83.44
669.246	79.44
669.449	86.44
669.651	80.44
669.854	80.44
670.057	79.44
670.259	76.44
670.462	87.44
670.665	77.44
670.867	85.44
671.07	82.44
671.272	79.44
671.475	76.44
671.677	79.44
671.88	76.44
672.082	81.44
672.284	77.44
672.487	85.44
672.689	77.44
672.892	91.44
