Data from Fe(NO3)3@0.05M.TitratingCurve.Agarose3%dH2O.NegLispCup.LampEnergy10.LIBS07252019_HRD10591_16-46-15-334.txt Node
Date: Thu Jul 25 16:46:15 EDT 2019
User: cochatt
Spectrometer: HR+D1059
Trigger mode: 1
Integration Time (sec): 1.000000E-1
Scans to average: 1
Electric dark correction enabled: true
Nonlinearity correction enabled: false
Boxcar width: 0
XAxis mode: Wavelengths
Number of Pixels in Spectrum: 2048
>>>>>Begin Spectral Data<<<<<
223.165	-13.19
223.4	-13.19
223.635	-13.19
223.869	-26.19
224.104	-27.19
224.338	-19.19
224.573	-21.19
224.808	-18.19
225.042	-18.19
225.277	-2.19
225.511	-6.19
225.746	6.81
225.98	17.81
226.215	22.81
226.449	24.81
226.683	18.81
226.918	11.81
227.152	48.81
227.387	40.81
227.621	48.81
227.856	43.81
228.09	43.81
228.324	49.81
228.559	58.81
228.793	65.81
229.027	120.81
229.262	132.81
229.496	115.81
229.73	124.81
229.964	139.81
230.199	146.81
230.433	152.81
230.667	150.81
230.901	158.81
231.136	140.81
231.37	153.81
231.604	159.81
231.838	153.81
232.072	150.81
232.306	161.81
232.541	148.81
232.775	154.81
233.009	158.81
233.243	169.81
233.477	177.81
233.711	166.81
233.945	166.81
234.179	191.81
234.413	181.81
234.647	188.81
234.881	212.81
235.115	206.81
235.349	170.81
235.583	194.81
235.817	175.81
236.051	186.81
236.285	180.81
236.519	195.81
236.753	197.81
236.987	195.81
237.221	202.81
237.455	192.81
237.689	205.81
237.922	210.81
238.156	209.81
238.39	218.81
238.624	245.81
238.858	221.81
239.091	201.81
239.325	225.81
239.559	218.81
239.793	217.81
240.027	260.81
240.26	244.81
240.494	239.81
240.728	228.81
240.961	253.81
241.195	257.81
241.429	246.81
241.662	261.81
241.896	221.81
242.13	213.81
242.363	248.81
242.597	238.81
242.83	242.81
243.064	224.81
243.298	247.81
243.531	231.81
243.765	249.81
243.998	260.81
244.232	230.81
244.465	247.81
244.699	257.81
244.932	262.81
245.166	265.81
245.399	268.81
245.633	252.81
245.866	255.81
246.099	282.81
246.333	273.81
246.566	286.81
246.8	282.81
247.033	289.81
247.266	278.81
247.5	275.81
247.733	303.81
247.966	283.81
248.2	290.81
248.433	304.81
248.666	289.81
248.899	308.81
249.133	319.81
249.366	339.81
249.599	356.81
249.832	328.81
250.066	323.81
250.299	324.81
250.532	333.81
250.765	332.81
250.998	315.81
251.231	337.81
251.465	319.81
251.698	325.81
251.931	329.81
252.164	345.81
252.397	351.81
252.63	361.81
252.863	373.81
253.096	365.81
253.329	361.81
253.562	362.81
253.795	350.81
254.028	391.81
254.261	399.81
254.494	378.81
254.727	363.81
254.96	370.81
255.193	378.81
255.426	364.81
255.659	373.81
255.892	348.81
256.124	351.81
256.357	385.81
256.59	397.81
256.823	385.81
257.056	366.81
257.289	357.81
257.521	366.81
257.754	371.81
257.987	382.81
258.22	385.81
258.452	382.81
258.685	396.81
258.918	415.81
259.151	413.81
259.383	398.81
259.616	396.81
259.849	435.81
260.081	492.81
260.314	501.81
260.547	459.81
260.779	414.81
261.012	431.81
261.244	470.81
261.477	463.81
261.71	450.81
261.942	408.81
262.175	419.81
262.407	426.81
262.64	432.81
262.872	443.81
263.105	470.81
263.337	460.81
263.57	456.81
263.802	405.81
264.035	415.81
264.267	410.81
264.499	417.81
264.732	427.81
264.964	424.81
265.197	437.81
265.429	411.81
265.661	422.81
265.894	418.81
266.126	437.81
266.358	432.81
266.591	444.81
266.823	438.81
267.055	453.81
267.287	448.81
267.52	427.81
267.752	431.81
267.984	445.81
268.216	452.81
268.448	444.81
268.681	445.81
268.913	477.81
269.145	466.81
269.377	467.81
269.609	465.81
269.841	465.81
270.073	448.81
270.306	481.81
270.538	481.81
270.77	495.81
271.002	455.81
271.234	482.81
271.466	475.81
271.698	502.81
271.93	496.81
272.162	473.81
272.394	497.81
272.626	512.81
272.858	511.81
273.09	509.81
273.322	514.81
273.553	526.81
273.785	529.81
274.017	565.81
274.249	584.81
274.481	592.81
274.713	591.81
274.945	640.81
275.176	671.81
275.408	652.81
275.64	610.81
275.872	636.81
276.104	578.81
276.335	567.81
276.567	541.81
276.799	545.81
277.031	546.81
277.262	559.81
277.494	544.81
277.726	538.81
277.957	556.81
278.189	536.81
278.421	544.81
278.652	543.81
278.884	535.81
279.115	559.81
279.347	548.81
279.579	549.81
279.81	539.81
280.042	534.81
280.273	549.81
280.505	559.81
280.736	551.81
280.968	570.81
281.199	545.81
281.431	565.81
281.662	570.81
281.894	569.81
282.125	577.81
282.356	589.81
282.588	572.81
282.819	582.81
283.051	557.81
283.282	594.81
283.513	595.81
283.745	605.81
283.976	607.81
284.207	599.81
284.439	583.81
284.67	597.81
284.901	594.81
285.132	599.81
285.364	571.81
285.595	568.81
285.826	581.81
286.057	587.81
286.288	590.81
286.52	604.81
286.751	624.81
286.982	628.81
287.213	616.81
287.444	610.81
287.675	607.81
287.906	598.81
288.138	613.81
288.369	604.81
288.6	620.81
288.831	615.81
289.062	641.81
289.293	617.81
289.524	643.81
289.755	620.81
289.986	624.81
290.217	623.81
290.448	617.81
290.679	634.81
290.91	615.81
291.141	645.81
291.371	638.81
291.602	630.81
291.833	636.81
292.064	635.81
292.295	644.81
292.526	634.81
292.757	623.81
292.987	648.81
293.218	642.81
293.449	615.81
293.68	636.81
293.91	639.81
294.141	635.81
294.372	627.81
294.603	655.81
294.833	628.81
295.064	659.81
295.295	655.81
295.525	636.81
295.756	665.81
295.987	629.81
296.217	634.81
296.448	636.81
296.679	673.81
296.909	652.81
297.14	663.81
297.37	667.81
297.601	658.81
297.831	664.81
298.062	667.81
298.292	663.81
298.523	714.81
298.753	686.81
298.984	685.81
299.214	681.81
299.445	671.81
299.675	679.81
299.905	676.81
300.136	681.81
300.366	680.81
300.597	714.81
300.827	689.81
301.057	689.81
301.288	705.81
301.518	678.81
301.748	710.81
301.979	718.81
302.209	721.81
302.439	728.81
302.669	717.81
302.9	693.81
303.13	708.81
303.36	719.81
303.59	717.81
303.82	710.81
304.051	717.81
304.281	708.81
304.511	708.81
304.741	732.81
304.971	740.81
305.201	709.81
305.431	739.81
305.661	714.81
305.891	729.81
306.121	729.81
306.352	735.81
306.582	752.81
306.812	714.81
307.042	729.81
307.272	727.81
307.502	727.81
307.731	752.81
307.961	723.81
308.191	725.81
308.421	708.81
308.651	713.81
308.881	721.81
309.111	720.81
309.341	709.81
309.571	696.81
309.8	701.81
310.03	729.81
310.26	751.81
310.49	751.81
310.72	737.81
310.949	759.81
311.179	718.81
311.409	727.81
311.639	745.81
311.868	758.81
312.098	754.81
312.328	759.81
312.557	779.81
312.787	770.81
313.017	770.81
313.246	772.81
313.476	759.81
313.706	760.81
313.935	789.81
314.165	757.81
314.394	772.81
314.624	771.81
314.853	777.81
315.083	777.81
315.312	790.81
315.542	802.81
315.771	780.81
316.001	793.81
316.23	804.81
316.46	797.81
316.689	796.81
316.919	795.81
317.148	786.81
317.377	769.81
317.607	793.81
317.836	776.81
318.065	821.81
318.295	796.81
318.524	823.81
318.753	800.81
318.983	795.81
319.212	812.81
319.441	795.81
319.67	785.81
319.9	812.81
320.129	810.81
320.358	790.81
320.587	837.81
320.816	804.81
321.046	819.81
321.275	800.81
321.504	817.81
321.733	797.81
321.962	807.81
322.191	835.81
322.42	813.81
322.649	849.81
322.878	823.81
323.108	826.81
323.337	803.81
323.566	845.81
323.795	848.81
324.024	843.81
324.253	820.81
324.482	827.81
324.71	834.81
324.939	840.81
325.168	826.81
325.397	839.81
325.626	828.81
325.855	844.81
326.084	872.81
326.313	863.81
326.542	843.81
326.77	873.81
326.999	876.81
327.228	819.81
327.457	863.81
327.686	850.81
327.914	871.81
328.143	849.81
328.372	849.81
328.6	842.81
328.829	853.81
329.058	859.81
329.287	868.81
329.515	891.81
329.744	861.81
329.972	888.81
330.201	896.81
330.43	902.81
330.658	893.81
330.887	895.81
331.115	865.81
331.344	891.81
331.572	931.81
331.801	922.81
332.03	933.81
332.258	917.81
332.486	932.81
332.715	920.81
332.943	930.81
333.172	946.81
333.4	955.81
333.629	988.81
333.857	983.81
334.085	974.81
334.314	1011.81
334.542	1000.81
334.771	992.81
334.999	1008.81
335.227	1007.81
335.455	1012.81
335.684	973.81
335.912	984.81
336.14	1002.81
336.369	996.81
336.597	969.81
336.825	1011.81
337.053	984.81
337.281	987.81
337.51	974.81
337.738	961.81
337.966	1000.81
338.194	979.81
338.422	972.81
338.65	931.81
338.878	949.81
339.106	964.81
339.334	940.81
339.562	951.81
339.79	946.81
340.018	961.81
340.246	953.81
340.474	944.81
340.702	935.81
340.93	917.81
341.158	946.81
341.386	925.81
341.614	936.81
341.842	924.81
342.07	935.81
342.298	905.81
342.526	951.81
342.754	945.81
342.981	945.81
343.209	946.81
343.437	921.81
343.665	959.81
343.893	980.81
344.12	1004.81
344.348	995.81
344.576	985.81
344.804	980.81
345.031	941.81
345.259	951.81
345.487	941.81
345.714	933.81
345.942	916.81
346.17	915.81
346.397	886.81
346.625	893.81
346.853	914.81
347.08	869.81
347.308	891.81
347.535	892.81
347.763	897.81
347.99	901.81
348.218	881.81
348.445	890.81
348.673	892.81
348.9	923.81
349.128	900.81
349.355	892.81
349.583	907.81
349.81	904.81
350.037	886.81
350.265	912.81
350.492	877.81
350.72	889.81
350.947	895.81
351.174	887.81
351.402	876.81
351.629	883.81
351.856	889.81
352.083	886.81
352.311	873.81
352.538	881.81
352.765	869.81
352.992	881.81
353.22	892.81
353.447	858.81
353.674	903.81
353.901	885.81
354.128	880.81
354.355	905.81
354.583	861.81
354.81	867.81
355.037	879.81
355.264	893.81
355.491	900.81
355.718	885.81
355.945	884.81
356.172	884.81
356.399	900.81
356.626	877.81
356.853	893.81
357.08	908.81
357.307	904.81
357.534	890.81
357.761	891.81
357.988	875.81
358.215	914.81
358.441	933.81
358.668	882.81
358.895	895.81
359.122	880.81
359.349	884.81
359.576	891.81
359.802	885.81
360.029	889.81
360.256	921.81
360.483	898.81
360.709	904.81
360.936	902.81
361.163	928.81
361.39	895.81
361.616	906.81
361.843	905.81
362.07	905.81
362.296	926.81
362.523	895.81
362.749	905.81
362.976	892.81
363.203	897.81
363.429	918.81
363.656	915.81
363.882	896.81
364.109	944.81
364.335	888.81
364.562	918.81
364.788	920.81
365.015	929.81
365.241	944.81
365.468	903.81
365.694	903.81
365.92	905.81
366.147	900.81
366.373	909.81
366.599	909.81
366.826	920.81
367.052	926.81
367.278	921.81
367.505	947.81
367.731	925.81
367.957	918.81
368.184	894.81
368.41	942.81
368.636	931.81
368.862	951.81
369.089	946.81
369.315	936.81
369.541	936.81
369.767	933.81
369.993	941.81
370.219	949.81
370.445	955.81
370.672	938.81
370.898	968.81
371.124	950.81
371.35	977.81
371.576	973.81
371.802	971.81
372.028	997.81
372.254	1019.81
372.48	999.81
372.706	1014.81
372.932	1033.81
373.158	1024.81
373.384	1026.81
373.61	1031.81
373.835	1011.81
374.061	997.81
374.287	976.81
374.513	1022.81
374.739	1028.81
374.965	1028.81
375.191	1045.81
375.416	1053.81
375.642	989.81
375.868	1024.81
376.094	1020.81
376.319	1004.81
376.545	1009.81
376.771	1005.81
376.997	984.81
377.222	1002.81
377.448	954.81
377.674	997.81
377.899	976.81
378.125	978.81
378.35	970.81
378.576	1003.81
378.802	991.81
379.027	1002.81
379.253	973.81
379.478	1002.81
379.704	970.81
379.929	973.81
380.155	999.81
380.38	977.81
380.606	992.81
380.831	985.81
381.057	966.81
381.282	999.81
381.507	1005.81
381.733	1024.81
381.958	1036.81
382.184	1053.81
382.409	1050.81
382.634	983.81
382.86	1044.81
383.085	1057.81
383.31	1027.81
383.535	1029.81
383.761	1047.81
383.986	1068.81
384.211	1100.81
384.436	1081.81
384.662	1073.81
384.887	1088.81
385.112	1080.81
385.337	1120.81
385.562	1111.81
385.787	1112.81
386.013	1115.81
386.238	1131.81
386.463	1123.81
386.688	1135.81
386.913	1141.81
387.138	1136.81
387.363	1151.81
387.588	1146.81
387.813	1133.81
388.038	1117.81
388.263	1130.81
388.488	1139.81
388.713	1155.81
388.938	1150.81
389.163	1143.81
389.387	1164.81
389.612	1137.81
389.837	1161.81
390.062	1155.81
390.287	1156.81
390.512	1138.81
390.736	1165.81
390.961	1152.81
391.186	1169.81
391.411	1181.81
391.636	1204.81
391.86	1199.81
392.085	1222.81
392.31	1215.81
392.534	1191.81
392.759	1212.81
392.984	1213.81
393.208	1209.81
393.433	1205.81
393.658	1197.81
393.882	1172.81
394.107	1203.81
394.331	1208.81
394.556	1178.81
394.78	1189.81
395.005	1223.81
395.229	1204.81
395.454	1235.81
395.678	1203.81
395.903	1233.81
396.127	1251.81
396.352	1222.81
396.576	1232.81
396.801	1249.81
397.025	1295.81
397.249	1253.81
397.474	1245.81
397.698	1271.81
397.922	1311.81
398.147	1314.81
398.371	1330.81
398.595	1347.81
398.82	1358.81
399.044	1397.81
399.268	1455.81
399.492	1464.81
399.717	1508.81
399.941	1591.81
400.165	1547.81
400.389	1496.81
400.613	1474.81
400.837	1443.81
401.062	1445.81
401.286	1419.81
401.51	1403.81
401.734	1372.81
401.958	1394.81
402.182	1365.81
402.406	1362.81
402.63	1354.81
402.854	1381.81
403.078	1356.81
403.302	1395.81
403.526	1391.81
403.75	1399.81
403.974	1393.81
404.198	1392.81
404.422	1422.81
404.645	1387.81
404.869	1387.81
405.093	1426.81
405.317	1413.81
405.541	1405.81
405.765	1424.81
405.988	1399.81
406.212	1473.81
406.436	1451.81
406.66	1516.81
406.883	1478.81
407.107	1536.81
407.331	1565.81
407.555	1559.81
407.778	1575.81
408.002	1583.81
408.226	1543.81
408.449	1543.81
408.673	1501.81
408.896	1515.81
409.12	1475.81
409.344	1509.81
409.567	1490.81
409.791	1452.81
410.014	1477.81
410.238	1468.81
410.461	1445.81
410.685	1440.81
410.908	1460.81
411.132	1424.81
411.355	1403.81
411.578	1419.81
411.802	1430.81
412.025	1431.81
412.249	1454.81
412.472	1435.81
412.695	1394.81
412.919	1398.81
413.142	1401.81
413.365	1415.81
413.589	1420.81
413.812	1360.81
414.035	1376.81
414.258	1385.81
414.482	1365.81
414.705	1364.81
414.928	1368.81
415.151	1347.81
415.374	1401.81
415.597	1370.81
415.821	1362.81
416.044	1321.81
416.267	1361.81
416.49	1338.81
416.713	1335.81
416.936	1355.81
417.159	1344.81
417.382	1312.81
417.605	1329.81
417.828	1326.81
418.051	1318.81
418.274	1340.81
418.497	1277.81
418.72	1303.81
418.943	1341.81
419.166	1407.81
419.389	1461.81
419.611	1475.81
419.834	1396.81
420.057	1357.81
420.28	1329.81
420.503	1316.81
420.726	1301.81
420.948	1291.81
421.171	1291.81
421.394	1323.81
421.617	1296.81
421.839	1314.81
422.062	1305.81
422.285	1260.81
422.507	1319.81
422.73	1309.81
422.953	1279.81
423.175	1330.81
423.398	1282.81
423.621	1307.81
423.843	1322.81
424.066	1321.81
424.288	1302.81
424.511	1331.81
424.733	1311.81
424.956	1299.81
425.178	1286.81
425.401	1303.81
425.623	1319.81
425.846	1322.81
426.068	1304.81
426.291	1317.81
426.513	1286.81
426.735	1266.81
426.958	1303.81
427.18	1288.81
427.402	1299.81
427.625	1268.81
427.847	1234.81
428.069	1271.81
428.292	1283.81
428.514	1293.81
428.736	1254.81
428.958	1307.81
429.181	1257.81
429.403	1272.81
429.625	1241.81
429.847	1241.81
430.069	1213.81
430.292	1253.81
430.514	1251.81
430.736	1283.81
430.958	1303.81
431.18	1256.81
431.402	1279.81
431.624	1237.81
431.846	1237.81
432.068	1253.81
432.29	1273.81
432.512	1257.81
432.734	1283.81
432.956	1266.81
433.178	1267.81
433.4	1249.81
433.622	1273.81
433.844	1282.81
434.066	1302.81
434.287	1292.81
434.509	1313.81
434.731	1312.81
434.953	1343.81
435.175	1331.81
435.397	1336.81
435.618	1272.81
435.84	1277.81
436.062	1234.81
436.284	1263.81
436.505	1247.81
436.727	1272.81
436.949	1218.81
437.17	1233.81
437.392	1223.81
437.614	1234.81
437.835	1227.81
438.057	1256.81
438.278	1246.81
438.5	1257.81
438.721	1242.81
438.943	1244.81
439.165	1211.81
439.386	1201.81
439.608	1249.81
439.829	1230.81
440.05	1237.81
440.272	1255.81
440.493	1239.81
440.715	1297.81
440.936	1319.81
441.158	1305.81
441.379	1274.81
441.6	1314.81
441.822	1263.81
442.043	1310.81
442.264	1306.81
442.486	1307.81
442.707	1293.81
442.928	1293.81
443.149	1292.81
443.371	1277.81
443.592	1282.81
443.813	1296.81
444.034	1309.81
444.255	1319.81
444.476	1323.81
444.698	1396.81
444.919	1363.81
445.14	1471.81
445.361	1400.81
445.582	1332.81
445.803	1271.81
446.024	1256.81
446.245	1256.81
446.466	1256.81
446.687	1239.81
446.908	1250.81
447.129	1213.81
447.35	1203.81
447.571	1217.81
447.792	1219.81
448.013	1204.81
448.234	1204.81
448.455	1185.81
448.675	1173.81
448.896	1164.81
449.117	1153.81
449.338	1148.81
449.559	1157.81
449.779	1149.81
450	1125.81
450.221	1149.81
450.442	1147.81
450.662	1170.81
450.883	1130.81
451.104	1139.81
451.324	1109.81
451.545	1141.81
451.766	1134.81
451.986	1101.81
452.207	1133.81
452.428	1133.81
452.648	1124.81
452.869	1112.81
453.089	1088.81
453.31	1110.81
453.53	1090.81
453.751	1104.81
453.971	1109.81
454.192	1098.81
454.412	1094.81
454.633	1087.81
454.853	1127.81
455.073	1097.81
455.294	1121.81
455.514	1097.81
455.734	1106.81
455.955	1069.81
456.175	1077.81
456.395	1105.81
456.616	1092.81
456.836	1111.81
457.056	1086.81
457.276	1094.81
457.497	1119.81
457.717	1111.81
457.937	1140.81
458.157	1128.81
458.377	1121.81
458.598	1160.81
458.818	1187.81
459.038	1170.81
459.258	1195.81
459.478	1224.81
459.698	1230.81
459.918	1235.81
460.138	1296.81
460.358	1292.81
460.578	1316.81
460.798	1321.81
461.018	1323.81
461.238	1314.81
461.458	1345.81
461.678	1341.81
461.898	1371.81
462.118	1371.81
462.338	1379.81
462.558	1413.81
462.777	1459.81
462.997	1453.81
463.217	1513.81
463.437	1501.81
463.657	1466.81
463.876	1459.81
464.096	1475.81
464.316	1427.81
464.536	1460.81
464.755	1402.81
464.975	1388.81
465.195	1380.81
465.414	1360.81
465.634	1334.81
465.854	1302.81
466.073	1261.81
466.293	1247.81
466.512	1253.81
466.732	1233.81
466.951	1236.81
467.171	1210.81
467.391	1239.81
467.61	1230.81
467.829	1224.81
468.049	1203.81
468.268	1219.81
468.488	1223.81
468.707	1249.81
468.927	1208.81
469.146	1222.81
469.365	1209.81
469.585	1177.81
469.804	1240.81
470.023	1232.81
470.243	1225.81
470.462	1225.81
470.681	1251.81
470.901	1190.81
471.12	1190.81
471.339	1237.81
471.558	1213.81
471.777	1247.81
471.997	1233.81
472.216	1227.81
472.435	1212.81
472.654	1201.81
472.873	1186.81
473.092	1228.81
473.311	1233.81
473.53	1223.81
473.749	1219.81
473.968	1243.81
474.187	1229.81
474.406	1195.81
474.625	1236.81
474.844	1235.81
475.063	1239.81
475.282	1260.81
475.501	1267.81
475.72	1223.81
475.939	1266.81
476.158	1283.81
476.377	1321.81
476.596	1354.81
476.814	1382.81
477.033	1288.81
477.252	1332.81
477.471	1351.81
477.69	1315.81
477.908	1393.81
478.127	1383.81
478.346	1385.81
478.564	1410.81
478.783	1421.81
479.002	1440.81
479.22	1479.81
479.439	1482.81
479.658	1456.81
479.876	1478.81
480.095	1452.81
480.313	1504.81
480.532	1506.81
480.751	1475.81
480.969	1509.81
481.188	1535.81
481.406	1512.81
481.624	1484.81
481.843	1460.81
482.061	1465.81
482.28	1465.81
482.498	1453.81
482.717	1480.81
482.935	1484.81
483.153	1509.81
483.372	1453.81
483.59	1484.81
483.808	1473.81
484.027	1478.81
484.245	1457.81
484.463	1505.81
484.681	1511.81
484.9	1489.81
485.118	1523.81
485.336	1507.81
485.554	1485.81
485.772	1530.81
485.99	1523.81
486.209	1499.81
486.427	1483.81
486.645	1495.81
486.863	1528.81
487.081	1531.81
487.299	1545.81
487.517	1533.81
487.735	1555.81
487.953	1547.81
488.171	1534.81
488.389	1553.81
488.607	1483.81
488.825	1517.81
489.043	1508.81
489.261	1536.81
489.479	1519.81
489.696	1523.81
489.914	1515.81
490.132	1526.81
490.35	1542.81
490.568	1565.81
490.786	1523.81
491.003	1531.81
491.221	1507.81
491.439	1544.81
491.657	1541.81
491.874	1561.81
492.092	1574.81
492.31	1567.81
492.527	1572.81
492.745	1568.81
492.963	1561.81
493.18	1591.81
493.398	1559.81
493.615	1591.81
493.833	1563.81
494.05	1547.81
494.268	1570.81
494.485	1576.81
494.703	1601.81
494.92	1568.81
495.138	1597.81
495.355	1574.81
495.573	1567.81
495.79	1581.81
496.008	1624.81
496.225	1606.81
496.442	1611.81
496.66	1665.81
496.877	1695.81
497.094	1685.81
497.312	1669.81
497.529	1728.81
497.746	1696.81
497.963	1814.81
498.181	1812.81
498.398	1881.81
498.615	1927.81
498.832	2015.81
499.049	2048.81
499.267	2051.81
499.484	2148.81
499.701	2232.81
499.918	2324.81
500.135	2415.81
500.352	2557.81
500.569	2557.81
500.786	2591.81
501.003	2548.81
501.22	2449.81
501.437	2363.81
501.654	2231.81
501.871	2170.81
502.088	2081.81
502.305	2039.81
502.522	1925.81
502.739	1933.81
502.956	1865.81
503.172	1826.81
503.389	1720.81
503.606	1699.81
503.823	1738.81
504.04	1673.81
504.256	1665.81
504.473	1669.81
504.69	1600.81
504.907	1619.81
505.123	1610.81
505.34	1549.81
505.557	1494.81
505.773	1509.81
505.99	1428.81
506.207	1471.81
506.423	1434.81
506.64	1410.81
506.856	1379.81
507.073	1381.81
507.289	1395.81
507.506	1360.81
507.722	1375.81
507.939	1412.81
508.155	1349.81
508.372	1319.81
508.588	1319.81
508.805	1317.81
509.021	1347.81
509.238	1288.81
509.454	1312.81
509.67	1293.81
509.887	1248.81
510.103	1303.81
510.319	1288.81
510.536	1267.81
510.752	1219.81
510.968	1256.81
511.184	1208.81
511.401	1240.81
511.617	1223.81
511.833	1220.81
512.049	1217.81
512.265	1225.81
512.481	1244.81
512.698	1244.81
512.914	1213.81
513.13	1229.81
513.346	1218.81
513.562	1217.81
513.778	1220.81
513.994	1234.81
514.21	1212.81
514.426	1234.81
514.642	1226.81
514.858	1250.81
515.074	1242.81
515.29	1265.81
515.506	1244.81
515.721	1241.81
515.937	1256.81
516.153	1297.81
516.369	1305.81
516.585	1309.81
516.801	1314.81
517.016	1363.81
517.232	1368.81
517.448	1355.81
517.664	1360.81
517.879	1337.81
518.095	1373.81
518.311	1347.81
518.527	1322.81
518.742	1320.81
518.958	1329.81
519.173	1292.81
519.389	1283.81
519.605	1269.81
519.82	1277.81
520.036	1297.81
520.251	1293.81
520.467	1257.81
520.682	1229.81
520.898	1215.81
521.113	1205.81
521.329	1218.81
521.544	1180.81
521.76	1209.81
521.975	1179.81
522.19	1161.81
522.406	1135.81
522.621	1200.81
522.836	1136.81
523.052	1162.81
523.267	1110.81
523.482	1125.81
523.698	1143.81
523.913	1123.81
524.128	1119.81
524.343	1123.81
524.559	1097.81
524.774	1098.81
524.989	1100.81
525.204	1112.81
525.419	1116.81
525.634	1104.81
525.849	1086.81
526.064	1121.81
526.28	1100.81
526.495	1116.81
526.71	1120.81
526.925	1099.81
527.14	1083.81
527.355	1080.81
527.57	1074.81
527.785	1098.81
527.999	1068.81
528.214	1065.81
528.429	1046.81
528.644	1066.81
528.859	1070.81
529.074	1052.81
529.289	1050.81
529.503	1045.81
529.718	1086.81
529.933	1047.81
530.148	1042.81
530.363	1066.81
530.577	1040.81
530.792	1019.81
531.007	1023.81
531.221	1043.81
531.436	1028.81
531.651	1035.81
531.865	1041.81
532.08	1050.81
532.295	1010.81
532.509	1000.81
532.724	1020.81
532.938	1057.81
533.153	1035.81
533.367	1055.81
533.582	1064.81
533.796	1019.81
534.011	1044.81
534.225	1053.81
534.44	1039.81
534.654	1016.81
534.868	1013.81
535.083	998.81
535.297	1004.81
535.511	1027.81
535.726	990.81
535.94	999.81
536.154	983.81
536.369	944.81
536.583	947.81
536.797	992.81
537.011	995.81
537.225	947.81
537.44	974.81
537.654	972.81
537.868	978.81
538.082	924.81
538.296	961.81
538.51	952.81
538.724	970.81
538.938	956.81
539.153	971.81
539.367	973.81
539.581	996.81
539.795	954.81
540.009	952.81
540.222	934.81
540.436	919.81
540.65	965.81
540.864	921.81
541.078	943.81
541.292	936.81
541.506	973.81
541.72	960.81
541.934	961.81
542.147	992.81
542.361	989.81
542.575	939.81
542.789	944.81
543.002	915.81
543.216	933.81
543.43	931.81
543.644	956.81
543.857	924.81
544.071	940.81
544.285	931.81
544.498	945.81
544.712	897.81
544.925	923.81
545.139	949.81
545.352	929.81
545.566	928.81
545.779	956.81
545.993	946.81
546.206	944.81
546.42	912.81
546.633	950.81
546.847	940.81
547.06	925.81
547.274	928.81
547.487	938.81
547.7	975.81
547.914	933.81
548.127	946.81
548.34	979.81
548.554	928.81
548.767	945.81
548.98	936.81
549.193	940.81
549.407	938.81
549.62	945.81
549.833	961.81
550.046	938.81
550.259	966.81
550.473	937.81
550.686	938.81
550.899	930.81
551.112	942.81
551.325	924.81
551.538	937.81
551.751	943.81
551.964	914.81
552.177	915.81
552.39	915.81
552.603	937.81
552.816	929.81
553.029	933.81
553.242	946.81
553.455	945.81
553.667	971.81
553.88	930.81
554.093	925.81
554.306	932.81
554.519	908.81
554.732	899.81
554.944	898.81
555.157	900.81
555.37	856.81
555.583	881.81
555.795	857.81
556.008	833.81
556.221	831.81
556.433	835.81
556.646	849.81
556.859	815.81
557.071	846.81
557.284	828.81
557.496	822.81
557.709	805.81
557.921	826.81
558.134	803.81
558.346	811.81
558.559	815.81
558.771	813.81
558.984	789.81
559.196	804.81
559.409	804.81
559.621	779.81
559.833	802.81
560.046	792.81
560.258	794.81
560.47	792.81
560.683	801.81
560.895	771.81
561.107	788.81
561.32	799.81
561.532	793.81
561.744	801.81
561.956	800.81
562.168	791.81
562.381	795.81
562.593	807.81
562.805	788.81
563.017	781.81
563.229	791.81
563.441	807.81
563.653	788.81
563.865	800.81
564.077	790.81
564.289	808.81
564.501	830.81
564.713	822.81
564.925	829.81
565.137	851.81
565.349	851.81
565.561	887.81
565.773	883.81
565.985	917.81
566.197	896.81
566.408	924.81
566.62	962.81
566.832	932.81
567.044	963.81
567.255	957.81
567.467	1002.81
567.679	996.81
567.891	1034.81
568.102	976.81
568.314	967.81
568.526	942.81
568.737	900.81
568.949	905.81
569.161	865.81
569.372	838.81
569.584	829.81
569.795	816.81
570.007	782.81
570.218	786.81
570.43	781.81
570.641	745.81
570.853	762.81
571.064	770.81
571.276	731.81
571.487	720.81
571.698	696.81
571.91	737.81
572.121	701.81
572.333	684.81
572.544	663.81
572.755	673.81
572.966	684.81
573.178	643.81
573.389	662.81
573.6	642.81
573.811	632.81
574.023	650.81
574.234	642.81
574.445	612.81
574.656	639.81
574.867	627.81
575.078	626.81
575.289	629.81
575.501	621.81
575.712	613.81
575.923	594.81
576.134	589.81
576.345	620.81
576.556	599.81
576.767	596.81
576.978	593.81
577.188	586.81
577.399	583.81
577.61	589.81
577.821	597.81
578.032	616.81
578.243	559.81
578.454	570.81
578.665	576.81
578.875	564.81
579.086	567.81
579.297	559.81
579.508	569.81
579.718	566.81
579.929	574.81
580.14	570.81
580.35	562.81
580.561	551.81
580.772	549.81
580.982	544.81
581.193	554.81
581.403	535.81
581.614	540.81
581.825	546.81
582.035	547.81
582.246	535.81
582.456	540.81
582.667	537.81
582.877	548.81
583.087	516.81
583.298	530.81
583.508	534.81
583.719	533.81
583.929	512.81
584.139	518.81
584.35	524.81
584.56	525.81
584.77	506.81
584.981	520.81
585.191	523.81
585.401	542.81
585.611	528.81
585.821	502.81
586.032	503.81
586.242	525.81
586.452	530.81
586.662	490.81
586.872	524.81
587.082	503.81
587.292	524.81
587.502	520.81
587.713	520.81
587.923	538.81
588.133	511.81
588.343	515.81
588.553	536.81
588.762	522.81
588.972	506.81
589.182	522.81
589.392	523.81
589.602	504.81
589.812	496.81
590.022	518.81
590.232	514.81
590.441	514.81
590.651	496.81
590.861	511.81
591.071	502.81
591.281	513.81
591.49	511.81
591.7	517.81
591.91	506.81
592.119	522.81
592.329	535.81
592.539	539.81
592.748	528.81
592.958	549.81
593.167	507.81
593.377	535.81
593.587	542.81
593.796	527.81
594.006	524.81
594.215	521.81
594.424	511.81
594.634	521.81
594.843	501.81
595.053	523.81
595.262	510.81
595.472	509.81
595.681	509.81
595.89	494.81
596.1	481.81
596.309	492.81
596.518	489.81
596.727	468.81
596.937	464.81
597.146	454.81
597.355	468.81
597.564	445.81
597.774	450.81
597.983	455.81
598.192	452.81
598.401	424.81
598.61	464.81
598.819	457.81
599.028	425.81
599.237	433.81
599.446	436.81
599.655	451.81
599.864	426.81
600.073	426.81
600.282	432.81
600.491	404.81
600.7	421.81
600.909	423.81
601.118	409.81
601.327	412.81
601.536	421.81
601.745	419.81
601.953	402.81
602.162	413.81
602.371	408.81
602.58	430.81
602.789	402.81
602.997	401.81
603.206	413.81
603.415	400.81
603.623	397.81
603.832	405.81
604.041	397.81
604.249	374.81
604.458	391.81
604.666	386.81
604.875	400.81
605.084	383.81
605.292	397.81
605.501	405.81
605.709	422.81
605.918	396.81
606.126	392.81
606.334	395.81
606.543	401.81
606.751	394.81
606.96	389.81
607.168	384.81
607.376	385.81
607.585	383.81
607.793	381.81
608.001	383.81
608.21	368.81
608.418	390.81
608.626	372.81
608.834	370.81
609.043	365.81
609.251	379.81
609.459	359.81
609.667	381.81
609.875	360.81
610.083	389.81
610.291	374.81
610.499	377.81
610.707	368.81
610.916	375.81
611.124	380.81
611.332	353.81
611.54	383.81
611.748	356.81
611.955	361.81
612.163	369.81
612.371	371.81
612.579	359.81
612.787	375.81
612.995	355.81
613.203	354.81
613.411	345.81
613.618	363.81
613.826	364.81
614.034	347.81
614.242	353.81
614.449	345.81
614.657	361.81
614.865	358.81
615.072	361.81
615.28	369.81
615.488	341.81
615.695	357.81
615.903	344.81
616.111	359.81
616.318	360.81
616.526	365.81
616.733	374.81
616.941	361.81
617.148	351.81
617.356	348.81
617.563	342.81
617.771	359.81
617.978	332.81
618.185	354.81
618.393	344.81
618.6	341.81
618.807	353.81
619.015	351.81
619.222	342.81
619.429	351.81
619.637	351.81
619.844	322.81
620.051	335.81
620.258	328.81
620.466	331.81
620.673	319.81
620.88	317.81
621.087	342.81
621.294	344.81
621.501	315.81
621.708	331.81
621.915	329.81
622.122	343.81
622.329	322.81
622.536	343.81
622.743	327.81
622.95	331.81
623.157	327.81
623.364	327.81
623.571	317.81
623.778	315.81
623.985	316.81
624.192	327.81
624.399	327.81
624.606	334.81
624.812	317.81
625.019	316.81
625.226	304.81
625.433	305.81
625.639	306.81
625.846	312.81
626.053	315.81
626.259	302.81
626.466	311.81
626.673	311.81
626.879	316.81
627.086	321.81
627.293	296.81
627.499	312.81
627.706	299.81
627.912	305.81
628.119	292.81
628.325	312.81
628.532	295.81
628.738	283.81
628.945	279.81
629.151	283.81
629.357	289.81
629.564	294.81
629.77	302.81
629.976	284.81
630.183	284.81
630.389	290.81
630.595	304.81
630.802	281.81
631.008	288.81
631.214	282.81
631.42	276.81
631.627	277.81
631.833	267.81
632.039	275.81
632.245	282.81
632.451	289.81
632.657	268.81
632.863	279.81
633.069	280.81
633.275	274.81
633.481	276.81
633.688	288.81
633.893	273.81
634.099	296.81
634.305	262.81
634.511	269.81
634.717	273.81
634.923	284.81
635.129	265.81
635.335	264.81
635.541	276.81
635.747	282.81
635.952	269.81
636.158	259.81
636.364	269.81
636.57	270.81
636.775	275.81
636.981	257.81
637.187	263.81
637.392	262.81
637.598	267.81
637.804	265.81
638.009	269.81
638.215	269.81
638.421	273.81
638.626	257.81
638.832	266.81
639.037	266.81
639.243	248.81
639.448	249.81
639.654	260.81
639.859	259.81
640.065	250.81
640.27	266.81
640.475	252.81
640.681	271.81
640.886	276.81
641.091	253.81
641.297	244.81
641.502	257.81
641.707	262.81
641.913	266.81
642.118	270.81
642.323	251.81
642.528	250.81
642.733	256.81
642.939	277.81
643.144	242.81
643.349	252.81
643.554	249.81
643.759	254.81
643.964	260.81
644.169	257.81
644.374	259.81
644.579	250.81
644.784	259.81
644.989	253.81
645.194	260.81
645.399	273.81
645.604	253.81
645.809	276.81
646.014	274.81
646.219	266.81
646.423	273.81
646.628	262.81
646.833	264.81
647.038	276.81
647.243	269.81
647.447	267.81
647.652	260.81
647.857	272.81
648.062	265.81
648.266	276.81
648.471	284.81
648.676	269.81
648.88	273.81
649.085	276.81
649.289	258.81
649.494	236.81
649.698	267.81
649.903	256.81
650.107	273.81
650.312	271.81
650.516	268.81
650.721	268.81
650.925	269.81
651.13	273.81
651.334	268.81
651.539	255.81
651.743	247.81
651.947	256.81
652.152	267.81
652.356	269.81
652.56	264.81
652.764	267.81
652.969	246.81
653.173	240.81
653.377	271.81
653.581	249.81
653.785	241.81
653.99	256.81
654.194	252.81
654.398	246.81
654.602	263.81
654.806	247.81
655.01	264.81
655.214	234.81
655.418	249.81
655.622	263.81
655.826	273.81
656.03	284.81
656.234	271.81
656.438	285.81
656.642	263.81
656.846	269.81
657.049	255.81
657.253	229.81
657.457	218.81
657.661	217.81
657.865	189.81
658.068	193.81
658.272	180.81
658.476	196.81
658.68	183.81
658.883	150.81
659.087	125.81
659.291	148.81
659.494	140.81
659.698	123.81
659.901	136.81
660.105	131.81
660.309	113.81
660.512	125.81
660.716	120.81
660.919	102.81
661.123	119.81
661.326	101.81
661.53	112.81
661.733	104.81
661.936	87.81
662.14	90.81
662.343	76.81
662.546	90.81
662.75	108.81
662.953	75.81
663.156	92.81
663.36	74.81
663.563	87.81
663.766	78.81
663.969	80.81
664.173	83.81
664.376	77.81
664.579	84.81
664.782	75.81
664.985	72.81
665.188	95.81
665.391	87.81
665.594	79.81
665.797	71.81
666	86.81
666.203	83.81
666.406	66.81
666.609	86.81
666.812	81.81
667.015	86.81
667.218	89.81
667.421	84.81
667.624	80.81
667.827	82.81
668.03	68.81
668.232	88.81
668.435	89.81
668.638	91.81
668.841	81.81
669.043	82.81
669.246	77.81
669.449	77.81
669.651	76.81
669.854	75.81
670.057	69.81
670.259	75.81
670.462	73.81
670.665	72.81
670.867	71.81
671.07	92.81
671.272	83.81
671.475	70.81
671.677	79.81
671.88	82.81
672.082	73.81
672.284	83.81
672.487	88.81
672.689	86.81
672.892	77.81
