Data from Fe(NO3)3@0.025M.TitratingCurve.Agarose3%dH2O.NegLispCup.LampEnergy10.LIBS07252019_HRD10591_16-53-57-335.txt Node
Date: Thu Jul 25 16:53:57 EDT 2019
User: cochatt
Spectrometer: HR+D1059
Trigger mode: 1
Integration Time (sec): 1.000000E-1
Scans to average: 1
Electric dark correction enabled: true
Nonlinearity correction enabled: false
Boxcar width: 0
XAxis mode: Wavelengths
Number of Pixels in Spectrum: 2048
>>>>>Begin Spectral Data<<<<<
223.165	-20.62
223.4	-20.62
223.635	-20.62
223.869	-13.62
224.104	-14.62
224.338	-14.62
224.573	-23.62
224.808	-22.62
225.042	-4.62
225.277	7.38
225.511	2.38
225.746	10.38
225.98	3.38
226.215	3.38
226.449	10.38
226.683	24.38
226.918	27.38
227.152	25.38
227.387	33.38
227.621	36.38
227.856	52.38
228.09	39.38
228.324	47.38
228.559	60.38
228.793	42.38
229.027	70.38
229.262	68.38
229.496	73.38
229.73	91.38
229.964	72.38
230.199	89.38
230.433	81.38
230.667	69.38
230.901	93.38
231.136	90.38
231.37	97.38
231.604	98.38
231.838	92.38
232.072	86.38
232.306	89.38
232.541	88.38
232.775	97.38
233.009	112.38
233.243	94.38
233.477	95.38
233.711	85.38
233.945	95.38
234.179	87.38
234.413	105.38
234.647	107.38
234.881	94.38
235.115	89.38
235.349	88.38
235.583	106.38
235.817	100.38
236.051	92.38
236.285	93.38
236.519	95.38
236.753	91.38
236.987	94.38
237.221	100.38
237.455	93.38
237.689	97.38
237.922	86.38
238.156	94.38
238.39	110.38
238.624	116.38
238.858	112.38
239.091	107.38
239.325	90.38
239.559	95.38
239.793	110.38
240.027	107.38
240.26	109.38
240.494	116.38
240.728	121.38
240.961	113.38
241.195	103.38
241.429	122.38
241.662	101.38
241.896	118.38
242.13	101.38
242.363	102.38
242.597	104.38
242.83	113.38
243.064	119.38
243.298	111.38
243.531	111.38
243.765	107.38
243.998	117.38
244.232	110.38
244.465	114.38
244.699	106.38
244.932	124.38
245.166	119.38
245.399	116.38
245.633	119.38
245.866	98.38
246.099	108.38
246.333	127.38
246.566	116.38
246.8	126.38
247.033	126.38
247.266	111.38
247.5	124.38
247.733	118.38
247.966	119.38
248.2	105.38
248.433	128.38
248.666	126.38
248.899	130.38
249.133	127.38
249.366	127.38
249.599	114.38
249.832	124.38
250.066	134.38
250.299	121.38
250.532	118.38
250.765	125.38
250.998	124.38
251.231	111.38
251.465	123.38
251.698	123.38
251.931	120.38
252.164	110.38
252.397	126.38
252.63	141.38
252.863	130.38
253.096	134.38
253.329	132.38
253.562	132.38
253.795	125.38
254.028	134.38
254.261	128.38
254.494	143.38
254.727	136.38
254.96	122.38
255.193	134.38
255.426	134.38
255.659	131.38
255.892	147.38
256.124	136.38
256.357	136.38
256.59	141.38
256.823	135.38
257.056	141.38
257.289	130.38
257.521	132.38
257.754	138.38
257.987	137.38
258.22	145.38
258.452	134.38
258.685	147.38
258.918	135.38
259.151	153.38
259.383	138.38
259.616	138.38
259.849	140.38
260.081	146.38
260.314	138.38
260.547	138.38
260.779	128.38
261.012	136.38
261.244	137.38
261.477	151.38
261.71	151.38
261.942	161.38
262.175	142.38
262.407	154.38
262.64	139.38
262.872	146.38
263.105	159.38
263.337	158.38
263.57	174.38
263.802	164.38
264.035	156.38
264.267	137.38
264.499	158.38
264.732	158.38
264.964	153.38
265.197	156.38
265.429	168.38
265.661	165.38
265.894	147.38
266.126	165.38
266.358	150.38
266.591	147.38
266.823	156.38
267.055	162.38
267.287	144.38
267.52	155.38
267.752	158.38
267.984	162.38
268.216	158.38
268.448	154.38
268.681	145.38
268.913	152.38
269.145	161.38
269.377	163.38
269.609	151.38
269.841	164.38
270.073	158.38
270.306	163.38
270.538	159.38
270.77	169.38
271.002	175.38
271.234	166.38
271.466	170.38
271.698	170.38
271.93	177.38
272.162	172.38
272.394	174.38
272.626	189.38
272.858	171.38
273.09	160.38
273.322	159.38
273.553	152.38
273.785	179.38
274.017	179.38
274.249	169.38
274.481	175.38
274.713	195.38
274.945	181.38
275.176	201.38
275.408	189.38
275.64	198.38
275.872	175.38
276.104	176.38
276.335	194.38
276.567	196.38
276.799	176.38
277.031	184.38
277.262	188.38
277.494	168.38
277.726	184.38
277.957	182.38
278.189	174.38
278.421	167.38
278.652	182.38
278.884	184.38
279.115	186.38
279.347	189.38
279.579	204.38
279.81	202.38
280.042	184.38
280.273	197.38
280.505	218.38
280.736	177.38
280.968	184.38
281.199	190.38
281.431	217.38
281.662	206.38
281.894	198.38
282.125	198.38
282.356	193.38
282.588	193.38
282.819	198.38
283.051	192.38
283.282	179.38
283.513	190.38
283.745	192.38
283.976	212.38
284.207	196.38
284.439	201.38
284.67	190.38
284.901	201.38
285.132	196.38
285.364	198.38
285.595	209.38
285.826	209.38
286.057	224.38
286.288	195.38
286.52	207.38
286.751	216.38
286.982	184.38
287.213	213.38
287.444	213.38
287.675	211.38
287.906	201.38
288.138	212.38
288.369	225.38
288.6	186.38
288.831	204.38
289.062	219.38
289.293	211.38
289.524	218.38
289.755	208.38
289.986	204.38
290.217	214.38
290.448	230.38
290.679	215.38
290.91	222.38
291.141	219.38
291.371	221.38
291.602	193.38
291.833	210.38
292.064	219.38
292.295	207.38
292.526	227.38
292.757	209.38
292.987	229.38
293.218	225.38
293.449	223.38
293.68	225.38
293.91	200.38
294.141	208.38
294.372	216.38
294.603	224.38
294.833	202.38
295.064	226.38
295.295	219.38
295.525	222.38
295.756	229.38
295.987	222.38
296.217	234.38
296.448	225.38
296.679	235.38
296.909	221.38
297.14	225.38
297.37	215.38
297.601	246.38
297.831	222.38
298.062	238.38
298.292	240.38
298.523	230.38
298.753	229.38
298.984	238.38
299.214	218.38
299.445	219.38
299.675	249.38
299.905	239.38
300.136	255.38
300.366	230.38
300.597	235.38
300.827	219.38
301.057	249.38
301.288	235.38
301.518	244.38
301.748	256.38
301.979	252.38
302.209	251.38
302.439	239.38
302.669	239.38
302.9	253.38
303.13	240.38
303.36	247.38
303.59	246.38
303.82	253.38
304.051	270.38
304.281	250.38
304.511	248.38
304.741	247.38
304.971	245.38
305.201	240.38
305.431	222.38
305.661	256.38
305.891	258.38
306.121	247.38
306.352	248.38
306.582	257.38
306.812	252.38
307.042	254.38
307.272	235.38
307.502	242.38
307.731	248.38
307.961	246.38
308.191	255.38
308.421	264.38
308.651	269.38
308.881	238.38
309.111	245.38
309.341	240.38
309.571	258.38
309.8	238.38
310.03	254.38
310.26	239.38
310.49	250.38
310.72	250.38
310.949	274.38
311.179	248.38
311.409	233.38
311.639	275.38
311.868	262.38
312.098	269.38
312.328	267.38
312.557	272.38
312.787	262.38
313.017	266.38
313.246	257.38
313.476	263.38
313.706	286.38
313.935	264.38
314.165	265.38
314.394	263.38
314.624	268.38
314.853	243.38
315.083	276.38
315.312	273.38
315.542	276.38
315.771	275.38
316.001	282.38
316.23	275.38
316.46	264.38
316.689	269.38
316.919	272.38
317.148	275.38
317.377	276.38
317.607	259.38
317.836	270.38
318.065	283.38
318.295	287.38
318.524	261.38
318.753	280.38
318.983	280.38
319.212	291.38
319.441	278.38
319.67	273.38
319.9	268.38
320.129	256.38
320.358	274.38
320.587	289.38
320.816	274.38
321.046	286.38
321.275	288.38
321.504	290.38
321.733	300.38
321.962	299.38
322.191	271.38
322.42	316.38
322.649	296.38
322.878	292.38
323.108	292.38
323.337	303.38
323.566	289.38
323.795	294.38
324.024	301.38
324.253	300.38
324.482	298.38
324.71	302.38
324.939	297.38
325.168	291.38
325.397	296.38
325.626	275.38
325.855	291.38
326.084	304.38
326.313	305.38
326.542	298.38
326.77	303.38
326.999	309.38
327.228	310.38
327.457	304.38
327.686	310.38
327.914	297.38
328.143	297.38
328.372	286.38
328.6	321.38
328.829	296.38
329.058	322.38
329.287	299.38
329.515	295.38
329.744	303.38
329.972	307.38
330.201	312.38
330.43	304.38
330.658	308.38
330.887	316.38
331.115	276.38
331.344	320.38
331.572	318.38
331.801	317.38
332.03	307.38
332.258	317.38
332.486	336.38
332.715	318.38
332.943	327.38
333.172	340.38
333.4	333.38
333.629	346.38
333.857	363.38
334.085	331.38
334.314	347.38
334.542	358.38
334.771	349.38
334.999	356.38
335.227	339.38
335.455	328.38
335.684	340.38
335.912	342.38
336.14	347.38
336.369	335.38
336.597	351.38
336.825	330.38
337.053	347.38
337.281	348.38
337.51	335.38
337.738	347.38
337.966	348.38
338.194	325.38
338.422	346.38
338.65	340.38
338.878	331.38
339.106	339.38
339.334	329.38
339.562	331.38
339.79	330.38
340.018	331.38
340.246	305.38
340.474	299.38
340.702	336.38
340.93	320.38
341.158	315.38
341.386	306.38
341.614	320.38
341.842	336.38
342.07	328.38
342.298	312.38
342.526	332.38
342.754	330.38
342.981	333.38
343.209	326.38
343.437	329.38
343.665	336.38
343.893	334.38
344.12	352.38
344.348	338.38
344.576	342.38
344.804	361.38
345.031	321.38
345.259	342.38
345.487	321.38
345.714	338.38
345.942	331.38
346.17	324.38
346.397	313.38
346.625	328.38
346.853	312.38
347.08	333.38
347.308	316.38
347.535	299.38
347.763	310.38
347.99	304.38
348.218	300.38
348.445	296.38
348.673	300.38
348.9	332.38
349.128	324.38
349.355	306.38
349.583	291.38
349.81	306.38
350.037	313.38
350.265	321.38
350.492	290.38
350.72	319.38
350.947	306.38
351.174	309.38
351.402	316.38
351.629	315.38
351.856	302.38
352.083	297.38
352.311	318.38
352.538	294.38
352.765	282.38
352.992	313.38
353.22	306.38
353.447	314.38
353.674	311.38
353.901	316.38
354.128	296.38
354.355	300.38
354.583	303.38
354.81	310.38
355.037	305.38
355.264	300.38
355.491	315.38
355.718	296.38
355.945	309.38
356.172	300.38
356.399	310.38
356.626	304.38
356.853	317.38
357.08	321.38
357.307	303.38
357.534	315.38
357.761	307.38
357.988	308.38
358.215	320.38
358.441	311.38
358.668	319.38
358.895	331.38
359.122	312.38
359.349	294.38
359.576	289.38
359.802	317.38
360.029	310.38
360.256	315.38
360.483	308.38
360.709	303.38
360.936	320.38
361.163	324.38
361.39	300.38
361.616	308.38
361.843	315.38
362.07	310.38
362.296	306.38
362.523	319.38
362.749	295.38
362.976	310.38
363.203	323.38
363.429	299.38
363.656	317.38
363.882	320.38
364.109	321.38
364.335	312.38
364.562	318.38
364.788	322.38
365.015	339.38
365.241	312.38
365.468	309.38
365.694	321.38
365.92	319.38
366.147	312.38
366.373	329.38
366.599	316.38
366.826	318.38
367.052	311.38
367.278	341.38
367.505	320.38
367.731	340.38
367.957	331.38
368.184	333.38
368.41	328.38
368.636	335.38
368.862	317.38
369.089	322.38
369.315	321.38
369.541	326.38
369.767	338.38
369.993	331.38
370.219	324.38
370.445	324.38
370.672	334.38
370.898	340.38
371.124	340.38
371.35	339.38
371.576	327.38
371.802	332.38
372.028	335.38
372.254	321.38
372.48	345.38
372.706	353.38
372.932	344.38
373.158	329.38
373.384	378.38
373.61	361.38
373.835	352.38
374.061	345.38
374.287	340.38
374.513	366.38
374.739	357.38
374.965	364.38
375.191	359.38
375.416	355.38
375.642	337.38
375.868	338.38
376.094	351.38
376.319	342.38
376.545	350.38
376.771	337.38
376.997	355.38
377.222	347.38
377.448	325.38
377.674	322.38
377.899	353.38
378.125	350.38
378.35	331.38
378.576	344.38
378.802	342.38
379.027	333.38
379.253	339.38
379.478	330.38
379.704	330.38
379.929	339.38
380.155	338.38
380.38	327.38
380.606	357.38
380.831	341.38
381.057	336.38
381.282	326.38
381.507	338.38
381.733	346.38
381.958	359.38
382.184	386.38
382.409	358.38
382.634	357.38
382.86	350.38
383.085	369.38
383.31	362.38
383.535	349.38
383.761	362.38
383.986	360.38
384.211	391.38
384.436	354.38
384.662	369.38
384.887	342.38
385.112	366.38
385.337	374.38
385.562	364.38
385.787	362.38
386.013	385.38
386.238	372.38
386.463	380.38
386.688	402.38
386.913	379.38
387.138	387.38
387.363	381.38
387.588	392.38
387.813	407.38
388.038	402.38
388.263	411.38
388.488	397.38
388.713	395.38
388.938	406.38
389.163	384.38
389.387	395.38
389.612	393.38
389.837	393.38
390.062	380.38
390.287	391.38
390.512	376.38
390.736	379.38
390.961	391.38
391.186	408.38
391.411	416.38
391.636	397.38
391.86	411.38
392.085	435.38
392.31	386.38
392.534	398.38
392.759	392.38
392.984	390.38
393.208	419.38
393.433	414.38
393.658	401.38
393.882	404.38
394.107	404.38
394.331	411.38
394.556	421.38
394.78	401.38
395.005	401.38
395.229	419.38
395.454	404.38
395.678	434.38
395.903	427.38
396.127	429.38
396.352	438.38
396.576	417.38
396.801	410.38
397.025	436.38
397.249	433.38
397.474	436.38
397.698	439.38
397.922	439.38
398.147	448.38
398.371	438.38
398.595	445.38
398.82	442.38
399.044	453.38
399.268	480.38
399.492	510.38
399.717	530.38
399.941	535.38
400.165	518.38
400.389	534.38
400.613	492.38
400.837	481.38
401.062	495.38
401.286	484.38
401.51	421.38
401.734	450.38
401.958	462.38
402.182	438.38
402.406	460.38
402.63	463.38
402.854	444.38
403.078	441.38
403.302	453.38
403.526	440.38
403.75	460.38
403.974	484.38
404.198	465.38
404.422	475.38
404.645	467.38
404.869	465.38
405.093	475.38
405.317	437.38
405.541	467.38
405.765	478.38
405.988	473.38
406.212	467.38
406.436	508.38
406.66	517.38
406.883	486.38
407.107	510.38
407.331	527.38
407.555	542.38
407.778	522.38
408.002	540.38
408.226	522.38
408.449	522.38
408.673	517.38
408.896	513.38
409.12	489.38
409.344	503.38
409.567	484.38
409.791	454.38
410.014	493.38
410.238	470.38
410.461	499.38
410.685	489.38
410.908	473.38
411.132	486.38
411.355	464.38
411.578	472.38
411.802	477.38
412.025	475.38
412.249	468.38
412.472	479.38
412.695	484.38
412.919	470.38
413.142	452.38
413.365	454.38
413.589	471.38
413.812	452.38
414.035	456.38
414.258	464.38
414.482	459.38
414.705	460.38
414.928	477.38
415.151	439.38
415.374	440.38
415.597	446.38
415.821	436.38
416.044	438.38
416.267	444.38
416.49	466.38
416.713	444.38
416.936	420.38
417.159	449.38
417.382	428.38
417.605	423.38
417.828	455.38
418.051	452.38
418.274	445.38
418.497	446.38
418.72	446.38
418.943	449.38
419.166	480.38
419.389	487.38
419.611	473.38
419.834	466.38
420.057	459.38
420.28	435.38
420.503	422.38
420.726	449.38
420.948	437.38
421.171	456.38
421.394	444.38
421.617	423.38
421.839	452.38
422.062	432.38
422.285	444.38
422.507	442.38
422.73	450.38
422.953	411.38
423.175	437.38
423.398	455.38
423.621	450.38
423.843	427.38
424.066	426.38
424.288	440.38
424.511	426.38
424.733	448.38
424.956	432.38
425.178	432.38
425.401	422.38
425.623	433.38
425.846	425.38
426.068	438.38
426.291	422.38
426.513	433.38
426.735	445.38
426.958	435.38
427.18	396.38
427.402	424.38
427.625	431.38
427.847	409.38
428.069	428.38
428.292	434.38
428.514	412.38
428.736	421.38
428.958	421.38
429.181	413.38
429.403	425.38
429.625	414.38
429.847	395.38
430.069	416.38
430.292	422.38
430.514	426.38
430.736	421.38
430.958	402.38
431.18	416.38
431.402	436.38
431.624	408.38
431.846	422.38
432.068	426.38
432.29	427.38
432.512	418.38
432.734	426.38
432.956	410.38
433.178	425.38
433.4	425.38
433.622	424.38
433.844	441.38
434.066	438.38
434.287	416.38
434.509	430.38
434.731	423.38
434.953	430.38
435.175	432.38
435.397	438.38
435.618	415.38
435.84	430.38
436.062	423.38
436.284	424.38
436.505	416.38
436.727	422.38
436.949	410.38
437.17	419.38
437.392	410.38
437.614	397.38
437.835	391.38
438.057	425.38
438.278	394.38
438.5	401.38
438.721	416.38
438.943	393.38
439.165	406.38
439.386	421.38
439.608	417.38
439.829	401.38
440.05	407.38
440.272	402.38
440.493	404.38
440.715	423.38
440.936	399.38
441.158	401.38
441.379	412.38
441.6	435.38
441.822	438.38
442.043	435.38
442.264	426.38
442.486	424.38
442.707	429.38
442.928	430.38
443.149	428.38
443.371	422.38
443.592	424.38
443.813	434.38
444.034	435.38
444.255	451.38
444.476	451.38
444.698	433.38
444.919	457.38
445.14	574.38
445.361	489.38
445.582	415.38
445.803	432.38
446.024	414.38
446.245	426.38
446.466	437.38
446.687	412.38
446.908	416.38
447.129	433.38
447.35	408.38
447.571	405.38
447.792	386.38
448.013	415.38
448.234	396.38
448.455	402.38
448.675	376.38
448.896	384.38
449.117	377.38
449.338	415.38
449.559	389.38
449.779	385.38
450	390.38
450.221	387.38
450.442	366.38
450.662	370.38
450.883	382.38
451.104	379.38
451.324	370.38
451.545	390.38
451.766	380.38
451.986	370.38
452.207	376.38
452.428	379.38
452.648	376.38
452.869	379.38
453.089	348.38
453.31	395.38
453.53	370.38
453.751	393.38
453.971	392.38
454.192	358.38
454.412	352.38
454.633	379.38
454.853	357.38
455.073	360.38
455.294	376.38
455.514	363.38
455.734	370.38
455.955	373.38
456.175	375.38
456.395	368.38
456.616	377.38
456.836	377.38
457.056	385.38
457.276	383.38
457.497	377.38
457.717	372.38
457.937	382.38
458.157	379.38
458.377	392.38
458.598	380.38
458.818	399.38
459.038	418.38
459.258	384.38
459.478	404.38
459.698	415.38
459.918	435.38
460.138	412.38
460.358	446.38
460.578	445.38
460.798	453.38
461.018	455.38
461.238	447.38
461.458	466.38
461.678	473.38
461.898	459.38
462.118	444.38
462.338	472.38
462.558	471.38
462.777	483.38
462.997	502.38
463.217	507.38
463.437	520.38
463.657	500.38
463.876	491.38
464.096	491.38
464.316	485.38
464.536	474.38
464.755	474.38
464.975	476.38
465.195	482.38
465.414	449.38
465.634	426.38
465.854	435.38
466.073	417.38
466.293	419.38
466.512	426.38
466.732	408.38
466.951	409.38
467.171	404.38
467.391	402.38
467.61	410.38
467.829	412.38
468.049	387.38
468.268	380.38
468.488	396.38
468.707	375.38
468.927	389.38
469.146	408.38
469.365	409.38
469.585	404.38
469.804	402.38
470.023	409.38
470.243	423.38
470.462	392.38
470.681	406.38
470.901	392.38
471.12	390.38
471.339	407.38
471.558	407.38
471.777	424.38
471.997	413.38
472.216	410.38
472.435	396.38
472.654	407.38
472.873	402.38
473.092	397.38
473.311	397.38
473.53	404.38
473.749	399.38
473.968	383.38
474.187	396.38
474.406	391.38
474.625	403.38
474.844	411.38
475.063	417.38
475.282	396.38
475.501	395.38
475.72	414.38
475.939	421.38
476.158	422.38
476.377	411.38
476.596	415.38
476.814	450.38
477.033	416.38
477.252	411.38
477.471	432.38
477.69	445.38
477.908	444.38
478.127	446.38
478.346	448.38
478.564	463.38
478.783	448.38
479.002	465.38
479.22	460.38
479.439	485.38
479.658	484.38
479.876	449.38
480.095	493.38
480.313	509.38
480.532	482.38
480.751	478.38
480.969	467.38
481.188	472.38
481.406	472.38
481.624	488.38
481.843	467.38
482.061	470.38
482.28	479.38
482.498	487.38
482.717	448.38
482.935	480.38
483.153	442.38
483.372	446.38
483.59	446.38
483.808	454.38
484.027	479.38
484.245	458.38
484.463	449.38
484.681	454.38
484.9	484.38
485.118	474.38
485.336	461.38
485.554	487.38
485.772	479.38
485.99	467.38
486.209	464.38
486.427	468.38
486.645	474.38
486.863	512.38
487.081	479.38
487.299	499.38
487.517	496.38
487.735	474.38
487.953	504.38
488.171	468.38
488.389	487.38
488.607	467.38
488.825	450.38
489.043	499.38
489.261	476.38
489.479	477.38
489.696	459.38
489.914	472.38
490.132	492.38
490.35	493.38
490.568	486.38
490.786	462.38
491.003	484.38
491.221	474.38
491.439	506.38
491.657	490.38
491.874	484.38
492.092	490.38
492.31	464.38
492.527	488.38
492.745	491.38
492.963	495.38
493.18	516.38
493.398	489.38
493.615	493.38
493.833	502.38
494.05	502.38
494.268	502.38
494.485	498.38
494.703	488.38
494.92	486.38
495.138	528.38
495.355	519.38
495.573	515.38
495.79	518.38
496.008	520.38
496.225	523.38
496.442	523.38
496.66	533.38
496.877	546.38
497.094	562.38
497.312	534.38
497.529	556.38
497.746	563.38
497.963	594.38
498.181	613.38
498.398	618.38
498.615	636.38
498.832	653.38
499.049	673.38
499.267	678.38
499.484	718.38
499.701	734.38
499.918	795.38
500.135	827.38
500.352	835.38
500.569	857.38
500.786	891.38
501.003	847.38
501.22	827.38
501.437	793.38
501.654	751.38
501.871	704.38
502.088	714.38
502.305	679.38
502.522	647.38
502.739	641.38
502.956	625.38
503.172	600.38
503.389	602.38
503.606	585.38
503.823	580.38
504.04	578.38
504.256	582.38
504.473	555.38
504.69	562.38
504.907	529.38
505.123	519.38
505.34	527.38
505.557	536.38
505.773	503.38
505.99	490.38
506.207	486.38
506.423	501.38
506.64	486.38
506.856	489.38
507.073	488.38
507.289	470.38
507.506	478.38
507.722	455.38
507.939	462.38
508.155	447.38
508.372	458.38
508.588	463.38
508.805	444.38
509.021	452.38
509.238	454.38
509.454	428.38
509.67	420.38
509.887	437.38
510.103	427.38
510.319	422.38
510.536	434.38
510.752	442.38
510.968	425.38
511.184	444.38
511.401	427.38
511.617	426.38
511.833	421.38
512.049	430.38
512.265	425.38
512.481	432.38
512.698	428.38
512.914	427.38
513.13	434.38
513.346	443.38
513.562	412.38
513.778	425.38
513.994	421.38
514.21	445.38
514.426	458.38
514.642	411.38
514.858	443.38
515.074	434.38
515.29	441.38
515.506	451.38
515.721	434.38
515.937	447.38
516.153	449.38
516.369	454.38
516.585	439.38
516.801	461.38
517.016	474.38
517.232	475.38
517.448	487.38
517.664	501.38
517.879	482.38
518.095	501.38
518.311	478.38
518.527	470.38
518.742	454.38
518.958	481.38
519.173	473.38
519.389	462.38
519.605	441.38
519.82	444.38
520.036	442.38
520.251	423.38
520.467	411.38
520.682	413.38
520.898	426.38
521.113	409.38
521.329	449.38
521.544	433.38
521.76	419.38
521.975	415.38
522.19	400.38
522.406	420.38
522.621	391.38
522.836	414.38
523.052	400.38
523.267	412.38
523.482	411.38
523.698	411.38
523.913	388.38
524.128	400.38
524.343	386.38
524.559	401.38
524.774	398.38
524.989	411.38
525.204	393.38
525.419	401.38
525.634	387.38
525.849	386.38
526.064	404.38
526.28	402.38
526.495	405.38
526.71	394.38
526.925	390.38
527.14	400.38
527.355	384.38
527.57	381.38
527.785	366.38
527.999	372.38
528.214	377.38
528.429	386.38
528.644	377.38
528.859	380.38
529.074	390.38
529.289	390.38
529.503	384.38
529.718	387.38
529.933	381.38
530.148	403.38
530.363	403.38
530.577	373.38
530.792	370.38
531.007	396.38
531.221	382.38
531.436	395.38
531.651	351.38
531.865	380.38
532.08	382.38
532.295	378.38
532.509	391.38
532.724	380.38
532.938	379.38
533.153	376.38
533.367	383.38
533.582	369.38
533.796	370.38
534.011	386.38
534.225	390.38
534.44	370.38
534.654	361.38
534.868	409.38
535.083	381.38
535.297	359.38
535.511	377.38
535.726	390.38
535.94	378.38
536.154	366.38
536.369	353.38
536.583	355.38
536.797	361.38
537.011	347.38
537.225	369.38
537.44	353.38
537.654	359.38
537.868	351.38
538.082	364.38
538.296	369.38
538.51	370.38
538.724	368.38
538.938	368.38
539.153	360.38
539.367	374.38
539.581	356.38
539.795	357.38
540.009	353.38
540.222	369.38
540.436	361.38
540.65	348.38
540.864	353.38
541.078	371.38
541.292	358.38
541.506	349.38
541.72	342.38
541.934	369.38
542.147	376.38
542.361	372.38
542.575	351.38
542.789	360.38
543.002	367.38
543.216	370.38
543.43	360.38
543.644	376.38
543.857	342.38
544.071	351.38
544.285	370.38
544.498	364.38
544.712	346.38
544.925	354.38
545.139	361.38
545.352	348.38
545.566	368.38
545.779	346.38
545.993	366.38
546.206	360.38
546.42	368.38
546.633	361.38
546.847	366.38
547.06	357.38
547.274	347.38
547.487	371.38
547.7	374.38
547.914	377.38
548.127	354.38
548.34	368.38
548.554	336.38
548.767	359.38
548.98	358.38
549.193	360.38
549.407	371.38
549.62	373.38
549.833	355.38
550.046	355.38
550.259	377.38
550.473	382.38
550.686	372.38
550.899	363.38
551.112	343.38
551.325	345.38
551.538	339.38
551.751	350.38
551.964	347.38
552.177	361.38
552.39	341.38
552.603	387.38
552.816	372.38
553.029	359.38
553.242	358.38
553.455	369.38
553.667	381.38
553.88	350.38
554.093	340.38
554.306	366.38
554.519	366.38
554.732	335.38
554.944	353.38
555.157	345.38
555.37	357.38
555.583	340.38
555.795	330.38
556.008	332.38
556.221	340.38
556.433	331.38
556.646	318.38
556.859	345.38
557.071	340.38
557.284	332.38
557.496	318.38
557.709	331.38
557.921	330.38
558.134	313.38
558.346	312.38
558.559	316.38
558.771	341.38
558.984	310.38
559.196	307.38
559.409	325.38
559.621	336.38
559.833	312.38
560.046	322.38
560.258	314.38
560.47	325.38
560.683	318.38
560.895	295.38
561.107	323.38
561.32	329.38
561.532	315.38
561.744	328.38
561.956	329.38
562.168	325.38
562.381	330.38
562.593	302.38
562.805	316.38
563.017	323.38
563.229	311.38
563.441	341.38
563.653	327.38
563.865	313.38
564.077	336.38
564.289	324.38
564.501	340.38
564.713	339.38
564.925	348.38
565.137	346.38
565.349	350.38
565.561	351.38
565.773	352.38
565.985	357.38
566.197	358.38
566.408	376.38
566.62	368.38
566.832	393.38
567.044	387.38
567.255	375.38
567.467	402.38
567.679	381.38
567.891	412.38
568.102	411.38
568.314	384.38
568.526	382.38
568.737	379.38
568.949	366.38
569.161	333.38
569.372	337.38
569.584	337.38
569.795	348.38
570.007	329.38
570.218	314.38
570.43	307.38
570.641	311.38
570.853	318.38
571.064	318.38
571.276	304.38
571.487	309.38
571.698	276.38
571.91	284.38
572.121	298.38
572.333	295.38
572.544	311.38
572.755	297.38
572.966	279.38
573.178	287.38
573.389	279.38
573.6	278.38
573.811	264.38
574.023	279.38
574.234	270.38
574.445	278.38
574.656	244.38
574.867	254.38
575.078	276.38
575.289	270.38
575.501	276.38
575.712	257.38
575.923	258.38
576.134	277.38
576.345	258.38
576.556	252.38
576.767	244.38
576.978	246.38
577.188	248.38
577.399	256.38
577.61	262.38
577.821	273.38
578.032	250.38
578.243	258.38
578.454	266.38
578.665	248.38
578.875	260.38
579.086	262.38
579.297	244.38
579.508	258.38
579.718	258.38
579.929	238.38
580.14	228.38
580.35	242.38
580.561	247.38
580.772	237.38
580.982	228.38
581.193	254.38
581.403	234.38
581.614	245.38
581.825	243.38
582.035	241.38
582.246	243.38
582.456	226.38
582.667	236.38
582.877	228.38
583.087	252.38
583.298	242.38
583.508	243.38
583.719	231.38
583.929	248.38
584.139	254.38
584.35	233.38
584.56	215.38
584.77	235.38
584.981	241.38
585.191	235.38
585.401	230.38
585.611	221.38
585.821	232.38
586.032	231.38
586.242	240.38
586.452	248.38
586.662	226.38
586.872	232.38
587.082	232.38
587.292	236.38
587.502	231.38
587.713	229.38
587.923	234.38
588.133	235.38
588.343	212.38
588.553	229.38
588.762	240.38
588.972	240.38
589.182	239.38
589.392	232.38
589.602	231.38
589.812	231.38
590.022	223.38
590.232	231.38
590.441	241.38
590.651	220.38
590.861	213.38
591.071	222.38
591.281	236.38
591.49	231.38
591.7	240.38
591.91	230.38
592.119	223.38
592.329	226.38
592.539	231.38
592.748	244.38
592.958	233.38
593.167	244.38
593.377	243.38
593.587	251.38
593.796	228.38
594.006	212.38
594.215	242.38
594.424	240.38
594.634	236.38
594.843	224.38
595.053	239.38
595.262	234.38
595.472	219.38
595.681	223.38
595.89	228.38
596.1	209.38
596.309	204.38
596.518	223.38
596.727	219.38
596.937	218.38
597.146	214.38
597.355	218.38
597.564	207.38
597.774	216.38
597.983	217.38
598.192	212.38
598.401	195.38
598.61	191.38
598.819	198.38
599.028	189.38
599.237	213.38
599.446	209.38
599.655	204.38
599.864	193.38
600.073	200.38
600.282	198.38
600.491	182.38
600.7	196.38
600.909	194.38
601.118	206.38
601.327	202.38
601.536	201.38
601.745	201.38
601.953	192.38
602.162	188.38
602.371	191.38
602.58	204.38
602.789	186.38
602.997	203.38
603.206	199.38
603.415	187.38
603.623	189.38
603.832	192.38
604.041	194.38
604.249	198.38
604.458	181.38
604.666	181.38
604.875	192.38
605.084	185.38
605.292	201.38
605.501	186.38
605.709	195.38
605.918	182.38
606.126	190.38
606.334	209.38
606.543	188.38
606.751	189.38
606.96	180.38
607.168	216.38
607.376	172.38
607.585	182.38
607.793	188.38
608.001	187.38
608.21	193.38
608.418	193.38
608.626	188.38
608.834	171.38
609.043	190.38
609.251	187.38
609.459	192.38
609.667	194.38
609.875	170.38
610.083	186.38
610.291	178.38
610.499	176.38
610.707	184.38
610.916	188.38
611.124	181.38
611.332	185.38
611.54	183.38
611.748	194.38
611.955	187.38
612.163	178.38
612.371	186.38
612.579	197.38
612.787	192.38
612.995	172.38
613.203	156.38
613.411	178.38
613.618	183.38
613.826	171.38
614.034	171.38
614.242	190.38
614.449	184.38
614.657	199.38
614.865	196.38
615.072	188.38
615.28	176.38
615.488	166.38
615.695	174.38
615.903	181.38
616.111	178.38
616.318	182.38
616.526	178.38
616.733	178.38
616.941	179.38
617.148	180.38
617.356	177.38
617.563	168.38
617.771	166.38
617.978	171.38
618.185	188.38
618.393	170.38
618.6	184.38
618.807	167.38
619.015	181.38
619.222	177.38
619.429	178.38
619.637	176.38
619.844	175.38
620.051	176.38
620.258	160.38
620.466	170.38
620.673	170.38
620.88	163.38
621.087	166.38
621.294	188.38
621.501	169.38
621.708	152.38
621.915	168.38
622.122	179.38
622.329	171.38
622.536	156.38
622.743	155.38
622.95	177.38
623.157	176.38
623.364	171.38
623.571	166.38
623.778	180.38
623.985	182.38
624.192	172.38
624.399	169.38
624.606	181.38
624.812	162.38
625.019	155.38
625.226	161.38
625.433	174.38
625.639	165.38
625.846	166.38
626.053	159.38
626.259	159.38
626.466	160.38
626.673	169.38
626.879	172.38
627.086	164.38
627.293	161.38
627.499	144.38
627.706	160.38
627.912	178.38
628.119	174.38
628.325	165.38
628.532	150.38
628.738	153.38
628.945	154.38
629.151	149.38
629.357	153.38
629.564	141.38
629.77	156.38
629.976	147.38
630.183	140.38
630.389	157.38
630.595	150.38
630.802	166.38
631.008	169.38
631.214	156.38
631.42	158.38
631.627	166.38
631.833	164.38
632.039	158.38
632.245	158.38
632.451	157.38
632.657	142.38
632.863	158.38
633.069	163.38
633.275	160.38
633.481	156.38
633.688	159.38
633.893	140.38
634.099	156.38
634.305	162.38
634.511	139.38
634.717	158.38
634.923	152.38
635.129	148.38
635.335	143.38
635.541	148.38
635.747	147.38
635.952	143.38
636.158	140.38
636.364	150.38
636.57	151.38
636.775	134.38
636.981	149.38
637.187	152.38
637.392	144.38
637.598	134.38
637.804	167.38
638.009	148.38
638.215	158.38
638.421	159.38
638.626	131.38
638.832	137.38
639.037	144.38
639.243	152.38
639.448	156.38
639.654	141.38
639.859	148.38
640.065	141.38
640.27	161.38
640.475	150.38
640.681	136.38
640.886	144.38
641.091	127.38
641.297	152.38
641.502	153.38
641.707	135.38
641.913	154.38
642.118	155.38
642.323	153.38
642.528	141.38
642.733	146.38
642.939	148.38
643.144	148.38
643.349	153.38
643.554	148.38
643.759	149.38
643.964	165.38
644.169	145.38
644.374	128.38
644.579	143.38
644.784	135.38
644.989	162.38
645.194	128.38
645.399	139.38
645.604	131.38
645.809	159.38
646.014	141.38
646.219	157.38
646.423	144.38
646.628	162.38
646.833	150.38
647.038	144.38
647.243	127.38
647.447	160.38
647.652	160.38
647.857	139.38
648.062	140.38
648.266	158.38
648.471	133.38
648.676	137.38
648.88	150.38
649.085	126.38
649.289	149.38
649.494	144.38
649.698	152.38
649.903	136.38
650.107	133.38
650.312	137.38
650.516	135.38
650.721	135.38
650.925	141.38
651.13	131.38
651.334	138.38
651.539	129.38
651.743	132.38
651.947	118.38
652.152	135.38
652.356	137.38
652.56	124.38
652.764	148.38
652.969	137.38
653.173	118.38
653.377	131.38
653.581	124.38
653.785	139.38
653.99	120.38
654.194	124.38
654.398	125.38
654.602	131.38
654.806	117.38
655.01	136.38
655.214	133.38
655.418	120.38
655.622	134.38
655.826	120.38
656.03	117.38
656.234	126.38
656.438	138.38
656.642	118.38
656.846	135.38
657.049	121.38
657.253	111.38
657.457	116.38
657.661	119.38
657.865	116.38
658.068	114.38
658.272	120.38
658.476	99.38
658.68	102.38
658.883	100.38
659.087	96.38
659.291	90.38
659.494	103.38
659.698	97.38
659.901	100.38
660.105	98.38
660.309	103.38
660.512	115.38
660.716	88.38
660.919	70.38
661.123	99.38
661.326	91.38
661.53	82.38
661.733	87.38
661.936	96.38
662.14	86.38
662.343	83.38
662.546	81.38
662.75	102.38
662.953	81.38
663.156	86.38
663.36	92.38
663.563	75.38
663.766	69.38
663.969	79.38
664.173	75.38
664.376	58.38
664.579	75.38
664.782	76.38
664.985	64.38
665.188	74.38
665.391	74.38
665.594	84.38
665.797	82.38
666	82.38
666.203	75.38
666.406	82.38
666.609	82.38
666.812	72.38
667.015	85.38
667.218	87.38
667.421	80.38
667.624	88.38
667.827	81.38
668.03	75.38
668.232	73.38
668.435	68.38
668.638	89.38
668.841	91.38
669.043	80.38
669.246	77.38
669.449	78.38
669.651	77.38
669.854	89.38
670.057	74.38
670.259	83.38
670.462	80.38
670.665	80.38
670.867	79.38
671.07	75.38
671.272	73.38
671.475	70.38
671.677	83.38
671.88	75.38
672.082	74.38
672.284	84.38
672.487	86.38
672.689	81.38
672.892	86.38
