Data from Fe(NO3)3@0.0125M.TitratingCurve.Agarose3%dH2O.NegLispCup.LampEnergy10.LIBS07252019_HRD10591_16-58-41-336.txt Node
Date: Thu Jul 25 16:58:41 EDT 2019
User: cochatt
Spectrometer: HR+D1059
Trigger mode: 1
Integration Time (sec): 1.000000E-1
Scans to average: 1
Electric dark correction enabled: true
Nonlinearity correction enabled: false
Boxcar width: 0
XAxis mode: Wavelengths
Number of Pixels in Spectrum: 2048
>>>>>Begin Spectral Data<<<<<
223.165	-4.69
223.4	-4.69
223.635	-4.69
223.869	-27.69
224.104	-15.69
224.338	-23.69
224.573	-11.69
224.808	-20.69
225.042	-5.69
225.277	-8.69
225.511	2.31
225.746	13.31
225.98	11.31
226.215	-10.69
226.449	19.31
226.683	27.31
226.918	31.31
227.152	24.31
227.387	36.31
227.621	45.31
227.856	48.31
228.09	40.31
228.324	61.31
228.559	68.31
228.793	93.31
229.027	113.31
229.262	122.31
229.496	117.31
229.73	98.31
229.964	124.31
230.199	135.31
230.433	127.31
230.667	140.31
230.901	109.31
231.136	136.31
231.37	135.31
231.604	130.31
231.838	158.31
232.072	140.31
232.306	145.31
232.541	140.31
232.775	156.31
233.009	149.31
233.243	154.31
233.477	139.31
233.711	151.31
233.945	150.31
234.179	153.31
234.413	142.31
234.647	146.31
234.881	167.31
235.115	134.31
235.349	140.31
235.583	164.31
235.817	173.31
236.051	168.31
236.285	149.31
236.519	170.31
236.753	160.31
236.987	159.31
237.221	159.31
237.455	160.31
237.689	158.31
237.922	158.31
238.156	158.31
238.39	168.31
238.624	163.31
238.858	180.31
239.091	175.31
239.325	190.31
239.559	161.31
239.793	170.31
240.027	171.31
240.26	176.31
240.494	186.31
240.728	188.31
240.961	189.31
241.195	181.31
241.429	194.31
241.662	181.31
241.896	178.31
242.13	196.31
242.363	196.31
242.597	211.31
242.83	197.31
243.064	204.31
243.298	197.31
243.531	192.31
243.765	210.31
243.998	192.31
244.232	210.31
244.465	180.31
244.699	204.31
244.932	200.31
245.166	198.31
245.399	214.31
245.633	207.31
245.866	206.31
246.099	221.31
246.333	224.31
246.566	211.31
246.8	220.31
247.033	208.31
247.266	210.31
247.5	223.31
247.733	223.31
247.966	223.31
248.2	230.31
248.433	231.31
248.666	223.31
248.899	225.31
249.133	228.31
249.366	235.31
249.599	228.31
249.832	238.31
250.066	223.31
250.299	235.31
250.532	229.31
250.765	231.31
250.998	243.31
251.231	248.31
251.465	248.31
251.698	239.31
251.931	254.31
252.164	243.31
252.397	231.31
252.63	264.31
252.863	262.31
253.096	273.31
253.329	268.31
253.562	243.31
253.795	278.31
254.028	286.31
254.261	277.31
254.494	271.31
254.727	283.31
254.96	289.31
255.193	286.31
255.426	260.31
255.659	285.31
255.892	288.31
256.124	281.31
256.357	266.31
256.59	276.31
256.823	289.31
257.056	290.31
257.289	282.31
257.521	286.31
257.754	295.31
257.987	295.31
258.22	318.31
258.452	285.31
258.685	292.31
258.918	300.31
259.151	315.31
259.383	320.31
259.616	303.31
259.849	316.31
260.081	319.31
260.314	307.31
260.547	314.31
260.779	320.31
261.012	330.31
261.244	328.31
261.477	338.31
261.71	337.31
261.942	318.31
262.175	327.31
262.407	315.31
262.64	318.31
262.872	343.31
263.105	323.31
263.337	336.31
263.57	343.31
263.802	326.31
264.035	333.31
264.267	346.31
264.499	333.31
264.732	354.31
264.964	365.31
265.197	336.31
265.429	335.31
265.661	326.31
265.894	340.31
266.126	356.31
266.358	351.31
266.591	344.31
266.823	341.31
267.055	345.31
267.287	362.31
267.52	373.31
267.752	354.31
267.984	343.31
268.216	355.31
268.448	378.31
268.681	367.31
268.913	367.31
269.145	339.31
269.377	374.31
269.609	350.31
269.841	379.31
270.073	351.31
270.306	375.31
270.538	380.31
270.77	382.31
271.002	376.31
271.234	389.31
271.466	378.31
271.698	398.31
271.93	392.31
272.162	387.31
272.394	405.31
272.626	396.31
272.858	392.31
273.09	405.31
273.322	410.31
273.553	419.31
273.785	402.31
274.017	419.31
274.249	416.31
274.481	424.31
274.713	443.31
274.945	430.31
275.176	462.31
275.408	453.31
275.64	458.31
275.872	432.31
276.104	445.31
276.335	431.31
276.567	456.31
276.799	437.31
277.031	450.31
277.262	452.31
277.494	439.31
277.726	436.31
277.957	448.31
278.189	447.31
278.421	429.31
278.652	480.31
278.884	447.31
279.115	467.31
279.347	466.31
279.579	453.31
279.81	470.31
280.042	476.31
280.273	468.31
280.505	469.31
280.736	481.31
280.968	474.31
281.199	471.31
281.431	479.31
281.662	456.31
281.894	462.31
282.125	482.31
282.356	468.31
282.588	500.31
282.819	517.31
283.051	496.31
283.282	488.31
283.513	506.31
283.745	491.31
283.976	493.31
284.207	510.31
284.439	512.31
284.67	491.31
284.901	504.31
285.132	503.31
285.364	491.31
285.595	505.31
285.826	513.31
286.057	505.31
286.288	498.31
286.52	517.31
286.751	531.31
286.982	504.31
287.213	503.31
287.444	518.31
287.675	534.31
287.906	523.31
288.138	554.31
288.369	533.31
288.6	528.31
288.831	527.31
289.062	536.31
289.293	539.31
289.524	544.31
289.755	562.31
289.986	547.31
290.217	550.31
290.448	552.31
290.679	554.31
290.91	554.31
291.141	539.31
291.371	550.31
291.602	546.31
291.833	566.31
292.064	570.31
292.295	564.31
292.526	546.31
292.757	551.31
292.987	554.31
293.218	550.31
293.449	576.31
293.68	560.31
293.91	583.31
294.141	587.31
294.372	581.31
294.603	576.31
294.833	587.31
295.064	574.31
295.295	577.31
295.525	566.31
295.756	571.31
295.987	587.31
296.217	578.31
296.448	578.31
296.679	586.31
296.909	588.31
297.14	563.31
297.37	614.31
297.601	614.31
297.831	587.31
298.062	600.31
298.292	592.31
298.523	589.31
298.753	601.31
298.984	601.31
299.214	601.31
299.445	602.31
299.675	600.31
299.905	604.31
300.136	602.31
300.366	621.31
300.597	630.31
300.827	628.31
301.057	624.31
301.288	630.31
301.518	634.31
301.748	610.31
301.979	640.31
302.209	640.31
302.439	634.31
302.669	646.31
302.9	627.31
303.13	642.31
303.36	637.31
303.59	666.31
303.82	636.31
304.051	642.31
304.281	680.31
304.511	640.31
304.741	674.31
304.971	641.31
305.201	640.31
305.431	654.31
305.661	665.31
305.891	664.31
306.121	656.31
306.352	679.31
306.582	656.31
306.812	659.31
307.042	664.31
307.272	675.31
307.502	657.31
307.731	665.31
307.961	692.31
308.191	667.31
308.421	669.31
308.651	690.31
308.881	682.31
309.111	680.31
309.341	674.31
309.571	656.31
309.8	700.31
310.03	690.31
310.26	670.31
310.49	679.31
310.72	670.31
310.949	684.31
311.179	691.31
311.409	693.31
311.639	699.31
311.868	696.31
312.098	719.31
312.328	738.31
312.557	725.31
312.787	710.31
313.017	738.31
313.246	709.31
313.476	717.31
313.706	735.31
313.935	720.31
314.165	726.31
314.394	705.31
314.624	722.31
314.853	736.31
315.083	726.31
315.312	742.31
315.542	768.31
315.771	748.31
316.001	757.31
316.23	724.31
316.46	738.31
316.689	775.31
316.919	742.31
317.148	758.31
317.377	758.31
317.607	743.31
317.836	751.31
318.065	750.31
318.295	761.31
318.524	738.31
318.753	776.31
318.983	782.31
319.212	755.31
319.441	744.31
319.67	777.31
319.9	786.31
320.129	780.31
320.358	775.31
320.587	771.31
320.816	787.31
321.046	788.31
321.275	786.31
321.504	780.31
321.733	779.31
321.962	823.31
322.191	786.31
322.42	780.31
322.649	781.31
322.878	772.31
323.108	797.31
323.337	808.31
323.566	811.31
323.795	792.31
324.024	794.31
324.253	812.31
324.482	824.31
324.71	814.31
324.939	841.31
325.168	846.31
325.397	840.31
325.626	814.31
325.855	822.31
326.084	855.31
326.313	841.31
326.542	831.31
326.77	843.31
326.999	824.31
327.228	839.31
327.457	847.31
327.686	818.31
327.914	832.31
328.143	831.31
328.372	803.31
328.6	839.31
328.829	806.31
329.058	825.31
329.287	805.31
329.515	802.31
329.744	855.31
329.972	866.31
330.201	860.31
330.43	830.31
330.658	860.31
330.887	860.31
331.115	875.31
331.344	832.31
331.572	852.31
331.801	861.31
332.03	856.31
332.258	883.31
332.486	865.31
332.715	874.31
332.943	873.31
333.172	881.31
333.4	864.31
333.629	866.31
333.857	918.31
334.085	894.31
334.314	899.31
334.542	907.31
334.771	913.31
334.999	867.31
335.227	921.31
335.455	910.31
335.684	868.31
335.912	926.31
336.14	920.31
336.369	906.31
336.597	942.31
336.825	933.31
337.053	931.31
337.281	922.31
337.51	909.31
337.738	913.31
337.966	918.31
338.194	903.31
338.422	875.31
338.65	894.31
338.878	871.31
339.106	872.31
339.334	903.31
339.562	904.31
339.79	863.31
340.018	892.31
340.246	898.31
340.474	900.31
340.702	926.31
340.93	874.31
341.158	888.31
341.386	914.31
341.614	886.31
341.842	887.31
342.07	893.31
342.298	893.31
342.526	903.31
342.754	902.31
342.981	904.31
343.209	901.31
343.437	893.31
343.665	916.31
343.893	918.31
344.12	912.31
344.348	909.31
344.576	931.31
344.804	899.31
345.031	892.31
345.259	898.31
345.487	920.31
345.714	893.31
345.942	891.31
346.17	887.31
346.397	882.31
346.625	876.31
346.853	870.31
347.08	884.31
347.308	868.31
347.535	872.31
347.763	868.31
347.99	874.31
348.218	866.31
348.445	867.31
348.673	849.31
348.9	882.31
349.128	878.31
349.355	873.31
349.583	886.31
349.81	871.31
350.037	841.31
350.265	873.31
350.492	839.31
350.72	874.31
350.947	864.31
351.174	850.31
351.402	852.31
351.629	858.31
351.856	864.31
352.083	903.31
352.311	869.31
352.538	865.31
352.765	880.31
352.992	853.31
353.22	855.31
353.447	870.31
353.674	841.31
353.901	848.31
354.128	841.31
354.355	853.31
354.583	856.31
354.81	860.31
355.037	855.31
355.264	868.31
355.491	866.31
355.718	873.31
355.945	856.31
356.172	856.31
356.399	870.31
356.626	855.31
356.853	852.31
357.08	872.31
357.307	879.31
357.534	846.31
357.761	877.31
357.988	868.31
358.215	869.31
358.441	889.31
358.668	878.31
358.895	860.31
359.122	874.31
359.349	847.31
359.576	852.31
359.802	855.31
360.029	837.31
360.256	863.31
360.483	857.31
360.709	862.31
360.936	861.31
361.163	852.31
361.39	868.31
361.616	885.31
361.843	870.31
362.07	871.31
362.296	875.31
362.523	872.31
362.749	870.31
362.976	885.31
363.203	907.31
363.429	870.31
363.656	886.31
363.882	868.31
364.109	866.31
364.335	878.31
364.562	871.31
364.788	888.31
365.015	916.31
365.241	881.31
365.468	902.31
365.694	898.31
365.92	890.31
366.147	915.31
366.373	868.31
366.599	891.31
366.826	884.31
367.052	887.31
367.278	894.31
367.505	886.31
367.731	903.31
367.957	897.31
368.184	922.31
368.41	890.31
368.636	935.31
368.862	918.31
369.089	883.31
369.315	898.31
369.541	921.31
369.767	893.31
369.993	895.31
370.219	905.31
370.445	926.31
370.672	922.31
370.898	908.31
371.124	893.31
371.35	911.31
371.576	918.31
371.802	912.31
372.028	916.31
372.254	938.31
372.48	935.31
372.706	926.31
372.932	939.31
373.158	946.31
373.384	920.31
373.61	955.31
373.835	971.31
374.061	948.31
374.287	935.31
374.513	936.31
374.739	962.31
374.965	948.31
375.191	959.31
375.416	937.31
375.642	954.31
375.868	938.31
376.094	936.31
376.319	926.31
376.545	930.31
376.771	900.31
376.997	913.31
377.222	920.31
377.448	908.31
377.674	932.31
377.899	898.31
378.125	920.31
378.35	904.31
378.576	912.31
378.802	928.31
379.027	930.31
379.253	910.31
379.478	914.31
379.704	943.31
379.929	924.31
380.155	907.31
380.38	906.31
380.606	943.31
380.831	934.31
381.057	920.31
381.282	926.31
381.507	943.31
381.733	937.31
381.958	937.31
382.184	915.31
382.409	961.31
382.634	965.31
382.86	917.31
383.085	972.31
383.31	962.31
383.535	967.31
383.761	928.31
383.986	966.31
384.211	932.31
384.436	979.31
384.662	966.31
384.887	951.31
385.112	958.31
385.337	1004.31
385.562	1011.31
385.787	995.31
386.013	1005.31
386.238	977.31
386.463	989.31
386.688	1018.31
386.913	974.31
387.138	997.31
387.363	1026.31
387.588	980.31
387.813	1018.31
388.038	1012.31
388.263	1012.31
388.488	990.31
388.713	1025.31
388.938	1026.31
389.163	1013.31
389.387	1011.31
389.612	1005.31
389.837	1018.31
390.062	1011.31
390.287	1015.31
390.512	997.31
390.736	1024.31
390.961	998.31
391.186	996.31
391.411	982.31
391.636	1013.31
391.86	1006.31
392.085	1012.31
392.31	1039.31
392.534	1024.31
392.759	1025.31
392.984	1045.31
393.208	1023.31
393.433	1031.31
393.658	1033.31
393.882	1014.31
394.107	1017.31
394.331	1061.31
394.556	1013.31
394.78	1032.31
395.005	1035.31
395.229	1010.31
395.454	1047.31
395.678	1019.31
395.903	1078.31
396.127	1053.31
396.352	1046.31
396.576	1056.31
396.801	1043.31
397.025	1089.31
397.249	1058.31
397.474	1062.31
397.698	1057.31
397.922	1055.31
398.147	1063.31
398.371	1092.31
398.595	1072.31
398.82	1108.31
399.044	1113.31
399.268	1112.31
399.492	1145.31
399.717	1157.31
399.941	1180.31
400.165	1151.31
400.389	1187.31
400.613	1148.31
400.837	1123.31
401.062	1125.31
401.286	1102.31
401.51	1125.31
401.734	1114.31
401.958	1091.31
402.182	1112.31
402.406	1111.31
402.63	1095.31
402.854	1112.31
403.078	1065.31
403.302	1087.31
403.526	1111.31
403.75	1090.31
403.974	1095.31
404.198	1095.31
404.422	1113.31
404.645	1120.31
404.869	1116.31
405.093	1105.31
405.317	1122.31
405.541	1154.31
405.765	1111.31
405.988	1124.31
406.212	1117.31
406.436	1135.31
406.66	1164.31
406.883	1131.31
407.107	1150.31
407.331	1162.31
407.555	1200.31
407.778	1164.31
408.002	1174.31
408.226	1154.31
408.449	1167.31
408.673	1131.31
408.896	1152.31
409.12	1166.31
409.344	1202.31
409.567	1137.31
409.791	1143.31
410.014	1126.31
410.238	1116.31
410.461	1118.31
410.685	1148.31
410.908	1142.31
411.132	1141.31
411.355	1109.31
411.578	1115.31
411.802	1077.31
412.025	1120.31
412.249	1104.31
412.472	1117.31
412.695	1094.31
412.919	1086.31
413.142	1089.31
413.365	1117.31
413.589	1101.31
413.812	1069.31
414.035	1069.31
414.258	1088.31
414.482	1082.31
414.705	1076.31
414.928	1066.31
415.151	1085.31
415.374	1074.31
415.597	1056.31
415.821	1062.31
416.044	1028.31
416.267	1061.31
416.49	1102.31
416.713	1062.31
416.936	1090.31
417.159	1014.31
417.382	1049.31
417.605	1000.31
417.828	1010.31
418.051	1044.31
418.274	1053.31
418.497	977.31
418.72	1015.31
418.943	1025.31
419.166	1102.31
419.389	1132.31
419.611	1112.31
419.834	1089.31
420.057	1058.31
420.28	1026.31
420.503	989.31
420.726	1012.31
420.948	1031.31
421.171	1019.31
421.394	994.31
421.617	990.31
421.839	1014.31
422.062	1035.31
422.285	987.31
422.507	1001.31
422.73	1021.31
422.953	1017.31
423.175	1030.31
423.398	1023.31
423.621	997.31
423.843	1014.31
424.066	1036.31
424.288	1003.31
424.511	1024.31
424.733	1010.31
424.956	960.31
425.178	1012.31
425.401	993.31
425.623	1047.31
425.846	1013.31
426.068	1039.31
426.291	1035.31
426.513	1015.31
426.735	990.31
426.958	1016.31
427.18	1016.31
427.402	1001.31
427.625	1000.31
427.847	996.31
428.069	984.31
428.292	996.31
428.514	998.31
428.736	979.31
428.958	1005.31
429.181	976.31
429.403	1007.31
429.625	995.31
429.847	999.31
430.069	1000.31
430.292	970.31
430.514	979.31
430.736	1006.31
430.958	983.31
431.18	994.31
431.402	1002.31
431.624	976.31
431.846	974.31
432.068	970.31
432.29	1003.31
432.512	1011.31
432.734	997.31
432.956	983.31
433.178	1013.31
433.4	1010.31
433.622	1002.31
433.844	1006.31
434.066	1016.31
434.287	1008.31
434.509	985.31
434.731	1018.31
434.953	994.31
435.175	1020.31
435.397	1018.31
435.618	1015.31
435.84	992.31
436.062	979.31
436.284	995.31
436.505	1005.31
436.727	1001.31
436.949	984.31
437.17	976.31
437.392	981.31
437.614	993.31
437.835	928.31
438.057	969.31
438.278	951.31
438.5	962.31
438.721	966.31
438.943	955.31
439.165	962.31
439.386	948.31
439.608	967.31
439.829	979.31
440.05	975.31
440.272	951.31
440.493	974.31
440.715	971.31
440.936	974.31
441.158	953.31
441.379	972.31
441.6	986.31
441.822	978.31
442.043	993.31
442.264	953.31
442.486	976.31
442.707	992.31
442.928	986.31
443.149	953.31
443.371	967.31
443.592	977.31
443.813	982.31
444.034	977.31
444.255	983.31
444.476	984.31
444.698	987.31
444.919	984.31
445.14	1092.31
445.361	1069.31
445.582	991.31
445.803	969.31
446.024	966.31
446.245	972.31
446.466	946.31
446.687	963.31
446.908	960.31
447.129	925.31
447.35	925.31
447.571	952.31
447.792	926.31
448.013	965.31
448.234	923.31
448.455	925.31
448.675	941.31
448.896	908.31
449.117	893.31
449.338	934.31
449.559	903.31
449.779	856.31
450	912.31
450.221	930.31
450.442	875.31
450.662	904.31
450.883	908.31
451.104	944.31
451.324	907.31
451.545	882.31
451.766	883.31
451.986	894.31
452.207	902.31
452.428	893.31
452.648	919.31
452.869	879.31
453.089	888.31
453.31	868.31
453.53	900.31
453.751	884.31
453.971	874.31
454.192	865.31
454.412	860.31
454.633	866.31
454.853	865.31
455.073	858.31
455.294	876.31
455.514	887.31
455.734	868.31
455.955	869.31
456.175	869.31
456.395	894.31
456.616	886.31
456.836	893.31
457.056	878.31
457.276	886.31
457.497	893.31
457.717	861.31
457.937	882.31
458.157	896.31
458.377	869.31
458.598	918.31
458.818	897.31
459.038	912.31
459.258	920.31
459.478	941.31
459.698	932.31
459.918	939.31
460.138	954.31
460.358	954.31
460.578	930.31
460.798	972.31
461.018	932.31
461.238	974.31
461.458	979.31
461.678	970.31
461.898	1006.31
462.118	1002.31
462.338	1016.31
462.558	1008.31
462.777	1015.31
462.997	999.31
463.217	1039.31
463.437	1014.31
463.657	1023.31
463.876	1052.31
464.096	1048.31
464.316	1023.31
464.536	1007.31
464.755	1015.31
464.975	1017.31
465.195	983.31
465.414	994.31
465.634	989.31
465.854	978.31
466.073	964.31
466.293	922.31
466.512	931.31
466.732	933.31
466.951	965.31
467.171	958.31
467.391	925.31
467.61	938.31
467.829	956.31
468.049	948.31
468.268	934.31
468.488	932.31
468.707	947.31
468.927	907.31
469.146	974.31
469.365	966.31
469.585	925.31
469.804	940.31
470.023	960.31
470.243	943.31
470.462	927.31
470.681	956.31
470.901	970.31
471.12	966.31
471.339	941.31
471.558	946.31
471.777	965.31
471.997	979.31
472.216	944.31
472.435	960.31
472.654	1003.31
472.873	943.31
473.092	968.31
473.311	989.31
473.53	970.31
473.749	965.31
473.968	972.31
474.187	947.31
474.406	957.31
474.625	1001.31
474.844	983.31
475.063	1003.31
475.282	964.31
475.501	1004.31
475.72	1009.31
475.939	1005.31
476.158	1031.31
476.377	1053.31
476.596	1021.31
476.814	1062.31
477.033	1066.31
477.252	1053.31
477.471	1054.31
477.69	1020.31
477.908	1060.31
478.127	1099.31
478.346	1056.31
478.564	1083.31
478.783	1101.31
479.002	1098.31
479.22	1126.31
479.439	1134.31
479.658	1075.31
479.876	1143.31
480.095	1113.31
480.313	1114.31
480.532	1141.31
480.751	1122.31
480.969	1148.31
481.188	1141.31
481.406	1131.31
481.624	1119.31
481.843	1130.31
482.061	1145.31
482.28	1168.31
482.498	1142.31
482.717	1152.31
482.935	1176.31
483.153	1181.31
483.372	1170.31
483.59	1181.31
483.808	1151.31
484.027	1176.31
484.245	1148.31
484.463	1156.31
484.681	1154.31
484.9	1171.31
485.118	1203.31
485.336	1160.31
485.554	1196.31
485.772	1203.31
485.99	1194.31
486.209	1188.31
486.427	1208.31
486.645	1156.31
486.863	1206.31
487.081	1197.31
487.299	1161.31
487.517	1177.31
487.735	1196.31
487.953	1186.31
488.171	1216.31
488.389	1174.31
488.607	1182.31
488.825	1198.31
489.043	1204.31
489.261	1210.31
489.479	1219.31
489.696	1215.31
489.914	1204.31
490.132	1205.31
490.35	1202.31
490.568	1198.31
490.786	1195.31
491.003	1191.31
491.221	1208.31
491.439	1229.31
491.657	1215.31
491.874	1210.31
492.092	1212.31
492.31	1202.31
492.527	1230.31
492.745	1179.31
492.963	1219.31
493.18	1248.31
493.398	1225.31
493.615	1216.31
493.833	1200.31
494.05	1225.31
494.268	1218.31
494.485	1247.31
494.703	1223.31
494.92	1238.31
495.138	1243.31
495.355	1275.31
495.573	1236.31
495.79	1241.31
496.008	1236.31
496.225	1282.31
496.442	1294.31
496.66	1285.31
496.877	1286.31
497.094	1294.31
497.312	1294.31
497.529	1320.31
497.746	1328.31
497.963	1323.31
498.181	1368.31
498.398	1366.31
498.615	1381.31
498.832	1420.31
499.049	1444.31
499.267	1471.31
499.484	1480.31
499.701	1501.31
499.918	1542.31
500.135	1563.31
500.352	1564.31
500.569	1520.31
500.786	1612.31
501.003	1554.31
501.22	1551.31
501.437	1533.31
501.654	1511.31
501.871	1469.31
502.088	1407.31
502.305	1425.31
502.522	1408.31
502.739	1397.31
502.956	1359.31
503.172	1342.31
503.389	1301.31
503.606	1318.31
503.823	1278.31
504.04	1269.31
504.256	1272.31
504.473	1245.31
504.69	1227.31
504.907	1244.31
505.123	1225.31
505.34	1222.31
505.557	1207.31
505.773	1170.31
505.99	1174.31
506.207	1172.31
506.423	1122.31
506.64	1158.31
506.856	1170.31
507.073	1128.31
507.289	1100.31
507.506	1119.31
507.722	1122.31
507.939	1102.31
508.155	1095.31
508.372	1116.31
508.588	1093.31
508.805	1062.31
509.021	1058.31
509.238	1051.31
509.454	1066.31
509.67	1056.31
509.887	1070.31
510.103	1064.31
510.319	1045.31
510.536	1051.31
510.752	1061.31
510.968	1048.31
511.184	1008.31
511.401	1051.31
511.617	1044.31
511.833	1046.31
512.049	1029.31
512.265	1050.31
512.481	1031.31
512.698	1023.31
512.914	1000.31
513.13	1012.31
513.346	1022.31
513.562	1012.31
513.778	1007.31
513.994	998.31
514.21	1071.31
514.426	1031.31
514.642	1045.31
514.858	1013.31
515.074	1061.31
515.29	1044.31
515.506	1028.31
515.721	1047.31
515.937	1039.31
516.153	1015.31
516.369	1022.31
516.585	1024.31
516.801	1029.31
517.016	1062.31
517.232	1035.31
517.448	1060.31
517.664	1044.31
517.879	1053.31
518.095	1055.31
518.311	1039.31
518.527	1012.31
518.742	1052.31
518.958	1050.31
519.173	1056.31
519.389	1067.31
519.605	1024.31
519.82	1029.31
520.036	1044.31
520.251	988.31
520.467	1003.31
520.682	986.31
520.898	996.31
521.113	960.31
521.329	1012.31
521.544	975.31
521.76	969.31
521.975	996.31
522.19	999.31
522.406	966.31
522.621	974.31
522.836	976.31
523.052	950.31
523.267	958.31
523.482	943.31
523.698	941.31
523.913	940.31
524.128	952.31
524.343	934.31
524.559	937.31
524.774	910.31
524.989	941.31
525.204	959.31
525.419	946.31
525.634	912.31
525.849	931.31
526.064	933.31
526.28	930.31
526.495	938.31
526.71	939.31
526.925	929.31
527.14	925.31
527.355	924.31
527.57	912.31
527.785	897.31
527.999	895.31
528.214	919.31
528.429	921.31
528.644	915.31
528.859	887.31
529.074	908.31
529.289	934.31
529.503	903.31
529.718	902.31
529.933	895.31
530.148	902.31
530.363	905.31
530.577	892.31
530.792	920.31
531.007	910.31
531.221	895.31
531.436	876.31
531.651	912.31
531.865	896.31
532.08	888.31
532.295	891.31
532.509	900.31
532.724	884.31
532.938	894.31
533.153	869.31
533.367	869.31
533.582	843.31
533.796	884.31
534.011	882.31
534.225	913.31
534.44	873.31
534.654	867.31
534.868	849.31
535.083	868.31
535.297	885.31
535.511	852.31
535.726	890.31
535.94	862.31
536.154	863.31
536.369	839.31
536.583	836.31
536.797	857.31
537.011	852.31
537.225	822.31
537.44	852.31
537.654	820.31
537.868	839.31
538.082	847.31
538.296	825.31
538.51	820.31
538.724	843.31
538.938	835.31
539.153	804.31
539.367	835.31
539.581	811.31
539.795	779.31
540.009	828.31
540.222	803.31
540.436	825.31
540.65	836.31
540.864	859.31
541.078	838.31
541.292	799.31
541.506	802.31
541.72	822.31
541.934	800.31
542.147	834.31
542.361	832.31
542.575	818.31
542.789	790.31
543.002	810.31
543.216	808.31
543.43	785.31
543.644	815.31
543.857	804.31
544.071	807.31
544.285	820.31
544.498	789.31
544.712	813.31
544.925	823.31
545.139	819.31
545.352	786.31
545.566	772.31
545.779	803.31
545.993	798.31
546.206	796.31
546.42	768.31
546.633	793.31
546.847	774.31
547.06	772.31
547.274	787.31
547.487	776.31
547.7	782.31
547.914	783.31
548.127	784.31
548.34	810.31
548.554	803.31
548.767	797.31
548.98	799.31
549.193	770.31
549.407	756.31
549.62	790.31
549.833	797.31
550.046	809.31
550.259	787.31
550.473	785.31
550.686	766.31
550.899	736.31
551.112	768.31
551.325	778.31
551.538	770.31
551.751	769.31
551.964	775.31
552.177	781.31
552.39	770.31
552.603	780.31
552.816	776.31
553.029	785.31
553.242	764.31
553.455	761.31
553.667	788.31
553.88	758.31
554.093	741.31
554.306	759.31
554.519	767.31
554.732	738.31
554.944	730.31
555.157	758.31
555.37	719.31
555.583	729.31
555.795	719.31
556.008	718.31
556.221	726.31
556.433	697.31
556.646	702.31
556.859	726.31
557.071	669.31
557.284	696.31
557.496	694.31
557.709	686.31
557.921	706.31
558.134	680.31
558.346	714.31
558.559	669.31
558.771	698.31
558.984	678.31
559.196	679.31
559.409	676.31
559.621	707.31
559.833	673.31
560.046	688.31
560.258	662.31
560.47	687.31
560.683	670.31
560.895	688.31
561.107	654.31
561.32	668.31
561.532	655.31
561.744	671.31
561.956	670.31
562.168	644.31
562.381	677.31
562.593	660.31
562.805	658.31
563.017	664.31
563.229	665.31
563.441	675.31
563.653	674.31
563.865	670.31
564.077	687.31
564.289	676.31
564.501	680.31
564.713	666.31
564.925	697.31
565.137	674.31
565.349	680.31
565.561	688.31
565.773	702.31
565.985	716.31
566.197	695.31
566.408	732.31
566.62	708.31
566.832	730.31
567.044	732.31
567.255	711.31
567.467	705.31
567.679	697.31
567.891	716.31
568.102	712.31
568.314	723.31
568.526	688.31
568.737	676.31
568.949	665.31
569.161	664.31
569.372	676.31
569.584	648.31
569.795	630.31
570.007	610.31
570.218	623.31
570.43	625.31
570.641	638.31
570.853	613.31
571.064	592.31
571.276	613.31
571.487	586.31
571.698	594.31
571.91	577.31
572.121	572.31
572.333	588.31
572.544	585.31
572.755	570.31
572.966	572.31
573.178	571.31
573.389	567.31
573.6	559.31
573.811	557.31
574.023	549.31
574.234	571.31
574.445	574.31
574.656	539.31
574.867	537.31
575.078	544.31
575.289	534.31
575.501	535.31
575.712	540.31
575.923	535.31
576.134	519.31
576.345	542.31
576.556	530.31
576.767	525.31
576.978	504.31
577.188	499.31
577.399	534.31
577.61	517.31
577.821	508.31
578.032	504.31
578.243	533.31
578.454	514.31
578.665	490.31
578.875	492.31
579.086	520.31
579.297	491.31
579.508	484.31
579.718	477.31
579.929	472.31
580.14	474.31
580.35	469.31
580.561	496.31
580.772	491.31
580.982	482.31
581.193	470.31
581.403	478.31
581.614	487.31
581.825	470.31
582.035	458.31
582.246	469.31
582.456	460.31
582.667	459.31
582.877	459.31
583.087	483.31
583.298	462.31
583.508	475.31
583.719	459.31
583.929	467.31
584.139	463.31
584.35	439.31
584.56	467.31
584.77	446.31
584.981	450.31
585.191	466.31
585.401	444.31
585.611	448.31
585.821	466.31
586.032	458.31
586.242	447.31
586.452	449.31
586.662	456.31
586.872	462.31
587.082	442.31
587.292	428.31
587.502	457.31
587.713	464.31
587.923	432.31
588.133	436.31
588.343	452.31
588.553	440.31
588.762	447.31
588.972	440.31
589.182	466.31
589.392	443.31
589.602	433.31
589.812	443.31
590.022	444.31
590.232	440.31
590.441	438.31
590.651	434.31
590.861	434.31
591.071	414.31
591.281	455.31
591.49	424.31
591.7	445.31
591.91	457.31
592.119	443.31
592.329	428.31
592.539	448.31
592.748	441.31
592.958	430.31
593.167	434.31
593.377	428.31
593.587	422.31
593.796	431.31
594.006	409.31
594.215	410.31
594.424	410.31
594.634	439.31
594.843	447.31
595.053	422.31
595.262	406.31
595.472	422.31
595.681	412.31
595.89	424.31
596.1	421.31
596.309	411.31
596.518	404.31
596.727	411.31
596.937	408.31
597.146	397.31
597.355	387.31
597.564	387.31
597.774	398.31
597.983	400.31
598.192	398.31
598.401	399.31
598.61	380.31
598.819	394.31
599.028	384.31
599.237	381.31
599.446	378.31
599.655	387.31
599.864	381.31
600.073	360.31
600.282	399.31
600.491	365.31
600.7	379.31
600.909	373.31
601.118	350.31
601.327	364.31
601.536	382.31
601.745	362.31
601.953	376.31
602.162	366.31
602.371	350.31
602.58	359.31
602.789	380.31
602.997	356.31
603.206	358.31
603.415	355.31
603.623	331.31
603.832	344.31
604.041	343.31
604.249	351.31
604.458	362.31
604.666	328.31
604.875	351.31
605.084	349.31
605.292	347.31
605.501	331.31
605.709	337.31
605.918	347.31
606.126	362.31
606.334	357.31
606.543	359.31
606.751	344.31
606.96	333.31
607.168	343.31
607.376	343.31
607.585	338.31
607.793	339.31
608.001	341.31
608.21	343.31
608.418	344.31
608.626	333.31
608.834	330.31
609.043	338.31
609.251	336.31
609.459	321.31
609.667	325.31
609.875	337.31
610.083	320.31
610.291	333.31
610.499	317.31
610.707	332.31
610.916	335.31
611.124	323.31
611.332	319.31
611.54	332.31
611.748	325.31
611.955	330.31
612.163	319.31
612.371	335.31
612.579	323.31
612.787	322.31
612.995	313.31
613.203	322.31
613.411	331.31
613.618	325.31
613.826	323.31
614.034	319.31
614.242	325.31
614.449	306.31
614.657	316.31
614.865	304.31
615.072	319.31
615.28	314.31
615.488	326.31
615.695	323.31
615.903	325.31
616.111	334.31
616.318	326.31
616.526	300.31
616.733	323.31
616.941	317.31
617.148	309.31
617.356	317.31
617.563	297.31
617.771	287.31
617.978	294.31
618.185	307.31
618.393	304.31
618.6	322.31
618.807	317.31
619.015	297.31
619.222	299.31
619.429	316.31
619.637	309.31
619.844	311.31
620.051	303.31
620.258	299.31
620.466	300.31
620.673	283.31
620.88	279.31
621.087	292.31
621.294	293.31
621.501	288.31
621.708	296.31
621.915	299.31
622.122	282.31
622.329	307.31
622.536	306.31
622.743	278.31
622.95	285.31
623.157	289.31
623.364	314.31
623.571	291.31
623.778	288.31
623.985	279.31
624.192	283.31
624.399	262.31
624.606	276.31
624.812	279.31
625.019	280.31
625.226	285.31
625.433	285.31
625.639	279.31
625.846	282.31
626.053	279.31
626.259	295.31
626.466	269.31
626.673	276.31
626.879	275.31
627.086	276.31
627.293	286.31
627.499	276.31
627.706	270.31
627.912	269.31
628.119	254.31
628.325	262.31
628.532	281.31
628.738	285.31
628.945	263.31
629.151	266.31
629.357	268.31
629.564	275.31
629.77	275.31
629.976	267.31
630.183	240.31
630.389	263.31
630.595	247.31
630.802	240.31
631.008	260.31
631.214	262.31
631.42	253.31
631.627	270.31
631.833	261.31
632.039	260.31
632.245	252.31
632.451	253.31
632.657	260.31
632.863	266.31
633.069	244.31
633.275	270.31
633.481	251.31
633.688	248.31
633.893	263.31
634.099	248.31
634.305	252.31
634.511	226.31
634.717	244.31
634.923	259.31
635.129	218.31
635.335	243.31
635.541	237.31
635.747	236.31
635.952	225.31
636.158	235.31
636.364	258.31
636.57	238.31
636.775	236.31
636.981	249.31
637.187	233.31
637.392	238.31
637.598	237.31
637.804	222.31
638.009	221.31
638.215	242.31
638.421	244.31
638.626	236.31
638.832	221.31
639.037	233.31
639.243	230.31
639.448	231.31
639.654	236.31
639.859	251.31
640.065	213.31
640.27	226.31
640.475	232.31
640.681	232.31
640.886	219.31
641.091	242.31
641.297	221.31
641.502	210.31
641.707	244.31
641.913	231.31
642.118	234.31
642.323	222.31
642.528	209.31
642.733	225.31
642.939	227.31
643.144	221.31
643.349	236.31
643.554	233.31
643.759	234.31
643.964	219.31
644.169	228.31
644.374	213.31
644.579	215.31
644.784	235.31
644.989	232.31
645.194	216.31
645.399	222.31
645.604	222.31
645.809	234.31
646.014	228.31
646.219	219.31
646.423	223.31
646.628	223.31
646.833	235.31
647.038	238.31
647.243	237.31
647.447	227.31
647.652	235.31
647.857	237.31
648.062	245.31
648.266	227.31
648.471	239.31
648.676	228.31
648.88	220.31
649.085	231.31
649.289	222.31
649.494	218.31
649.698	218.31
649.903	240.31
650.107	224.31
650.312	212.31
650.516	221.31
650.721	222.31
650.925	234.31
651.13	210.31
651.334	207.31
651.539	216.31
651.743	211.31
651.947	210.31
652.152	199.31
652.356	221.31
652.56	207.31
652.764	199.31
652.969	208.31
653.173	206.31
653.377	198.31
653.581	201.31
653.785	196.31
653.99	196.31
654.194	205.31
654.398	205.31
654.602	213.31
654.806	203.31
655.01	192.31
655.214	196.31
655.418	197.31
655.622	206.31
655.826	199.31
656.03	198.31
656.234	202.31
656.438	202.31
656.642	192.31
656.846	185.31
657.049	191.31
657.253	194.31
657.457	180.31
657.661	187.31
657.865	179.31
658.068	156.31
658.272	164.31
658.476	158.31
658.68	149.31
658.883	130.31
659.087	136.31
659.291	133.31
659.494	135.31
659.698	137.31
659.901	114.31
660.105	126.31
660.309	110.31
660.512	120.31
660.716	123.31
660.919	108.31
661.123	100.31
661.326	109.31
661.53	107.31
661.733	102.31
661.936	95.31
662.14	108.31
662.343	94.31
662.546	87.31
662.75	102.31
662.953	99.31
663.156	91.31
663.36	107.31
663.563	108.31
663.766	93.31
663.969	91.31
664.173	86.31
664.376	91.31
664.579	88.31
664.782	93.31
664.985	85.31
665.188	87.31
665.391	92.31
665.594	90.31
665.797	96.31
666	97.31
666.203	79.31
666.406	84.31
666.609	85.31
666.812	84.31
667.015	101.31
667.218	90.31
667.421	85.31
667.624	91.31
667.827	81.31
668.03	87.31
668.232	91.31
668.435	80.31
668.638	75.31
668.841	75.31
669.043	82.31
669.246	78.31
669.449	77.31
669.651	79.31
669.854	84.31
670.057	82.31
670.259	95.31
670.462	76.31
670.665	97.31
670.867	91.31
671.07	75.31
671.272	89.31
671.475	82.31
671.677	86.31
671.88	78.31
672.082	88.31
672.284	71.31
672.487	86.31
672.689	79.31
672.892	90.31
