Data from Fe(NO3)3@0.05M.TitratingCurve.Agarose3%dH2O.NegLispCup.LampEnergy10.LIBS07252019_HRD10591_16-46-05-334.txt Node
Date: Thu Jul 25 16:46:05 EDT 2019
User: cochatt
Spectrometer: HR+D1059
Trigger mode: 1
Integration Time (sec): 1.000000E-1
Scans to average: 1
Electric dark correction enabled: true
Nonlinearity correction enabled: false
Boxcar width: 0
XAxis mode: Wavelengths
Number of Pixels in Spectrum: 2048
>>>>>Begin Spectral Data<<<<<
223.165	-14.94
223.4	-14.94
223.635	-14.94
223.869	-11.94
224.104	-2.94
224.338	-18.94
224.573	-8.94
224.808	-12.94
225.042	-17.94
225.277	-2.94
225.511	-15.94
225.746	-10.94
225.98	24.06
226.215	9.06
226.449	27.06
226.683	18.06
226.918	23.06
227.152	17.06
227.387	23.06
227.621	31.06
227.856	47.06
228.09	55.06
228.324	37.06
228.559	54.06
228.793	45.06
229.027	90.06
229.262	104.06
229.496	99.06
229.73	106.06
229.964	103.06
230.199	120.06
230.433	97.06
230.667	111.06
230.901	119.06
231.136	112.06
231.37	107.06
231.604	121.06
231.838	140.06
232.072	121.06
232.306	130.06
232.541	111.06
232.775	136.06
233.009	125.06
233.243	142.06
233.477	121.06
233.711	129.06
233.945	144.06
234.179	134.06
234.413	137.06
234.647	143.06
234.881	146.06
235.115	140.06
235.349	149.06
235.583	132.06
235.817	142.06
236.051	149.06
236.285	144.06
236.519	150.06
236.753	129.06
236.987	133.06
237.221	139.06
237.455	137.06
237.689	142.06
237.922	152.06
238.156	145.06
238.39	160.06
238.624	170.06
238.858	162.06
239.091	154.06
239.325	154.06
239.559	151.06
239.793	158.06
240.027	169.06
240.26	158.06
240.494	161.06
240.728	166.06
240.961	160.06
241.195	177.06
241.429	178.06
241.662	159.06
241.896	160.06
242.13	173.06
242.363	156.06
242.597	165.06
242.83	159.06
243.064	175.06
243.298	167.06
243.531	179.06
243.765	173.06
243.998	194.06
244.232	174.06
244.465	183.06
244.699	177.06
244.932	178.06
245.166	169.06
245.399	198.06
245.633	195.06
245.866	196.06
246.099	203.06
246.333	198.06
246.566	189.06
246.8	191.06
247.033	194.06
247.266	180.06
247.5	195.06
247.733	202.06
247.966	192.06
248.2	196.06
248.433	207.06
248.666	226.06
248.899	215.06
249.133	200.06
249.366	221.06
249.599	219.06
249.832	228.06
250.066	206.06
250.299	228.06
250.532	212.06
250.765	211.06
250.998	209.06
251.231	206.06
251.465	214.06
251.698	250.06
251.931	230.06
252.164	224.06
252.397	228.06
252.63	233.06
252.863	257.06
253.096	246.06
253.329	227.06
253.562	248.06
253.795	237.06
254.028	259.06
254.261	267.06
254.494	259.06
254.727	249.06
254.96	244.06
255.193	258.06
255.426	249.06
255.659	249.06
255.892	238.06
256.124	253.06
256.357	242.06
256.59	258.06
256.823	263.06
257.056	240.06
257.289	247.06
257.521	264.06
257.754	255.06
257.987	247.06
258.22	264.06
258.452	247.06
258.685	258.06
258.918	270.06
259.151	256.06
259.383	251.06
259.616	265.06
259.849	271.06
260.081	298.06
260.314	326.06
260.547	294.06
260.779	282.06
261.012	289.06
261.244	277.06
261.477	287.06
261.71	289.06
261.942	297.06
262.175	273.06
262.407	271.06
262.64	265.06
262.872	270.06
263.105	287.06
263.337	309.06
263.57	274.06
263.802	280.06
264.035	280.06
264.267	293.06
264.499	279.06
264.732	294.06
264.964	279.06
265.197	297.06
265.429	290.06
265.661	276.06
265.894	281.06
266.126	286.06
266.358	286.06
266.591	302.06
266.823	292.06
267.055	303.06
267.287	290.06
267.52	299.06
267.752	287.06
267.984	298.06
268.216	305.06
268.448	322.06
268.681	303.06
268.913	299.06
269.145	310.06
269.377	303.06
269.609	310.06
269.841	316.06
270.073	320.06
270.306	304.06
270.538	306.06
270.77	296.06
271.002	323.06
271.234	305.06
271.466	321.06
271.698	329.06
271.93	310.06
272.162	326.06
272.394	332.06
272.626	336.06
272.858	327.06
273.09	327.06
273.322	333.06
273.553	344.06
273.785	351.06
274.017	350.06
274.249	371.06
274.481	369.06
274.713	382.06
274.945	383.06
275.176	386.06
275.408	399.06
275.64	395.06
275.872	386.06
276.104	356.06
276.335	357.06
276.567	335.06
276.799	365.06
277.031	381.06
277.262	351.06
277.494	358.06
277.726	354.06
277.957	359.06
278.189	351.06
278.421	330.06
278.652	352.06
278.884	340.06
279.115	349.06
279.347	375.06
279.579	354.06
279.81	373.06
280.042	369.06
280.273	360.06
280.505	352.06
280.736	370.06
280.968	358.06
281.199	351.06
281.431	359.06
281.662	390.06
281.894	378.06
282.125	353.06
282.356	377.06
282.588	389.06
282.819	375.06
283.051	376.06
283.282	377.06
283.513	369.06
283.745	389.06
283.976	389.06
284.207	386.06
284.439	377.06
284.67	368.06
284.901	397.06
285.132	395.06
285.364	409.06
285.595	402.06
285.826	395.06
286.057	396.06
286.288	392.06
286.52	386.06
286.751	415.06
286.982	410.06
287.213	409.06
287.444	393.06
287.675	384.06
287.906	401.06
288.138	413.06
288.369	390.06
288.6	398.06
288.831	406.06
289.062	401.06
289.293	396.06
289.524	389.06
289.755	409.06
289.986	415.06
290.217	409.06
290.448	407.06
290.679	425.06
290.91	395.06
291.141	389.06
291.371	389.06
291.602	406.06
291.833	442.06
292.064	422.06
292.295	420.06
292.526	427.06
292.757	420.06
292.987	417.06
293.218	408.06
293.449	425.06
293.68	409.06
293.91	418.06
294.141	405.06
294.372	420.06
294.603	415.06
294.833	404.06
295.064	409.06
295.295	448.06
295.525	444.06
295.756	425.06
295.987	443.06
296.217	414.06
296.448	421.06
296.679	424.06
296.909	433.06
297.14	452.06
297.37	439.06
297.601	442.06
297.831	434.06
298.062	447.06
298.292	442.06
298.523	435.06
298.753	437.06
298.984	463.06
299.214	438.06
299.445	446.06
299.675	446.06
299.905	449.06
300.136	462.06
300.366	447.06
300.597	456.06
300.827	456.06
301.057	437.06
301.288	474.06
301.518	458.06
301.748	453.06
301.979	475.06
302.209	483.06
302.439	484.06
302.669	448.06
302.9	477.06
303.13	465.06
303.36	451.06
303.59	481.06
303.82	485.06
304.051	485.06
304.281	479.06
304.511	456.06
304.741	469.06
304.971	469.06
305.201	477.06
305.431	489.06
305.661	486.06
305.891	486.06
306.121	497.06
306.352	482.06
306.582	457.06
306.812	472.06
307.042	465.06
307.272	478.06
307.502	473.06
307.731	467.06
307.961	471.06
308.191	466.06
308.421	478.06
308.651	445.06
308.881	464.06
309.111	460.06
309.341	475.06
309.571	449.06
309.8	473.06
310.03	489.06
310.26	467.06
310.49	478.06
310.72	483.06
310.949	483.06
311.179	485.06
311.409	470.06
311.639	479.06
311.868	481.06
312.098	491.06
312.328	487.06
312.557	500.06
312.787	467.06
313.017	479.06
313.246	516.06
313.476	507.06
313.706	502.06
313.935	489.06
314.165	529.06
314.394	495.06
314.624	519.06
314.853	499.06
315.083	494.06
315.312	496.06
315.542	519.06
315.771	501.06
316.001	484.06
316.23	512.06
316.46	511.06
316.689	517.06
316.919	498.06
317.148	525.06
317.377	531.06
317.607	505.06
317.836	471.06
318.065	505.06
318.295	511.06
318.524	484.06
318.753	499.06
318.983	505.06
319.212	482.06
319.441	497.06
319.67	509.06
319.9	514.06
320.129	523.06
320.358	515.06
320.587	500.06
320.816	497.06
321.046	537.06
321.275	530.06
321.504	516.06
321.733	529.06
321.962	520.06
322.191	515.06
322.42	523.06
322.649	503.06
322.878	489.06
323.108	513.06
323.337	534.06
323.566	544.06
323.795	529.06
324.024	548.06
324.253	523.06
324.482	523.06
324.71	528.06
324.939	527.06
325.168	536.06
325.397	511.06
325.626	541.06
325.855	554.06
326.084	549.06
326.313	558.06
326.542	547.06
326.77	552.06
326.999	560.06
327.228	534.06
327.457	558.06
327.686	519.06
327.914	569.06
328.143	562.06
328.372	553.06
328.6	557.06
328.829	546.06
329.058	567.06
329.287	527.06
329.515	562.06
329.744	567.06
329.972	575.06
330.201	566.06
330.43	571.06
330.658	568.06
330.887	565.06
331.115	565.06
331.344	560.06
331.572	566.06
331.801	599.06
332.03	619.06
332.258	586.06
332.486	601.06
332.715	601.06
332.943	631.06
333.172	630.06
333.4	640.06
333.629	647.06
333.857	670.06
334.085	666.06
334.314	664.06
334.542	645.06
334.771	663.06
334.999	649.06
335.227	677.06
335.455	680.06
335.684	655.06
335.912	676.06
336.14	666.06
336.369	665.06
336.597	660.06
336.825	637.06
337.053	663.06
337.281	654.06
337.51	604.06
337.738	614.06
337.966	611.06
338.194	641.06
338.422	645.06
338.65	593.06
338.878	613.06
339.106	606.06
339.334	596.06
339.562	616.06
339.79	596.06
340.018	602.06
340.246	589.06
340.474	594.06
340.702	595.06
340.93	595.06
341.158	594.06
341.386	592.06
341.614	601.06
341.842	592.06
342.07	577.06
342.298	571.06
342.526	580.06
342.754	590.06
342.981	620.06
343.209	585.06
343.437	596.06
343.665	618.06
343.893	635.06
344.12	658.06
344.348	663.06
344.576	629.06
344.804	623.06
345.031	630.06
345.259	601.06
345.487	600.06
345.714	578.06
345.942	587.06
346.17	593.06
346.397	580.06
346.625	587.06
346.853	576.06
347.08	570.06
347.308	576.06
347.535	591.06
347.763	563.06
347.99	566.06
348.218	589.06
348.445	558.06
348.673	569.06
348.9	566.06
349.128	560.06
349.355	558.06
349.583	552.06
349.81	544.06
350.037	551.06
350.265	561.06
350.492	570.06
350.72	575.06
350.947	568.06
351.174	574.06
351.402	579.06
351.629	554.06
351.856	578.06
352.083	550.06
352.311	553.06
352.538	542.06
352.765	529.06
352.992	541.06
353.22	531.06
353.447	577.06
353.674	565.06
353.901	548.06
354.128	565.06
354.355	555.06
354.583	550.06
354.81	560.06
355.037	549.06
355.264	550.06
355.491	583.06
355.718	576.06
355.945	590.06
356.172	551.06
356.399	566.06
356.626	553.06
356.853	558.06
357.08	575.06
357.307	581.06
357.534	552.06
357.761	571.06
357.988	581.06
358.215	584.06
358.441	576.06
358.668	560.06
358.895	561.06
359.122	567.06
359.349	554.06
359.576	559.06
359.802	547.06
360.029	578.06
360.256	561.06
360.483	587.06
360.709	573.06
360.936	575.06
361.163	581.06
361.39	553.06
361.616	564.06
361.843	567.06
362.07	560.06
362.296	573.06
362.523	591.06
362.749	578.06
362.976	565.06
363.203	570.06
363.429	554.06
363.656	573.06
363.882	567.06
364.109	579.06
364.335	562.06
364.562	574.06
364.788	593.06
365.015	559.06
365.241	580.06
365.468	606.06
365.694	578.06
365.92	569.06
366.147	544.06
366.373	583.06
366.599	574.06
366.826	574.06
367.052	563.06
367.278	583.06
367.505	575.06
367.731	592.06
367.957	564.06
368.184	590.06
368.41	584.06
368.636	597.06
368.862	598.06
369.089	597.06
369.315	587.06
369.541	588.06
369.767	641.06
369.993	612.06
370.219	581.06
370.445	624.06
370.672	615.06
370.898	643.06
371.124	627.06
371.35	617.06
371.576	612.06
371.802	621.06
372.028	646.06
372.254	643.06
372.48	623.06
372.706	650.06
372.932	645.06
373.158	647.06
373.384	650.06
373.61	661.06
373.835	673.06
374.061	643.06
374.287	657.06
374.513	685.06
374.739	680.06
374.965	709.06
375.191	699.06
375.416	681.06
375.642	665.06
375.868	674.06
376.094	645.06
376.319	673.06
376.545	687.06
376.771	661.06
376.997	623.06
377.222	636.06
377.448	617.06
377.674	631.06
377.899	603.06
378.125	649.06
378.35	651.06
378.576	605.06
378.802	630.06
379.027	642.06
379.253	644.06
379.478	635.06
379.704	619.06
379.929	641.06
380.155	625.06
380.38	626.06
380.606	635.06
380.831	625.06
381.057	645.06
381.282	637.06
381.507	642.06
381.733	674.06
381.958	651.06
382.184	670.06
382.409	661.06
382.634	663.06
382.86	698.06
383.085	657.06
383.31	664.06
383.535	690.06
383.761	674.06
383.986	703.06
384.211	715.06
384.436	695.06
384.662	711.06
384.887	717.06
385.112	688.06
385.337	710.06
385.562	706.06
385.787	729.06
386.013	749.06
386.238	753.06
386.463	735.06
386.688	759.06
386.913	730.06
387.138	745.06
387.363	749.06
387.588	745.06
387.813	743.06
388.038	765.06
388.263	778.06
388.488	761.06
388.713	783.06
388.938	773.06
389.163	750.06
389.387	756.06
389.612	736.06
389.837	765.06
390.062	746.06
390.287	750.06
390.512	751.06
390.736	753.06
390.961	779.06
391.186	783.06
391.411	746.06
391.636	785.06
391.86	813.06
392.085	793.06
392.31	838.06
392.534	801.06
392.759	804.06
392.984	804.06
393.208	808.06
393.433	789.06
393.658	806.06
393.882	808.06
394.107	780.06
394.331	779.06
394.556	783.06
394.78	791.06
395.005	800.06
395.229	823.06
395.454	804.06
395.678	802.06
395.903	848.06
396.127	838.06
396.352	819.06
396.576	843.06
396.801	820.06
397.025	836.06
397.249	840.06
397.474	836.06
397.698	854.06
397.922	870.06
398.147	861.06
398.371	874.06
398.595	878.06
398.82	927.06
399.044	946.06
399.268	978.06
399.492	1054.06
399.717	1110.06
399.941	1124.06
400.165	1093.06
400.389	1045.06
400.613	1022.06
400.837	996.06
401.062	951.06
401.286	942.06
401.51	929.06
401.734	907.06
401.958	929.06
402.182	944.06
402.406	917.06
402.63	920.06
402.854	927.06
403.078	948.06
403.302	970.06
403.526	947.06
403.75	949.06
403.974	965.06
404.198	961.06
404.422	979.06
404.645	996.06
404.869	966.06
405.093	987.06
405.317	980.06
405.541	990.06
405.765	974.06
405.988	995.06
406.212	986.06
406.436	1025.06
406.66	1036.06
406.883	1023.06
407.107	1057.06
407.331	1068.06
407.555	1108.06
407.778	1120.06
408.002	1093.06
408.226	1099.06
408.449	1103.06
408.673	1066.06
408.896	1041.06
409.12	1061.06
409.344	1071.06
409.567	1051.06
409.791	1022.06
410.014	1058.06
410.238	1035.06
410.461	1019.06
410.685	1011.06
410.908	1003.06
411.132	993.06
411.355	980.06
411.578	967.06
411.802	1018.06
412.025	980.06
412.249	972.06
412.472	970.06
412.695	972.06
412.919	956.06
413.142	951.06
413.365	996.06
413.589	956.06
413.812	938.06
414.035	946.06
414.258	966.06
414.482	939.06
414.705	950.06
414.928	945.06
415.151	978.06
415.374	948.06
415.597	956.06
415.821	916.06
416.044	945.06
416.267	947.06
416.49	933.06
416.713	931.06
416.936	925.06
417.159	900.06
417.382	882.06
417.605	930.06
417.828	915.06
418.051	922.06
418.274	919.06
418.497	926.06
418.72	933.06
418.943	901.06
419.166	988.06
419.389	1058.06
419.611	1040.06
419.834	965.06
420.057	958.06
420.28	922.06
420.503	941.06
420.726	908.06
420.948	891.06
421.171	912.06
421.394	909.06
421.617	892.06
421.839	901.06
422.062	901.06
422.285	901.06
422.507	928.06
422.73	907.06
422.953	920.06
423.175	893.06
423.398	903.06
423.621	908.06
423.843	915.06
424.066	941.06
424.288	913.06
424.511	887.06
424.733	901.06
424.956	922.06
425.178	918.06
425.401	932.06
425.623	926.06
425.846	903.06
426.068	910.06
426.291	873.06
426.513	870.06
426.735	853.06
426.958	890.06
427.18	888.06
427.402	889.06
427.625	888.06
427.847	836.06
428.069	895.06
428.292	858.06
428.514	853.06
428.736	864.06
428.958	867.06
429.181	846.06
429.403	839.06
429.625	873.06
429.847	848.06
430.069	848.06
430.292	839.06
430.514	845.06
430.736	838.06
430.958	843.06
431.18	840.06
431.402	859.06
431.624	861.06
431.846	870.06
432.068	851.06
432.29	880.06
432.512	854.06
432.734	885.06
432.956	848.06
433.178	886.06
433.4	886.06
433.622	879.06
433.844	914.06
434.066	885.06
434.287	899.06
434.509	892.06
434.731	913.06
434.953	899.06
435.175	907.06
435.397	930.06
435.618	878.06
435.84	889.06
436.062	856.06
436.284	882.06
436.505	879.06
436.727	866.06
436.949	843.06
437.17	878.06
437.392	844.06
437.614	863.06
437.835	862.06
438.057	848.06
438.278	842.06
438.5	845.06
438.721	879.06
438.943	837.06
439.165	842.06
439.386	835.06
439.608	869.06
439.829	864.06
440.05	871.06
440.272	868.06
440.493	871.06
440.715	875.06
440.936	879.06
441.158	878.06
441.379	888.06
441.6	922.06
441.822	928.06
442.043	918.06
442.264	912.06
442.486	894.06
442.707	891.06
442.928	909.06
443.149	928.06
443.371	910.06
443.592	918.06
443.813	933.06
444.034	905.06
444.255	938.06
444.476	939.06
444.698	998.06
444.919	1001.06
445.14	1100.06
445.361	993.06
445.582	958.06
445.803	925.06
446.024	915.06
446.245	900.06
446.466	914.06
446.687	882.06
446.908	914.06
447.129	866.06
447.35	835.06
447.571	855.06
447.792	818.06
448.013	817.06
448.234	831.06
448.455	802.06
448.675	803.06
448.896	854.06
449.117	798.06
449.338	811.06
449.559	825.06
449.779	809.06
450	800.06
450.221	809.06
450.442	831.06
450.662	792.06
450.883	823.06
451.104	793.06
451.324	785.06
451.545	795.06
451.766	807.06
451.986	785.06
452.207	778.06
452.428	771.06
452.648	801.06
452.869	788.06
453.089	768.06
453.31	777.06
453.53	760.06
453.751	762.06
453.971	768.06
454.192	768.06
454.412	754.06
454.633	789.06
454.853	779.06
455.073	770.06
455.294	767.06
455.514	766.06
455.734	771.06
455.955	754.06
456.175	755.06
456.395	753.06
456.616	746.06
456.836	767.06
457.056	767.06
457.276	749.06
457.497	773.06
457.717	760.06
457.937	777.06
458.157	783.06
458.377	777.06
458.598	819.06
458.818	823.06
459.038	819.06
459.258	850.06
459.478	851.06
459.698	855.06
459.918	874.06
460.138	904.06
460.358	925.06
460.578	927.06
460.798	925.06
461.018	966.06
461.238	930.06
461.458	934.06
461.678	944.06
461.898	1007.06
462.118	974.06
462.338	998.06
462.558	1038.06
462.777	1045.06
462.997	1069.06
463.217	1101.06
463.437	1113.06
463.657	1075.06
463.876	1043.06
464.096	1067.06
464.316	1045.06
464.536	1041.06
464.755	1023.06
464.975	1008.06
465.195	958.06
465.414	963.06
465.634	886.06
465.854	889.06
466.073	893.06
466.293	879.06
466.512	858.06
466.732	856.06
466.951	859.06
467.171	846.06
467.391	845.06
467.61	823.06
467.829	835.06
468.049	864.06
468.268	837.06
468.488	815.06
468.707	839.06
468.927	840.06
469.146	838.06
469.365	829.06
469.585	831.06
469.804	862.06
470.023	870.06
470.243	822.06
470.462	854.06
470.681	834.06
470.901	842.06
471.12	816.06
471.339	849.06
471.558	824.06
471.777	829.06
471.997	842.06
472.216	837.06
472.435	833.06
472.654	833.06
472.873	808.06
473.092	822.06
473.311	820.06
473.53	817.06
473.749	811.06
473.968	796.06
474.187	808.06
474.406	791.06
474.625	840.06
474.844	805.06
475.063	826.06
475.282	835.06
475.501	826.06
475.72	848.06
475.939	859.06
476.158	830.06
476.377	843.06
476.596	872.06
476.814	889.06
477.033	842.06
477.252	866.06
477.471	856.06
477.69	896.06
477.908	891.06
478.127	923.06
478.346	933.06
478.564	928.06
478.783	951.06
479.002	951.06
479.22	970.06
479.439	1022.06
479.658	972.06
479.876	948.06
480.095	976.06
480.313	975.06
480.532	997.06
480.751	980.06
480.969	976.06
481.188	1008.06
481.406	948.06
481.624	946.06
481.843	938.06
482.061	932.06
482.28	961.06
482.498	952.06
482.717	923.06
482.935	935.06
483.153	952.06
483.372	940.06
483.59	938.06
483.808	954.06
484.027	977.06
484.245	949.06
484.463	953.06
484.681	979.06
484.9	1007.06
485.118	963.06
485.336	990.06
485.554	968.06
485.772	934.06
485.99	965.06
486.209	971.06
486.427	965.06
486.645	967.06
486.863	979.06
487.081	995.06
487.299	999.06
487.517	976.06
487.735	956.06
487.953	981.06
488.171	965.06
488.389	993.06
488.607	983.06
488.825	973.06
489.043	955.06
489.261	974.06
489.479	960.06
489.696	957.06
489.914	942.06
490.132	990.06
490.35	1001.06
490.568	990.06
490.786	996.06
491.003	981.06
491.221	996.06
491.439	983.06
491.657	967.06
491.874	1027.06
492.092	964.06
492.31	1013.06
492.527	1003.06
492.745	1011.06
492.963	1009.06
493.18	1009.06
493.398	1007.06
493.615	1022.06
493.833	992.06
494.05	1002.06
494.268	1013.06
494.485	1021.06
494.703	1047.06
494.92	1035.06
495.138	1049.06
495.355	1053.06
495.573	1048.06
495.79	1042.06
496.008	1062.06
496.225	1065.06
496.442	1068.06
496.66	1094.06
496.877	1078.06
497.094	1089.06
497.312	1115.06
497.529	1138.06
497.746	1146.06
497.963	1223.06
498.181	1224.06
498.398	1282.06
498.615	1309.06
498.832	1354.06
499.049	1399.06
499.267	1484.06
499.484	1564.06
499.701	1644.06
499.918	1719.06
500.135	1877.06
500.352	1971.06
500.569	1990.06
500.786	2018.06
501.003	1933.06
501.22	1860.06
501.437	1720.06
501.654	1611.06
501.871	1533.06
502.088	1449.06
502.305	1385.06
502.522	1354.06
502.739	1297.06
502.956	1255.06
503.172	1237.06
503.389	1210.06
503.606	1177.06
503.823	1166.06
504.04	1145.06
504.256	1136.06
504.473	1151.06
504.69	1124.06
504.907	1097.06
505.123	1087.06
505.34	1048.06
505.557	1009.06
505.773	1000.06
505.99	1002.06
506.207	961.06
506.423	959.06
506.64	933.06
506.856	936.06
507.073	918.06
507.289	923.06
507.506	911.06
507.722	899.06
507.939	908.06
508.155	909.06
508.372	879.06
508.588	867.06
508.805	866.06
509.021	846.06
509.238	863.06
509.454	854.06
509.67	856.06
509.887	831.06
510.103	833.06
510.319	854.06
510.536	837.06
510.752	803.06
510.968	827.06
511.184	813.06
511.401	822.06
511.617	808.06
511.833	813.06
512.049	817.06
512.265	825.06
512.481	822.06
512.698	803.06
512.914	815.06
513.13	814.06
513.346	821.06
513.562	829.06
513.778	799.06
513.994	823.06
514.21	842.06
514.426	798.06
514.642	819.06
514.858	812.06
515.074	845.06
515.29	842.06
515.506	813.06
515.721	848.06
515.937	859.06
516.153	857.06
516.369	879.06
516.585	876.06
516.801	916.06
517.016	925.06
517.232	970.06
517.448	971.06
517.664	979.06
517.879	971.06
518.095	987.06
518.311	962.06
518.527	947.06
518.742	905.06
518.958	907.06
519.173	891.06
519.389	910.06
519.605	889.06
519.82	882.06
520.036	893.06
520.251	855.06
520.467	834.06
520.682	833.06
520.898	790.06
521.113	786.06
521.329	790.06
521.544	777.06
521.76	785.06
521.975	780.06
522.19	797.06
522.406	769.06
522.621	800.06
522.836	785.06
523.052	762.06
523.267	785.06
523.482	731.06
523.698	765.06
523.913	773.06
524.128	757.06
524.343	745.06
524.559	753.06
524.774	755.06
524.989	763.06
525.204	729.06
525.419	746.06
525.634	755.06
525.849	716.06
526.064	749.06
526.28	738.06
526.495	737.06
526.71	740.06
526.925	726.06
527.14	738.06
527.355	704.06
527.57	706.06
527.785	706.06
527.999	715.06
528.214	735.06
528.429	714.06
528.644	750.06
528.859	740.06
529.074	744.06
529.289	724.06
529.503	719.06
529.718	739.06
529.933	676.06
530.148	714.06
530.363	730.06
530.577	704.06
530.792	721.06
531.007	720.06
531.221	718.06
531.436	713.06
531.651	695.06
531.865	689.06
532.08	705.06
532.295	710.06
532.509	698.06
532.724	695.06
532.938	726.06
533.153	738.06
533.367	701.06
533.582	687.06
533.796	727.06
534.011	700.06
534.225	689.06
534.44	694.06
534.654	671.06
534.868	711.06
535.083	687.06
535.297	695.06
535.511	672.06
535.726	689.06
535.94	670.06
536.154	690.06
536.369	689.06
536.583	676.06
536.797	651.06
537.011	662.06
537.225	641.06
537.44	657.06
537.654	650.06
537.868	663.06
538.082	669.06
538.296	654.06
538.51	654.06
538.724	651.06
538.938	658.06
539.153	631.06
539.367	667.06
539.581	647.06
539.795	618.06
540.009	649.06
540.222	655.06
540.436	650.06
540.65	639.06
540.864	627.06
541.078	647.06
541.292	665.06
541.506	648.06
541.72	665.06
541.934	646.06
542.147	649.06
542.361	655.06
542.575	657.06
542.789	646.06
543.002	621.06
543.216	631.06
543.43	630.06
543.644	634.06
543.857	641.06
544.071	643.06
544.285	629.06
544.498	639.06
544.712	648.06
544.925	655.06
545.139	641.06
545.352	630.06
545.566	656.06
545.779	654.06
545.993	666.06
546.206	656.06
546.42	640.06
546.633	639.06
546.847	670.06
547.06	650.06
547.274	628.06
547.487	677.06
547.7	675.06
547.914	647.06
548.127	650.06
548.34	685.06
548.554	652.06
548.767	666.06
548.98	667.06
549.193	651.06
549.407	641.06
549.62	661.06
549.833	637.06
550.046	653.06
550.259	659.06
550.473	660.06
550.686	645.06
550.899	663.06
551.112	656.06
551.325	649.06
551.538	643.06
551.751	650.06
551.964	649.06
552.177	641.06
552.39	652.06
552.603	666.06
552.816	641.06
553.029	674.06
553.242	678.06
553.455	686.06
553.667	689.06
553.88	665.06
554.093	657.06
554.306	639.06
554.519	624.06
554.732	614.06
554.944	614.06
555.157	619.06
555.37	629.06
555.583	593.06
555.795	589.06
556.008	594.06
556.221	591.06
556.433	575.06
556.646	586.06
556.859	585.06
557.071	572.06
557.284	573.06
557.496	559.06
557.709	563.06
557.921	555.06
558.134	563.06
558.346	565.06
558.559	547.06
558.771	561.06
558.984	541.06
559.196	562.06
559.409	559.06
559.621	549.06
559.833	559.06
560.046	561.06
560.258	557.06
560.47	560.06
560.683	568.06
560.895	543.06
561.107	538.06
561.32	568.06
561.532	569.06
561.744	551.06
561.956	543.06
562.168	514.06
562.381	534.06
562.593	542.06
562.805	536.06
563.017	547.06
563.229	555.06
563.441	559.06
563.653	560.06
563.865	576.06
564.077	570.06
564.289	572.06
564.501	578.06
564.713	576.06
564.925	580.06
565.137	581.06
565.349	590.06
565.561	595.06
565.773	607.06
565.985	623.06
566.197	653.06
566.408	678.06
566.62	715.06
566.832	720.06
567.044	733.06
567.255	734.06
567.467	733.06
567.679	766.06
567.891	785.06
568.102	752.06
568.314	758.06
568.526	724.06
568.737	691.06
568.949	659.06
569.161	647.06
569.372	630.06
569.584	594.06
569.795	561.06
570.007	557.06
570.218	552.06
570.43	535.06
570.641	534.06
570.853	541.06
571.064	533.06
571.276	554.06
571.487	515.06
571.698	516.06
571.91	525.06
572.121	503.06
572.333	520.06
572.544	509.06
572.755	481.06
572.966	452.06
573.178	473.06
573.389	468.06
573.6	453.06
573.811	445.06
574.023	454.06
574.234	439.06
574.445	438.06
574.656	435.06
574.867	440.06
575.078	425.06
575.289	438.06
575.501	460.06
575.712	434.06
575.923	429.06
576.134	413.06
576.345	437.06
576.556	402.06
576.767	413.06
576.978	423.06
577.188	421.06
577.399	406.06
577.61	400.06
577.821	430.06
578.032	413.06
578.243	413.06
578.454	403.06
578.665	389.06
578.875	402.06
579.086	402.06
579.297	401.06
579.508	386.06
579.718	394.06
579.929	400.06
580.14	377.06
580.35	400.06
580.561	378.06
580.772	391.06
580.982	394.06
581.193	390.06
581.403	393.06
581.614	387.06
581.825	390.06
582.035	385.06
582.246	378.06
582.456	376.06
582.667	377.06
582.877	385.06
583.087	383.06
583.298	357.06
583.508	367.06
583.719	365.06
583.929	396.06
584.139	381.06
584.35	374.06
584.56	377.06
584.77	359.06
584.981	352.06
585.191	365.06
585.401	358.06
585.611	369.06
585.821	376.06
586.032	355.06
586.242	369.06
586.452	391.06
586.662	354.06
586.872	359.06
587.082	361.06
587.292	351.06
587.502	356.06
587.713	356.06
587.923	362.06
588.133	359.06
588.343	369.06
588.553	360.06
588.762	385.06
588.972	381.06
589.182	382.06
589.392	393.06
589.602	383.06
589.812	380.06
590.022	366.06
590.232	366.06
590.441	372.06
590.651	369.06
590.861	350.06
591.071	356.06
591.281	347.06
591.49	385.06
591.7	373.06
591.91	354.06
592.119	364.06
592.329	371.06
592.539	386.06
592.748	392.06
592.958	394.06
593.167	386.06
593.377	409.06
593.587	420.06
593.796	399.06
594.006	378.06
594.215	413.06
594.424	413.06
594.634	397.06
594.843	374.06
595.053	391.06
595.262	376.06
595.472	367.06
595.681	353.06
595.89	360.06
596.1	349.06
596.309	357.06
596.518	353.06
596.727	329.06
596.937	361.06
597.146	333.06
597.355	330.06
597.564	345.06
597.774	327.06
597.983	319.06
598.192	319.06
598.401	311.06
598.61	345.06
598.819	325.06
599.028	320.06
599.237	306.06
599.446	324.06
599.655	317.06
599.864	298.06
600.073	314.06
600.282	292.06
600.491	322.06
600.7	314.06
600.909	316.06
601.118	322.06
601.327	320.06
601.536	307.06
601.745	321.06
601.953	303.06
602.162	308.06
602.371	309.06
602.58	293.06
602.789	284.06
602.997	274.06
603.206	298.06
603.415	298.06
603.623	281.06
603.832	269.06
604.041	298.06
604.249	302.06
604.458	293.06
604.666	301.06
604.875	278.06
605.084	285.06
605.292	292.06
605.501	286.06
605.709	273.06
605.918	287.06
606.126	286.06
606.334	273.06
606.543	281.06
606.751	296.06
606.96	283.06
607.168	282.06
607.376	270.06
607.585	275.06
607.793	287.06
608.001	272.06
608.21	285.06
608.418	265.06
608.626	289.06
608.834	242.06
609.043	290.06
609.251	287.06
609.459	273.06
609.667	279.06
609.875	265.06
610.083	272.06
610.291	290.06
610.499	277.06
610.707	270.06
610.916	268.06
611.124	262.06
611.332	267.06
611.54	293.06
611.748	263.06
611.955	273.06
612.163	281.06
612.371	281.06
612.579	278.06
612.787	279.06
612.995	250.06
613.203	253.06
613.411	261.06
613.618	273.06
613.826	275.06
614.034	257.06
614.242	266.06
614.449	267.06
614.657	255.06
614.865	266.06
615.072	278.06
615.28	263.06
615.488	256.06
615.695	254.06
615.903	262.06
616.111	251.06
616.318	239.06
616.526	266.06
616.733	273.06
616.941	265.06
617.148	267.06
617.356	271.06
617.563	253.06
617.771	266.06
617.978	262.06
618.185	250.06
618.393	253.06
618.6	264.06
618.807	267.06
619.015	273.06
619.222	241.06
619.429	255.06
619.637	249.06
619.844	247.06
620.051	226.06
620.258	258.06
620.466	241.06
620.673	222.06
620.88	237.06
621.087	243.06
621.294	253.06
621.501	241.06
621.708	242.06
621.915	240.06
622.122	220.06
622.329	253.06
622.536	240.06
622.743	247.06
622.95	255.06
623.157	251.06
623.364	247.06
623.571	247.06
623.778	246.06
623.985	239.06
624.192	241.06
624.399	229.06
624.606	235.06
624.812	222.06
625.019	244.06
625.226	241.06
625.433	230.06
625.639	229.06
625.846	250.06
626.053	215.06
626.259	229.06
626.466	231.06
626.673	238.06
626.879	221.06
627.086	227.06
627.293	235.06
627.499	220.06
627.706	226.06
627.912	230.06
628.119	223.06
628.325	237.06
628.532	222.06
628.738	213.06
628.945	221.06
629.151	228.06
629.357	202.06
629.564	213.06
629.77	213.06
629.976	227.06
630.183	216.06
630.389	228.06
630.595	226.06
630.802	221.06
631.008	230.06
631.214	221.06
631.42	226.06
631.627	224.06
631.833	203.06
632.039	195.06
632.245	201.06
632.451	213.06
632.657	201.06
632.863	210.06
633.069	220.06
633.275	218.06
633.481	204.06
633.688	195.06
633.893	205.06
634.099	213.06
634.305	208.06
634.511	199.06
634.717	215.06
634.923	196.06
635.129	196.06
635.335	216.06
635.541	208.06
635.747	199.06
635.952	192.06
636.158	220.06
636.364	190.06
636.57	203.06
636.775	183.06
636.981	192.06
637.187	192.06
637.392	203.06
637.598	201.06
637.804	194.06
638.009	193.06
638.215	204.06
638.421	189.06
638.626	197.06
638.832	186.06
639.037	219.06
639.243	189.06
639.448	191.06
639.654	203.06
639.859	203.06
640.065	206.06
640.27	209.06
640.475	191.06
640.681	209.06
640.886	199.06
641.091	181.06
641.297	199.06
641.502	198.06
641.707	205.06
641.913	191.06
642.118	203.06
642.323	195.06
642.528	185.06
642.733	201.06
642.939	195.06
643.144	193.06
643.349	193.06
643.554	196.06
643.759	193.06
643.964	170.06
644.169	186.06
644.374	183.06
644.579	175.06
644.784	187.06
644.989	166.06
645.194	175.06
645.399	182.06
645.604	176.06
645.809	189.06
646.014	189.06
646.219	183.06
646.423	185.06
646.628	189.06
646.833	182.06
647.038	186.06
647.243	174.06
647.447	189.06
647.652	189.06
647.857	195.06
648.062	179.06
648.266	197.06
648.471	200.06
648.676	192.06
648.88	186.06
649.085	198.06
649.289	187.06
649.494	192.06
649.698	186.06
649.903	198.06
650.107	182.06
650.312	199.06
650.516	184.06
650.721	171.06
650.925	184.06
651.13	190.06
651.334	183.06
651.539	175.06
651.743	174.06
651.947	176.06
652.152	176.06
652.356	175.06
652.56	157.06
652.764	157.06
652.969	165.06
653.173	161.06
653.377	165.06
653.581	178.06
653.785	171.06
653.99	163.06
654.194	168.06
654.398	152.06
654.602	165.06
654.806	161.06
655.01	154.06
655.214	157.06
655.418	149.06
655.622	152.06
655.826	159.06
656.03	166.06
656.234	154.06
656.438	153.06
656.642	158.06
656.846	159.06
657.049	162.06
657.253	157.06
657.457	148.06
657.661	132.06
657.865	130.06
658.068	133.06
658.272	119.06
658.476	123.06
658.68	119.06
658.883	107.06
659.087	119.06
659.291	113.06
659.494	103.06
659.698	111.06
659.901	100.06
660.105	104.06
660.309	94.06
660.512	85.06
660.716	104.06
660.919	95.06
661.123	99.06
661.326	100.06
661.53	91.06
661.733	88.06
661.936	98.06
662.14	76.06
662.343	95.06
662.546	93.06
662.75	88.06
662.953	90.06
663.156	85.06
663.36	95.06
663.563	87.06
663.766	86.06
663.969	76.06
664.173	70.06
664.376	73.06
664.579	88.06
664.782	70.06
664.985	74.06
665.188	81.06
665.391	89.06
665.594	87.06
665.797	94.06
666	74.06
666.203	79.06
666.406	87.06
666.609	78.06
666.812	75.06
667.015	74.06
667.218	90.06
667.421	89.06
667.624	85.06
667.827	67.06
668.03	85.06
668.232	66.06
668.435	74.06
668.638	84.06
668.841	73.06
669.043	65.06
669.246	73.06
669.449	72.06
669.651	85.06
669.854	75.06
670.057	95.06
670.259	78.06
670.462	76.06
670.665	75.06
670.867	82.06
671.07	77.06
671.272	89.06
671.475	82.06
671.677	75.06
671.88	78.06
672.082	84.06
672.284	78.06
672.487	85.06
672.689	58.06
672.892	82.06
