Data from Fe(NO3)3@0.025M.TitratingCurve.Agarose3%dH2O.NegLispCup.LampEnergy10.LIBS07252019_HRD10591_16-55-17-335.txt Node
Date: Thu Jul 25 16:55:17 EDT 2019
User: cochatt
Spectrometer: HR+D1059
Trigger mode: 1
Integration Time (sec): 1.000000E-1
Scans to average: 1
Electric dark correction enabled: true
Nonlinearity correction enabled: false
Boxcar width: 0
XAxis mode: Wavelengths
Number of Pixels in Spectrum: 2048
>>>>>Begin Spectral Data<<<<<
223.165	-32.94
223.4	-32.94
223.635	-32.94
223.869	-6.94
224.104	-6.94
224.338	-7.94
224.573	-27.94
224.808	-22.94
225.042	-10.94
225.277	5.06
225.511	-7.94
225.746	10.06
225.98	8.06
226.215	1.06
226.449	24.06
226.683	19.06
226.918	24.06
227.152	33.06
227.387	37.06
227.621	29.06
227.856	43.06
228.09	34.06
228.324	51.06
228.559	56.06
228.793	53.06
229.027	74.06
229.262	70.06
229.496	81.06
229.73	84.06
229.964	95.06
230.199	88.06
230.433	86.06
230.667	91.06
230.901	85.06
231.136	95.06
231.37	73.06
231.604	91.06
231.838	86.06
232.072	81.06
232.306	94.06
232.541	94.06
232.775	87.06
233.009	84.06
233.243	100.06
233.477	99.06
233.711	100.06
233.945	98.06
234.179	109.06
234.413	96.06
234.647	104.06
234.881	98.06
235.115	100.06
235.349	94.06
235.583	96.06
235.817	104.06
236.051	86.06
236.285	91.06
236.519	93.06
236.753	106.06
236.987	99.06
237.221	94.06
237.455	87.06
237.689	87.06
237.922	87.06
238.156	103.06
238.39	98.06
238.624	101.06
238.858	104.06
239.091	100.06
239.325	104.06
239.559	103.06
239.793	114.06
240.027	109.06
240.26	99.06
240.494	100.06
240.728	98.06
240.961	118.06
241.195	104.06
241.429	113.06
241.662	93.06
241.896	99.06
242.13	101.06
242.363	96.06
242.597	116.06
242.83	101.06
243.064	113.06
243.298	103.06
243.531	113.06
243.765	120.06
243.998	116.06
244.232	121.06
244.465	121.06
244.699	98.06
244.932	106.06
245.166	114.06
245.399	119.06
245.633	107.06
245.866	127.06
246.099	114.06
246.333	125.06
246.566	113.06
246.8	121.06
247.033	101.06
247.266	121.06
247.5	121.06
247.733	103.06
247.966	117.06
248.2	125.06
248.433	120.06
248.666	114.06
248.899	115.06
249.133	116.06
249.366	119.06
249.599	128.06
249.832	113.06
250.066	132.06
250.299	121.06
250.532	109.06
250.765	122.06
250.998	121.06
251.231	116.06
251.465	134.06
251.698	129.06
251.931	123.06
252.164	129.06
252.397	122.06
252.63	133.06
252.863	130.06
253.096	139.06
253.329	141.06
253.562	127.06
253.795	125.06
254.028	138.06
254.261	138.06
254.494	132.06
254.727	134.06
254.96	129.06
255.193	125.06
255.426	133.06
255.659	134.06
255.892	132.06
256.124	134.06
256.357	134.06
256.59	139.06
256.823	151.06
257.056	138.06
257.289	136.06
257.521	143.06
257.754	137.06
257.987	154.06
258.22	137.06
258.452	137.06
258.685	154.06
258.918	140.06
259.151	146.06
259.383	129.06
259.616	147.06
259.849	154.06
260.081	142.06
260.314	151.06
260.547	137.06
260.779	140.06
261.012	145.06
261.244	152.06
261.477	164.06
261.71	138.06
261.942	129.06
262.175	144.06
262.407	138.06
262.64	147.06
262.872	145.06
263.105	160.06
263.337	155.06
263.57	143.06
263.802	158.06
264.035	158.06
264.267	156.06
264.499	161.06
264.732	160.06
264.964	165.06
265.197	148.06
265.429	149.06
265.661	152.06
265.894	159.06
266.126	159.06
266.358	154.06
266.591	153.06
266.823	142.06
267.055	166.06
267.287	158.06
267.52	144.06
267.752	174.06
267.984	169.06
268.216	164.06
268.448	169.06
268.681	159.06
268.913	155.06
269.145	154.06
269.377	162.06
269.609	170.06
269.841	162.06
270.073	173.06
270.306	162.06
270.538	175.06
270.77	161.06
271.002	186.06
271.234	151.06
271.466	173.06
271.698	157.06
271.93	164.06
272.162	164.06
272.394	187.06
272.626	175.06
272.858	164.06
273.09	182.06
273.322	151.06
273.553	172.06
273.785	167.06
274.017	181.06
274.249	172.06
274.481	189.06
274.713	185.06
274.945	177.06
275.176	182.06
275.408	182.06
275.64	195.06
275.872	194.06
276.104	181.06
276.335	197.06
276.567	183.06
276.799	200.06
277.031	184.06
277.262	179.06
277.494	206.06
277.726	197.06
277.957	191.06
278.189	187.06
278.421	195.06
278.652	173.06
278.884	193.06
279.115	196.06
279.347	194.06
279.579	195.06
279.81	191.06
280.042	196.06
280.273	194.06
280.505	201.06
280.736	196.06
280.968	198.06
281.199	207.06
281.431	193.06
281.662	194.06
281.894	195.06
282.125	190.06
282.356	191.06
282.588	198.06
282.819	182.06
283.051	201.06
283.282	207.06
283.513	207.06
283.745	181.06
283.976	189.06
284.207	205.06
284.439	207.06
284.67	196.06
284.901	196.06
285.132	195.06
285.364	205.06
285.595	212.06
285.826	202.06
286.057	203.06
286.288	199.06
286.52	213.06
286.751	216.06
286.982	214.06
287.213	204.06
287.444	214.06
287.675	212.06
287.906	216.06
288.138	198.06
288.369	216.06
288.6	217.06
288.831	223.06
289.062	233.06
289.293	226.06
289.524	204.06
289.755	202.06
289.986	227.06
290.217	221.06
290.448	239.06
290.679	221.06
290.91	226.06
291.141	217.06
291.371	222.06
291.602	210.06
291.833	201.06
292.064	225.06
292.295	231.06
292.526	237.06
292.757	210.06
292.987	207.06
293.218	224.06
293.449	231.06
293.68	241.06
293.91	217.06
294.141	211.06
294.372	221.06
294.603	235.06
294.833	223.06
295.064	238.06
295.295	234.06
295.525	228.06
295.756	242.06
295.987	230.06
296.217	210.06
296.448	214.06
296.679	220.06
296.909	234.06
297.14	230.06
297.37	230.06
297.601	241.06
297.831	222.06
298.062	221.06
298.292	239.06
298.523	247.06
298.753	235.06
298.984	237.06
299.214	253.06
299.445	240.06
299.675	227.06
299.905	231.06
300.136	237.06
300.366	257.06
300.597	239.06
300.827	249.06
301.057	253.06
301.288	227.06
301.518	232.06
301.748	265.06
301.979	257.06
302.209	264.06
302.439	251.06
302.669	235.06
302.9	231.06
303.13	231.06
303.36	260.06
303.59	245.06
303.82	266.06
304.051	248.06
304.281	245.06
304.511	258.06
304.741	261.06
304.971	273.06
305.201	239.06
305.431	232.06
305.661	271.06
305.891	239.06
306.121	253.06
306.352	245.06
306.582	243.06
306.812	258.06
307.042	258.06
307.272	271.06
307.502	249.06
307.731	246.06
307.961	257.06
308.191	255.06
308.421	249.06
308.651	253.06
308.881	253.06
309.111	278.06
309.341	270.06
309.571	256.06
309.8	257.06
310.03	254.06
310.26	256.06
310.49	259.06
310.72	272.06
310.949	268.06
311.179	262.06
311.409	271.06
311.639	282.06
311.868	285.06
312.098	265.06
312.328	253.06
312.557	288.06
312.787	265.06
313.017	281.06
313.246	292.06
313.476	281.06
313.706	267.06
313.935	290.06
314.165	278.06
314.394	277.06
314.624	284.06
314.853	289.06
315.083	279.06
315.312	283.06
315.542	293.06
315.771	271.06
316.001	279.06
316.23	268.06
316.46	289.06
316.689	294.06
316.919	256.06
317.148	291.06
317.377	267.06
317.607	272.06
317.836	280.06
318.065	295.06
318.295	283.06
318.524	294.06
318.753	276.06
318.983	277.06
319.212	276.06
319.441	290.06
319.67	272.06
319.9	275.06
320.129	285.06
320.358	283.06
320.587	273.06
320.816	285.06
321.046	272.06
321.275	304.06
321.504	301.06
321.733	285.06
321.962	295.06
322.191	298.06
322.42	286.06
322.649	293.06
322.878	294.06
323.108	291.06
323.337	298.06
323.566	293.06
323.795	298.06
324.024	306.06
324.253	307.06
324.482	318.06
324.71	290.06
324.939	295.06
325.168	298.06
325.397	286.06
325.626	286.06
325.855	286.06
326.084	295.06
326.313	312.06
326.542	320.06
326.77	299.06
326.999	291.06
327.228	307.06
327.457	287.06
327.686	312.06
327.914	299.06
328.143	313.06
328.372	293.06
328.6	312.06
328.829	302.06
329.058	317.06
329.287	303.06
329.515	310.06
329.744	332.06
329.972	320.06
330.201	315.06
330.43	316.06
330.658	318.06
330.887	319.06
331.115	330.06
331.344	327.06
331.572	331.06
331.801	331.06
332.03	339.06
332.258	328.06
332.486	335.06
332.715	357.06
332.943	340.06
333.172	374.06
333.4	367.06
333.629	375.06
333.857	354.06
334.085	362.06
334.314	389.06
334.542	377.06
334.771	371.06
334.999	387.06
335.227	374.06
335.455	361.06
335.684	353.06
335.912	345.06
336.14	362.06
336.369	361.06
336.597	350.06
336.825	353.06
337.053	331.06
337.281	352.06
337.51	338.06
337.738	343.06
337.966	352.06
338.194	345.06
338.422	346.06
338.65	341.06
338.878	328.06
339.106	334.06
339.334	332.06
339.562	323.06
339.79	335.06
340.018	328.06
340.246	309.06
340.474	344.06
340.702	332.06
340.93	326.06
341.158	331.06
341.386	337.06
341.614	322.06
341.842	323.06
342.07	339.06
342.298	343.06
342.526	335.06
342.754	317.06
342.981	330.06
343.209	342.06
343.437	356.06
343.665	366.06
343.893	357.06
344.12	362.06
344.348	360.06
344.576	364.06
344.804	361.06
345.031	331.06
345.259	341.06
345.487	326.06
345.714	325.06
345.942	349.06
346.17	329.06
346.397	325.06
346.625	334.06
346.853	303.06
347.08	318.06
347.308	318.06
347.535	322.06
347.763	332.06
347.99	328.06
348.218	330.06
348.445	319.06
348.673	311.06
348.9	346.06
349.128	333.06
349.355	322.06
349.583	310.06
349.81	325.06
350.037	309.06
350.265	312.06
350.492	330.06
350.72	325.06
350.947	312.06
351.174	331.06
351.402	321.06
351.629	305.06
351.856	317.06
352.083	325.06
352.311	341.06
352.538	325.06
352.765	321.06
352.992	310.06
353.22	319.06
353.447	305.06
353.674	312.06
353.901	306.06
354.128	316.06
354.355	306.06
354.583	319.06
354.81	314.06
355.037	309.06
355.264	323.06
355.491	303.06
355.718	307.06
355.945	317.06
356.172	333.06
356.399	328.06
356.626	301.06
356.853	311.06
357.08	335.06
357.307	330.06
357.534	328.06
357.761	319.06
357.988	325.06
358.215	339.06
358.441	336.06
358.668	342.06
358.895	313.06
359.122	326.06
359.349	313.06
359.576	337.06
359.802	328.06
360.029	321.06
360.256	320.06
360.483	313.06
360.709	308.06
360.936	326.06
361.163	322.06
361.39	336.06
361.616	330.06
361.843	332.06
362.07	320.06
362.296	322.06
362.523	324.06
362.749	303.06
362.976	334.06
363.203	335.06
363.429	318.06
363.656	324.06
363.882	332.06
364.109	322.06
364.335	326.06
364.562	332.06
364.788	315.06
365.015	347.06
365.241	312.06
365.468	327.06
365.694	326.06
365.92	316.06
366.147	305.06
366.373	297.06
366.599	338.06
366.826	326.06
367.052	336.06
367.278	329.06
367.505	333.06
367.731	347.06
367.957	326.06
368.184	329.06
368.41	319.06
368.636	333.06
368.862	327.06
369.089	335.06
369.315	334.06
369.541	331.06
369.767	357.06
369.993	363.06
370.219	323.06
370.445	341.06
370.672	349.06
370.898	343.06
371.124	367.06
371.35	343.06
371.576	331.06
371.802	337.06
372.028	350.06
372.254	358.06
372.48	353.06
372.706	365.06
372.932	345.06
373.158	348.06
373.384	370.06
373.61	354.06
373.835	375.06
374.061	356.06
374.287	363.06
374.513	351.06
374.739	367.06
374.965	367.06
375.191	394.06
375.416	390.06
375.642	382.06
375.868	356.06
376.094	377.06
376.319	360.06
376.545	353.06
376.771	371.06
376.997	352.06
377.222	354.06
377.448	347.06
377.674	345.06
377.899	356.06
378.125	357.06
378.35	359.06
378.576	357.06
378.802	335.06
379.027	349.06
379.253	348.06
379.478	366.06
379.704	357.06
379.929	342.06
380.155	368.06
380.38	357.06
380.606	339.06
380.831	366.06
381.057	354.06
381.282	361.06
381.507	358.06
381.733	361.06
381.958	375.06
382.184	370.06
382.409	352.06
382.634	369.06
382.86	355.06
383.085	375.06
383.31	369.06
383.535	374.06
383.761	378.06
383.986	384.06
384.211	407.06
384.436	372.06
384.662	405.06
384.887	388.06
385.112	399.06
385.337	410.06
385.562	405.06
385.787	413.06
386.013	415.06
386.238	419.06
386.463	404.06
386.688	408.06
386.913	404.06
387.138	403.06
387.363	395.06
387.588	414.06
387.813	415.06
388.038	407.06
388.263	406.06
388.488	426.06
388.713	410.06
388.938	425.06
389.163	426.06
389.387	406.06
389.612	421.06
389.837	413.06
390.062	427.06
390.287	430.06
390.512	397.06
390.736	408.06
390.961	442.06
391.186	443.06
391.411	422.06
391.636	447.06
391.86	439.06
392.085	445.06
392.31	454.06
392.534	448.06
392.759	442.06
392.984	454.06
393.208	414.06
393.433	433.06
393.658	437.06
393.882	430.06
394.107	451.06
394.331	441.06
394.556	437.06
394.78	424.06
395.005	432.06
395.229	454.06
395.454	458.06
395.678	456.06
395.903	461.06
396.127	462.06
396.352	443.06
396.576	453.06
396.801	450.06
397.025	445.06
397.249	479.06
397.474	449.06
397.698	459.06
397.922	470.06
398.147	487.06
398.371	485.06
398.595	479.06
398.82	482.06
399.044	506.06
399.268	565.06
399.492	606.06
399.717	640.06
399.941	635.06
400.165	597.06
400.389	551.06
400.613	530.06
400.837	518.06
401.062	507.06
401.286	536.06
401.51	497.06
401.734	497.06
401.958	502.06
402.182	511.06
402.406	506.06
402.63	517.06
402.854	511.06
403.078	502.06
403.302	523.06
403.526	506.06
403.75	490.06
403.974	539.06
404.198	530.06
404.422	520.06
404.645	519.06
404.869	531.06
405.093	536.06
405.317	521.06
405.541	513.06
405.765	525.06
405.988	526.06
406.212	512.06
406.436	533.06
406.66	535.06
406.883	554.06
407.107	559.06
407.331	569.06
407.555	574.06
407.778	591.06
408.002	596.06
408.226	568.06
408.449	573.06
408.673	565.06
408.896	551.06
409.12	551.06
409.344	535.06
409.567	550.06
409.791	519.06
410.014	537.06
410.238	528.06
410.461	521.06
410.685	531.06
410.908	523.06
411.132	534.06
411.355	507.06
411.578	503.06
411.802	501.06
412.025	501.06
412.249	498.06
412.472	517.06
412.695	507.06
412.919	516.06
413.142	481.06
413.365	505.06
413.589	520.06
413.812	519.06
414.035	506.06
414.258	519.06
414.482	496.06
414.705	501.06
414.928	499.06
415.151	501.06
415.374	497.06
415.597	515.06
415.821	474.06
416.044	460.06
416.267	479.06
416.49	466.06
416.713	481.06
416.936	483.06
417.159	472.06
417.382	472.06
417.605	474.06
417.828	493.06
418.051	472.06
418.274	478.06
418.497	472.06
418.72	490.06
418.943	469.06
419.166	497.06
419.389	523.06
419.611	526.06
419.834	502.06
420.057	484.06
420.28	483.06
420.503	478.06
420.726	494.06
420.948	498.06
421.171	469.06
421.394	488.06
421.617	480.06
421.839	481.06
422.062	507.06
422.285	470.06
422.507	512.06
422.73	486.06
422.953	503.06
423.175	489.06
423.398	470.06
423.621	506.06
423.843	499.06
424.066	501.06
424.288	508.06
424.511	472.06
424.733	490.06
424.956	491.06
425.178	477.06
425.401	453.06
425.623	495.06
425.846	469.06
426.068	460.06
426.291	454.06
426.513	442.06
426.735	458.06
426.958	479.06
427.18	441.06
427.402	456.06
427.625	466.06
427.847	445.06
428.069	437.06
428.292	454.06
428.514	468.06
428.736	458.06
428.958	469.06
429.181	452.06
429.403	443.06
429.625	443.06
429.847	441.06
430.069	448.06
430.292	438.06
430.514	445.06
430.736	463.06
430.958	448.06
431.18	421.06
431.402	429.06
431.624	432.06
431.846	438.06
432.068	443.06
432.29	428.06
432.512	437.06
432.734	440.06
432.956	439.06
433.178	435.06
433.4	457.06
433.622	458.06
433.844	436.06
434.066	435.06
434.287	446.06
434.509	471.06
434.731	476.06
434.953	460.06
435.175	475.06
435.397	445.06
435.618	450.06
435.84	437.06
436.062	446.06
436.284	451.06
436.505	423.06
436.727	437.06
436.949	447.06
437.17	434.06
437.392	431.06
437.614	430.06
437.835	430.06
438.057	432.06
438.278	415.06
438.5	416.06
438.721	417.06
438.943	441.06
439.165	421.06
439.386	435.06
439.608	440.06
439.829	441.06
440.05	429.06
440.272	441.06
440.493	438.06
440.715	457.06
440.936	449.06
441.158	450.06
441.379	448.06
441.6	454.06
441.822	486.06
442.043	454.06
442.264	476.06
442.486	457.06
442.707	452.06
442.928	465.06
443.149	471.06
443.371	458.06
443.592	466.06
443.813	478.06
444.034	469.06
444.255	486.06
444.476	519.06
444.698	496.06
444.919	502.06
445.14	583.06
445.361	534.06
445.582	478.06
445.803	452.06
446.024	443.06
446.245	448.06
446.466	423.06
446.687	436.06
446.908	442.06
447.129	442.06
447.35	421.06
447.571	435.06
447.792	405.06
448.013	423.06
448.234	421.06
448.455	407.06
448.675	419.06
448.896	438.06
449.117	411.06
449.338	392.06
449.559	394.06
449.779	416.06
450	412.06
450.221	400.06
450.442	408.06
450.662	405.06
450.883	409.06
451.104	417.06
451.324	391.06
451.545	393.06
451.766	397.06
451.986	391.06
452.207	402.06
452.428	395.06
452.648	391.06
452.869	401.06
453.089	391.06
453.31	391.06
453.53	393.06
453.751	384.06
453.971	396.06
454.192	377.06
454.412	385.06
454.633	380.06
454.853	401.06
455.073	391.06
455.294	395.06
455.514	378.06
455.734	391.06
455.955	361.06
456.175	394.06
456.395	411.06
456.616	390.06
456.836	375.06
457.056	384.06
457.276	381.06
457.497	394.06
457.717	383.06
457.937	384.06
458.157	387.06
458.377	415.06
458.598	407.06
458.818	420.06
459.038	424.06
459.258	436.06
459.478	420.06
459.698	438.06
459.918	460.06
460.138	482.06
460.358	481.06
460.578	507.06
460.798	480.06
461.018	490.06
461.238	505.06
461.458	489.06
461.678	497.06
461.898	499.06
462.118	532.06
462.338	527.06
462.558	512.06
462.777	517.06
462.997	584.06
463.217	576.06
463.437	581.06
463.657	562.06
463.876	563.06
464.096	564.06
464.316	529.06
464.536	551.06
464.755	541.06
464.975	530.06
465.195	514.06
465.414	497.06
465.634	458.06
465.854	455.06
466.073	439.06
466.293	440.06
466.512	437.06
466.732	441.06
466.951	449.06
467.171	426.06
467.391	430.06
467.61	425.06
467.829	435.06
468.049	418.06
468.268	442.06
468.488	398.06
468.707	431.06
468.927	426.06
469.146	395.06
469.365	430.06
469.585	421.06
469.804	422.06
470.023	431.06
470.243	442.06
470.462	443.06
470.681	449.06
470.901	451.06
471.12	429.06
471.339	425.06
471.558	437.06
471.777	447.06
471.997	459.06
472.216	427.06
472.435	423.06
472.654	426.06
472.873	412.06
473.092	426.06
473.311	419.06
473.53	397.06
473.749	395.06
473.968	447.06
474.187	430.06
474.406	418.06
474.625	414.06
474.844	413.06
475.063	422.06
475.282	419.06
475.501	414.06
475.72	397.06
475.939	407.06
476.158	433.06
476.377	466.06
476.596	442.06
476.814	451.06
477.033	443.06
477.252	458.06
477.471	464.06
477.69	479.06
477.908	475.06
478.127	451.06
478.346	471.06
478.564	488.06
478.783	503.06
479.002	525.06
479.22	498.06
479.439	504.06
479.658	512.06
479.876	520.06
480.095	522.06
480.313	530.06
480.532	535.06
480.751	535.06
480.969	516.06
481.188	525.06
481.406	529.06
481.624	507.06
481.843	517.06
482.061	495.06
482.28	492.06
482.498	495.06
482.717	467.06
482.935	501.06
483.153	478.06
483.372	472.06
483.59	498.06
483.808	488.06
484.027	478.06
484.245	490.06
484.463	517.06
484.681	502.06
484.9	502.06
485.118	513.06
485.336	478.06
485.554	517.06
485.772	511.06
485.99	512.06
486.209	497.06
486.427	509.06
486.645	507.06
486.863	500.06
487.081	503.06
487.299	503.06
487.517	504.06
487.735	515.06
487.953	514.06
488.171	507.06
488.389	514.06
488.607	491.06
488.825	501.06
489.043	527.06
489.261	483.06
489.479	505.06
489.696	482.06
489.914	493.06
490.132	505.06
490.35	500.06
490.568	499.06
490.786	495.06
491.003	514.06
491.221	494.06
491.439	503.06
491.657	505.06
491.874	502.06
492.092	489.06
492.31	523.06
492.527	516.06
492.745	533.06
492.963	530.06
493.18	512.06
493.398	527.06
493.615	535.06
493.833	524.06
494.05	525.06
494.268	534.06
494.485	492.06
494.703	519.06
494.92	545.06
495.138	554.06
495.355	544.06
495.573	538.06
495.79	545.06
496.008	553.06
496.225	541.06
496.442	538.06
496.66	580.06
496.877	579.06
497.094	570.06
497.312	610.06
497.529	597.06
497.746	624.06
497.963	637.06
498.181	636.06
498.398	652.06
498.615	711.06
498.832	729.06
499.049	723.06
499.267	793.06
499.484	869.06
499.701	898.06
499.918	984.06
500.135	1013.06
500.352	1145.06
500.569	1103.06
500.786	1122.06
501.003	1096.06
501.22	991.06
501.437	935.06
501.654	850.06
501.871	823.06
502.088	761.06
502.305	736.06
502.522	699.06
502.739	683.06
502.956	659.06
503.172	647.06
503.389	641.06
503.606	616.06
503.823	592.06
504.04	609.06
504.256	594.06
504.473	614.06
504.69	600.06
504.907	595.06
505.123	570.06
505.34	544.06
505.557	513.06
505.773	514.06
505.99	517.06
506.207	521.06
506.423	480.06
506.64	488.06
506.856	499.06
507.073	475.06
507.289	479.06
507.506	489.06
507.722	468.06
507.939	490.06
508.155	483.06
508.372	470.06
508.588	457.06
508.805	463.06
509.021	469.06
509.238	474.06
509.454	466.06
509.67	441.06
509.887	448.06
510.103	447.06
510.319	450.06
510.536	452.06
510.752	453.06
510.968	433.06
511.184	443.06
511.401	449.06
511.617	457.06
511.833	443.06
512.049	454.06
512.265	429.06
512.481	440.06
512.698	440.06
512.914	443.06
513.13	427.06
513.346	443.06
513.562	447.06
513.778	449.06
513.994	459.06
514.21	450.06
514.426	453.06
514.642	431.06
514.858	449.06
515.074	454.06
515.29	465.06
515.506	445.06
515.721	457.06
515.937	476.06
516.153	468.06
516.369	494.06
516.585	509.06
516.801	496.06
517.016	483.06
517.232	534.06
517.448	527.06
517.664	532.06
517.879	538.06
518.095	533.06
518.311	523.06
518.527	537.06
518.742	517.06
518.958	478.06
519.173	482.06
519.389	482.06
519.605	458.06
519.82	444.06
520.036	469.06
520.251	440.06
520.467	453.06
520.682	456.06
520.898	434.06
521.113	434.06
521.329	429.06
521.544	425.06
521.76	436.06
521.975	419.06
522.19	441.06
522.406	423.06
522.621	414.06
522.836	407.06
523.052	417.06
523.267	403.06
523.482	395.06
523.698	416.06
523.913	413.06
524.128	410.06
524.343	409.06
524.559	424.06
524.774	393.06
524.989	410.06
525.204	413.06
525.419	397.06
525.634	416.06
525.849	418.06
526.064	418.06
526.28	407.06
526.495	396.06
526.71	392.06
526.925	415.06
527.14	419.06
527.355	419.06
527.57	392.06
527.785	417.06
527.999	406.06
528.214	393.06
528.429	406.06
528.644	392.06
528.859	408.06
529.074	418.06
529.289	402.06
529.503	412.06
529.718	391.06
529.933	399.06
530.148	387.06
530.363	405.06
530.577	397.06
530.792	400.06
531.007	397.06
531.221	400.06
531.436	391.06
531.651	408.06
531.865	397.06
532.08	407.06
532.295	417.06
532.509	395.06
532.724	405.06
532.938	410.06
533.153	393.06
533.367	389.06
533.582	400.06
533.796	409.06
534.011	404.06
534.225	394.06
534.44	384.06
534.654	379.06
534.868	398.06
535.083	389.06
535.297	407.06
535.511	391.06
535.726	391.06
535.94	378.06
536.154	390.06
536.369	389.06
536.583	397.06
536.797	386.06
537.011	362.06
537.225	369.06
537.44	387.06
537.654	375.06
537.868	356.06
538.082	371.06
538.296	369.06
538.51	378.06
538.724	367.06
538.938	381.06
539.153	368.06
539.367	370.06
539.581	378.06
539.795	382.06
540.009	368.06
540.222	361.06
540.436	375.06
540.65	360.06
540.864	373.06
541.078	373.06
541.292	354.06
541.506	381.06
541.72	369.06
541.934	382.06
542.147	380.06
542.361	365.06
542.575	398.06
542.789	375.06
543.002	362.06
543.216	373.06
543.43	357.06
543.644	352.06
543.857	374.06
544.071	367.06
544.285	387.06
544.498	365.06
544.712	365.06
544.925	370.06
545.139	383.06
545.352	377.06
545.566	389.06
545.779	399.06
545.993	343.06
546.206	390.06
546.42	362.06
546.633	368.06
546.847	373.06
547.06	390.06
547.274	385.06
547.487	362.06
547.7	368.06
547.914	371.06
548.127	396.06
548.34	387.06
548.554	375.06
548.767	385.06
548.98	392.06
549.193	379.06
549.407	387.06
549.62	374.06
549.833	377.06
550.046	403.06
550.259	389.06
550.473	387.06
550.686	385.06
550.899	385.06
551.112	375.06
551.325	385.06
551.538	389.06
551.751	349.06
551.964	360.06
552.177	382.06
552.39	374.06
552.603	391.06
552.816	386.06
553.029	395.06
553.242	395.06
553.455	394.06
553.667	407.06
553.88	374.06
554.093	353.06
554.306	383.06
554.519	379.06
554.732	369.06
554.944	360.06
555.157	351.06
555.37	345.06
555.583	359.06
555.795	345.06
556.008	351.06
556.221	346.06
556.433	335.06
556.646	334.06
556.859	327.06
557.071	341.06
557.284	324.06
557.496	338.06
557.709	322.06
557.921	362.06
558.134	326.06
558.346	343.06
558.559	345.06
558.771	313.06
558.984	309.06
559.196	343.06
559.409	342.06
559.621	307.06
559.833	333.06
560.046	339.06
560.258	316.06
560.47	319.06
560.683	315.06
560.895	312.06
561.107	326.06
561.32	339.06
561.532	319.06
561.744	324.06
561.956	318.06
562.168	337.06
562.381	336.06
562.593	317.06
562.805	329.06
563.017	334.06
563.229	351.06
563.441	333.06
563.653	333.06
563.865	329.06
564.077	361.06
564.289	333.06
564.501	352.06
564.713	350.06
564.925	375.06
565.137	359.06
565.349	377.06
565.561	377.06
565.773	393.06
565.985	393.06
566.197	390.06
566.408	405.06
566.62	431.06
566.832	439.06
567.044	445.06
567.255	432.06
567.467	449.06
567.679	462.06
567.891	489.06
568.102	469.06
568.314	447.06
568.526	430.06
568.737	410.06
568.949	397.06
569.161	385.06
569.372	369.06
569.584	385.06
569.795	350.06
570.007	339.06
570.218	329.06
570.43	338.06
570.641	324.06
570.853	335.06
571.064	337.06
571.276	326.06
571.487	324.06
571.698	326.06
571.91	317.06
572.121	298.06
572.333	314.06
572.544	298.06
572.755	301.06
572.966	291.06
573.178	289.06
573.389	290.06
573.6	265.06
573.811	271.06
574.023	273.06
574.234	279.06
574.445	274.06
574.656	271.06
574.867	273.06
575.078	286.06
575.289	264.06
575.501	264.06
575.712	253.06
575.923	257.06
576.134	266.06
576.345	266.06
576.556	273.06
576.767	264.06
576.978	269.06
577.188	254.06
577.399	256.06
577.61	261.06
577.821	253.06
578.032	273.06
578.243	273.06
578.454	262.06
578.665	269.06
578.875	253.06
579.086	248.06
579.297	255.06
579.508	260.06
579.718	249.06
579.929	257.06
580.14	245.06
580.35	242.06
580.561	245.06
580.772	215.06
580.982	244.06
581.193	227.06
581.403	233.06
581.614	256.06
581.825	254.06
582.035	226.06
582.246	251.06
582.456	243.06
582.667	254.06
582.877	237.06
583.087	244.06
583.298	247.06
583.508	246.06
583.719	230.06
583.929	237.06
584.139	240.06
584.35	252.06
584.56	253.06
584.77	251.06
584.981	224.06
585.191	241.06
585.401	239.06
585.611	246.06
585.821	239.06
586.032	245.06
586.242	251.06
586.452	237.06
586.662	244.06
586.872	233.06
587.082	238.06
587.292	221.06
587.502	237.06
587.713	228.06
587.923	241.06
588.133	226.06
588.343	213.06
588.553	229.06
588.762	227.06
588.972	224.06
589.182	240.06
589.392	237.06
589.602	237.06
589.812	240.06
590.022	227.06
590.232	225.06
590.441	230.06
590.651	235.06
590.861	238.06
591.071	228.06
591.281	243.06
591.49	243.06
591.7	258.06
591.91	233.06
592.119	242.06
592.329	223.06
592.539	249.06
592.748	244.06
592.958	258.06
593.167	257.06
593.377	255.06
593.587	259.06
593.796	263.06
594.006	257.06
594.215	261.06
594.424	269.06
594.634	245.06
594.843	257.06
595.053	262.06
595.262	251.06
595.472	234.06
595.681	257.06
595.89	235.06
596.1	233.06
596.309	217.06
596.518	231.06
596.727	224.06
596.937	229.06
597.146	219.06
597.355	230.06
597.564	217.06
597.774	224.06
597.983	202.06
598.192	210.06
598.401	206.06
598.61	210.06
598.819	206.06
599.028	212.06
599.237	196.06
599.446	196.06
599.655	202.06
599.864	195.06
600.073	211.06
600.282	209.06
600.491	199.06
600.7	216.06
600.909	199.06
601.118	205.06
601.327	208.06
601.536	198.06
601.745	211.06
601.953	220.06
602.162	202.06
602.371	201.06
602.58	191.06
602.789	204.06
602.997	198.06
603.206	197.06
603.415	204.06
603.623	181.06
603.832	191.06
604.041	189.06
604.249	202.06
604.458	202.06
604.666	190.06
604.875	179.06
605.084	203.06
605.292	199.06
605.501	205.06
605.709	199.06
605.918	194.06
606.126	208.06
606.334	210.06
606.543	210.06
606.751	209.06
606.96	204.06
607.168	205.06
607.376	202.06
607.585	203.06
607.793	181.06
608.001	191.06
608.21	196.06
608.418	204.06
608.626	196.06
608.834	187.06
609.043	189.06
609.251	189.06
609.459	183.06
609.667	203.06
609.875	192.06
610.083	182.06
610.291	193.06
610.499	192.06
610.707	196.06
610.916	194.06
611.124	183.06
611.332	191.06
611.54	185.06
611.748	202.06
611.955	186.06
612.163	202.06
612.371	193.06
612.579	193.06
612.787	178.06
612.995	198.06
613.203	186.06
613.411	191.06
613.618	194.06
613.826	176.06
614.034	191.06
614.242	187.06
614.449	186.06
614.657	188.06
614.865	197.06
615.072	191.06
615.28	191.06
615.488	186.06
615.695	207.06
615.903	191.06
616.111	191.06
616.318	184.06
616.526	200.06
616.733	182.06
616.941	189.06
617.148	194.06
617.356	195.06
617.563	176.06
617.771	183.06
617.978	161.06
618.185	198.06
618.393	193.06
618.6	194.06
618.807	183.06
619.015	179.06
619.222	195.06
619.429	197.06
619.637	183.06
619.844	181.06
620.051	164.06
620.258	178.06
620.466	181.06
620.673	184.06
620.88	179.06
621.087	171.06
621.294	160.06
621.501	178.06
621.708	185.06
621.915	177.06
622.122	177.06
622.329	171.06
622.536	177.06
622.743	200.06
622.95	183.06
623.157	177.06
623.364	191.06
623.571	174.06
623.778	166.06
623.985	160.06
624.192	185.06
624.399	183.06
624.606	159.06
624.812	165.06
625.019	178.06
625.226	174.06
625.433	184.06
625.639	164.06
625.846	156.06
626.053	161.06
626.259	167.06
626.466	166.06
626.673	170.06
626.879	179.06
627.086	173.06
627.293	168.06
627.499	171.06
627.706	175.06
627.912	175.06
628.119	161.06
628.325	164.06
628.532	162.06
628.738	164.06
628.945	173.06
629.151	162.06
629.357	156.06
629.564	161.06
629.77	163.06
629.976	185.06
630.183	166.06
630.389	171.06
630.595	167.06
630.802	148.06
631.008	158.06
631.214	166.06
631.42	176.06
631.627	157.06
631.833	159.06
632.039	178.06
632.245	170.06
632.451	152.06
632.657	144.06
632.863	159.06
633.069	153.06
633.275	149.06
633.481	158.06
633.688	156.06
633.893	159.06
634.099	175.06
634.305	167.06
634.511	144.06
634.717	174.06
634.923	160.06
635.129	149.06
635.335	156.06
635.541	161.06
635.747	159.06
635.952	167.06
636.158	153.06
636.364	157.06
636.57	146.06
636.775	147.06
636.981	136.06
637.187	159.06
637.392	165.06
637.598	157.06
637.804	158.06
638.009	157.06
638.215	148.06
638.421	156.06
638.626	152.06
638.832	158.06
639.037	157.06
639.243	156.06
639.448	129.06
639.654	133.06
639.859	155.06
640.065	152.06
640.27	168.06
640.475	161.06
640.681	134.06
640.886	149.06
641.091	153.06
641.297	155.06
641.502	159.06
641.707	146.06
641.913	144.06
642.118	165.06
642.323	150.06
642.528	159.06
642.733	155.06
642.939	151.06
643.144	157.06
643.349	139.06
643.554	146.06
643.759	146.06
643.964	135.06
644.169	137.06
644.374	150.06
644.579	147.06
644.784	149.06
644.989	133.06
645.194	151.06
645.399	152.06
645.604	149.06
645.809	149.06
646.014	162.06
646.219	144.06
646.423	158.06
646.628	147.06
646.833	155.06
647.038	170.06
647.243	152.06
647.447	152.06
647.652	164.06
647.857	166.06
648.062	161.06
648.266	161.06
648.471	137.06
648.676	160.06
648.88	147.06
649.085	147.06
649.289	158.06
649.494	164.06
649.698	155.06
649.903	151.06
650.107	152.06
650.312	167.06
650.516	146.06
650.721	152.06
650.925	147.06
651.13	161.06
651.334	155.06
651.539	158.06
651.743	158.06
651.947	161.06
652.152	165.06
652.356	166.06
652.56	157.06
652.764	146.06
652.969	145.06
653.173	170.06
653.377	154.06
653.581	151.06
653.785	162.06
653.99	159.06
654.194	162.06
654.398	144.06
654.602	153.06
654.806	145.06
655.01	152.06
655.214	156.06
655.418	157.06
655.622	169.06
655.826	159.06
656.03	156.06
656.234	152.06
656.438	143.06
656.642	162.06
656.846	153.06
657.049	161.06
657.253	151.06
657.457	138.06
657.661	135.06
657.865	137.06
658.068	131.06
658.272	134.06
658.476	126.06
658.68	116.06
658.883	116.06
659.087	104.06
659.291	114.06
659.494	111.06
659.698	119.06
659.901	119.06
660.105	110.06
660.309	106.06
660.512	99.06
660.716	98.06
660.919	102.06
661.123	96.06
661.326	90.06
661.53	104.06
661.733	104.06
661.936	95.06
662.14	88.06
662.343	82.06
662.546	90.06
662.75	88.06
662.953	94.06
663.156	87.06
663.36	85.06
663.563	56.06
663.766	95.06
663.969	98.06
664.173	82.06
664.376	74.06
664.579	87.06
664.782	82.06
664.985	84.06
665.188	73.06
665.391	85.06
665.594	65.06
665.797	82.06
666	82.06
666.203	87.06
666.406	79.06
666.609	86.06
666.812	86.06
667.015	94.06
667.218	57.06
667.421	79.06
667.624	69.06
667.827	75.06
668.03	82.06
668.232	70.06
668.435	86.06
668.638	66.06
668.841	82.06
669.043	97.06
669.246	79.06
669.449	75.06
669.651	66.06
669.854	67.06
670.057	73.06
670.259	79.06
670.462	82.06
670.665	83.06
670.867	87.06
671.07	85.06
671.272	76.06
671.475	69.06
671.677	86.06
671.88	75.06
672.082	65.06
672.284	77.06
672.487	76.06
672.689	78.06
672.892	75.06
