Data from Fe(NO3)3@0.05M.TitratingCurve.Agarose3%dH2O.NegLispCup.LampEnergy10.LIBS07252019_HRD10591_16-46-32-334.txt Node
Date: Thu Jul 25 16:46:32 EDT 2019
User: cochatt
Spectrometer: HR+D1059
Trigger mode: 1
Integration Time (sec): 1.000000E-1
Scans to average: 1
Electric dark correction enabled: true
Nonlinearity correction enabled: false
Boxcar width: 0
XAxis mode: Wavelengths
Number of Pixels in Spectrum: 2048
>>>>>Begin Spectral Data<<<<<
223.165	-2.44
223.4	-2.44
223.635	-2.44
223.869	-24.44
224.104	-21.44
224.338	-14.44
224.573	-4.44
224.808	-13.44
225.042	0.56
225.277	-20.44
225.511	-1.44
225.746	10.56
225.98	-3.44
226.215	16.56
226.449	2.56
226.683	20.56
226.918	28.56
227.152	26.56
227.387	28.56
227.621	41.56
227.856	43.56
228.09	47.56
228.324	60.56
228.559	48.56
228.793	68.56
229.027	87.56
229.262	106.56
229.496	102.56
229.73	100.56
229.964	113.56
230.199	113.56
230.433	112.56
230.667	123.56
230.901	109.56
231.136	121.56
231.37	123.56
231.604	118.56
231.838	133.56
232.072	124.56
232.306	129.56
232.541	131.56
232.775	146.56
233.009	131.56
233.243	139.56
233.477	144.56
233.711	141.56
233.945	140.56
234.179	127.56
234.413	137.56
234.647	131.56
234.881	157.56
235.115	140.56
235.349	138.56
235.583	139.56
235.817	154.56
236.051	153.56
236.285	172.56
236.519	160.56
236.753	145.56
236.987	153.56
237.221	145.56
237.455	167.56
237.689	163.56
237.922	146.56
238.156	144.56
238.39	171.56
238.624	149.56
238.858	159.56
239.091	154.56
239.325	155.56
239.559	169.56
239.793	169.56
240.027	172.56
240.26	175.56
240.494	191.56
240.728	173.56
240.961	181.56
241.195	185.56
241.429	177.56
241.662	183.56
241.896	175.56
242.13	181.56
242.363	177.56
242.597	163.56
242.83	172.56
243.064	170.56
243.298	175.56
243.531	177.56
243.765	198.56
243.998	196.56
244.232	181.56
244.465	195.56
244.699	188.56
244.932	188.56
245.166	210.56
245.399	192.56
245.633	179.56
245.866	196.56
246.099	196.56
246.333	207.56
246.566	181.56
246.8	197.56
247.033	208.56
247.266	203.56
247.5	211.56
247.733	215.56
247.966	202.56
248.2	206.56
248.433	199.56
248.666	215.56
248.899	217.56
249.133	226.56
249.366	219.56
249.599	242.56
249.832	235.56
250.066	222.56
250.299	241.56
250.532	231.56
250.765	213.56
250.998	223.56
251.231	222.56
251.465	227.56
251.698	247.56
251.931	224.56
252.164	248.56
252.397	252.56
252.63	242.56
252.863	256.56
253.096	251.56
253.329	249.56
253.562	240.56
253.795	253.56
254.028	264.56
254.261	263.56
254.494	261.56
254.727	283.56
254.96	259.56
255.193	273.56
255.426	252.56
255.659	252.56
255.892	255.56
256.124	257.56
256.357	244.56
256.59	263.56
256.823	277.56
257.056	256.56
257.289	278.56
257.521	267.56
257.754	265.56
257.987	289.56
258.22	276.56
258.452	277.56
258.685	275.56
258.918	269.56
259.151	277.56
259.383	284.56
259.616	273.56
259.849	308.56
260.081	324.56
260.314	328.56
260.547	286.56
260.779	293.56
261.012	292.56
261.244	301.56
261.477	304.56
261.71	317.56
261.942	297.56
262.175	282.56
262.407	298.56
262.64	295.56
262.872	299.56
263.105	324.56
263.337	329.56
263.57	322.56
263.802	328.56
264.035	286.56
264.267	299.56
264.499	287.56
264.732	298.56
264.964	315.56
265.197	303.56
265.429	284.56
265.661	305.56
265.894	292.56
266.126	296.56
266.358	304.56
266.591	305.56
266.823	310.56
267.055	318.56
267.287	304.56
267.52	309.56
267.752	311.56
267.984	306.56
268.216	317.56
268.448	332.56
268.681	312.56
268.913	310.56
269.145	329.56
269.377	324.56
269.609	328.56
269.841	338.56
270.073	330.56
270.306	337.56
270.538	333.56
270.77	340.56
271.002	322.56
271.234	343.56
271.466	335.56
271.698	324.56
271.93	344.56
272.162	345.56
272.394	342.56
272.626	355.56
272.858	346.56
273.09	360.56
273.322	352.56
273.553	355.56
273.785	347.56
274.017	368.56
274.249	395.56
274.481	388.56
274.713	392.56
274.945	427.56
275.176	427.56
275.408	396.56
275.64	397.56
275.872	407.56
276.104	367.56
276.335	360.56
276.567	358.56
276.799	380.56
277.031	397.56
277.262	397.56
277.494	377.56
277.726	360.56
277.957	354.56
278.189	349.56
278.421	364.56
278.652	372.56
278.884	379.56
279.115	386.56
279.347	396.56
279.579	379.56
279.81	381.56
280.042	389.56
280.273	370.56
280.505	384.56
280.736	378.56
280.968	375.56
281.199	379.56
281.431	404.56
281.662	399.56
281.894	403.56
282.125	402.56
282.356	403.56
282.588	384.56
282.819	417.56
283.051	407.56
283.282	401.56
283.513	416.56
283.745	401.56
283.976	394.56
284.207	423.56
284.439	414.56
284.67	403.56
284.901	411.56
285.132	428.56
285.364	435.56
285.595	423.56
285.826	408.56
286.057	427.56
286.288	429.56
286.52	420.56
286.751	420.56
286.982	408.56
287.213	433.56
287.444	418.56
287.675	430.56
287.906	434.56
288.138	435.56
288.369	431.56
288.6	435.56
288.831	422.56
289.062	428.56
289.293	424.56
289.524	435.56
289.755	435.56
289.986	422.56
290.217	447.56
290.448	431.56
290.679	428.56
290.91	426.56
291.141	440.56
291.371	458.56
291.602	437.56
291.833	444.56
292.064	444.56
292.295	441.56
292.526	453.56
292.757	431.56
292.987	447.56
293.218	431.56
293.449	443.56
293.68	442.56
293.91	427.56
294.141	458.56
294.372	437.56
294.603	443.56
294.833	457.56
295.064	450.56
295.295	450.56
295.525	447.56
295.756	458.56
295.987	457.56
296.217	453.56
296.448	471.56
296.679	452.56
296.909	476.56
297.14	474.56
297.37	477.56
297.601	480.56
297.831	474.56
298.062	486.56
298.292	485.56
298.523	495.56
298.753	489.56
298.984	476.56
299.214	461.56
299.445	491.56
299.675	486.56
299.905	463.56
300.136	476.56
300.366	484.56
300.597	497.56
300.827	496.56
301.057	482.56
301.288	488.56
301.518	490.56
301.748	513.56
301.979	514.56
302.209	504.56
302.439	511.56
302.669	510.56
302.9	516.56
303.13	485.56
303.36	516.56
303.59	490.56
303.82	493.56
304.051	513.56
304.281	506.56
304.511	510.56
304.741	519.56
304.971	507.56
305.201	530.56
305.431	509.56
305.661	528.56
305.891	506.56
306.121	503.56
306.352	516.56
306.582	479.56
306.812	489.56
307.042	528.56
307.272	494.56
307.502	512.56
307.731	497.56
307.961	497.56
308.191	521.56
308.421	515.56
308.651	500.56
308.881	512.56
309.111	520.56
309.341	495.56
309.571	510.56
309.8	504.56
310.03	498.56
310.26	518.56
310.49	515.56
310.72	523.56
310.949	527.56
311.179	515.56
311.409	523.56
311.639	538.56
311.868	530.56
312.098	520.56
312.328	515.56
312.557	525.56
312.787	509.56
313.017	505.56
313.246	540.56
313.476	508.56
313.706	553.56
313.935	547.56
314.165	535.56
314.394	539.56
314.624	538.56
314.853	545.56
315.083	536.56
315.312	547.56
315.542	531.56
315.771	511.56
316.001	525.56
316.23	520.56
316.46	552.56
316.689	557.56
316.919	544.56
317.148	552.56
317.377	540.56
317.607	544.56
317.836	580.56
318.065	553.56
318.295	545.56
318.524	537.56
318.753	519.56
318.983	534.56
319.212	529.56
319.441	568.56
319.67	540.56
319.9	539.56
320.129	561.56
320.358	575.56
320.587	560.56
320.816	542.56
321.046	556.56
321.275	551.56
321.504	563.56
321.733	567.56
321.962	557.56
322.191	579.56
322.42	569.56
322.649	565.56
322.878	578.56
323.108	562.56
323.337	563.56
323.566	580.56
323.795	602.56
324.024	565.56
324.253	555.56
324.482	580.56
324.71	570.56
324.939	596.56
325.168	598.56
325.397	581.56
325.626	601.56
325.855	591.56
326.084	581.56
326.313	598.56
326.542	599.56
326.77	611.56
326.999	624.56
327.228	597.56
327.457	601.56
327.686	580.56
327.914	578.56
328.143	590.56
328.372	595.56
328.6	602.56
328.829	603.56
329.058	586.56
329.287	619.56
329.515	607.56
329.744	590.56
329.972	594.56
330.201	608.56
330.43	599.56
330.658	623.56
330.887	617.56
331.115	602.56
331.344	597.56
331.572	632.56
331.801	629.56
332.03	620.56
332.258	675.56
332.486	651.56
332.715	670.56
332.943	671.56
333.172	675.56
333.4	665.56
333.629	679.56
333.857	706.56
334.085	710.56
334.314	694.56
334.542	669.56
334.771	691.56
334.999	703.56
335.227	699.56
335.455	691.56
335.684	691.56
335.912	699.56
336.14	715.56
336.369	699.56
336.597	711.56
336.825	706.56
337.053	702.56
337.281	668.56
337.51	692.56
337.738	667.56
337.966	645.56
338.194	664.56
338.422	681.56
338.65	656.56
338.878	659.56
339.106	639.56
339.334	660.56
339.562	639.56
339.79	628.56
340.018	641.56
340.246	645.56
340.474	634.56
340.702	639.56
340.93	651.56
341.158	647.56
341.386	628.56
341.614	641.56
341.842	620.56
342.07	623.56
342.298	653.56
342.526	632.56
342.754	640.56
342.981	636.56
343.209	636.56
343.437	657.56
343.665	665.56
343.893	700.56
344.12	728.56
344.348	709.56
344.576	717.56
344.804	663.56
345.031	666.56
345.259	656.56
345.487	638.56
345.714	636.56
345.942	629.56
346.17	624.56
346.397	620.56
346.625	605.56
346.853	610.56
347.08	606.56
347.308	635.56
347.535	618.56
347.763	629.56
347.99	603.56
348.218	614.56
348.445	634.56
348.673	591.56
348.9	607.56
349.128	610.56
349.355	596.56
349.583	595.56
349.81	604.56
350.037	612.56
350.265	632.56
350.492	591.56
350.72	609.56
350.947	625.56
351.174	585.56
351.402	617.56
351.629	609.56
351.856	604.56
352.083	567.56
352.311	593.56
352.538	600.56
352.765	595.56
352.992	591.56
353.22	589.56
353.447	601.56
353.674	600.56
353.901	605.56
354.128	590.56
354.355	584.56
354.583	611.56
354.81	597.56
355.037	632.56
355.264	616.56
355.491	589.56
355.718	628.56
355.945	597.56
356.172	627.56
356.399	605.56
356.626	627.56
356.853	611.56
357.08	625.56
357.307	611.56
357.534	615.56
357.761	601.56
357.988	606.56
358.215	627.56
358.441	614.56
358.668	605.56
358.895	619.56
359.122	607.56
359.349	634.56
359.576	601.56
359.802	591.56
360.029	600.56
360.256	595.56
360.483	610.56
360.709	611.56
360.936	635.56
361.163	635.56
361.39	627.56
361.616	595.56
361.843	625.56
362.07	630.56
362.296	609.56
362.523	639.56
362.749	612.56
362.976	626.56
363.203	626.56
363.429	643.56
363.656	627.56
363.882	609.56
364.109	623.56
364.335	614.56
364.562	633.56
364.788	622.56
365.015	649.56
365.241	623.56
365.468	615.56
365.694	629.56
365.92	616.56
366.147	608.56
366.373	641.56
366.599	644.56
366.826	629.56
367.052	618.56
367.278	627.56
367.505	633.56
367.731	634.56
367.957	633.56
368.184	645.56
368.41	643.56
368.636	619.56
368.862	643.56
369.089	635.56
369.315	676.56
369.541	643.56
369.767	662.56
369.993	630.56
370.219	642.56
370.445	657.56
370.672	661.56
370.898	645.56
371.124	675.56
371.35	669.56
371.576	649.56
371.802	677.56
372.028	691.56
372.254	702.56
372.48	678.56
372.706	698.56
372.932	691.56
373.158	701.56
373.384	689.56
373.61	730.56
373.835	704.56
374.061	692.56
374.287	724.56
374.513	707.56
374.739	717.56
374.965	720.56
375.191	725.56
375.416	727.56
375.642	717.56
375.868	726.56
376.094	674.56
376.319	683.56
376.545	700.56
376.771	685.56
376.997	689.56
377.222	703.56
377.448	671.56
377.674	683.56
377.899	683.56
378.125	676.56
378.35	668.56
378.576	659.56
378.802	701.56
379.027	681.56
379.253	672.56
379.478	658.56
379.704	663.56
379.929	696.56
380.155	695.56
380.38	680.56
380.606	679.56
380.831	677.56
381.057	721.56
381.282	697.56
381.507	684.56
381.733	718.56
381.958	696.56
382.184	736.56
382.409	733.56
382.634	735.56
382.86	729.56
383.085	729.56
383.31	748.56
383.535	738.56
383.761	749.56
383.986	736.56
384.211	759.56
384.436	779.56
384.662	773.56
384.887	752.56
385.112	758.56
385.337	787.56
385.562	792.56
385.787	769.56
386.013	782.56
386.238	807.56
386.463	795.56
386.688	779.56
386.913	809.56
387.138	778.56
387.363	812.56
387.588	812.56
387.813	812.56
388.038	810.56
388.263	784.56
388.488	787.56
388.713	823.56
388.938	847.56
389.163	797.56
389.387	804.56
389.612	788.56
389.837	802.56
390.062	816.56
390.287	830.56
390.512	796.56
390.736	796.56
390.961	819.56
391.186	820.56
391.411	833.56
391.636	832.56
391.86	835.56
392.085	871.56
392.31	872.56
392.534	868.56
392.759	863.56
392.984	860.56
393.208	857.56
393.433	859.56
393.658	853.56
393.882	847.56
394.107	848.56
394.331	856.56
394.556	832.56
394.78	854.56
395.005	840.56
395.229	838.56
395.454	845.56
395.678	872.56
395.903	877.56
396.127	852.56
396.352	866.56
396.576	845.56
396.801	881.56
397.025	879.56
397.249	893.56
397.474	876.56
397.698	891.56
397.922	874.56
398.147	918.56
398.371	941.56
398.595	940.56
398.82	972.56
399.044	991.56
399.268	1055.56
399.492	1117.56
399.717	1197.56
399.941	1180.56
400.165	1145.56
400.389	1095.56
400.613	1046.56
400.837	1004.56
401.062	1007.56
401.286	978.56
401.51	1001.56
401.734	975.56
401.958	953.56
402.182	993.56
402.406	956.56
402.63	1011.56
402.854	997.56
403.078	1001.56
403.302	987.56
403.526	1009.56
403.75	1020.56
403.974	1029.56
404.198	1026.56
404.422	1020.56
404.645	1027.56
404.869	1008.56
405.093	1026.56
405.317	1025.56
405.541	1018.56
405.765	1010.56
405.988	1030.56
406.212	1056.56
406.436	1026.56
406.66	1091.56
406.883	1080.56
407.107	1123.56
407.331	1132.56
407.555	1151.56
407.778	1166.56
408.002	1132.56
408.226	1136.56
408.449	1124.56
408.673	1098.56
408.896	1108.56
409.12	1071.56
409.344	1075.56
409.567	1068.56
409.791	1067.56
410.014	1071.56
410.238	1025.56
410.461	1067.56
410.685	1077.56
410.908	1031.56
411.132	1036.56
411.355	997.56
411.578	998.56
411.802	1019.56
412.025	1032.56
412.249	1027.56
412.472	1047.56
412.695	1005.56
412.919	1019.56
413.142	1055.56
413.365	995.56
413.589	1037.56
413.812	1001.56
414.035	978.56
414.258	975.56
414.482	1004.56
414.705	995.56
414.928	994.56
415.151	992.56
415.374	962.56
415.597	976.56
415.821	965.56
416.044	949.56
416.267	973.56
416.49	966.56
416.713	938.56
416.936	967.56
417.159	936.56
417.382	946.56
417.605	945.56
417.828	960.56
418.051	968.56
418.274	964.56
418.497	960.56
418.72	959.56
418.943	969.56
419.166	1019.56
419.389	1089.56
419.611	1023.56
419.834	1008.56
420.057	1027.56
420.28	979.56
420.503	930.56
420.726	940.56
420.948	941.56
421.171	970.56
421.394	941.56
421.617	949.56
421.839	962.56
422.062	934.56
422.285	934.56
422.507	961.56
422.73	959.56
422.953	943.56
423.175	953.56
423.398	938.56
423.621	951.56
423.843	982.56
424.066	971.56
424.288	940.56
424.511	935.56
424.733	967.56
424.956	959.56
425.178	927.56
425.401	937.56
425.623	969.56
425.846	933.56
426.068	923.56
426.291	919.56
426.513	919.56
426.735	925.56
426.958	941.56
427.18	911.56
427.402	927.56
427.625	899.56
427.847	898.56
428.069	904.56
428.292	935.56
428.514	915.56
428.736	895.56
428.958	901.56
429.181	892.56
429.403	910.56
429.625	884.56
429.847	884.56
430.069	898.56
430.292	896.56
430.514	886.56
430.736	888.56
430.958	902.56
431.18	924.56
431.402	879.56
431.624	895.56
431.846	918.56
432.068	898.56
432.29	918.56
432.512	863.56
432.734	906.56
432.956	908.56
433.178	912.56
433.4	887.56
433.622	905.56
433.844	918.56
434.066	911.56
434.287	905.56
434.509	918.56
434.731	951.56
434.953	935.56
435.175	941.56
435.397	964.56
435.618	946.56
435.84	922.56
436.062	907.56
436.284	898.56
436.505	900.56
436.727	888.56
436.949	922.56
437.17	900.56
437.392	894.56
437.614	870.56
437.835	845.56
438.057	879.56
438.278	883.56
438.5	883.56
438.721	901.56
438.943	881.56
439.165	885.56
439.386	893.56
439.608	868.56
439.829	902.56
440.05	891.56
440.272	906.56
440.493	883.56
440.715	903.56
440.936	896.56
441.158	914.56
441.379	917.56
441.6	971.56
441.822	927.56
442.043	947.56
442.264	932.56
442.486	947.56
442.707	972.56
442.928	945.56
443.149	940.56
443.371	916.56
443.592	952.56
443.813	979.56
444.034	953.56
444.255	989.56
444.476	1012.56
444.698	1026.56
444.919	1031.56
445.14	1129.56
445.361	1069.56
445.582	971.56
445.803	968.56
446.024	939.56
446.245	927.56
446.466	933.56
446.687	913.56
446.908	917.56
447.129	876.56
447.35	901.56
447.571	856.56
447.792	845.56
448.013	874.56
448.234	859.56
448.455	829.56
448.675	847.56
448.896	843.56
449.117	835.56
449.338	835.56
449.559	832.56
449.779	819.56
450	833.56
450.221	855.56
450.442	855.56
450.662	834.56
450.883	824.56
451.104	841.56
451.324	811.56
451.545	817.56
451.766	801.56
451.986	831.56
452.207	831.56
452.428	825.56
452.648	832.56
452.869	788.56
453.089	801.56
453.31	804.56
453.53	783.56
453.751	809.56
453.971	779.56
454.192	801.56
454.412	793.56
454.633	796.56
454.853	808.56
455.073	770.56
455.294	763.56
455.514	790.56
455.734	804.56
455.955	805.56
456.175	806.56
456.395	775.56
456.616	788.56
456.836	808.56
457.056	823.56
457.276	778.56
457.497	791.56
457.717	819.56
457.937	808.56
458.157	821.56
458.377	800.56
458.598	826.56
458.818	845.56
459.038	825.56
459.258	844.56
459.478	885.56
459.698	888.56
459.918	909.56
460.138	929.56
460.358	942.56
460.578	967.56
460.798	952.56
461.018	1004.56
461.238	986.56
461.458	986.56
461.678	972.56
461.898	986.56
462.118	1007.56
462.338	1061.56
462.558	1064.56
462.777	1104.56
462.997	1132.56
463.217	1138.56
463.437	1129.56
463.657	1108.56
463.876	1085.56
464.096	1085.56
464.316	1092.56
464.536	1091.56
464.755	1059.56
464.975	1027.56
465.195	1050.56
465.414	971.56
465.634	940.56
465.854	927.56
466.073	921.56
466.293	905.56
466.512	909.56
466.732	901.56
466.951	889.56
467.171	884.56
467.391	895.56
467.61	867.56
467.829	833.56
468.049	849.56
468.268	841.56
468.488	858.56
468.707	849.56
468.927	828.56
469.146	873.56
469.365	872.56
469.585	875.56
469.804	856.56
470.023	889.56
470.243	898.56
470.462	889.56
470.681	877.56
470.901	895.56
471.12	881.56
471.339	879.56
471.558	862.56
471.777	867.56
471.997	851.56
472.216	874.56
472.435	865.56
472.654	858.56
472.873	859.56
473.092	862.56
473.311	861.56
473.53	843.56
473.749	864.56
473.968	845.56
474.187	861.56
474.406	840.56
474.625	842.56
474.844	851.56
475.063	864.56
475.282	864.56
475.501	863.56
475.72	878.56
475.939	873.56
476.158	868.56
476.377	913.56
476.596	941.56
476.814	917.56
477.033	913.56
477.252	895.56
477.471	934.56
477.69	924.56
477.908	951.56
478.127	979.56
478.346	995.56
478.564	1004.56
478.783	984.56
479.002	976.56
479.22	1017.56
479.439	1075.56
479.658	1023.56
479.876	1035.56
480.095	1036.56
480.313	1058.56
480.532	1041.56
480.751	1036.56
480.969	1021.56
481.188	1034.56
481.406	1015.56
481.624	978.56
481.843	993.56
482.061	1004.56
482.28	976.56
482.498	1008.56
482.717	980.56
482.935	995.56
483.153	1001.56
483.372	1000.56
483.59	1002.56
483.808	1004.56
484.027	965.56
484.245	989.56
484.463	1003.56
484.681	1010.56
484.9	1038.56
485.118	1010.56
485.336	1006.56
485.554	1017.56
485.772	1023.56
485.99	1008.56
486.209	996.56
486.427	1025.56
486.645	1015.56
486.863	1031.56
487.081	996.56
487.299	1031.56
487.517	1039.56
487.735	1025.56
487.953	1009.56
488.171	1046.56
488.389	1037.56
488.607	1035.56
488.825	1007.56
489.043	988.56
489.261	1009.56
489.479	1023.56
489.696	1037.56
489.914	1025.56
490.132	1036.56
490.35	1041.56
490.568	1030.56
490.786	1017.56
491.003	1052.56
491.221	1037.56
491.439	1035.56
491.657	1055.56
491.874	1037.56
492.092	1049.56
492.31	1050.56
492.527	1059.56
492.745	1040.56
492.963	1062.56
493.18	1033.56
493.398	1038.56
493.615	1033.56
493.833	1056.56
494.05	1066.56
494.268	1077.56
494.485	1056.56
494.703	1071.56
494.92	1072.56
495.138	1077.56
495.355	1090.56
495.573	1095.56
495.79	1123.56
496.008	1125.56
496.225	1114.56
496.442	1143.56
496.66	1147.56
496.877	1128.56
497.094	1177.56
497.312	1187.56
497.529	1186.56
497.746	1200.56
497.963	1240.56
498.181	1283.56
498.398	1344.56
498.615	1365.56
498.832	1416.56
499.049	1481.56
499.267	1571.56
499.484	1615.56
499.701	1703.56
499.918	1808.56
500.135	1951.56
500.352	2081.56
500.569	2110.56
500.786	2098.56
501.003	2051.56
501.22	1945.56
501.437	1830.56
501.654	1703.56
501.871	1610.56
502.088	1532.56
502.305	1446.56
502.522	1405.56
502.739	1384.56
502.956	1301.56
503.172	1253.56
503.389	1269.56
503.606	1210.56
503.823	1194.56
504.04	1153.56
504.256	1187.56
504.473	1161.56
504.69	1155.56
504.907	1144.56
505.123	1100.56
505.34	1075.56
505.557	1026.56
505.773	1035.56
505.99	1029.56
506.207	1006.56
506.423	999.56
506.64	966.56
506.856	949.56
507.073	960.56
507.289	962.56
507.506	954.56
507.722	960.56
507.939	963.56
508.155	946.56
508.372	931.56
508.588	893.56
508.805	907.56
509.021	933.56
509.238	895.56
509.454	882.56
509.67	892.56
509.887	856.56
510.103	883.56
510.319	863.56
510.536	887.56
510.752	837.56
510.968	870.56
511.184	865.56
511.401	854.56
511.617	850.56
511.833	850.56
512.049	853.56
512.265	857.56
512.481	864.56
512.698	869.56
512.914	856.56
513.13	843.56
513.346	865.56
513.562	876.56
513.778	861.56
513.994	849.56
514.21	884.56
514.426	882.56
514.642	860.56
514.858	866.56
515.074	885.56
515.29	899.56
515.506	859.56
515.721	882.56
515.937	893.56
516.153	897.56
516.369	899.56
516.585	935.56
516.801	950.56
517.016	941.56
517.232	962.56
517.448	993.56
517.664	1013.56
517.879	1029.56
518.095	1009.56
518.311	996.56
518.527	970.56
518.742	964.56
518.958	937.56
519.173	901.56
519.389	901.56
519.605	887.56
519.82	908.56
520.036	918.56
520.251	877.56
520.467	866.56
520.682	831.56
520.898	832.56
521.113	854.56
521.329	831.56
521.544	842.56
521.76	827.56
521.975	826.56
522.19	786.56
522.406	810.56
522.621	825.56
522.836	806.56
523.052	802.56
523.267	799.56
523.482	760.56
523.698	781.56
523.913	789.56
524.128	783.56
524.343	774.56
524.559	786.56
524.774	780.56
524.989	775.56
525.204	775.56
525.419	770.56
525.634	778.56
525.849	766.56
526.064	773.56
526.28	751.56
526.495	769.56
526.71	754.56
526.925	755.56
527.14	767.56
527.355	740.56
527.57	729.56
527.785	762.56
527.999	742.56
528.214	748.56
528.429	747.56
528.644	735.56
528.859	745.56
529.074	764.56
529.289	767.56
529.503	788.56
529.718	757.56
529.933	762.56
530.148	777.56
530.363	747.56
530.577	751.56
530.792	740.56
531.007	739.56
531.221	766.56
531.436	732.56
531.651	736.56
531.865	728.56
532.08	736.56
532.295	751.56
532.509	735.56
532.724	711.56
532.938	733.56
533.153	739.56
533.367	733.56
533.582	725.56
533.796	745.56
534.011	732.56
534.225	733.56
534.44	721.56
534.654	714.56
534.868	737.56
535.083	709.56
535.297	705.56
535.511	729.56
535.726	717.56
535.94	726.56
536.154	692.56
536.369	719.56
536.583	705.56
536.797	712.56
537.011	707.56
537.225	697.56
537.44	703.56
537.654	703.56
537.868	673.56
538.082	684.56
538.296	679.56
538.51	690.56
538.724	691.56
538.938	689.56
539.153	677.56
539.367	683.56
539.581	689.56
539.795	689.56
540.009	646.56
540.222	673.56
540.436	663.56
540.65	666.56
540.864	671.56
541.078	679.56
541.292	670.56
541.506	652.56
541.72	681.56
541.934	667.56
542.147	676.56
542.361	675.56
542.575	693.56
542.789	675.56
543.002	644.56
543.216	667.56
543.43	651.56
543.644	653.56
543.857	663.56
544.071	663.56
544.285	670.56
544.498	666.56
544.712	667.56
544.925	680.56
545.139	663.56
545.352	653.56
545.566	678.56
545.779	695.56
545.993	665.56
546.206	696.56
546.42	692.56
546.633	689.56
546.847	694.56
547.06	693.56
547.274	678.56
547.487	681.56
547.7	671.56
547.914	684.56
548.127	721.56
548.34	659.56
548.554	663.56
548.767	679.56
548.98	694.56
549.193	687.56
549.407	684.56
549.62	712.56
549.833	672.56
550.046	697.56
550.259	681.56
550.473	674.56
550.686	662.56
550.899	679.56
551.112	675.56
551.325	649.56
551.538	655.56
551.751	660.56
551.964	677.56
552.177	651.56
552.39	682.56
552.603	686.56
552.816	681.56
553.029	691.56
553.242	683.56
553.455	693.56
553.667	711.56
553.88	661.56
554.093	649.56
554.306	690.56
554.519	661.56
554.732	666.56
554.944	639.56
555.157	627.56
555.37	620.56
555.583	643.56
555.795	625.56
556.008	628.56
556.221	617.56
556.433	625.56
556.646	620.56
556.859	610.56
557.071	593.56
557.284	607.56
557.496	604.56
557.709	591.56
557.921	584.56
558.134	578.56
558.346	567.56
558.559	575.56
558.771	574.56
558.984	588.56
559.196	577.56
559.409	581.56
559.621	574.56
559.833	587.56
560.046	586.56
560.258	561.56
560.47	569.56
560.683	575.56
560.895	565.56
561.107	559.56
561.32	558.56
561.532	573.56
561.744	571.56
561.956	584.56
562.168	579.56
562.381	575.56
562.593	581.56
562.805	575.56
563.017	574.56
563.229	555.56
563.441	597.56
563.653	587.56
563.865	590.56
564.077	587.56
564.289	586.56
564.501	592.56
564.713	595.56
564.925	612.56
565.137	601.56
565.349	623.56
565.561	639.56
565.773	657.56
565.985	640.56
566.197	660.56
566.408	700.56
566.62	730.56
566.832	756.56
567.044	721.56
567.255	729.56
567.467	778.56
567.679	788.56
567.891	783.56
568.102	792.56
568.314	784.56
568.526	726.56
568.737	697.56
568.949	648.56
569.161	623.56
569.372	608.56
569.584	599.56
569.795	577.56
570.007	559.56
570.218	578.56
570.43	576.56
570.641	549.56
570.853	551.56
571.064	550.56
571.276	550.56
571.487	558.56
571.698	540.56
571.91	521.56
572.121	523.56
572.333	513.56
572.544	486.56
572.755	472.56
572.966	473.56
573.178	500.56
573.389	491.56
573.6	488.56
573.811	451.56
574.023	487.56
574.234	453.56
574.445	452.56
574.656	457.56
574.867	466.56
575.078	481.56
575.289	472.56
575.501	460.56
575.712	454.56
575.923	441.56
576.134	452.56
576.345	420.56
576.556	436.56
576.767	442.56
576.978	437.56
577.188	448.56
577.399	423.56
577.61	428.56
577.821	411.56
578.032	415.56
578.243	422.56
578.454	458.56
578.665	412.56
578.875	421.56
579.086	427.56
579.297	405.56
579.508	389.56
579.718	389.56
579.929	403.56
580.14	420.56
580.35	405.56
580.561	421.56
580.772	419.56
580.982	406.56
581.193	392.56
581.403	390.56
581.614	397.56
581.825	422.56
582.035	391.56
582.246	410.56
582.456	392.56
582.667	397.56
582.877	392.56
583.087	398.56
583.298	372.56
583.508	398.56
583.719	391.56
583.929	382.56
584.139	400.56
584.35	393.56
584.56	389.56
584.77	385.56
584.981	401.56
585.191	377.56
585.401	372.56
585.611	374.56
585.821	385.56
586.032	362.56
586.242	379.56
586.452	381.56
586.662	388.56
586.872	360.56
587.082	375.56
587.292	403.56
587.502	375.56
587.713	367.56
587.923	372.56
588.133	359.56
588.343	380.56
588.553	375.56
588.762	378.56
588.972	383.56
589.182	399.56
589.392	390.56
589.602	377.56
589.812	373.56
590.022	373.56
590.232	392.56
590.441	395.56
590.651	400.56
590.861	387.56
591.071	385.56
591.281	371.56
591.49	406.56
591.7	371.56
591.91	359.56
592.119	388.56
592.329	387.56
592.539	412.56
592.748	420.56
592.958	410.56
593.167	410.56
593.377	412.56
593.587	416.56
593.796	427.56
594.006	407.56
594.215	424.56
594.424	403.56
594.634	398.56
594.843	407.56
595.053	394.56
595.262	391.56
595.472	368.56
595.681	371.56
595.89	372.56
596.1	372.56
596.309	371.56
596.518	387.56
596.727	357.56
596.937	359.56
597.146	348.56
597.355	350.56
597.564	338.56
597.774	340.56
597.983	341.56
598.192	324.56
598.401	324.56
598.61	336.56
598.819	333.56
599.028	314.56
599.237	315.56
599.446	324.56
599.655	331.56
599.864	316.56
600.073	305.56
600.282	325.56
600.491	330.56
600.7	307.56
600.909	317.56
601.118	297.56
601.327	335.56
601.536	312.56
601.745	313.56
601.953	332.56
602.162	311.56
602.371	316.56
602.58	307.56
602.789	307.56
602.997	313.56
603.206	298.56
603.415	309.56
603.623	305.56
603.832	273.56
604.041	300.56
604.249	303.56
604.458	321.56
604.666	278.56
604.875	313.56
605.084	288.56
605.292	281.56
605.501	314.56
605.709	303.56
605.918	297.56
606.126	286.56
606.334	282.56
606.543	279.56
606.751	314.56
606.96	284.56
607.168	287.56
607.376	280.56
607.585	289.56
607.793	289.56
608.001	310.56
608.21	283.56
608.418	281.56
608.626	286.56
608.834	292.56
609.043	311.56
609.251	285.56
609.459	289.56
609.667	282.56
609.875	287.56
610.083	298.56
610.291	282.56
610.499	295.56
610.707	285.56
610.916	275.56
611.124	265.56
611.332	283.56
611.54	288.56
611.748	274.56
611.955	279.56
612.163	280.56
612.371	277.56
612.579	281.56
612.787	269.56
612.995	279.56
613.203	288.56
613.411	278.56
613.618	275.56
613.826	285.56
614.034	280.56
614.242	261.56
614.449	284.56
614.657	274.56
614.865	278.56
615.072	269.56
615.28	275.56
615.488	289.56
615.695	274.56
615.903	278.56
616.111	272.56
616.318	283.56
616.526	273.56
616.733	275.56
616.941	256.56
617.148	270.56
617.356	270.56
617.563	285.56
617.771	270.56
617.978	268.56
618.185	278.56
618.393	274.56
618.6	243.56
618.807	256.56
619.015	255.56
619.222	248.56
619.429	257.56
619.637	273.56
619.844	259.56
620.051	243.56
620.258	252.56
620.466	248.56
620.673	258.56
620.88	242.56
621.087	246.56
621.294	263.56
621.501	244.56
621.708	255.56
621.915	249.56
622.122	259.56
622.329	253.56
622.536	249.56
622.743	266.56
622.95	257.56
623.157	239.56
623.364	256.56
623.571	259.56
623.778	242.56
623.985	246.56
624.192	258.56
624.399	244.56
624.606	239.56
624.812	243.56
625.019	250.56
625.226	262.56
625.433	246.56
625.639	251.56
625.846	239.56
626.053	231.56
626.259	263.56
626.466	234.56
626.673	246.56
626.879	235.56
627.086	237.56
627.293	239.56
627.499	225.56
627.706	250.56
627.912	230.56
628.119	223.56
628.325	226.56
628.532	231.56
628.738	225.56
628.945	239.56
629.151	220.56
629.357	219.56
629.564	212.56
629.77	223.56
629.976	216.56
630.183	202.56
630.389	221.56
630.595	217.56
630.802	253.56
631.008	226.56
631.214	226.56
631.42	233.56
631.627	219.56
631.833	224.56
632.039	228.56
632.245	217.56
632.451	216.56
632.657	227.56
632.863	219.56
633.069	207.56
633.275	224.56
633.481	210.56
633.688	221.56
633.893	192.56
634.099	221.56
634.305	211.56
634.511	208.56
634.717	203.56
634.923	208.56
635.129	195.56
635.335	200.56
635.541	211.56
635.747	216.56
635.952	215.56
636.158	220.56
636.364	217.56
636.57	205.56
636.775	194.56
636.981	203.56
637.187	218.56
637.392	209.56
637.598	202.56
637.804	210.56
638.009	203.56
638.215	207.56
638.421	205.56
638.626	204.56
638.832	235.56
639.037	210.56
639.243	197.56
639.448	199.56
639.654	211.56
639.859	179.56
640.065	196.56
640.27	195.56
640.475	201.56
640.681	185.56
640.886	207.56
641.091	213.56
641.297	219.56
641.502	187.56
641.707	186.56
641.913	206.56
642.118	193.56
642.323	180.56
642.528	222.56
642.733	203.56
642.939	206.56
643.144	209.56
643.349	200.56
643.554	184.56
643.759	196.56
643.964	184.56
644.169	185.56
644.374	203.56
644.579	196.56
644.784	200.56
644.989	186.56
645.194	191.56
645.399	208.56
645.604	201.56
645.809	203.56
646.014	184.56
646.219	187.56
646.423	204.56
646.628	199.56
646.833	206.56
647.038	210.56
647.243	220.56
647.447	226.56
647.652	207.56
647.857	211.56
648.062	194.56
648.266	209.56
648.471	199.56
648.676	204.56
648.88	209.56
649.085	215.56
649.289	194.56
649.494	185.56
649.698	195.56
649.903	202.56
650.107	211.56
650.312	187.56
650.516	210.56
650.721	200.56
650.925	188.56
651.13	188.56
651.334	191.56
651.539	184.56
651.743	182.56
651.947	199.56
652.152	188.56
652.356	194.56
652.56	178.56
652.764	177.56
652.969	193.56
653.173	175.56
653.377	178.56
653.581	192.56
653.785	187.56
653.99	172.56
654.194	188.56
654.398	179.56
654.602	168.56
654.806	158.56
655.01	186.56
655.214	160.56
655.418	179.56
655.622	171.56
655.826	157.56
656.03	166.56
656.234	180.56
656.438	176.56
656.642	166.56
656.846	147.56
657.049	160.56
657.253	153.56
657.457	155.56
657.661	151.56
657.865	150.56
658.068	166.56
658.272	130.56
658.476	128.56
658.68	129.56
658.883	122.56
659.087	127.56
659.291	116.56
659.494	115.56
659.698	100.56
659.901	107.56
660.105	115.56
660.309	115.56
660.512	102.56
660.716	91.56
660.919	108.56
661.123	110.56
661.326	97.56
661.53	93.56
661.733	101.56
661.936	87.56
662.14	76.56
662.343	79.56
662.546	82.56
662.75	87.56
662.953	96.56
663.156	74.56
663.36	81.56
663.563	82.56
663.766	88.56
663.969	71.56
664.173	70.56
664.376	83.56
664.579	89.56
664.782	86.56
664.985	78.56
665.188	69.56
665.391	80.56
665.594	72.56
665.797	84.56
666	108.56
666.203	87.56
666.406	85.56
666.609	92.56
666.812	79.56
667.015	69.56
667.218	93.56
667.421	97.56
667.624	76.56
667.827	80.56
668.03	74.56
668.232	88.56
668.435	90.56
668.638	79.56
668.841	77.56
669.043	99.56
669.246	87.56
669.449	88.56
669.651	84.56
669.854	72.56
670.057	76.56
670.259	70.56
670.462	85.56
670.665	81.56
670.867	79.56
671.07	80.56
671.272	81.56
671.475	87.56
671.677	92.56
671.88	87.56
672.082	80.56
672.284	90.56
672.487	85.56
672.689	75.56
672.892	84.56
