Data from Fe(NO3)3@0.025M.TitratingCurve.Agarose3%dH2O.NegLispCup.LampEnergy10.LIBS07252019_HRD10591_16-54-01-335.txt Node
Date: Thu Jul 25 16:54:01 EDT 2019
User: cochatt
Spectrometer: HR+D1059
Trigger mode: 1
Integration Time (sec): 1.000000E-1
Scans to average: 1
Electric dark correction enabled: true
Nonlinearity correction enabled: false
Boxcar width: 0
XAxis mode: Wavelengths
Number of Pixels in Spectrum: 2048
>>>>>Begin Spectral Data<<<<<
223.165	-17.62
223.4	-17.62
223.635	-17.62
223.869	-34.62
224.104	-17.62
224.338	-23.62
224.573	-21.62
224.808	-6.62
225.042	-10.62
225.277	-3.62
225.511	-8.62
225.746	-3.62
225.98	23.38
226.215	26.38
226.449	13.38
226.683	20.38
226.918	26.38
227.152	38.38
227.387	44.38
227.621	42.38
227.856	43.38
228.09	38.38
228.324	54.38
228.559	46.38
228.793	65.38
229.027	77.38
229.262	71.38
229.496	76.38
229.73	80.38
229.964	91.38
230.199	81.38
230.433	87.38
230.667	87.38
230.901	74.38
231.136	102.38
231.37	85.38
231.604	100.38
231.838	95.38
232.072	89.38
232.306	96.38
232.541	87.38
232.775	94.38
233.009	98.38
233.243	95.38
233.477	93.38
233.711	92.38
233.945	91.38
234.179	102.38
234.413	98.38
234.647	108.38
234.881	91.38
235.115	99.38
235.349	97.38
235.583	108.38
235.817	90.38
236.051	107.38
236.285	84.38
236.519	98.38
236.753	100.38
236.987	94.38
237.221	106.38
237.455	96.38
237.689	95.38
237.922	93.38
238.156	106.38
238.39	113.38
238.624	106.38
238.858	98.38
239.091	115.38
239.325	104.38
239.559	101.38
239.793	106.38
240.027	114.38
240.26	115.38
240.494	108.38
240.728	98.38
240.961	86.38
241.195	116.38
241.429	116.38
241.662	108.38
241.896	102.38
242.13	105.38
242.363	107.38
242.597	114.38
242.83	92.38
243.064	112.38
243.298	108.38
243.531	121.38
243.765	95.38
243.998	110.38
244.232	108.38
244.465	103.38
244.699	119.38
244.932	100.38
245.166	122.38
245.399	112.38
245.633	108.38
245.866	126.38
246.099	119.38
246.333	105.38
246.566	114.38
246.8	130.38
247.033	109.38
247.266	126.38
247.5	109.38
247.733	116.38
247.966	118.38
248.2	114.38
248.433	128.38
248.666	133.38
248.899	120.38
249.133	123.38
249.366	117.38
249.599	129.38
249.832	122.38
250.066	136.38
250.299	128.38
250.532	121.38
250.765	118.38
250.998	113.38
251.231	104.38
251.465	125.38
251.698	132.38
251.931	124.38
252.164	131.38
252.397	122.38
252.63	116.38
252.863	124.38
253.096	134.38
253.329	139.38
253.562	125.38
253.795	148.38
254.028	139.38
254.261	134.38
254.494	146.38
254.727	140.38
254.96	122.38
255.193	136.38
255.426	125.38
255.659	148.38
255.892	141.38
256.124	146.38
256.357	127.38
256.59	141.38
256.823	146.38
257.056	126.38
257.289	140.38
257.521	135.38
257.754	134.38
257.987	136.38
258.22	137.38
258.452	134.38
258.685	139.38
258.918	142.38
259.151	140.38
259.383	126.38
259.616	151.38
259.849	139.38
260.081	156.38
260.314	155.38
260.547	154.38
260.779	144.38
261.012	150.38
261.244	165.38
261.477	165.38
261.71	151.38
261.942	158.38
262.175	135.38
262.407	144.38
262.64	146.38
262.872	160.38
263.105	165.38
263.337	161.38
263.57	163.38
263.802	147.38
264.035	142.38
264.267	148.38
264.499	155.38
264.732	146.38
264.964	161.38
265.197	145.38
265.429	148.38
265.661	144.38
265.894	138.38
266.126	140.38
266.358	153.38
266.591	151.38
266.823	166.38
267.055	149.38
267.287	157.38
267.52	136.38
267.752	151.38
267.984	150.38
268.216	161.38
268.448	161.38
268.681	144.38
268.913	164.38
269.145	155.38
269.377	171.38
269.609	149.38
269.841	153.38
270.073	143.38
270.306	166.38
270.538	162.38
270.77	153.38
271.002	167.38
271.234	168.38
271.466	172.38
271.698	154.38
271.93	148.38
272.162	174.38
272.394	182.38
272.626	171.38
272.858	178.38
273.09	188.38
273.322	188.38
273.553	182.38
273.785	162.38
274.017	178.38
274.249	196.38
274.481	197.38
274.713	191.38
274.945	192.38
275.176	202.38
275.408	178.38
275.64	172.38
275.872	188.38
276.104	178.38
276.335	189.38
276.567	156.38
276.799	189.38
277.031	187.38
277.262	182.38
277.494	198.38
277.726	194.38
277.957	190.38
278.189	193.38
278.421	189.38
278.652	188.38
278.884	193.38
279.115	181.38
279.347	186.38
279.579	194.38
279.81	187.38
280.042	194.38
280.273	193.38
280.505	196.38
280.736	192.38
280.968	199.38
281.199	202.38
281.431	202.38
281.662	189.38
281.894	187.38
282.125	199.38
282.356	195.38
282.588	202.38
282.819	205.38
283.051	192.38
283.282	197.38
283.513	189.38
283.745	192.38
283.976	193.38
284.207	223.38
284.439	204.38
284.67	203.38
284.901	210.38
285.132	192.38
285.364	196.38
285.595	211.38
285.826	212.38
286.057	202.38
286.288	200.38
286.52	200.38
286.751	217.38
286.982	202.38
287.213	198.38
287.444	217.38
287.675	214.38
287.906	211.38
288.138	209.38
288.369	215.38
288.6	207.38
288.831	219.38
289.062	206.38
289.293	214.38
289.524	219.38
289.755	210.38
289.986	222.38
290.217	216.38
290.448	205.38
290.679	227.38
290.91	223.38
291.141	218.38
291.371	204.38
291.602	227.38
291.833	220.38
292.064	219.38
292.295	218.38
292.526	208.38
292.757	226.38
292.987	211.38
293.218	217.38
293.449	220.38
293.68	221.38
293.91	210.38
294.141	209.38
294.372	221.38
294.603	234.38
294.833	228.38
295.064	224.38
295.295	225.38
295.525	227.38
295.756	215.38
295.987	222.38
296.217	226.38
296.448	233.38
296.679	225.38
296.909	222.38
297.14	228.38
297.37	232.38
297.601	228.38
297.831	247.38
298.062	234.38
298.292	223.38
298.523	218.38
298.753	236.38
298.984	245.38
299.214	229.38
299.445	248.38
299.675	242.38
299.905	224.38
300.136	242.38
300.366	254.38
300.597	244.38
300.827	261.38
301.057	230.38
301.288	237.38
301.518	232.38
301.748	249.38
301.979	237.38
302.209	255.38
302.439	259.38
302.669	240.38
302.9	250.38
303.13	257.38
303.36	248.38
303.59	244.38
303.82	242.38
304.051	244.38
304.281	254.38
304.511	248.38
304.741	252.38
304.971	245.38
305.201	240.38
305.431	250.38
305.661	270.38
305.891	244.38
306.121	257.38
306.352	267.38
306.582	277.38
306.812	259.38
307.042	257.38
307.272	265.38
307.502	259.38
307.731	270.38
307.961	264.38
308.191	248.38
308.421	262.38
308.651	250.38
308.881	267.38
309.111	249.38
309.341	260.38
309.571	259.38
309.8	247.38
310.03	287.38
310.26	258.38
310.49	272.38
310.72	288.38
310.949	267.38
311.179	264.38
311.409	270.38
311.639	253.38
311.868	264.38
312.098	274.38
312.328	266.38
312.557	296.38
312.787	272.38
313.017	268.38
313.246	288.38
313.476	265.38
313.706	297.38
313.935	278.38
314.165	288.38
314.394	281.38
314.624	269.38
314.853	271.38
315.083	294.38
315.312	276.38
315.542	285.38
315.771	298.38
316.001	277.38
316.23	286.38
316.46	279.38
316.689	268.38
316.919	289.38
317.148	288.38
317.377	285.38
317.607	294.38
317.836	283.38
318.065	293.38
318.295	291.38
318.524	279.38
318.753	287.38
318.983	292.38
319.212	287.38
319.441	313.38
319.67	309.38
319.9	289.38
320.129	282.38
320.358	284.38
320.587	295.38
320.816	297.38
321.046	294.38
321.275	292.38
321.504	286.38
321.733	278.38
321.962	287.38
322.191	305.38
322.42	290.38
322.649	283.38
322.878	292.38
323.108	311.38
323.337	308.38
323.566	294.38
323.795	288.38
324.024	299.38
324.253	294.38
324.482	308.38
324.71	306.38
324.939	307.38
325.168	303.38
325.397	309.38
325.626	290.38
325.855	309.38
326.084	320.38
326.313	298.38
326.542	308.38
326.77	304.38
326.999	308.38
327.228	323.38
327.457	313.38
327.686	293.38
327.914	301.38
328.143	317.38
328.372	308.38
328.6	300.38
328.829	313.38
329.058	331.38
329.287	317.38
329.515	326.38
329.744	332.38
329.972	330.38
330.201	314.38
330.43	322.38
330.658	330.38
330.887	314.38
331.115	311.38
331.344	331.38
331.572	336.38
331.801	324.38
332.03	323.38
332.258	313.38
332.486	332.38
332.715	331.38
332.943	340.38
333.172	344.38
333.4	353.38
333.629	329.38
333.857	340.38
334.085	332.38
334.314	336.38
334.542	355.38
334.771	349.38
334.999	353.38
335.227	341.38
335.455	361.38
335.684	360.38
335.912	353.38
336.14	357.38
336.369	339.38
336.597	364.38
336.825	346.38
337.053	341.38
337.281	324.38
337.51	359.38
337.738	340.38
337.966	353.38
338.194	365.38
338.422	339.38
338.65	341.38
338.878	326.38
339.106	345.38
339.334	347.38
339.562	342.38
339.79	349.38
340.018	340.38
340.246	314.38
340.474	346.38
340.702	337.38
340.93	344.38
341.158	344.38
341.386	314.38
341.614	338.38
341.842	337.38
342.07	371.38
342.298	350.38
342.526	340.38
342.754	340.38
342.981	355.38
343.209	338.38
343.437	346.38
343.665	358.38
343.893	350.38
344.12	357.38
344.348	360.38
344.576	340.38
344.804	353.38
345.031	351.38
345.259	372.38
345.487	357.38
345.714	349.38
345.942	352.38
346.17	338.38
346.397	352.38
346.625	348.38
346.853	353.38
347.08	343.38
347.308	333.38
347.535	325.38
347.763	321.38
347.99	345.38
348.218	332.38
348.445	325.38
348.673	332.38
348.9	317.38
349.128	335.38
349.355	331.38
349.583	332.38
349.81	332.38
350.037	319.38
350.265	310.38
350.492	317.38
350.72	306.38
350.947	319.38
351.174	311.38
351.402	335.38
351.629	321.38
351.856	332.38
352.083	334.38
352.311	332.38
352.538	314.38
352.765	329.38
352.992	320.38
353.22	320.38
353.447	337.38
353.674	318.38
353.901	314.38
354.128	333.38
354.355	329.38
354.583	318.38
354.81	328.38
355.037	341.38
355.264	332.38
355.491	334.38
355.718	332.38
355.945	329.38
356.172	324.38
356.399	326.38
356.626	320.38
356.853	345.38
357.08	339.38
357.307	355.38
357.534	348.38
357.761	355.38
357.988	332.38
358.215	337.38
358.441	354.38
358.668	328.38
358.895	344.38
359.122	327.38
359.349	333.38
359.576	322.38
359.802	338.38
360.029	337.38
360.256	340.38
360.483	341.38
360.709	338.38
360.936	348.38
361.163	346.38
361.39	328.38
361.616	338.38
361.843	342.38
362.07	354.38
362.296	327.38
362.523	323.38
362.749	339.38
362.976	334.38
363.203	358.38
363.429	340.38
363.656	362.38
363.882	330.38
364.109	345.38
364.335	353.38
364.562	350.38
364.788	348.38
365.015	355.38
365.241	352.38
365.468	329.38
365.694	346.38
365.92	347.38
366.147	334.38
366.373	347.38
366.599	349.38
366.826	348.38
367.052	352.38
367.278	340.38
367.505	358.38
367.731	353.38
367.957	357.38
368.184	346.38
368.41	336.38
368.636	354.38
368.862	360.38
369.089	371.38
369.315	361.38
369.541	368.38
369.767	365.38
369.993	349.38
370.219	351.38
370.445	362.38
370.672	363.38
370.898	352.38
371.124	373.38
371.35	352.38
371.576	382.38
371.802	362.38
372.028	386.38
372.254	378.38
372.48	373.38
372.706	366.38
372.932	364.38
373.158	368.38
373.384	352.38
373.61	382.38
373.835	368.38
374.061	374.38
374.287	371.38
374.513	375.38
374.739	392.38
374.965	382.38
375.191	372.38
375.416	381.38
375.642	374.38
375.868	374.38
376.094	378.38
376.319	369.38
376.545	358.38
376.771	366.38
376.997	363.38
377.222	370.38
377.448	368.38
377.674	369.38
377.899	349.38
378.125	368.38
378.35	364.38
378.576	354.38
378.802	363.38
379.027	374.38
379.253	374.38
379.478	360.38
379.704	359.38
379.929	359.38
380.155	354.38
380.38	363.38
380.606	365.38
380.831	371.38
381.057	348.38
381.282	364.38
381.507	356.38
381.733	378.38
381.958	376.38
382.184	368.38
382.409	374.38
382.634	399.38
382.86	365.38
383.085	378.38
383.31	386.38
383.535	382.38
383.761	391.38
383.986	378.38
384.211	371.38
384.436	387.38
384.662	390.38
384.887	384.38
385.112	376.38
385.337	397.38
385.562	383.38
385.787	398.38
386.013	403.38
386.238	400.38
386.463	374.38
386.688	404.38
386.913	422.38
387.138	428.38
387.363	408.38
387.588	408.38
387.813	405.38
388.038	436.38
388.263	421.38
388.488	408.38
388.713	427.38
388.938	421.38
389.163	429.38
389.387	415.38
389.612	424.38
389.837	419.38
390.062	418.38
390.287	411.38
390.512	414.38
390.736	415.38
390.961	417.38
391.186	398.38
391.411	407.38
391.636	442.38
391.86	432.38
392.085	426.38
392.31	413.38
392.534	413.38
392.759	434.38
392.984	426.38
393.208	434.38
393.433	451.38
393.658	445.38
393.882	429.38
394.107	445.38
394.331	421.38
394.556	426.38
394.78	416.38
395.005	430.38
395.229	423.38
395.454	445.38
395.678	440.38
395.903	448.38
396.127	427.38
396.352	443.38
396.576	446.38
396.801	441.38
397.025	440.38
397.249	420.38
397.474	482.38
397.698	479.38
397.922	463.38
398.147	457.38
398.371	456.38
398.595	472.38
398.82	489.38
399.044	508.38
399.268	499.38
399.492	492.38
399.717	518.38
399.941	518.38
400.165	522.38
400.389	518.38
400.613	525.38
400.837	510.38
401.062	499.38
401.286	517.38
401.51	494.38
401.734	485.38
401.958	485.38
402.182	476.38
402.406	492.38
402.63	484.38
402.854	486.38
403.078	491.38
403.302	470.38
403.526	457.38
403.75	452.38
403.974	479.38
404.198	484.38
404.422	480.38
404.645	468.38
404.869	478.38
405.093	494.38
405.317	497.38
405.541	489.38
405.765	487.38
405.988	493.38
406.212	499.38
406.436	488.38
406.66	518.38
406.883	504.38
407.107	526.38
407.331	538.38
407.555	524.38
407.778	521.38
408.002	512.38
408.226	544.38
408.449	510.38
408.673	519.38
408.896	502.38
409.12	512.38
409.344	504.38
409.567	483.38
409.791	503.38
410.014	500.38
410.238	471.38
410.461	489.38
410.685	491.38
410.908	471.38
411.132	505.38
411.355	478.38
411.578	479.38
411.802	482.38
412.025	474.38
412.249	516.38
412.472	494.38
412.695	472.38
412.919	496.38
413.142	485.38
413.365	487.38
413.589	475.38
413.812	489.38
414.035	474.38
414.258	503.38
414.482	487.38
414.705	477.38
414.928	486.38
415.151	480.38
415.374	475.38
415.597	458.38
415.821	450.38
416.044	462.38
416.267	470.38
416.49	458.38
416.713	469.38
416.936	457.38
417.159	454.38
417.382	450.38
417.605	436.38
417.828	449.38
418.051	452.38
418.274	469.38
418.497	448.38
418.72	468.38
418.943	456.38
419.166	481.38
419.389	472.38
419.611	474.38
419.834	485.38
420.057	457.38
420.28	450.38
420.503	449.38
420.726	435.38
420.948	456.38
421.171	450.38
421.394	437.38
421.617	438.38
421.839	434.38
422.062	450.38
422.285	457.38
422.507	444.38
422.73	453.38
422.953	446.38
423.175	433.38
423.398	465.38
423.621	450.38
423.843	450.38
424.066	434.38
424.288	458.38
424.511	440.38
424.733	421.38
424.956	445.38
425.178	458.38
425.401	449.38
425.623	443.38
425.846	452.38
426.068	475.38
426.291	433.38
426.513	431.38
426.735	452.38
426.958	471.38
427.18	454.38
427.402	459.38
427.625	429.38
427.847	438.38
428.069	429.38
428.292	463.38
428.514	430.38
428.736	446.38
428.958	428.38
429.181	430.38
429.403	445.38
429.625	449.38
429.847	447.38
430.069	423.38
430.292	439.38
430.514	433.38
430.736	458.38
430.958	438.38
431.18	438.38
431.402	455.38
431.624	455.38
431.846	424.38
432.068	436.38
432.29	464.38
432.512	441.38
432.734	437.38
432.956	451.38
433.178	454.38
433.4	441.38
433.622	441.38
433.844	436.38
434.066	437.38
434.287	443.38
434.509	444.38
434.731	452.38
434.953	446.38
435.175	448.38
435.397	452.38
435.618	455.38
435.84	448.38
436.062	435.38
436.284	448.38
436.505	439.38
436.727	454.38
436.949	438.38
437.17	433.38
437.392	436.38
437.614	429.38
437.835	438.38
438.057	438.38
438.278	429.38
438.5	422.38
438.721	427.38
438.943	412.38
439.165	432.38
439.386	443.38
439.608	441.38
439.829	420.38
440.05	428.38
440.272	441.38
440.493	429.38
440.715	436.38
440.936	419.38
441.158	429.38
441.379	439.38
441.6	437.38
441.822	437.38
442.043	443.38
442.264	450.38
442.486	430.38
442.707	456.38
442.928	462.38
443.149	454.38
443.371	456.38
443.592	459.38
443.813	446.38
444.034	465.38
444.255	455.38
444.476	452.38
444.698	448.38
444.919	450.38
445.14	569.38
445.361	492.38
445.582	448.38
445.803	455.38
446.024	455.38
446.245	458.38
446.466	442.38
446.687	431.38
446.908	430.38
447.129	432.38
447.35	429.38
447.571	427.38
447.792	425.38
448.013	404.38
448.234	420.38
448.455	423.38
448.675	393.38
448.896	419.38
449.117	421.38
449.338	413.38
449.559	402.38
449.779	397.38
450	406.38
450.221	417.38
450.442	410.38
450.662	392.38
450.883	408.38
451.104	400.38
451.324	401.38
451.545	396.38
451.766	398.38
451.986	403.38
452.207	398.38
452.428	388.38
452.648	403.38
452.869	385.38
453.089	402.38
453.31	418.38
453.53	398.38
453.751	388.38
453.971	380.38
454.192	396.38
454.412	381.38
454.633	390.38
454.853	377.38
455.073	394.38
455.294	404.38
455.514	378.38
455.734	393.38
455.955	390.38
456.175	382.38
456.395	383.38
456.616	403.38
456.836	406.38
457.056	396.38
457.276	399.38
457.497	389.38
457.717	413.38
457.937	414.38
458.157	408.38
458.377	408.38
458.598	406.38
458.818	421.38
459.038	405.38
459.258	412.38
459.478	433.38
459.698	426.38
459.918	444.38
460.138	440.38
460.358	459.38
460.578	434.38
460.798	448.38
461.018	456.38
461.238	465.38
461.458	477.38
461.678	454.38
461.898	500.38
462.118	470.38
462.338	485.38
462.558	486.38
462.777	483.38
462.997	472.38
463.217	487.38
463.437	521.38
463.657	504.38
463.876	488.38
464.096	515.38
464.316	508.38
464.536	502.38
464.755	493.38
464.975	483.38
465.195	482.38
465.414	474.38
465.634	460.38
465.854	453.38
466.073	445.38
466.293	443.38
466.512	466.38
466.732	441.38
466.951	442.38
467.171	440.38
467.391	448.38
467.61	445.38
467.829	453.38
468.049	429.38
468.268	426.38
468.488	419.38
468.707	410.38
468.927	456.38
469.146	438.38
469.365	433.38
469.585	426.38
469.804	420.38
470.023	433.38
470.243	418.38
470.462	407.38
470.681	424.38
470.901	425.38
471.12	448.38
471.339	415.38
471.558	445.38
471.777	434.38
471.997	426.38
472.216	433.38
472.435	456.38
472.654	429.38
472.873	436.38
473.092	436.38
473.311	438.38
473.53	465.38
473.749	434.38
473.968	458.38
474.187	465.38
474.406	445.38
474.625	455.38
474.844	453.38
475.063	448.38
475.282	431.38
475.501	451.38
475.72	458.38
475.939	451.38
476.158	451.38
476.377	465.38
476.596	481.38
476.814	475.38
477.033	485.38
477.252	476.38
477.471	491.38
477.69	478.38
477.908	490.38
478.127	493.38
478.346	482.38
478.564	489.38
478.783	502.38
479.002	498.38
479.22	499.38
479.439	534.38
479.658	521.38
479.876	499.38
480.095	503.38
480.313	516.38
480.532	497.38
480.751	524.38
480.969	506.38
481.188	518.38
481.406	536.38
481.624	517.38
481.843	487.38
482.061	498.38
482.28	491.38
482.498	520.38
482.717	517.38
482.935	526.38
483.153	522.38
483.372	535.38
483.59	525.38
483.808	526.38
484.027	527.38
484.245	514.38
484.463	512.38
484.681	536.38
484.9	529.38
485.118	537.38
485.336	531.38
485.554	510.38
485.772	530.38
485.99	526.38
486.209	516.38
486.427	508.38
486.645	534.38
486.863	530.38
487.081	540.38
487.299	519.38
487.517	544.38
487.735	532.38
487.953	541.38
488.171	557.38
488.389	556.38
488.607	529.38
488.825	562.38
489.043	552.38
489.261	534.38
489.479	549.38
489.696	536.38
489.914	535.38
490.132	525.38
490.35	536.38
490.568	548.38
490.786	534.38
491.003	535.38
491.221	533.38
491.439	567.38
491.657	545.38
491.874	552.38
492.092	564.38
492.31	568.38
492.527	577.38
492.745	525.38
492.963	562.38
493.18	560.38
493.398	565.38
493.615	557.38
493.833	547.38
494.05	562.38
494.268	558.38
494.485	564.38
494.703	589.38
494.92	565.38
495.138	567.38
495.355	576.38
495.573	572.38
495.79	573.38
496.008	602.38
496.225	595.38
496.442	598.38
496.66	606.38
496.877	587.38
497.094	610.38
497.312	604.38
497.529	648.38
497.746	621.38
497.963	644.38
498.181	654.38
498.398	673.38
498.615	688.38
498.832	695.38
499.049	695.38
499.267	705.38
499.484	761.38
499.701	788.38
499.918	737.38
500.135	793.38
500.352	792.38
500.569	785.38
500.786	794.38
501.003	797.38
501.22	764.38
501.437	778.38
501.654	747.38
501.871	756.38
502.088	719.38
502.305	704.38
502.522	712.38
502.739	680.38
502.956	658.38
503.172	654.38
503.389	657.38
503.606	634.38
503.823	628.38
504.04	621.38
504.256	613.38
504.473	602.38
504.69	572.38
504.907	595.38
505.123	578.38
505.34	570.38
505.557	587.38
505.773	574.38
505.99	555.38
506.207	536.38
506.423	531.38
506.64	539.38
506.856	523.38
507.073	534.38
507.289	534.38
507.506	519.38
507.722	524.38
507.939	508.38
508.155	509.38
508.372	493.38
508.588	500.38
508.805	514.38
509.021	486.38
509.238	508.38
509.454	511.38
509.67	500.38
509.887	496.38
510.103	488.38
510.319	480.38
510.536	497.38
510.752	468.38
510.968	488.38
511.184	477.38
511.401	467.38
511.617	473.38
511.833	477.38
512.049	451.38
512.265	463.38
512.481	499.38
512.698	486.38
512.914	489.38
513.13	475.38
513.346	478.38
513.562	470.38
513.778	484.38
513.994	480.38
514.21	488.38
514.426	466.38
514.642	478.38
514.858	484.38
515.074	480.38
515.29	473.38
515.506	468.38
515.721	484.38
515.937	487.38
516.153	499.38
516.369	483.38
516.585	500.38
516.801	492.38
517.016	515.38
517.232	514.38
517.448	525.38
517.664	506.38
517.879	516.38
518.095	474.38
518.311	502.38
518.527	517.38
518.742	488.38
518.958	485.38
519.173	498.38
519.389	487.38
519.605	487.38
519.82	493.38
520.036	505.38
520.251	476.38
520.467	481.38
520.682	452.38
520.898	468.38
521.113	478.38
521.329	463.38
521.544	474.38
521.76	461.38
521.975	470.38
522.19	463.38
522.406	462.38
522.621	453.38
522.836	473.38
523.052	454.38
523.267	458.38
523.482	462.38
523.698	452.38
523.913	448.38
524.128	456.38
524.343	448.38
524.559	442.38
524.774	443.38
524.989	475.38
525.204	445.38
525.419	437.38
525.634	442.38
525.849	437.38
526.064	427.38
526.28	454.38
526.495	452.38
526.71	448.38
526.925	439.38
527.14	422.38
527.355	432.38
527.57	414.38
527.785	444.38
527.999	434.38
528.214	454.38
528.429	422.38
528.644	425.38
528.859	441.38
529.074	413.38
529.289	407.38
529.503	436.38
529.718	437.38
529.933	430.38
530.148	428.38
530.363	443.38
530.577	416.38
530.792	422.38
531.007	393.38
531.221	405.38
531.436	421.38
531.651	424.38
531.865	422.38
532.08	436.38
532.295	417.38
532.509	435.38
532.724	411.38
532.938	422.38
533.153	411.38
533.367	430.38
533.582	427.38
533.796	402.38
534.011	426.38
534.225	427.38
534.44	409.38
534.654	432.38
534.868	420.38
535.083	435.38
535.297	412.38
535.511	426.38
535.726	411.38
535.94	419.38
536.154	412.38
536.369	421.38
536.583	404.38
536.797	413.38
537.011	409.38
537.225	397.38
537.44	409.38
537.654	413.38
537.868	412.38
538.082	399.38
538.296	395.38
538.51	407.38
538.724	402.38
538.938	396.38
539.153	419.38
539.367	412.38
539.581	404.38
539.795	403.38
540.009	401.38
540.222	389.38
540.436	400.38
540.65	400.38
540.864	395.38
541.078	417.38
541.292	406.38
541.506	406.38
541.72	406.38
541.934	397.38
542.147	379.38
542.361	394.38
542.575	416.38
542.789	394.38
543.002	390.38
543.216	395.38
543.43	404.38
543.644	400.38
543.857	403.38
544.071	397.38
544.285	397.38
544.498	388.38
544.712	402.38
544.925	386.38
545.139	396.38
545.352	386.38
545.566	382.38
545.779	413.38
545.993	381.38
546.206	398.38
546.42	421.38
546.633	376.38
546.847	390.38
547.06	396.38
547.274	393.38
547.487	406.38
547.7	406.38
547.914	414.38
548.127	404.38
548.34	421.38
548.554	378.38
548.767	405.38
548.98	394.38
549.193	405.38
549.407	390.38
549.62	409.38
549.833	391.38
550.046	388.38
550.259	397.38
550.473	398.38
550.686	396.38
550.899	401.38
551.112	394.38
551.325	400.38
551.538	389.38
551.751	381.38
551.964	385.38
552.177	380.38
552.39	406.38
552.603	404.38
552.816	405.38
553.029	388.38
553.242	389.38
553.455	400.38
553.667	374.38
553.88	400.38
554.093	389.38
554.306	377.38
554.519	375.38
554.732	365.38
554.944	381.38
555.157	382.38
555.37	379.38
555.583	350.38
555.795	363.38
556.008	371.38
556.221	370.38
556.433	352.38
556.646	364.38
556.859	360.38
557.071	353.38
557.284	373.38
557.496	344.38
557.709	378.38
557.921	360.38
558.134	373.38
558.346	358.38
558.559	354.38
558.771	356.38
558.984	335.38
559.196	358.38
559.409	365.38
559.621	350.38
559.833	334.38
560.046	329.38
560.258	352.38
560.47	341.38
560.683	350.38
560.895	357.38
561.107	382.38
561.32	363.38
561.532	355.38
561.744	363.38
561.956	363.38
562.168	357.38
562.381	332.38
562.593	344.38
562.805	334.38
563.017	366.38
563.229	368.38
563.441	363.38
563.653	357.38
563.865	357.38
564.077	358.38
564.289	365.38
564.501	371.38
564.713	351.38
564.925	384.38
565.137	375.38
565.349	374.38
565.561	379.38
565.773	383.38
565.985	368.38
566.197	384.38
566.408	387.38
566.62	391.38
566.832	418.38
567.044	396.38
567.255	394.38
567.467	404.38
567.679	400.38
567.891	402.38
568.102	409.38
568.314	404.38
568.526	393.38
568.737	391.38
568.949	356.38
569.161	360.38
569.372	360.38
569.584	361.38
569.795	354.38
570.007	342.38
570.218	364.38
570.43	343.38
570.641	345.38
570.853	328.38
571.064	339.38
571.276	350.38
571.487	321.38
571.698	335.38
571.91	330.38
572.121	307.38
572.333	320.38
572.544	306.38
572.755	317.38
572.966	315.38
573.178	296.38
573.389	294.38
573.6	287.38
573.811	293.38
574.023	298.38
574.234	291.38
574.445	297.38
574.656	296.38
574.867	299.38
575.078	288.38
575.289	296.38
575.501	291.38
575.712	297.38
575.923	291.38
576.134	280.38
576.345	289.38
576.556	273.38
576.767	274.38
576.978	284.38
577.188	276.38
577.399	302.38
577.61	284.38
577.821	264.38
578.032	270.38
578.243	296.38
578.454	277.38
578.665	284.38
578.875	285.38
579.086	260.38
579.297	258.38
579.508	277.38
579.718	289.38
579.929	261.38
580.14	248.38
580.35	256.38
580.561	261.38
580.772	271.38
580.982	266.38
581.193	267.38
581.403	241.38
581.614	256.38
581.825	281.38
582.035	264.38
582.246	241.38
582.456	240.38
582.667	274.38
582.877	252.38
583.087	264.38
583.298	260.38
583.508	254.38
583.719	258.38
583.929	264.38
584.139	263.38
584.35	267.38
584.56	256.38
584.77	247.38
584.981	257.38
585.191	268.38
585.401	268.38
585.611	263.38
585.821	244.38
586.032	264.38
586.242	264.38
586.452	241.38
586.662	241.38
586.872	247.38
587.082	251.38
587.292	248.38
587.502	246.38
587.713	251.38
587.923	262.38
588.133	245.38
588.343	257.38
588.553	252.38
588.762	252.38
588.972	253.38
589.182	282.38
589.392	280.38
589.602	250.38
589.812	253.38
590.022	262.38
590.232	258.38
590.441	272.38
590.651	262.38
590.861	250.38
591.071	236.38
591.281	250.38
591.49	255.38
591.7	248.38
591.91	237.38
592.119	238.38
592.329	265.38
592.539	240.38
592.748	250.38
592.958	259.38
593.167	256.38
593.377	252.38
593.587	282.38
593.796	262.38
594.006	250.38
594.215	256.38
594.424	243.38
594.634	251.38
594.843	266.38
595.053	248.38
595.262	252.38
595.472	236.38
595.681	241.38
595.89	255.38
596.1	250.38
596.309	240.38
596.518	230.38
596.727	241.38
596.937	245.38
597.146	232.38
597.355	252.38
597.564	228.38
597.774	246.38
597.983	217.38
598.192	236.38
598.401	229.38
598.61	228.38
598.819	228.38
599.028	233.38
599.237	219.38
599.446	228.38
599.655	239.38
599.864	215.38
600.073	225.38
600.282	211.38
600.491	232.38
600.7	225.38
600.909	238.38
601.118	219.38
601.327	219.38
601.536	215.38
601.745	227.38
601.953	225.38
602.162	213.38
602.371	198.38
602.58	209.38
602.789	211.38
602.997	192.38
603.206	217.38
603.415	220.38
603.623	208.38
603.832	225.38
604.041	214.38
604.249	222.38
604.458	209.38
604.666	203.38
604.875	202.38
605.084	198.38
605.292	225.38
605.501	214.38
605.709	202.38
605.918	201.38
606.126	230.38
606.334	216.38
606.543	228.38
606.751	210.38
606.96	211.38
607.168	206.38
607.376	204.38
607.585	211.38
607.793	203.38
608.001	218.38
608.21	212.38
608.418	206.38
608.626	190.38
608.834	189.38
609.043	203.38
609.251	214.38
609.459	210.38
609.667	203.38
609.875	200.38
610.083	207.38
610.291	211.38
610.499	192.38
610.707	203.38
610.916	202.38
611.124	188.38
611.332	193.38
611.54	201.38
611.748	193.38
611.955	199.38
612.163	198.38
612.371	205.38
612.579	206.38
612.787	204.38
612.995	201.38
613.203	205.38
613.411	184.38
613.618	180.38
613.826	195.38
614.034	212.38
614.242	191.38
614.449	206.38
614.657	196.38
614.865	193.38
615.072	198.38
615.28	185.38
615.488	189.38
615.695	199.38
615.903	196.38
616.111	202.38
616.318	204.38
616.526	201.38
616.733	201.38
616.941	198.38
617.148	199.38
617.356	196.38
617.563	196.38
617.771	199.38
617.978	199.38
618.185	208.38
618.393	188.38
618.6	183.38
618.807	187.38
619.015	179.38
619.222	182.38
619.429	197.38
619.637	207.38
619.844	183.38
620.051	201.38
620.258	204.38
620.466	193.38
620.673	176.38
620.88	187.38
621.087	193.38
621.294	190.38
621.501	200.38
621.708	195.38
621.915	184.38
622.122	172.38
622.329	177.38
622.536	200.38
622.743	204.38
622.95	204.38
623.157	185.38
623.364	178.38
623.571	195.38
623.778	190.38
623.985	173.38
624.192	192.38
624.399	187.38
624.606	186.38
624.812	190.38
625.019	190.38
625.226	184.38
625.433	187.38
625.639	190.38
625.846	180.38
626.053	180.38
626.259	180.38
626.466	195.38
626.673	168.38
626.879	168.38
627.086	177.38
627.293	192.38
627.499	182.38
627.706	185.38
627.912	161.38
628.119	157.38
628.325	188.38
628.532	186.38
628.738	166.38
628.945	180.38
629.151	185.38
629.357	176.38
629.564	169.38
629.77	170.38
629.976	184.38
630.183	165.38
630.389	183.38
630.595	169.38
630.802	168.38
631.008	182.38
631.214	173.38
631.42	184.38
631.627	178.38
631.833	169.38
632.039	170.38
632.245	173.38
632.451	166.38
632.657	188.38
632.863	173.38
633.069	176.38
633.275	161.38
633.481	146.38
633.688	158.38
633.893	178.38
634.099	180.38
634.305	157.38
634.511	166.38
634.717	163.38
634.923	172.38
635.129	147.38
635.335	168.38
635.541	160.38
635.747	162.38
635.952	164.38
636.158	168.38
636.364	168.38
636.57	167.38
636.775	169.38
636.981	175.38
637.187	166.38
637.392	168.38
637.598	164.38
637.804	153.38
638.009	185.38
638.215	164.38
638.421	164.38
638.626	153.38
638.832	171.38
639.037	152.38
639.243	159.38
639.448	175.38
639.654	168.38
639.859	164.38
640.065	166.38
640.27	183.38
640.475	157.38
640.681	164.38
640.886	174.38
641.091	173.38
641.297	166.38
641.502	176.38
641.707	171.38
641.913	151.38
642.118	166.38
642.323	176.38
642.528	168.38
642.733	153.38
642.939	157.38
643.144	152.38
643.349	161.38
643.554	178.38
643.759	162.38
643.964	156.38
644.169	156.38
644.374	154.38
644.579	159.38
644.784	173.38
644.989	150.38
645.194	182.38
645.399	156.38
645.604	151.38
645.809	173.38
646.014	163.38
646.219	154.38
646.423	156.38
646.628	155.38
646.833	161.38
647.038	168.38
647.243	165.38
647.447	170.38
647.652	157.38
647.857	153.38
648.062	171.38
648.266	169.38
648.471	162.38
648.676	164.38
648.88	165.38
649.085	172.38
649.289	168.38
649.494	161.38
649.698	164.38
649.903	162.38
650.107	162.38
650.312	182.38
650.516	152.38
650.721	173.38
650.925	161.38
651.13	155.38
651.334	156.38
651.539	156.38
651.743	158.38
651.947	147.38
652.152	156.38
652.356	147.38
652.56	141.38
652.764	156.38
652.969	148.38
653.173	150.38
653.377	170.38
653.581	154.38
653.785	160.38
653.99	134.38
654.194	127.38
654.398	158.38
654.602	152.38
654.806	140.38
655.01	158.38
655.214	160.38
655.418	148.38
655.622	142.38
655.826	142.38
656.03	148.38
656.234	136.38
656.438	153.38
656.642	154.38
656.846	139.38
657.049	138.38
657.253	134.38
657.457	141.38
657.661	126.38
657.865	128.38
658.068	114.38
658.272	117.38
658.476	125.38
658.68	110.38
658.883	109.38
659.087	100.38
659.291	107.38
659.494	110.38
659.698	104.38
659.901	106.38
660.105	99.38
660.309	97.38
660.512	84.38
660.716	95.38
660.919	103.38
661.123	96.38
661.326	82.38
661.53	97.38
661.733	108.38
661.936	103.38
662.14	102.38
662.343	86.38
662.546	87.38
662.75	90.38
662.953	91.38
663.156	98.38
663.36	79.38
663.563	93.38
663.766	80.38
663.969	94.38
664.173	71.38
664.376	66.38
664.579	84.38
664.782	77.38
664.985	83.38
665.188	86.38
665.391	94.38
665.594	89.38
665.797	76.38
666	77.38
666.203	93.38
666.406	76.38
666.609	80.38
666.812	64.38
667.015	92.38
667.218	88.38
667.421	88.38
667.624	78.38
667.827	84.38
668.03	76.38
668.232	91.38
668.435	70.38
668.638	91.38
668.841	90.38
669.043	75.38
669.246	75.38
669.449	96.38
669.651	94.38
669.854	82.38
670.057	91.38
670.259	71.38
670.462	77.38
670.665	85.38
670.867	76.38
671.07	80.38
671.272	89.38
671.475	78.38
671.677	80.38
671.88	91.38
672.082	84.38
672.284	76.38
672.487	73.38
672.689	66.38
672.892	80.38
