Data from Fe(NO3)3@0.025M.TitratingCurve.Agarose3%dH2O.NegLispCup.LampEnergy10.LIBS07252019_HRD10591_16-56-15-335.txt Node
Date: Thu Jul 25 16:56:15 EDT 2019
User: cochatt
Spectrometer: HR+D1059
Trigger mode: 1
Integration Time (sec): 1.000000E-1
Scans to average: 1
Electric dark correction enabled: true
Nonlinearity correction enabled: false
Boxcar width: 0
XAxis mode: Wavelengths
Number of Pixels in Spectrum: 2048
>>>>>Begin Spectral Data<<<<<
223.165	-19.12
223.4	-19.12
223.635	-19.12
223.869	-24.12
224.104	-20.12
224.338	-16.12
224.573	-9.12
224.808	-12.12
225.042	-2.12
225.277	-15.12
225.511	1.88
225.746	-4.12
225.98	12.88
226.215	3.88
226.449	23.88
226.683	18.88
226.918	17.88
227.152	42.88
227.387	33.88
227.621	38.88
227.856	32.88
228.09	44.88
228.324	46.88
228.559	58.88
228.793	53.88
229.027	64.88
229.262	64.88
229.496	67.88
229.73	78.88
229.964	86.88
230.199	75.88
230.433	94.88
230.667	83.88
230.901	87.88
231.136	92.88
231.37	94.88
231.604	92.88
231.838	96.88
232.072	92.88
232.306	98.88
232.541	76.88
232.775	103.88
233.009	91.88
233.243	101.88
233.477	81.88
233.711	86.88
233.945	94.88
234.179	91.88
234.413	99.88
234.647	85.88
234.881	90.88
235.115	105.88
235.349	95.88
235.583	91.88
235.817	98.88
236.051	94.88
236.285	102.88
236.519	93.88
236.753	95.88
236.987	103.88
237.221	98.88
237.455	107.88
237.689	89.88
237.922	78.88
238.156	110.88
238.39	94.88
238.624	91.88
238.858	89.88
239.091	92.88
239.325	102.88
239.559	94.88
239.793	110.88
240.027	92.88
240.26	100.88
240.494	85.88
240.728	92.88
240.961	103.88
241.195	99.88
241.429	94.88
241.662	90.88
241.896	89.88
242.13	115.88
242.363	97.88
242.597	97.88
242.83	107.88
243.064	98.88
243.298	112.88
243.531	108.88
243.765	115.88
243.998	101.88
244.232	121.88
244.465	113.88
244.699	87.88
244.932	112.88
245.166	102.88
245.399	112.88
245.633	106.88
245.866	106.88
246.099	113.88
246.333	101.88
246.566	105.88
246.8	112.88
247.033	95.88
247.266	100.88
247.5	124.88
247.733	102.88
247.966	111.88
248.2	114.88
248.433	114.88
248.666	114.88
248.899	115.88
249.133	111.88
249.366	110.88
249.599	96.88
249.832	98.88
250.066	123.88
250.299	110.88
250.532	120.88
250.765	125.88
250.998	115.88
251.231	119.88
251.465	108.88
251.698	105.88
251.931	109.88
252.164	121.88
252.397	122.88
252.63	123.88
252.863	101.88
253.096	114.88
253.329	113.88
253.562	128.88
253.795	127.88
254.028	119.88
254.261	110.88
254.494	117.88
254.727	118.88
254.96	108.88
255.193	130.88
255.426	118.88
255.659	123.88
255.892	128.88
256.124	119.88
256.357	122.88
256.59	132.88
256.823	123.88
257.056	127.88
257.289	137.88
257.521	128.88
257.754	132.88
257.987	107.88
258.22	142.88
258.452	108.88
258.685	113.88
258.918	138.88
259.151	137.88
259.383	128.88
259.616	128.88
259.849	125.88
260.081	153.88
260.314	137.88
260.547	132.88
260.779	121.88
261.012	152.88
261.244	136.88
261.477	138.88
261.71	136.88
261.942	143.88
262.175	132.88
262.407	129.88
262.64	125.88
262.872	117.88
263.105	137.88
263.337	136.88
263.57	122.88
263.802	123.88
264.035	151.88
264.267	134.88
264.499	138.88
264.732	138.88
264.964	140.88
265.197	155.88
265.429	133.88
265.661	141.88
265.894	139.88
266.126	150.88
266.358	126.88
266.591	117.88
266.823	139.88
267.055	139.88
267.287	135.88
267.52	139.88
267.752	146.88
267.984	162.88
268.216	136.88
268.448	137.88
268.681	127.88
268.913	150.88
269.145	143.88
269.377	153.88
269.609	145.88
269.841	128.88
270.073	144.88
270.306	166.88
270.538	147.88
270.77	149.88
271.002	152.88
271.234	156.88
271.466	149.88
271.698	158.88
271.93	146.88
272.162	154.88
272.394	160.88
272.626	151.88
272.858	144.88
273.09	162.88
273.322	153.88
273.553	168.88
273.785	167.88
274.017	164.88
274.249	163.88
274.481	156.88
274.713	161.88
274.945	167.88
275.176	155.88
275.408	162.88
275.64	152.88
275.872	152.88
276.104	162.88
276.335	170.88
276.567	159.88
276.799	162.88
277.031	141.88
277.262	150.88
277.494	161.88
277.726	149.88
277.957	158.88
278.189	168.88
278.421	154.88
278.652	170.88
278.884	161.88
279.115	158.88
279.347	162.88
279.579	172.88
279.81	176.88
280.042	167.88
280.273	172.88
280.505	165.88
280.736	161.88
280.968	160.88
281.199	175.88
281.431	179.88
281.662	181.88
281.894	159.88
282.125	170.88
282.356	176.88
282.588	158.88
282.819	188.88
283.051	183.88
283.282	184.88
283.513	157.88
283.745	184.88
283.976	194.88
284.207	177.88
284.439	191.88
284.67	166.88
284.901	179.88
285.132	176.88
285.364	183.88
285.595	171.88
285.826	186.88
286.057	179.88
286.288	188.88
286.52	182.88
286.751	179.88
286.982	182.88
287.213	180.88
287.444	189.88
287.675	199.88
287.906	163.88
288.138	202.88
288.369	196.88
288.6	195.88
288.831	184.88
289.062	186.88
289.293	179.88
289.524	182.88
289.755	195.88
289.986	201.88
290.217	174.88
290.448	178.88
290.679	196.88
290.91	181.88
291.141	186.88
291.371	198.88
291.602	199.88
291.833	197.88
292.064	182.88
292.295	198.88
292.526	192.88
292.757	201.88
292.987	189.88
293.218	195.88
293.449	184.88
293.68	200.88
293.91	190.88
294.141	204.88
294.372	188.88
294.603	199.88
294.833	185.88
295.064	198.88
295.295	203.88
295.525	192.88
295.756	202.88
295.987	191.88
296.217	196.88
296.448	195.88
296.679	202.88
296.909	213.88
297.14	209.88
297.37	212.88
297.601	201.88
297.831	211.88
298.062	208.88
298.292	214.88
298.523	222.88
298.753	208.88
298.984	202.88
299.214	214.88
299.445	200.88
299.675	201.88
299.905	203.88
300.136	196.88
300.366	203.88
300.597	205.88
300.827	201.88
301.057	203.88
301.288	211.88
301.518	221.88
301.748	202.88
301.979	224.88
302.209	216.88
302.439	215.88
302.669	223.88
302.9	211.88
303.13	208.88
303.36	213.88
303.59	239.88
303.82	212.88
304.051	218.88
304.281	218.88
304.511	216.88
304.741	226.88
304.971	205.88
305.201	223.88
305.431	211.88
305.661	201.88
305.891	222.88
306.121	219.88
306.352	220.88
306.582	218.88
306.812	211.88
307.042	210.88
307.272	222.88
307.502	213.88
307.731	230.88
307.961	214.88
308.191	209.88
308.421	206.88
308.651	212.88
308.881	212.88
309.111	228.88
309.341	220.88
309.571	217.88
309.8	217.88
310.03	224.88
310.26	216.88
310.49	223.88
310.72	234.88
310.949	231.88
311.179	215.88
311.409	229.88
311.639	218.88
311.868	237.88
312.098	229.88
312.328	232.88
312.557	225.88
312.787	243.88
313.017	241.88
313.246	259.88
313.476	223.88
313.706	231.88
313.935	230.88
314.165	251.88
314.394	240.88
314.624	246.88
314.853	230.88
315.083	250.88
315.312	240.88
315.542	227.88
315.771	236.88
316.001	242.88
316.23	244.88
316.46	229.88
316.689	236.88
316.919	242.88
317.148	220.88
317.377	249.88
317.607	240.88
317.836	244.88
318.065	230.88
318.295	231.88
318.524	218.88
318.753	238.88
318.983	240.88
319.212	231.88
319.441	228.88
319.67	227.88
319.9	233.88
320.129	242.88
320.358	232.88
320.587	246.88
320.816	254.88
321.046	247.88
321.275	249.88
321.504	243.88
321.733	224.88
321.962	239.88
322.191	231.88
322.42	246.88
322.649	235.88
322.878	244.88
323.108	264.88
323.337	246.88
323.566	228.88
323.795	251.88
324.024	243.88
324.253	271.88
324.482	254.88
324.71	240.88
324.939	242.88
325.168	259.88
325.397	258.88
325.626	256.88
325.855	250.88
326.084	262.88
326.313	257.88
326.542	279.88
326.77	274.88
326.999	278.88
327.228	256.88
327.457	255.88
327.686	248.88
327.914	254.88
328.143	266.88
328.372	264.88
328.6	268.88
328.829	244.88
329.058	274.88
329.287	252.88
329.515	268.88
329.744	272.88
329.972	258.88
330.201	274.88
330.43	267.88
330.658	268.88
330.887	275.88
331.115	267.88
331.344	266.88
331.572	278.88
331.801	284.88
332.03	289.88
332.258	293.88
332.486	268.88
332.715	298.88
332.943	315.88
333.172	306.88
333.4	316.88
333.629	323.88
333.857	313.88
334.085	326.88
334.314	315.88
334.542	328.88
334.771	307.88
334.999	312.88
335.227	302.88
335.455	310.88
335.684	302.88
335.912	305.88
336.14	270.88
336.369	291.88
336.597	304.88
336.825	286.88
337.053	320.88
337.281	304.88
337.51	311.88
337.738	318.88
337.966	294.88
338.194	281.88
338.422	275.88
338.65	281.88
338.878	275.88
339.106	282.88
339.334	293.88
339.562	282.88
339.79	302.88
340.018	295.88
340.246	298.88
340.474	268.88
340.702	306.88
340.93	274.88
341.158	278.88
341.386	282.88
341.614	284.88
341.842	285.88
342.07	288.88
342.298	279.88
342.526	285.88
342.754	291.88
342.981	289.88
343.209	294.88
343.437	298.88
343.665	318.88
343.893	331.88
344.12	320.88
344.348	308.88
344.576	299.88
344.804	289.88
345.031	278.88
345.259	305.88
345.487	304.88
345.714	280.88
345.942	295.88
346.17	284.88
346.397	277.88
346.625	289.88
346.853	292.88
347.08	257.88
347.308	275.88
347.535	265.88
347.763	286.88
347.99	287.88
348.218	265.88
348.445	260.88
348.673	262.88
348.9	278.88
349.128	259.88
349.355	274.88
349.583	271.88
349.81	263.88
350.037	267.88
350.265	270.88
350.492	291.88
350.72	274.88
350.947	283.88
351.174	270.88
351.402	267.88
351.629	274.88
351.856	281.88
352.083	276.88
352.311	293.88
352.538	279.88
352.765	267.88
352.992	292.88
353.22	276.88
353.447	274.88
353.674	275.88
353.901	271.88
354.128	271.88
354.355	248.88
354.583	269.88
354.81	272.88
355.037	281.88
355.264	282.88
355.491	243.88
355.718	251.88
355.945	269.88
356.172	281.88
356.399	256.88
356.626	258.88
356.853	277.88
357.08	260.88
357.307	262.88
357.534	288.88
357.761	252.88
357.988	291.88
358.215	269.88
358.441	274.88
358.668	278.88
358.895	294.88
359.122	275.88
359.349	258.88
359.576	268.88
359.802	283.88
360.029	266.88
360.256	268.88
360.483	258.88
360.709	276.88
360.936	289.88
361.163	293.88
361.39	272.88
361.616	278.88
361.843	272.88
362.07	259.88
362.296	279.88
362.523	273.88
362.749	281.88
362.976	275.88
363.203	277.88
363.429	274.88
363.656	291.88
363.882	275.88
364.109	267.88
364.335	287.88
364.562	294.88
364.788	286.88
365.015	287.88
365.241	284.88
365.468	280.88
365.694	289.88
365.92	274.88
366.147	278.88
366.373	269.88
366.599	284.88
366.826	275.88
367.052	279.88
367.278	272.88
367.505	289.88
367.731	282.88
367.957	299.88
368.184	296.88
368.41	292.88
368.636	290.88
368.862	285.88
369.089	282.88
369.315	272.88
369.541	289.88
369.767	285.88
369.993	300.88
370.219	283.88
370.445	296.88
370.672	302.88
370.898	278.88
371.124	280.88
371.35	295.88
371.576	290.88
371.802	289.88
372.028	310.88
372.254	317.88
372.48	303.88
372.706	306.88
372.932	321.88
373.158	298.88
373.384	314.88
373.61	305.88
373.835	301.88
374.061	310.88
374.287	290.88
374.513	313.88
374.739	324.88
374.965	331.88
375.191	318.88
375.416	323.88
375.642	307.88
375.868	314.88
376.094	291.88
376.319	286.88
376.545	317.88
376.771	304.88
376.997	299.88
377.222	310.88
377.448	286.88
377.674	290.88
377.899	313.88
378.125	294.88
378.35	301.88
378.576	289.88
378.802	295.88
379.027	292.88
379.253	308.88
379.478	294.88
379.704	286.88
379.929	295.88
380.155	281.88
380.38	306.88
380.606	290.88
380.831	305.88
381.057	306.88
381.282	311.88
381.507	309.88
381.733	319.88
381.958	297.88
382.184	304.88
382.409	320.88
382.634	309.88
382.86	306.88
383.085	320.88
383.31	318.88
383.535	318.88
383.761	318.88
383.986	311.88
384.211	330.88
384.436	320.88
384.662	315.88
384.887	342.88
385.112	328.88
385.337	333.88
385.562	350.88
385.787	348.88
386.013	351.88
386.238	336.88
386.463	338.88
386.688	358.88
386.913	333.88
387.138	336.88
387.363	339.88
387.588	343.88
387.813	333.88
388.038	337.88
388.263	335.88
388.488	341.88
388.713	336.88
388.938	339.88
389.163	332.88
389.387	336.88
389.612	329.88
389.837	329.88
390.062	332.88
390.287	331.88
390.512	337.88
390.736	362.88
390.961	361.88
391.186	342.88
391.411	356.88
391.636	347.88
391.86	379.88
392.085	376.88
392.31	366.88
392.534	359.88
392.759	381.88
392.984	346.88
393.208	344.88
393.433	352.88
393.658	360.88
393.882	353.88
394.107	353.88
394.331	350.88
394.556	370.88
394.78	371.88
395.005	343.88
395.229	374.88
395.454	355.88
395.678	363.88
395.903	373.88
396.127	362.88
396.352	382.88
396.576	376.88
396.801	382.88
397.025	372.88
397.249	386.88
397.474	394.88
397.698	391.88
397.922	385.88
398.147	386.88
398.371	390.88
398.595	387.88
398.82	433.88
399.044	420.88
399.268	453.88
399.492	477.88
399.717	498.88
399.941	502.88
400.165	455.88
400.389	442.88
400.613	441.88
400.837	450.88
401.062	415.88
401.286	392.88
401.51	407.88
401.734	413.88
401.958	403.88
402.182	432.88
402.406	406.88
402.63	410.88
402.854	434.88
403.078	455.88
403.302	423.88
403.526	419.88
403.75	441.88
403.974	428.88
404.198	434.88
404.422	468.88
404.645	433.88
404.869	436.88
405.093	457.88
405.317	422.88
405.541	434.88
405.765	418.88
405.988	427.88
406.212	447.88
406.436	436.88
406.66	465.88
406.883	452.88
407.107	470.88
407.331	487.88
407.555	497.88
407.778	461.88
408.002	495.88
408.226	474.88
408.449	444.88
408.673	454.88
408.896	447.88
409.12	463.88
409.344	463.88
409.567	445.88
409.791	443.88
410.014	455.88
410.238	435.88
410.461	415.88
410.685	417.88
410.908	427.88
411.132	433.88
411.355	420.88
411.578	425.88
411.802	431.88
412.025	438.88
412.249	418.88
412.472	431.88
412.695	417.88
412.919	415.88
413.142	419.88
413.365	421.88
413.589	431.88
413.812	404.88
414.035	423.88
414.258	404.88
414.482	421.88
414.705	416.88
414.928	419.88
415.151	401.88
415.374	399.88
415.597	401.88
415.821	390.88
416.044	404.88
416.267	399.88
416.49	411.88
416.713	388.88
416.936	398.88
417.159	383.88
417.382	382.88
417.605	384.88
417.828	381.88
418.051	412.88
418.274	392.88
418.497	390.88
418.72	393.88
418.943	416.88
419.166	396.88
419.389	414.88
419.611	439.88
419.834	388.88
420.057	407.88
420.28	402.88
420.503	379.88
420.726	390.88
420.948	396.88
421.171	385.88
421.394	392.88
421.617	392.88
421.839	387.88
422.062	388.88
422.285	376.88
422.507	421.88
422.73	398.88
422.953	398.88
423.175	398.88
423.398	392.88
423.621	408.88
423.843	393.88
424.066	376.88
424.288	374.88
424.511	378.88
424.733	390.88
424.956	394.88
425.178	395.88
425.401	375.88
425.623	409.88
425.846	382.88
426.068	400.88
426.291	384.88
426.513	388.88
426.735	372.88
426.958	393.88
427.18	368.88
427.402	372.88
427.625	379.88
427.847	384.88
428.069	360.88
428.292	370.88
428.514	378.88
428.736	377.88
428.958	352.88
429.181	364.88
429.403	360.88
429.625	371.88
429.847	358.88
430.069	372.88
430.292	370.88
430.514	359.88
430.736	372.88
430.958	354.88
431.18	370.88
431.402	349.88
431.624	370.88
431.846	357.88
432.068	394.88
432.29	360.88
432.512	370.88
432.734	364.88
432.956	370.88
433.178	385.88
433.4	364.88
433.622	366.88
433.844	382.88
434.066	390.88
434.287	370.88
434.509	374.88
434.731	380.88
434.953	389.88
435.175	374.88
435.397	384.88
435.618	384.88
435.84	378.88
436.062	368.88
436.284	371.88
436.505	369.88
436.727	377.88
436.949	368.88
437.17	352.88
437.392	370.88
437.614	360.88
437.835	345.88
438.057	323.88
438.278	328.88
438.5	368.88
438.721	354.88
438.943	353.88
439.165	361.88
439.386	362.88
439.608	366.88
439.829	372.88
440.05	357.88
440.272	378.88
440.493	378.88
440.715	357.88
440.936	373.88
441.158	381.88
441.379	366.88
441.6	395.88
441.822	400.88
442.043	380.88
442.264	386.88
442.486	386.88
442.707	378.88
442.928	382.88
443.149	383.88
443.371	371.88
443.592	393.88
443.813	396.88
444.034	385.88
444.255	418.88
444.476	395.88
444.698	425.88
444.919	441.88
445.14	487.88
445.361	432.88
445.582	400.88
445.803	370.88
446.024	366.88
446.245	375.88
446.466	385.88
446.687	354.88
446.908	363.88
447.129	358.88
447.35	354.88
447.571	362.88
447.792	352.88
448.013	348.88
448.234	351.88
448.455	326.88
448.675	342.88
448.896	337.88
449.117	312.88
449.338	335.88
449.559	351.88
449.779	338.88
450	344.88
450.221	322.88
450.442	336.88
450.662	329.88
450.883	330.88
451.104	353.88
451.324	344.88
451.545	340.88
451.766	338.88
451.986	346.88
452.207	335.88
452.428	346.88
452.648	336.88
452.869	335.88
453.089	346.88
453.31	344.88
453.53	336.88
453.751	330.88
453.971	306.88
454.192	336.88
454.412	328.88
454.633	329.88
454.853	314.88
455.073	328.88
455.294	311.88
455.514	325.88
455.734	322.88
455.955	318.88
456.175	310.88
456.395	335.88
456.616	317.88
456.836	339.88
457.056	329.88
457.276	310.88
457.497	311.88
457.717	310.88
457.937	315.88
458.157	323.88
458.377	325.88
458.598	338.88
458.818	326.88
459.038	340.88
459.258	336.88
459.478	360.88
459.698	372.88
459.918	384.88
460.138	364.88
460.358	381.88
460.578	404.88
460.798	413.88
461.018	410.88
461.238	399.88
461.458	404.88
461.678	402.88
461.898	411.88
462.118	401.88
462.338	441.88
462.558	433.88
462.777	440.88
462.997	450.88
463.217	478.88
463.437	487.88
463.657	459.88
463.876	444.88
464.096	450.88
464.316	416.88
464.536	436.88
464.755	441.88
464.975	442.88
465.195	410.88
465.414	400.88
465.634	412.88
465.854	371.88
466.073	369.88
466.293	375.88
466.512	353.88
466.732	370.88
466.951	376.88
467.171	346.88
467.391	345.88
467.61	348.88
467.829	348.88
468.049	335.88
468.268	338.88
468.488	336.88
468.707	343.88
468.927	346.88
469.146	330.88
469.365	358.88
469.585	347.88
469.804	345.88
470.023	360.88
470.243	362.88
470.462	367.88
470.681	376.88
470.901	367.88
471.12	370.88
471.339	352.88
471.558	326.88
471.777	340.88
471.997	360.88
472.216	382.88
472.435	335.88
472.654	352.88
472.873	351.88
473.092	352.88
473.311	340.88
473.53	356.88
473.749	371.88
473.968	358.88
474.187	357.88
474.406	352.88
474.625	352.88
474.844	339.88
475.063	347.88
475.282	360.88
475.501	333.88
475.72	367.88
475.939	351.88
476.158	351.88
476.377	376.88
476.596	363.88
476.814	345.88
477.033	385.88
477.252	386.88
477.471	364.88
477.69	400.88
477.908	402.88
478.127	402.88
478.346	398.88
478.564	418.88
478.783	389.88
479.002	413.88
479.22	409.88
479.439	421.88
479.658	396.88
479.876	427.88
480.095	416.88
480.313	420.88
480.532	436.88
480.751	417.88
480.969	430.88
481.188	422.88
481.406	410.88
481.624	391.88
481.843	416.88
482.061	411.88
482.28	400.88
482.498	410.88
482.717	392.88
482.935	382.88
483.153	414.88
483.372	410.88
483.59	411.88
483.808	421.88
484.027	386.88
484.245	398.88
484.463	416.88
484.681	407.88
484.9	404.88
485.118	415.88
485.336	406.88
485.554	409.88
485.772	419.88
485.99	420.88
486.209	413.88
486.427	427.88
486.645	388.88
486.863	404.88
487.081	430.88
487.299	414.88
487.517	418.88
487.735	410.88
487.953	419.88
488.171	426.88
488.389	415.88
488.607	396.88
488.825	394.88
489.043	402.88
489.261	415.88
489.479	417.88
489.696	419.88
489.914	420.88
490.132	390.88
490.35	438.88
490.568	431.88
490.786	438.88
491.003	423.88
491.221	428.88
491.439	422.88
491.657	412.88
491.874	426.88
492.092	423.88
492.31	416.88
492.527	439.88
492.745	422.88
492.963	420.88
493.18	414.88
493.398	431.88
493.615	434.88
493.833	423.88
494.05	430.88
494.268	432.88
494.485	426.88
494.703	408.88
494.92	423.88
495.138	439.88
495.355	436.88
495.573	440.88
495.79	441.88
496.008	446.88
496.225	433.88
496.442	454.88
496.66	468.88
496.877	436.88
497.094	460.88
497.312	473.88
497.529	470.88
497.746	495.88
497.963	499.88
498.181	515.88
498.398	529.88
498.615	550.88
498.832	577.88
499.049	613.88
499.267	645.88
499.484	693.88
499.701	705.88
499.918	752.88
500.135	794.88
500.352	856.88
500.569	896.88
500.786	870.88
501.003	840.88
501.22	771.88
501.437	716.88
501.654	672.88
501.871	658.88
502.088	615.88
502.305	576.88
502.522	564.88
502.739	582.88
502.956	520.88
503.172	492.88
503.389	495.88
503.606	515.88
503.823	499.88
504.04	474.88
504.256	488.88
504.473	491.88
504.69	483.88
504.907	485.88
505.123	438.88
505.34	450.88
505.557	450.88
505.773	416.88
505.99	406.88
506.207	406.88
506.423	377.88
506.64	394.88
506.856	392.88
507.073	389.88
507.289	399.88
507.506	392.88
507.722	391.88
507.939	380.88
508.155	387.88
508.372	374.88
508.588	369.88
508.805	387.88
509.021	399.88
509.238	380.88
509.454	364.88
509.67	370.88
509.887	356.88
510.103	370.88
510.319	372.88
510.536	371.88
510.752	346.88
510.968	347.88
511.184	360.88
511.401	337.88
511.617	354.88
511.833	373.88
512.049	358.88
512.265	350.88
512.481	379.88
512.698	363.88
512.914	347.88
513.13	354.88
513.346	348.88
513.562	350.88
513.778	354.88
513.994	372.88
514.21	366.88
514.426	368.88
514.642	365.88
514.858	351.88
515.074	374.88
515.29	386.88
515.506	368.88
515.721	376.88
515.937	370.88
516.153	385.88
516.369	381.88
516.585	415.88
516.801	393.88
517.016	404.88
517.232	424.88
517.448	448.88
517.664	454.88
517.879	422.88
518.095	427.88
518.311	423.88
518.527	423.88
518.742	399.88
518.958	402.88
519.173	387.88
519.389	393.88
519.605	375.88
519.82	369.88
520.036	380.88
520.251	372.88
520.467	372.88
520.682	368.88
520.898	367.88
521.113	346.88
521.329	355.88
521.544	339.88
521.76	358.88
521.975	354.88
522.19	348.88
522.406	332.88
522.621	338.88
522.836	343.88
523.052	339.88
523.267	327.88
523.482	344.88
523.698	334.88
523.913	325.88
524.128	350.88
524.343	346.88
524.559	349.88
524.774	347.88
524.989	342.88
525.204	329.88
525.419	341.88
525.634	332.88
525.849	322.88
526.064	293.88
526.28	353.88
526.495	324.88
526.71	322.88
526.925	310.88
527.14	330.88
527.355	326.88
527.57	322.88
527.785	328.88
527.999	330.88
528.214	332.88
528.429	315.88
528.644	332.88
528.859	332.88
529.074	331.88
529.289	332.88
529.503	316.88
529.718	336.88
529.933	317.88
530.148	314.88
530.363	330.88
530.577	346.88
530.792	324.88
531.007	306.88
531.221	315.88
531.436	325.88
531.651	324.88
531.865	330.88
532.08	331.88
532.295	321.88
532.509	321.88
532.724	306.88
532.938	304.88
533.153	309.88
533.367	328.88
533.582	313.88
533.796	303.88
534.011	325.88
534.225	325.88
534.44	319.88
534.654	313.88
534.868	315.88
535.083	319.88
535.297	322.88
535.511	321.88
535.726	318.88
535.94	318.88
536.154	295.88
536.369	307.88
536.583	323.88
536.797	309.88
537.011	304.88
537.225	329.88
537.44	310.88
537.654	290.88
537.868	291.88
538.082	301.88
538.296	314.88
538.51	319.88
538.724	312.88
538.938	306.88
539.153	293.88
539.367	296.88
539.581	291.88
539.795	294.88
540.009	305.88
540.222	315.88
540.436	293.88
540.65	308.88
540.864	282.88
541.078	301.88
541.292	296.88
541.506	318.88
541.72	302.88
541.934	310.88
542.147	317.88
542.361	292.88
542.575	294.88
542.789	311.88
543.002	284.88
543.216	299.88
543.43	302.88
543.644	304.88
543.857	298.88
544.071	307.88
544.285	300.88
544.498	302.88
544.712	293.88
544.925	315.88
545.139	313.88
545.352	294.88
545.566	302.88
545.779	308.88
545.993	291.88
546.206	298.88
546.42	308.88
546.633	310.88
546.847	306.88
547.06	298.88
547.274	300.88
547.487	306.88
547.7	313.88
547.914	307.88
548.127	298.88
548.34	311.88
548.554	312.88
548.767	303.88
548.98	302.88
549.193	308.88
549.407	299.88
549.62	306.88
549.833	312.88
550.046	295.88
550.259	310.88
550.473	294.88
550.686	312.88
550.899	317.88
551.112	296.88
551.325	291.88
551.538	304.88
551.751	304.88
551.964	312.88
552.177	300.88
552.39	314.88
552.603	311.88
552.816	311.88
553.029	326.88
553.242	304.88
553.455	310.88
553.667	329.88
553.88	319.88
554.093	302.88
554.306	289.88
554.519	310.88
554.732	300.88
554.944	292.88
555.157	306.88
555.37	298.88
555.583	288.88
555.795	296.88
556.008	268.88
556.221	276.88
556.433	284.88
556.646	281.88
556.859	280.88
557.071	273.88
557.284	274.88
557.496	277.88
557.709	275.88
557.921	264.88
558.134	269.88
558.346	280.88
558.559	256.88
558.771	274.88
558.984	275.88
559.196	266.88
559.409	266.88
559.621	271.88
559.833	255.88
560.046	271.88
560.258	265.88
560.47	265.88
560.683	268.88
560.895	258.88
561.107	260.88
561.32	254.88
561.532	273.88
561.744	263.88
561.956	274.88
562.168	284.88
562.381	263.88
562.593	297.88
562.805	267.88
563.017	280.88
563.229	285.88
563.441	276.88
563.653	261.88
563.865	273.88
564.077	280.88
564.289	281.88
564.501	272.88
564.713	279.88
564.925	292.88
565.137	281.88
565.349	296.88
565.561	298.88
565.773	312.88
565.985	316.88
566.197	325.88
566.408	329.88
566.62	337.88
566.832	353.88
567.044	355.88
567.255	358.88
567.467	353.88
567.679	367.88
567.891	383.88
568.102	396.88
568.314	357.88
568.526	350.88
568.737	331.88
568.949	325.88
569.161	299.88
569.372	293.88
569.584	298.88
569.795	286.88
570.007	291.88
570.218	278.88
570.43	277.88
570.641	270.88
570.853	270.88
571.064	265.88
571.276	267.88
571.487	283.88
571.698	247.88
571.91	241.88
572.121	242.88
572.333	259.88
572.544	243.88
572.755	256.88
572.966	220.88
573.178	222.88
573.389	218.88
573.6	234.88
573.811	229.88
574.023	226.88
574.234	242.88
574.445	224.88
574.656	250.88
574.867	236.88
575.078	231.88
575.289	223.88
575.501	219.88
575.712	243.88
575.923	223.88
576.134	218.88
576.345	213.88
576.556	225.88
576.767	202.88
576.978	215.88
577.188	219.88
577.399	226.88
577.61	203.88
577.821	213.88
578.032	206.88
578.243	210.88
578.454	225.88
578.665	212.88
578.875	211.88
579.086	217.88
579.297	195.88
579.508	207.88
579.718	216.88
579.929	210.88
580.14	204.88
580.35	219.88
580.561	203.88
580.772	197.88
580.982	216.88
581.193	219.88
581.403	191.88
581.614	214.88
581.825	191.88
582.035	200.88
582.246	208.88
582.456	214.88
582.667	201.88
582.877	194.88
583.087	204.88
583.298	201.88
583.508	198.88
583.719	202.88
583.929	211.88
584.139	202.88
584.35	178.88
584.56	217.88
584.77	194.88
584.981	204.88
585.191	182.88
585.401	188.88
585.611	196.88
585.821	222.88
586.032	195.88
586.242	184.88
586.452	190.88
586.662	200.88
586.872	186.88
587.082	190.88
587.292	195.88
587.502	198.88
587.713	207.88
587.923	198.88
588.133	218.88
588.343	201.88
588.553	184.88
588.762	190.88
588.972	194.88
589.182	190.88
589.392	207.88
589.602	190.88
589.812	195.88
590.022	209.88
590.232	201.88
590.441	204.88
590.651	191.88
590.861	213.88
591.071	191.88
591.281	195.88
591.49	194.88
591.7	193.88
591.91	190.88
592.119	221.88
592.329	209.88
592.539	211.88
592.748	214.88
592.958	198.88
593.167	211.88
593.377	204.88
593.587	231.88
593.796	221.88
594.006	211.88
594.215	221.88
594.424	207.88
594.634	217.88
594.843	201.88
595.053	217.88
595.262	210.88
595.472	221.88
595.681	202.88
595.89	192.88
596.1	191.88
596.309	200.88
596.518	186.88
596.727	192.88
596.937	185.88
597.146	171.88
597.355	177.88
597.564	178.88
597.774	190.88
597.983	190.88
598.192	182.88
598.401	167.88
598.61	196.88
598.819	170.88
599.028	172.88
599.237	166.88
599.446	178.88
599.655	159.88
599.864	171.88
600.073	174.88
600.282	194.88
600.491	169.88
600.7	176.88
600.909	165.88
601.118	175.88
601.327	185.88
601.536	159.88
601.745	155.88
601.953	156.88
602.162	169.88
602.371	165.88
602.58	172.88
602.789	157.88
602.997	165.88
603.206	170.88
603.415	171.88
603.623	179.88
603.832	177.88
604.041	176.88
604.249	165.88
604.458	174.88
604.666	166.88
604.875	159.88
605.084	168.88
605.292	171.88
605.501	176.88
605.709	168.88
605.918	162.88
606.126	166.88
606.334	168.88
606.543	184.88
606.751	165.88
606.96	172.88
607.168	154.88
607.376	166.88
607.585	156.88
607.793	162.88
608.001	154.88
608.21	156.88
608.418	151.88
608.626	154.88
608.834	166.88
609.043	162.88
609.251	162.88
609.459	158.88
609.667	182.88
609.875	176.88
610.083	164.88
610.291	172.88
610.499	155.88
610.707	167.88
610.916	156.88
611.124	154.88
611.332	167.88
611.54	158.88
611.748	155.88
611.955	162.88
612.163	160.88
612.371	175.88
612.579	152.88
612.787	164.88
612.995	160.88
613.203	151.88
613.411	147.88
613.618	158.88
613.826	150.88
614.034	163.88
614.242	157.88
614.449	151.88
614.657	146.88
614.865	165.88
615.072	156.88
615.28	158.88
615.488	154.88
615.695	157.88
615.903	149.88
616.111	146.88
616.318	164.88
616.526	166.88
616.733	160.88
616.941	148.88
617.148	153.88
617.356	152.88
617.563	155.88
617.771	164.88
617.978	150.88
618.185	149.88
618.393	142.88
618.6	174.88
618.807	149.88
619.015	160.88
619.222	157.88
619.429	163.88
619.637	154.88
619.844	159.88
620.051	155.88
620.258	162.88
620.466	154.88
620.673	158.88
620.88	144.88
621.087	155.88
621.294	158.88
621.501	142.88
621.708	149.88
621.915	155.88
622.122	148.88
622.329	149.88
622.536	148.88
622.743	146.88
622.95	153.88
623.157	158.88
623.364	134.88
623.571	155.88
623.778	147.88
623.985	159.88
624.192	169.88
624.399	145.88
624.606	160.88
624.812	144.88
625.019	126.88
625.226	146.88
625.433	134.88
625.639	138.88
625.846	156.88
626.053	137.88
626.259	145.88
626.466	146.88
626.673	146.88
626.879	134.88
627.086	145.88
627.293	161.88
627.499	168.88
627.706	137.88
627.912	143.88
628.119	140.88
628.325	140.88
628.532	141.88
628.738	148.88
628.945	146.88
629.151	135.88
629.357	136.88
629.564	134.88
629.77	125.88
629.976	137.88
630.183	151.88
630.389	140.88
630.595	128.88
630.802	147.88
631.008	136.88
631.214	132.88
631.42	134.88
631.627	140.88
631.833	144.88
632.039	127.88
632.245	144.88
632.451	146.88
632.657	130.88
632.863	135.88
633.069	125.88
633.275	144.88
633.481	132.88
633.688	136.88
633.893	140.88
634.099	134.88
634.305	148.88
634.511	131.88
634.717	139.88
634.923	133.88
635.129	155.88
635.335	130.88
635.541	140.88
635.747	123.88
635.952	152.88
636.158	155.88
636.364	127.88
636.57	134.88
636.775	129.88
636.981	159.88
637.187	147.88
637.392	133.88
637.598	124.88
637.804	136.88
638.009	147.88
638.215	129.88
638.421	128.88
638.626	146.88
638.832	140.88
639.037	135.88
639.243	126.88
639.448	138.88
639.654	132.88
639.859	120.88
640.065	132.88
640.27	131.88
640.475	145.88
640.681	127.88
640.886	130.88
641.091	139.88
641.297	144.88
641.502	126.88
641.707	146.88
641.913	142.88
642.118	123.88
642.323	138.88
642.528	128.88
642.733	128.88
642.939	139.88
643.144	113.88
643.349	140.88
643.554	143.88
643.759	124.88
643.964	134.88
644.169	148.88
644.374	139.88
644.579	129.88
644.784	127.88
644.989	138.88
645.194	141.88
645.399	144.88
645.604	148.88
645.809	123.88
646.014	126.88
646.219	134.88
646.423	132.88
646.628	137.88
646.833	118.88
647.038	127.88
647.243	132.88
647.447	148.88
647.652	123.88
647.857	137.88
648.062	136.88
648.266	128.88
648.471	146.88
648.676	140.88
648.88	140.88
649.085	158.88
649.289	131.88
649.494	127.88
649.698	138.88
649.903	135.88
650.107	138.88
650.312	137.88
650.516	143.88
650.721	143.88
650.925	139.88
651.13	144.88
651.334	140.88
651.539	126.88
651.743	127.88
651.947	137.88
652.152	143.88
652.356	153.88
652.56	152.88
652.764	130.88
652.969	138.88
653.173	123.88
653.377	142.88
653.581	130.88
653.785	139.88
653.99	132.88
654.194	114.88
654.398	132.88
654.602	140.88
654.806	136.88
655.01	131.88
655.214	143.88
655.418	139.88
655.622	129.88
655.826	132.88
656.03	138.88
656.234	143.88
656.438	138.88
656.642	148.88
656.846	144.88
657.049	127.88
657.253	134.88
657.457	131.88
657.661	119.88
657.865	123.88
658.068	132.88
658.272	110.88
658.476	126.88
658.68	115.88
658.883	107.88
659.087	108.88
659.291	109.88
659.494	111.88
659.698	101.88
659.901	95.88
660.105	94.88
660.309	103.88
660.512	88.88
660.716	98.88
660.919	87.88
661.123	97.88
661.326	99.88
661.53	95.88
661.733	85.88
661.936	87.88
662.14	91.88
662.343	88.88
662.546	81.88
662.75	88.88
662.953	80.88
663.156	87.88
663.36	83.88
663.563	79.88
663.766	69.88
663.969	72.88
664.173	61.88
664.376	87.88
664.579	71.88
664.782	77.88
664.985	82.88
665.188	80.88
665.391	74.88
665.594	86.88
665.797	73.88
666	91.88
666.203	71.88
666.406	80.88
666.609	87.88
666.812	76.88
667.015	90.88
667.218	75.88
667.421	87.88
667.624	84.88
667.827	72.88
668.03	81.88
668.232	71.88
668.435	80.88
668.638	80.88
668.841	89.88
669.043	82.88
669.246	84.88
669.449	71.88
669.651	82.88
669.854	86.88
670.057	78.88
670.259	78.88
670.462	82.88
670.665	84.88
670.867	90.88
671.07	90.88
671.272	72.88
671.475	74.88
671.677	68.88
671.88	79.88
672.082	78.88
672.284	86.88
672.487	78.88
672.689	63.88
672.892	71.88
