Data from Fe(NO3)3@0.1M.TitratingCurve.Agarose3%dH2O.NegLispCup.LampEnergy10.LIBS07252019_HRD10591_16-38-01-331.txt Node
Date: Thu Jul 25 16:38:01 EDT 2019
User: cochatt
Spectrometer: HR+D1059
Trigger mode: 1
Integration Time (sec): 1.000000E-1
Scans to average: 1
Electric dark correction enabled: true
Nonlinearity correction enabled: false
Boxcar width: 0
XAxis mode: Wavelengths
Number of Pixels in Spectrum: 2048
>>>>>Begin Spectral Data<<<<<
223.165	-14.94
223.4	-14.94
223.635	-14.94
223.869	-14.94
224.104	-19.94
224.338	-14.94
224.573	-7.94
224.808	-9.94
225.042	-13.94
225.277	-10.94
225.511	3.06
225.746	-2.94
225.98	-8.94
226.215	13.06
226.449	20.06
226.683	25.06
226.918	28.06
227.152	30.06
227.387	40.06
227.621	44.06
227.856	30.06
228.09	57.06
228.324	53.06
228.559	53.06
228.793	69.06
229.027	65.06
229.262	77.06
229.496	68.06
229.73	69.06
229.964	75.06
230.199	69.06
230.433	67.06
230.667	87.06
230.901	80.06
231.136	74.06
231.37	71.06
231.604	77.06
231.838	89.06
232.072	86.06
232.306	80.06
232.541	78.06
232.775	85.06
233.009	82.06
233.243	82.06
233.477	86.06
233.711	97.06
233.945	77.06
234.179	93.06
234.413	75.06
234.647	87.06
234.881	91.06
235.115	71.06
235.349	84.06
235.583	89.06
235.817	76.06
236.051	83.06
236.285	88.06
236.519	91.06
236.753	86.06
236.987	68.06
237.221	79.06
237.455	76.06
237.689	76.06
237.922	70.06
238.156	73.06
238.39	90.06
238.624	94.06
238.858	77.06
239.091	83.06
239.325	80.06
239.559	85.06
239.793	85.06
240.027	76.06
240.26	78.06
240.494	98.06
240.728	75.06
240.961	79.06
241.195	88.06
241.429	84.06
241.662	77.06
241.896	84.06
242.13	86.06
242.363	94.06
242.597	76.06
242.83	83.06
243.064	71.06
243.298	77.06
243.531	88.06
243.765	63.06
243.998	99.06
244.232	86.06
244.465	83.06
244.699	89.06
244.932	68.06
245.166	79.06
245.399	93.06
245.633	96.06
245.866	92.06
246.099	91.06
246.333	76.06
246.566	99.06
246.8	83.06
247.033	81.06
247.266	88.06
247.5	103.06
247.733	98.06
247.966	86.06
248.2	85.06
248.433	69.06
248.666	83.06
248.899	83.06
249.133	87.06
249.366	72.06
249.599	77.06
249.832	90.06
250.066	90.06
250.299	88.06
250.532	83.06
250.765	94.06
250.998	82.06
251.231	89.06
251.465	83.06
251.698	93.06
251.931	87.06
252.164	95.06
252.397	92.06
252.63	91.06
252.863	98.06
253.096	96.06
253.329	86.06
253.562	79.06
253.795	86.06
254.028	97.06
254.261	93.06
254.494	98.06
254.727	92.06
254.96	82.06
255.193	96.06
255.426	95.06
255.659	93.06
255.892	78.06
256.124	90.06
256.357	95.06
256.59	85.06
256.823	95.06
257.056	86.06
257.289	90.06
257.521	84.06
257.754	85.06
257.987	88.06
258.22	91.06
258.452	91.06
258.685	86.06
258.918	93.06
259.151	84.06
259.383	89.06
259.616	93.06
259.849	81.06
260.081	91.06
260.314	100.06
260.547	96.06
260.779	88.06
261.012	91.06
261.244	95.06
261.477	92.06
261.71	89.06
261.942	80.06
262.175	85.06
262.407	105.06
262.64	102.06
262.872	91.06
263.105	90.06
263.337	96.06
263.57	85.06
263.802	94.06
264.035	98.06
264.267	91.06
264.499	98.06
264.732	85.06
264.964	95.06
265.197	85.06
265.429	101.06
265.661	88.06
265.894	97.06
266.126	99.06
266.358	91.06
266.591	101.06
266.823	104.06
267.055	99.06
267.287	86.06
267.52	98.06
267.752	92.06
267.984	95.06
268.216	101.06
268.448	93.06
268.681	94.06
268.913	94.06
269.145	82.06
269.377	94.06
269.609	88.06
269.841	89.06
270.073	85.06
270.306	80.06
270.538	94.06
270.77	98.06
271.002	94.06
271.234	99.06
271.466	99.06
271.698	90.06
271.93	69.06
272.162	93.06
272.394	94.06
272.626	98.06
272.858	97.06
273.09	95.06
273.322	78.06
273.553	99.06
273.785	87.06
274.017	93.06
274.249	103.06
274.481	92.06
274.713	95.06
274.945	88.06
275.176	102.06
275.408	102.06
275.64	96.06
275.872	101.06
276.104	95.06
276.335	89.06
276.567	97.06
276.799	89.06
277.031	103.06
277.262	85.06
277.494	87.06
277.726	103.06
277.957	85.06
278.189	106.06
278.421	94.06
278.652	96.06
278.884	102.06
279.115	101.06
279.347	91.06
279.579	93.06
279.81	109.06
280.042	93.06
280.273	98.06
280.505	105.06
280.736	93.06
280.968	92.06
281.199	106.06
281.431	99.06
281.662	95.06
281.894	96.06
282.125	101.06
282.356	104.06
282.588	107.06
282.819	87.06
283.051	97.06
283.282	94.06
283.513	113.06
283.745	105.06
283.976	111.06
284.207	117.06
284.439	107.06
284.67	91.06
284.901	92.06
285.132	97.06
285.364	97.06
285.595	95.06
285.826	89.06
286.057	107.06
286.288	81.06
286.52	92.06
286.751	115.06
286.982	108.06
287.213	102.06
287.444	94.06
287.675	101.06
287.906	102.06
288.138	97.06
288.369	109.06
288.6	113.06
288.831	117.06
289.062	102.06
289.293	122.06
289.524	96.06
289.755	102.06
289.986	99.06
290.217	105.06
290.448	103.06
290.679	102.06
290.91	96.06
291.141	98.06
291.371	111.06
291.602	101.06
291.833	113.06
292.064	101.06
292.295	110.06
292.526	84.06
292.757	84.06
292.987	106.06
293.218	91.06
293.449	103.06
293.68	109.06
293.91	103.06
294.141	88.06
294.372	87.06
294.603	97.06
294.833	97.06
295.064	101.06
295.295	95.06
295.525	98.06
295.756	98.06
295.987	87.06
296.217	105.06
296.448	107.06
296.679	98.06
296.909	100.06
297.14	102.06
297.37	94.06
297.601	105.06
297.831	111.06
298.062	100.06
298.292	104.06
298.523	113.06
298.753	107.06
298.984	111.06
299.214	103.06
299.445	107.06
299.675	101.06
299.905	99.06
300.136	107.06
300.366	102.06
300.597	114.06
300.827	110.06
301.057	108.06
301.288	93.06
301.518	101.06
301.748	106.06
301.979	107.06
302.209	113.06
302.439	119.06
302.669	107.06
302.9	108.06
303.13	98.06
303.36	118.06
303.59	117.06
303.82	108.06
304.051	99.06
304.281	94.06
304.511	115.06
304.741	104.06
304.971	111.06
305.201	112.06
305.431	114.06
305.661	104.06
305.891	107.06
306.121	118.06
306.352	97.06
306.582	102.06
306.812	108.06
307.042	99.06
307.272	99.06
307.502	110.06
307.731	115.06
307.961	113.06
308.191	108.06
308.421	105.06
308.651	122.06
308.881	101.06
309.111	115.06
309.341	116.06
309.571	105.06
309.8	90.06
310.03	97.06
310.26	111.06
310.49	102.06
310.72	102.06
310.949	78.06
311.179	107.06
311.409	95.06
311.639	103.06
311.868	124.06
312.098	103.06
312.328	115.06
312.557	108.06
312.787	93.06
313.017	113.06
313.246	104.06
313.476	100.06
313.706	98.06
313.935	105.06
314.165	88.06
314.394	117.06
314.624	101.06
314.853	113.06
315.083	109.06
315.312	108.06
315.542	107.06
315.771	115.06
316.001	115.06
316.23	98.06
316.46	118.06
316.689	109.06
316.919	109.06
317.148	110.06
317.377	107.06
317.607	106.06
317.836	107.06
318.065	83.06
318.295	112.06
318.524	99.06
318.753	111.06
318.983	98.06
319.212	108.06
319.441	105.06
319.67	122.06
319.9	113.06
320.129	105.06
320.358	115.06
320.587	104.06
320.816	123.06
321.046	108.06
321.275	117.06
321.504	89.06
321.733	113.06
321.962	108.06
322.191	89.06
322.42	104.06
322.649	113.06
322.878	117.06
323.108	110.06
323.337	123.06
323.566	94.06
323.795	118.06
324.024	108.06
324.253	115.06
324.482	114.06
324.71	126.06
324.939	116.06
325.168	111.06
325.397	119.06
325.626	99.06
325.855	103.06
326.084	115.06
326.313	107.06
326.542	111.06
326.77	122.06
326.999	101.06
327.228	101.06
327.457	94.06
327.686	113.06
327.914	115.06
328.143	107.06
328.372	118.06
328.6	104.06
328.829	118.06
329.058	101.06
329.287	102.06
329.515	105.06
329.744	103.06
329.972	101.06
330.201	110.06
330.43	109.06
330.658	105.06
330.887	116.06
331.115	106.06
331.344	119.06
331.572	117.06
331.801	118.06
332.03	111.06
332.258	116.06
332.486	122.06
332.715	117.06
332.943	123.06
333.172	108.06
333.4	120.06
333.629	133.06
333.857	129.06
334.085	128.06
334.314	123.06
334.542	110.06
334.771	126.06
334.999	117.06
335.227	113.06
335.455	130.06
335.684	111.06
335.912	121.06
336.14	122.06
336.369	121.06
336.597	109.06
336.825	113.06
337.053	118.06
337.281	105.06
337.51	103.06
337.738	122.06
337.966	98.06
338.194	103.06
338.422	102.06
338.65	113.06
338.878	114.06
339.106	125.06
339.334	123.06
339.562	117.06
339.79	123.06
340.018	125.06
340.246	106.06
340.474	124.06
340.702	93.06
340.93	103.06
341.158	103.06
341.386	106.06
341.614	112.06
341.842	117.06
342.07	121.06
342.298	115.06
342.526	118.06
342.754	117.06
342.981	123.06
343.209	111.06
343.437	131.06
343.665	120.06
343.893	115.06
344.12	122.06
344.348	121.06
344.576	117.06
344.804	129.06
345.031	95.06
345.259	109.06
345.487	113.06
345.714	110.06
345.942	103.06
346.17	101.06
346.397	95.06
346.625	117.06
346.853	94.06
347.08	119.06
347.308	117.06
347.535	108.06
347.763	124.06
347.99	115.06
348.218	116.06
348.445	115.06
348.673	115.06
348.9	110.06
349.128	118.06
349.355	115.06
349.583	120.06
349.81	115.06
350.037	104.06
350.265	106.06
350.492	103.06
350.72	125.06
350.947	113.06
351.174	107.06
351.402	115.06
351.629	115.06
351.856	117.06
352.083	114.06
352.311	115.06
352.538	102.06
352.765	118.06
352.992	100.06
353.22	106.06
353.447	106.06
353.674	110.06
353.901	103.06
354.128	105.06
354.355	117.06
354.583	107.06
354.81	128.06
355.037	125.06
355.264	115.06
355.491	98.06
355.718	130.06
355.945	101.06
356.172	123.06
356.399	109.06
356.626	118.06
356.853	119.06
357.08	120.06
357.307	128.06
357.534	110.06
357.761	120.06
357.988	113.06
358.215	120.06
358.441	105.06
358.668	118.06
358.895	109.06
359.122	113.06
359.349	120.06
359.576	101.06
359.802	115.06
360.029	123.06
360.256	128.06
360.483	117.06
360.709	113.06
360.936	107.06
361.163	112.06
361.39	121.06
361.616	113.06
361.843	108.06
362.07	120.06
362.296	127.06
362.523	113.06
362.749	111.06
362.976	116.06
363.203	109.06
363.429	114.06
363.656	101.06
363.882	120.06
364.109	127.06
364.335	115.06
364.562	106.06
364.788	103.06
365.015	101.06
365.241	112.06
365.468	120.06
365.694	127.06
365.92	116.06
366.147	104.06
366.373	110.06
366.599	119.06
366.826	122.06
367.052	110.06
367.278	120.06
367.505	111.06
367.731	99.06
367.957	121.06
368.184	124.06
368.41	105.06
368.636	106.06
368.862	118.06
369.089	120.06
369.315	120.06
369.541	128.06
369.767	117.06
369.993	97.06
370.219	125.06
370.445	108.06
370.672	114.06
370.898	117.06
371.124	127.06
371.35	102.06
371.576	119.06
371.802	133.06
372.028	115.06
372.254	129.06
372.48	123.06
372.706	120.06
372.932	118.06
373.158	125.06
373.384	113.06
373.61	121.06
373.835	123.06
374.061	107.06
374.287	140.06
374.513	119.06
374.739	121.06
374.965	129.06
375.191	122.06
375.416	115.06
375.642	119.06
375.868	131.06
376.094	95.06
376.319	108.06
376.545	127.06
376.771	105.06
376.997	120.06
377.222	123.06
377.448	103.06
377.674	114.06
377.899	125.06
378.125	122.06
378.35	133.06
378.576	133.06
378.802	127.06
379.027	124.06
379.253	122.06
379.478	123.06
379.704	129.06
379.929	133.06
380.155	116.06
380.38	119.06
380.606	119.06
380.831	127.06
381.057	130.06
381.282	137.06
381.507	129.06
381.733	139.06
381.958	122.06
382.184	130.06
382.409	128.06
382.634	133.06
382.86	131.06
383.085	122.06
383.31	134.06
383.535	129.06
383.761	118.06
383.986	128.06
384.211	126.06
384.436	122.06
384.662	154.06
384.887	139.06
385.112	138.06
385.337	141.06
385.562	122.06
385.787	147.06
386.013	131.06
386.238	140.06
386.463	124.06
386.688	122.06
386.913	142.06
387.138	128.06
387.363	137.06
387.588	135.06
387.813	137.06
388.038	152.06
388.263	124.06
388.488	137.06
388.713	126.06
388.938	141.06
389.163	135.06
389.387	144.06
389.612	142.06
389.837	138.06
390.062	137.06
390.287	126.06
390.512	141.06
390.736	142.06
390.961	137.06
391.186	141.06
391.411	134.06
391.636	147.06
391.86	158.06
392.085	125.06
392.31	140.06
392.534	147.06
392.759	150.06
392.984	144.06
393.208	145.06
393.433	166.06
393.658	133.06
393.882	144.06
394.107	145.06
394.331	138.06
394.556	148.06
394.78	154.06
395.005	161.06
395.229	140.06
395.454	155.06
395.678	156.06
395.903	166.06
396.127	149.06
396.352	141.06
396.576	153.06
396.801	157.06
397.025	148.06
397.249	154.06
397.474	161.06
397.698	146.06
397.922	154.06
398.147	152.06
398.371	147.06
398.595	172.06
398.82	185.06
399.044	161.06
399.268	164.06
399.492	184.06
399.717	195.06
399.941	185.06
400.165	187.06
400.389	188.06
400.613	179.06
400.837	159.06
401.062	161.06
401.286	157.06
401.51	150.06
401.734	140.06
401.958	160.06
402.182	181.06
402.406	161.06
402.63	161.06
402.854	158.06
403.078	154.06
403.302	169.06
403.526	169.06
403.75	187.06
403.974	169.06
404.198	167.06
404.422	171.06
404.645	181.06
404.869	174.06
405.093	174.06
405.317	181.06
405.541	170.06
405.765	158.06
405.988	165.06
406.212	169.06
406.436	166.06
406.66	194.06
406.883	189.06
407.107	193.06
407.331	203.06
407.555	181.06
407.778	191.06
408.002	200.06
408.226	182.06
408.449	186.06
408.673	170.06
408.896	188.06
409.12	183.06
409.344	162.06
409.567	173.06
409.791	177.06
410.014	186.06
410.238	172.06
410.461	166.06
410.685	182.06
410.908	179.06
411.132	188.06
411.355	158.06
411.578	181.06
411.802	166.06
412.025	174.06
412.249	173.06
412.472	186.06
412.695	178.06
412.919	170.06
413.142	160.06
413.365	164.06
413.589	180.06
413.812	179.06
414.035	165.06
414.258	175.06
414.482	188.06
414.705	184.06
414.928	181.06
415.151	175.06
415.374	179.06
415.597	165.06
415.821	163.06
416.044	171.06
416.267	167.06
416.49	165.06
416.713	166.06
416.936	170.06
417.159	182.06
417.382	157.06
417.605	167.06
417.828	175.06
418.051	160.06
418.274	156.06
418.497	146.06
418.72	179.06
418.943	180.06
419.166	184.06
419.389	172.06
419.611	172.06
419.834	191.06
420.057	185.06
420.28	171.06
420.503	175.06
420.726	166.06
420.948	174.06
421.171	166.06
421.394	174.06
421.617	187.06
421.839	181.06
422.062	166.06
422.285	174.06
422.507	182.06
422.73	176.06
422.953	179.06
423.175	164.06
423.398	179.06
423.621	168.06
423.843	182.06
424.066	179.06
424.288	189.06
424.511	182.06
424.733	188.06
424.956	173.06
425.178	161.06
425.401	171.06
425.623	172.06
425.846	184.06
426.068	169.06
426.291	161.06
426.513	178.06
426.735	186.06
426.958	183.06
427.18	157.06
427.402	165.06
427.625	163.06
427.847	163.06
428.069	173.06
428.292	170.06
428.514	157.06
428.736	152.06
428.958	164.06
429.181	173.06
429.403	159.06
429.625	156.06
429.847	151.06
430.069	152.06
430.292	166.06
430.514	163.06
430.736	163.06
430.958	174.06
431.18	153.06
431.402	175.06
431.624	166.06
431.846	161.06
432.068	168.06
432.29	165.06
432.512	188.06
432.734	176.06
432.956	170.06
433.178	177.06
433.4	156.06
433.622	169.06
433.844	179.06
434.066	161.06
434.287	175.06
434.509	172.06
434.731	173.06
434.953	167.06
435.175	165.06
435.397	179.06
435.618	172.06
435.84	161.06
436.062	164.06
436.284	174.06
436.505	171.06
436.727	173.06
436.949	153.06
437.17	159.06
437.392	157.06
437.614	168.06
437.835	155.06
438.057	155.06
438.278	171.06
438.5	165.06
438.721	153.06
438.943	170.06
439.165	167.06
439.386	149.06
439.608	166.06
439.829	167.06
440.05	189.06
440.272	168.06
440.493	163.06
440.715	173.06
440.936	195.06
441.158	163.06
441.379	178.06
441.6	186.06
441.822	182.06
442.043	175.06
442.264	161.06
442.486	172.06
442.707	174.06
442.928	170.06
443.149	188.06
443.371	173.06
443.592	195.06
443.813	187.06
444.034	197.06
444.255	183.06
444.476	187.06
444.698	205.06
444.919	207.06
445.14	302.06
445.361	245.06
445.582	179.06
445.803	194.06
446.024	178.06
446.245	174.06
446.466	172.06
446.687	179.06
446.908	191.06
447.129	181.06
447.35	173.06
447.571	172.06
447.792	179.06
448.013	170.06
448.234	162.06
448.455	165.06
448.675	173.06
448.896	181.06
449.117	150.06
449.338	165.06
449.559	169.06
449.779	157.06
450	173.06
450.221	163.06
450.442	162.06
450.662	173.06
450.883	156.06
451.104	175.06
451.324	158.06
451.545	159.06
451.766	144.06
451.986	153.06
452.207	175.06
452.428	167.06
452.648	170.06
452.869	145.06
453.089	159.06
453.31	167.06
453.53	156.06
453.751	151.06
453.971	164.06
454.192	148.06
454.412	174.06
454.633	155.06
454.853	147.06
455.073	147.06
455.294	159.06
455.514	167.06
455.734	157.06
455.955	157.06
456.175	157.06
456.395	152.06
456.616	142.06
456.836	172.06
457.056	154.06
457.276	180.06
457.497	171.06
457.717	164.06
457.937	171.06
458.157	171.06
458.377	168.06
458.598	157.06
458.818	166.06
459.038	151.06
459.258	147.06
459.478	171.06
459.698	178.06
459.918	175.06
460.138	170.06
460.358	195.06
460.578	168.06
460.798	179.06
461.018	186.06
461.238	189.06
461.458	191.06
461.678	191.06
461.898	186.06
462.118	178.06
462.338	202.06
462.558	192.06
462.777	204.06
462.997	212.06
463.217	219.06
463.437	223.06
463.657	205.06
463.876	195.06
464.096	199.06
464.316	179.06
464.536	197.06
464.755	191.06
464.975	200.06
465.195	181.06
465.414	170.06
465.634	184.06
465.854	179.06
466.073	172.06
466.293	189.06
466.512	166.06
466.732	173.06
466.951	173.06
467.171	186.06
467.391	169.06
467.61	171.06
467.829	164.06
468.049	166.06
468.268	162.06
468.488	167.06
468.707	176.06
468.927	155.06
469.146	177.06
469.365	184.06
469.585	174.06
469.804	166.06
470.023	177.06
470.243	176.06
470.462	182.06
470.681	164.06
470.901	164.06
471.12	166.06
471.339	171.06
471.558	178.06
471.777	168.06
471.997	179.06
472.216	162.06
472.435	169.06
472.654	169.06
472.873	149.06
473.092	158.06
473.311	155.06
473.53	167.06
473.749	169.06
473.968	166.06
474.187	164.06
474.406	167.06
474.625	168.06
474.844	168.06
475.063	183.06
475.282	161.06
475.501	173.06
475.72	188.06
475.939	174.06
476.158	183.06
476.377	167.06
476.596	155.06
476.814	168.06
477.033	179.06
477.252	160.06
477.471	170.06
477.69	180.06
477.908	174.06
478.127	183.06
478.346	197.06
478.564	175.06
478.783	196.06
479.002	183.06
479.22	204.06
479.439	193.06
479.658	185.06
479.876	168.06
480.095	181.06
480.313	199.06
480.532	183.06
480.751	184.06
480.969	189.06
481.188	210.06
481.406	193.06
481.624	181.06
481.843	179.06
482.061	175.06
482.28	171.06
482.498	192.06
482.717	172.06
482.935	177.06
483.153	181.06
483.372	185.06
483.59	195.06
483.808	180.06
484.027	185.06
484.245	179.06
484.463	167.06
484.681	192.06
484.9	203.06
485.118	196.06
485.336	183.06
485.554	175.06
485.772	189.06
485.99	162.06
486.209	201.06
486.427	182.06
486.645	185.06
486.863	173.06
487.081	189.06
487.299	180.06
487.517	180.06
487.735	198.06
487.953	199.06
488.171	191.06
488.389	207.06
488.607	194.06
488.825	181.06
489.043	184.06
489.261	190.06
489.479	182.06
489.696	201.06
489.914	191.06
490.132	190.06
490.35	184.06
490.568	192.06
490.786	197.06
491.003	182.06
491.221	181.06
491.439	191.06
491.657	195.06
491.874	193.06
492.092	188.06
492.31	211.06
492.527	193.06
492.745	206.06
492.963	202.06
493.18	202.06
493.398	187.06
493.615	190.06
493.833	195.06
494.05	211.06
494.268	189.06
494.485	183.06
494.703	192.06
494.92	188.06
495.138	193.06
495.355	190.06
495.573	219.06
495.79	208.06
496.008	205.06
496.225	187.06
496.442	205.06
496.66	201.06
496.877	218.06
497.094	206.06
497.312	207.06
497.529	189.06
497.746	219.06
497.963	216.06
498.181	223.06
498.398	205.06
498.615	231.06
498.832	230.06
499.049	255.06
499.267	261.06
499.484	292.06
499.701	286.06
499.918	329.06
500.135	341.06
500.352	357.06
500.569	388.06
500.786	371.06
501.003	357.06
501.22	331.06
501.437	297.06
501.654	289.06
501.871	279.06
502.088	264.06
502.305	261.06
502.522	250.06
502.739	237.06
502.956	214.06
503.172	201.06
503.389	207.06
503.606	206.06
503.823	225.06
504.04	225.06
504.256	212.06
504.473	209.06
504.69	210.06
504.907	221.06
505.123	196.06
505.34	165.06
505.557	193.06
505.773	194.06
505.99	189.06
506.207	172.06
506.423	183.06
506.64	187.06
506.856	169.06
507.073	187.06
507.289	186.06
507.506	167.06
507.722	168.06
507.939	181.06
508.155	183.06
508.372	194.06
508.588	166.06
508.805	188.06
509.021	161.06
509.238	168.06
509.454	181.06
509.67	182.06
509.887	179.06
510.103	175.06
510.319	173.06
510.536	150.06
510.752	185.06
510.968	177.06
511.184	158.06
511.401	161.06
511.617	175.06
511.833	162.06
512.049	163.06
512.265	168.06
512.481	172.06
512.698	180.06
512.914	166.06
513.13	164.06
513.346	158.06
513.562	174.06
513.778	186.06
513.994	152.06
514.21	161.06
514.426	163.06
514.642	152.06
514.858	165.06
515.074	165.06
515.29	166.06
515.506	164.06
515.721	180.06
515.937	171.06
516.153	181.06
516.369	177.06
516.585	179.06
516.801	193.06
517.016	205.06
517.232	198.06
517.448	207.06
517.664	204.06
517.879	198.06
518.095	195.06
518.311	201.06
518.527	181.06
518.742	193.06
518.958	195.06
519.173	180.06
519.389	181.06
519.605	177.06
519.82	175.06
520.036	170.06
520.251	189.06
520.467	165.06
520.682	163.06
520.898	188.06
521.113	169.06
521.329	166.06
521.544	183.06
521.76	166.06
521.975	156.06
522.19	182.06
522.406	166.06
522.621	179.06
522.836	163.06
523.052	152.06
523.267	173.06
523.482	164.06
523.698	161.06
523.913	167.06
524.128	174.06
524.343	166.06
524.559	173.06
524.774	168.06
524.989	180.06
525.204	166.06
525.419	167.06
525.634	157.06
525.849	172.06
526.064	171.06
526.28	177.06
526.495	175.06
526.71	179.06
526.925	167.06
527.14	156.06
527.355	153.06
527.57	161.06
527.785	150.06
527.999	159.06
528.214	153.06
528.429	155.06
528.644	158.06
528.859	167.06
529.074	178.06
529.289	173.06
529.503	173.06
529.718	163.06
529.933	167.06
530.148	161.06
530.363	169.06
530.577	162.06
530.792	167.06
531.007	183.06
531.221	178.06
531.436	177.06
531.651	161.06
531.865	165.06
532.08	166.06
532.295	157.06
532.509	174.06
532.724	166.06
532.938	165.06
533.153	153.06
533.367	173.06
533.582	177.06
533.796	163.06
534.011	168.06
534.225	174.06
534.44	163.06
534.654	172.06
534.868	151.06
535.083	162.06
535.297	154.06
535.511	158.06
535.726	165.06
535.94	164.06
536.154	163.06
536.369	160.06
536.583	150.06
536.797	161.06
537.011	159.06
537.225	158.06
537.44	157.06
537.654	166.06
537.868	174.06
538.082	167.06
538.296	149.06
538.51	157.06
538.724	163.06
538.938	142.06
539.153	172.06
539.367	159.06
539.581	178.06
539.795	172.06
540.009	168.06
540.222	158.06
540.436	141.06
540.65	177.06
540.864	154.06
541.078	171.06
541.292	175.06
541.506	162.06
541.72	170.06
541.934	166.06
542.147	163.06
542.361	157.06
542.575	152.06
542.789	158.06
543.002	153.06
543.216	158.06
543.43	153.06
543.644	151.06
543.857	158.06
544.071	171.06
544.285	175.06
544.498	167.06
544.712	157.06
544.925	165.06
545.139	158.06
545.352	174.06
545.566	178.06
545.779	153.06
545.993	156.06
546.206	166.06
546.42	156.06
546.633	163.06
546.847	151.06
547.06	152.06
547.274	153.06
547.487	159.06
547.7	163.06
547.914	165.06
548.127	159.06
548.34	163.06
548.554	162.06
548.767	168.06
548.98	166.06
549.193	176.06
549.407	172.06
549.62	161.06
549.833	167.06
550.046	152.06
550.259	157.06
550.473	185.06
550.686	151.06
550.899	166.06
551.112	163.06
551.325	168.06
551.538	165.06
551.751	167.06
551.964	144.06
552.177	143.06
552.39	137.06
552.603	163.06
552.816	176.06
553.029	173.06
553.242	171.06
553.455	168.06
553.667	172.06
553.88	151.06
554.093	162.06
554.306	159.06
554.519	160.06
554.732	172.06
554.944	157.06
555.157	144.06
555.37	144.06
555.583	169.06
555.795	154.06
556.008	134.06
556.221	139.06
556.433	169.06
556.646	163.06
556.859	144.06
557.071	141.06
557.284	142.06
557.496	153.06
557.709	143.06
557.921	158.06
558.134	146.06
558.346	144.06
558.559	144.06
558.771	161.06
558.984	149.06
559.196	149.06
559.409	150.06
559.621	144.06
559.833	151.06
560.046	150.06
560.258	158.06
560.47	143.06
560.683	149.06
560.895	149.06
561.107	150.06
561.32	146.06
561.532	143.06
561.744	166.06
561.956	151.06
562.168	130.06
562.381	141.06
562.593	147.06
562.805	152.06
563.017	147.06
563.229	151.06
563.441	139.06
563.653	151.06
563.865	131.06
564.077	138.06
564.289	152.06
564.501	155.06
564.713	158.06
564.925	147.06
565.137	153.06
565.349	157.06
565.561	152.06
565.773	158.06
565.985	171.06
566.197	163.06
566.408	171.06
566.62	183.06
566.832	165.06
567.044	174.06
567.255	181.06
567.467	169.06
567.679	189.06
567.891	181.06
568.102	204.06
568.314	200.06
568.526	178.06
568.737	163.06
568.949	165.06
569.161	146.06
569.372	141.06
569.584	144.06
569.795	161.06
570.007	137.06
570.218	149.06
570.43	135.06
570.641	168.06
570.853	143.06
571.064	134.06
571.276	157.06
571.487	139.06
571.698	136.06
571.91	137.06
572.121	141.06
572.333	148.06
572.544	144.06
572.755	127.06
572.966	146.06
573.178	135.06
573.389	126.06
573.6	133.06
573.811	122.06
574.023	126.06
574.234	147.06
574.445	129.06
574.656	129.06
574.867	133.06
575.078	127.06
575.289	132.06
575.501	129.06
575.712	137.06
575.923	130.06
576.134	132.06
576.345	117.06
576.556	135.06
576.767	134.06
576.978	132.06
577.188	132.06
577.399	129.06
577.61	146.06
577.821	120.06
578.032	121.06
578.243	132.06
578.454	149.06
578.665	140.06
578.875	118.06
579.086	117.06
579.297	122.06
579.508	138.06
579.718	128.06
579.929	143.06
580.14	115.06
580.35	118.06
580.561	126.06
580.772	118.06
580.982	126.06
581.193	138.06
581.403	114.06
581.614	120.06
581.825	130.06
582.035	113.06
582.246	113.06
582.456	114.06
582.667	119.06
582.877	114.06
583.087	123.06
583.298	123.06
583.508	126.06
583.719	123.06
583.929	118.06
584.139	124.06
584.35	125.06
584.56	118.06
584.77	125.06
584.981	133.06
585.191	131.06
585.401	140.06
585.611	127.06
585.821	105.06
586.032	123.06
586.242	118.06
586.452	113.06
586.662	119.06
586.872	102.06
587.082	129.06
587.292	136.06
587.502	115.06
587.713	118.06
587.923	126.06
588.133	113.06
588.343	123.06
588.553	106.06
588.762	121.06
588.972	119.06
589.182	122.06
589.392	129.06
589.602	105.06
589.812	142.06
590.022	113.06
590.232	120.06
590.441	111.06
590.651	125.06
590.861	113.06
591.071	116.06
591.281	137.06
591.49	118.06
591.7	126.06
591.91	122.06
592.119	120.06
592.329	127.06
592.539	113.06
592.748	133.06
592.958	125.06
593.167	125.06
593.377	141.06
593.587	136.06
593.796	129.06
594.006	121.06
594.215	137.06
594.424	129.06
594.634	132.06
594.843	123.06
595.053	141.06
595.262	111.06
595.472	136.06
595.681	121.06
595.89	131.06
596.1	126.06
596.309	130.06
596.518	103.06
596.727	121.06
596.937	120.06
597.146	124.06
597.355	109.06
597.564	119.06
597.774	125.06
597.983	113.06
598.192	114.06
598.401	122.06
598.61	127.06
598.819	113.06
599.028	111.06
599.237	114.06
599.446	100.06
599.655	116.06
599.864	105.06
600.073	117.06
600.282	121.06
600.491	111.06
600.7	110.06
600.909	114.06
601.118	121.06
601.327	108.06
601.536	117.06
601.745	123.06
601.953	114.06
602.162	110.06
602.371	110.06
602.58	106.06
602.789	117.06
602.997	110.06
603.206	114.06
603.415	115.06
603.623	102.06
603.832	97.06
604.041	117.06
604.249	118.06
604.458	128.06
604.666	113.06
604.875	110.06
605.084	123.06
605.292	109.06
605.501	108.06
605.709	126.06
605.918	109.06
606.126	105.06
606.334	114.06
606.543	110.06
606.751	119.06
606.96	107.06
607.168	117.06
607.376	115.06
607.585	113.06
607.793	128.06
608.001	111.06
608.21	115.06
608.418	106.06
608.626	114.06
608.834	117.06
609.043	130.06
609.251	128.06
609.459	121.06
609.667	106.06
609.875	107.06
610.083	117.06
610.291	105.06
610.499	106.06
610.707	123.06
610.916	119.06
611.124	110.06
611.332	123.06
611.54	109.06
611.748	101.06
611.955	118.06
612.163	119.06
612.371	115.06
612.579	109.06
612.787	99.06
612.995	117.06
613.203	115.06
613.411	117.06
613.618	123.06
613.826	129.06
614.034	95.06
614.242	120.06
614.449	122.06
614.657	107.06
614.865	115.06
615.072	123.06
615.28	120.06
615.488	116.06
615.695	102.06
615.903	123.06
616.111	124.06
616.318	104.06
616.526	113.06
616.733	125.06
616.941	108.06
617.148	115.06
617.356	97.06
617.563	118.06
617.771	118.06
617.978	126.06
618.185	103.06
618.393	108.06
618.6	97.06
618.807	114.06
619.015	109.06
619.222	118.06
619.429	110.06
619.637	116.06
619.844	103.06
620.051	102.06
620.258	106.06
620.466	109.06
620.673	100.06
620.88	105.06
621.087	108.06
621.294	116.06
621.501	105.06
621.708	102.06
621.915	106.06
622.122	108.06
622.329	116.06
622.536	104.06
622.743	102.06
622.95	107.06
623.157	93.06
623.364	110.06
623.571	102.06
623.778	107.06
623.985	111.06
624.192	104.06
624.399	97.06
624.606	107.06
624.812	98.06
625.019	114.06
625.226	110.06
625.433	107.06
625.639	76.06
625.846	97.06
626.053	95.06
626.259	104.06
626.466	106.06
626.673	115.06
626.879	103.06
627.086	102.06
627.293	106.06
627.499	110.06
627.706	110.06
627.912	87.06
628.119	111.06
628.325	102.06
628.532	108.06
628.738	96.06
628.945	106.06
629.151	107.06
629.357	110.06
629.564	84.06
629.77	114.06
629.976	113.06
630.183	114.06
630.389	103.06
630.595	99.06
630.802	100.06
631.008	95.06
631.214	109.06
631.42	111.06
631.627	103.06
631.833	94.06
632.039	93.06
632.245	117.06
632.451	108.06
632.657	113.06
632.863	117.06
633.069	111.06
633.275	98.06
633.481	103.06
633.688	103.06
633.893	109.06
634.099	98.06
634.305	98.06
634.511	107.06
634.717	117.06
634.923	100.06
635.129	115.06
635.335	114.06
635.541	103.06
635.747	98.06
635.952	94.06
636.158	105.06
636.364	103.06
636.57	100.06
636.775	112.06
636.981	87.06
637.187	98.06
637.392	98.06
637.598	113.06
637.804	108.06
638.009	104.06
638.215	103.06
638.421	97.06
638.626	90.06
638.832	94.06
639.037	106.06
639.243	98.06
639.448	106.06
639.654	100.06
639.859	94.06
640.065	113.06
640.27	100.06
640.475	107.06
640.681	99.06
640.886	101.06
641.091	91.06
641.297	105.06
641.502	102.06
641.707	107.06
641.913	89.06
642.118	103.06
642.323	103.06
642.528	98.06
642.733	107.06
642.939	92.06
643.144	106.06
643.349	97.06
643.554	103.06
643.759	100.06
643.964	103.06
644.169	114.06
644.374	103.06
644.579	101.06
644.784	101.06
644.989	86.06
645.194	98.06
645.399	91.06
645.604	94.06
645.809	97.06
646.014	86.06
646.219	94.06
646.423	93.06
646.628	93.06
646.833	104.06
647.038	99.06
647.243	113.06
647.447	91.06
647.652	106.06
647.857	100.06
648.062	102.06
648.266	116.06
648.471	104.06
648.676	103.06
648.88	102.06
649.085	101.06
649.289	104.06
649.494	100.06
649.698	105.06
649.903	89.06
650.107	100.06
650.312	114.06
650.516	98.06
650.721	99.06
650.925	92.06
651.13	89.06
651.334	88.06
651.539	98.06
651.743	87.06
651.947	95.06
652.152	102.06
652.356	87.06
652.56	97.06
652.764	101.06
652.969	94.06
653.173	87.06
653.377	101.06
653.581	90.06
653.785	88.06
653.99	103.06
654.194	102.06
654.398	79.06
654.602	97.06
654.806	97.06
655.01	85.06
655.214	93.06
655.418	90.06
655.622	98.06
655.826	90.06
656.03	94.06
656.234	83.06
656.438	92.06
656.642	98.06
656.846	82.06
657.049	95.06
657.253	94.06
657.457	90.06
657.661	90.06
657.865	98.06
658.068	94.06
658.272	84.06
658.476	79.06
658.68	75.06
658.883	92.06
659.087	90.06
659.291	79.06
659.494	97.06
659.698	98.06
659.901	81.06
660.105	94.06
660.309	89.06
660.512	84.06
660.716	87.06
660.919	90.06
661.123	90.06
661.326	91.06
661.53	92.06
661.733	96.06
661.936	94.06
662.14	89.06
662.343	93.06
662.546	83.06
662.75	76.06
662.953	80.06
663.156	74.06
663.36	80.06
663.563	86.06
663.766	87.06
663.969	92.06
664.173	74.06
664.376	85.06
664.579	79.06
664.782	81.06
664.985	85.06
665.188	85.06
665.391	91.06
665.594	77.06
665.797	81.06
666	79.06
666.203	87.06
666.406	78.06
666.609	71.06
666.812	83.06
667.015	79.06
667.218	77.06
667.421	74.06
667.624	78.06
667.827	74.06
668.03	71.06
668.232	84.06
668.435	78.06
668.638	82.06
668.841	73.06
669.043	83.06
669.246	94.06
669.449	94.06
669.651	79.06
669.854	83.06
670.057	104.06
670.259	98.06
670.462	89.06
670.665	84.06
670.867	92.06
671.07	86.06
671.272	69.06
671.475	82.06
671.677	82.06
671.88	98.06
672.082	92.06
672.284	86.06
672.487	93.06
672.689	76.06
672.892	74.06
