Data from Fe(NO3)3@0.1M.TitratingCurve.Agarose3%dH2O.NegLispCup.LampEnergy10.LIBS07252019_HRD10591_16-39-30-341.txt Node
Date: Thu Jul 25 16:39:30 EDT 2019
User: cochatt
Spectrometer: HR+D1059
Trigger mode: 1
Integration Time (sec): 1.000000E-1
Scans to average: 1
Electric dark correction enabled: true
Nonlinearity correction enabled: false
Boxcar width: 0
XAxis mode: Wavelengths
Number of Pixels in Spectrum: 2048
>>>>>Begin Spectral Data<<<<<
223.165	-17.62
223.4	-17.62
223.635	-17.62
223.869	-12.62
224.104	-17.62
224.338	-21.62
224.573	-9.62
224.808	-23.62
225.042	-12.62
225.277	4.38
225.511	-5.62
225.746	0.38
225.98	16.38
226.215	11.38
226.449	13.38
226.683	18.38
226.918	19.38
227.152	37.38
227.387	20.38
227.621	38.38
227.856	37.38
228.09	45.38
228.324	43.38
228.559	50.38
228.793	66.38
229.027	64.38
229.262	85.38
229.496	72.38
229.73	88.38
229.964	89.38
230.199	108.38
230.433	81.38
230.667	99.38
230.901	101.38
231.136	98.38
231.37	90.38
231.604	98.38
231.838	105.38
232.072	97.38
232.306	97.38
232.541	102.38
232.775	100.38
233.009	83.38
233.243	94.38
233.477	99.38
233.711	113.38
233.945	85.38
234.179	86.38
234.413	98.38
234.647	98.38
234.881	93.38
235.115	97.38
235.349	100.38
235.583	112.38
235.817	102.38
236.051	106.38
236.285	100.38
236.519	107.38
236.753	96.38
236.987	101.38
237.221	101.38
237.455	103.38
237.689	96.38
237.922	95.38
238.156	103.38
238.39	99.38
238.624	97.38
238.858	97.38
239.091	106.38
239.325	114.38
239.559	107.38
239.793	106.38
240.027	95.38
240.26	109.38
240.494	99.38
240.728	116.38
240.961	110.38
241.195	130.38
241.429	112.38
241.662	105.38
241.896	109.38
242.13	113.38
242.363	108.38
242.597	112.38
242.83	115.38
243.064	102.38
243.298	102.38
243.531	108.38
243.765	110.38
243.998	119.38
244.232	130.38
244.465	124.38
244.699	99.38
244.932	116.38
245.166	115.38
245.399	120.38
245.633	109.38
245.866	112.38
246.099	109.38
246.333	123.38
246.566	115.38
246.8	103.38
247.033	134.38
247.266	108.38
247.5	117.38
247.733	112.38
247.966	130.38
248.2	130.38
248.433	125.38
248.666	123.38
248.899	126.38
249.133	118.38
249.366	114.38
249.599	118.38
249.832	123.38
250.066	124.38
250.299	142.38
250.532	135.38
250.765	121.38
250.998	109.38
251.231	128.38
251.465	137.38
251.698	124.38
251.931	120.38
252.164	129.38
252.397	130.38
252.63	124.38
252.863	132.38
253.096	128.38
253.329	128.38
253.562	125.38
253.795	134.38
254.028	142.38
254.261	130.38
254.494	141.38
254.727	128.38
254.96	124.38
255.193	133.38
255.426	142.38
255.659	146.38
255.892	146.38
256.124	132.38
256.357	131.38
256.59	119.38
256.823	129.38
257.056	137.38
257.289	129.38
257.521	130.38
257.754	134.38
257.987	144.38
258.22	136.38
258.452	139.38
258.685	153.38
258.918	154.38
259.151	137.38
259.383	129.38
259.616	140.38
259.849	152.38
260.081	151.38
260.314	142.38
260.547	141.38
260.779	153.38
261.012	150.38
261.244	152.38
261.477	142.38
261.71	152.38
261.942	148.38
262.175	139.38
262.407	155.38
262.64	153.38
262.872	148.38
263.105	148.38
263.337	142.38
263.57	158.38
263.802	156.38
264.035	155.38
264.267	157.38
264.499	157.38
264.732	156.38
264.964	160.38
265.197	138.38
265.429	152.38
265.661	146.38
265.894	146.38
266.126	158.38
266.358	166.38
266.591	163.38
266.823	162.38
267.055	162.38
267.287	162.38
267.52	163.38
267.752	156.38
267.984	151.38
268.216	146.38
268.448	148.38
268.681	152.38
268.913	163.38
269.145	158.38
269.377	171.38
269.609	148.38
269.841	153.38
270.073	156.38
270.306	175.38
270.538	180.38
270.77	154.38
271.002	164.38
271.234	160.38
271.466	172.38
271.698	164.38
271.93	161.38
272.162	169.38
272.394	166.38
272.626	167.38
272.858	173.38
273.09	162.38
273.322	170.38
273.553	179.38
273.785	171.38
274.017	167.38
274.249	168.38
274.481	166.38
274.713	186.38
274.945	186.38
275.176	192.38
275.408	179.38
275.64	169.38
275.872	180.38
276.104	177.38
276.335	180.38
276.567	192.38
276.799	184.38
277.031	161.38
277.262	173.38
277.494	183.38
277.726	183.38
277.957	194.38
278.189	180.38
278.421	178.38
278.652	167.38
278.884	182.38
279.115	180.38
279.347	188.38
279.579	181.38
279.81	171.38
280.042	184.38
280.273	192.38
280.505	186.38
280.736	183.38
280.968	185.38
281.199	195.38
281.431	195.38
281.662	189.38
281.894	196.38
282.125	164.38
282.356	192.38
282.588	181.38
282.819	185.38
283.051	193.38
283.282	199.38
283.513	194.38
283.745	199.38
283.976	194.38
284.207	202.38
284.439	196.38
284.67	188.38
284.901	195.38
285.132	196.38
285.364	196.38
285.595	192.38
285.826	202.38
286.057	209.38
286.288	193.38
286.52	217.38
286.751	202.38
286.982	206.38
287.213	215.38
287.444	201.38
287.675	191.38
287.906	211.38
288.138	205.38
288.369	203.38
288.6	193.38
288.831	207.38
289.062	212.38
289.293	199.38
289.524	189.38
289.755	211.38
289.986	214.38
290.217	210.38
290.448	206.38
290.679	205.38
290.91	205.38
291.141	200.38
291.371	208.38
291.602	204.38
291.833	202.38
292.064	203.38
292.295	214.38
292.526	204.38
292.757	216.38
292.987	200.38
293.218	221.38
293.449	212.38
293.68	218.38
293.91	217.38
294.141	219.38
294.372	220.38
294.603	209.38
294.833	215.38
295.064	215.38
295.295	210.38
295.525	215.38
295.756	214.38
295.987	214.38
296.217	211.38
296.448	229.38
296.679	212.38
296.909	206.38
297.14	240.38
297.37	219.38
297.601	216.38
297.831	212.38
298.062	228.38
298.292	227.38
298.523	196.38
298.753	218.38
298.984	231.38
299.214	225.38
299.445	221.38
299.675	223.38
299.905	216.38
300.136	220.38
300.366	217.38
300.597	221.38
300.827	217.38
301.057	231.38
301.288	236.38
301.518	241.38
301.748	256.38
301.979	240.38
302.209	235.38
302.439	231.38
302.669	234.38
302.9	234.38
303.13	236.38
303.36	237.38
303.59	221.38
303.82	234.38
304.051	242.38
304.281	242.38
304.511	249.38
304.741	235.38
304.971	234.38
305.201	235.38
305.431	246.38
305.661	242.38
305.891	234.38
306.121	233.38
306.352	247.38
306.582	227.38
306.812	219.38
307.042	223.38
307.272	238.38
307.502	242.38
307.731	234.38
307.961	230.38
308.191	225.38
308.421	242.38
308.651	228.38
308.881	239.38
309.111	237.38
309.341	234.38
309.571	237.38
309.8	242.38
310.03	224.38
310.26	235.38
310.49	215.38
310.72	227.38
310.949	233.38
311.179	241.38
311.409	230.38
311.639	263.38
311.868	242.38
312.098	246.38
312.328	228.38
312.557	236.38
312.787	243.38
313.017	253.38
313.246	246.38
313.476	234.38
313.706	261.38
313.935	258.38
314.165	274.38
314.394	256.38
314.624	236.38
314.853	243.38
315.083	231.38
315.312	243.38
315.542	237.38
315.771	268.38
316.001	232.38
316.23	247.38
316.46	243.38
316.689	237.38
316.919	223.38
317.148	246.38
317.377	244.38
317.607	244.38
317.836	236.38
318.065	255.38
318.295	251.38
318.524	247.38
318.753	263.38
318.983	228.38
319.212	247.38
319.441	250.38
319.67	246.38
319.9	255.38
320.129	252.38
320.358	254.38
320.587	250.38
320.816	252.38
321.046	250.38
321.275	249.38
321.504	267.38
321.733	251.38
321.962	260.38
322.191	247.38
322.42	253.38
322.649	262.38
322.878	248.38
323.108	246.38
323.337	252.38
323.566	249.38
323.795	242.38
324.024	246.38
324.253	246.38
324.482	246.38
324.71	252.38
324.939	257.38
325.168	259.38
325.397	249.38
325.626	273.38
325.855	261.38
326.084	265.38
326.313	261.38
326.542	260.38
326.77	291.38
326.999	252.38
327.228	255.38
327.457	243.38
327.686	268.38
327.914	256.38
328.143	261.38
328.372	266.38
328.6	250.38
328.829	269.38
329.058	271.38
329.287	277.38
329.515	270.38
329.744	274.38
329.972	250.38
330.201	271.38
330.43	261.38
330.658	264.38
330.887	282.38
331.115	280.38
331.344	271.38
331.572	283.38
331.801	294.38
332.03	305.38
332.258	286.38
332.486	311.38
332.715	302.38
332.943	320.38
333.172	333.38
333.4	334.38
333.629	360.38
333.857	363.38
334.085	330.38
334.314	340.38
334.542	339.38
334.771	331.38
334.999	338.38
335.227	335.38
335.455	322.38
335.684	324.38
335.912	322.38
336.14	336.38
336.369	321.38
336.597	314.38
336.825	316.38
337.053	313.38
337.281	314.38
337.51	300.38
337.738	295.38
337.966	300.38
338.194	297.38
338.422	296.38
338.65	304.38
338.878	286.38
339.106	286.38
339.334	290.38
339.562	280.38
339.79	271.38
340.018	285.38
340.246	269.38
340.474	260.38
340.702	286.38
340.93	275.38
341.158	280.38
341.386	281.38
341.614	284.38
341.842	290.38
342.07	289.38
342.298	273.38
342.526	278.38
342.754	299.38
342.981	288.38
343.209	294.38
343.437	286.38
343.665	312.38
343.893	335.38
344.12	341.38
344.348	319.38
344.576	308.38
344.804	294.38
345.031	292.38
345.259	284.38
345.487	295.38
345.714	273.38
345.942	254.38
346.17	274.38
346.397	284.38
346.625	275.38
346.853	268.38
347.08	268.38
347.308	276.38
347.535	276.38
347.763	280.38
347.99	272.38
348.218	297.38
348.445	267.38
348.673	282.38
348.9	264.38
349.128	273.38
349.355	262.38
349.583	294.38
349.81	290.38
350.037	261.38
350.265	261.38
350.492	258.38
350.72	254.38
350.947	283.38
351.174	267.38
351.402	259.38
351.629	270.38
351.856	269.38
352.083	275.38
352.311	281.38
352.538	269.38
352.765	244.38
352.992	272.38
353.22	267.38
353.447	276.38
353.674	247.38
353.901	272.38
354.128	275.38
354.355	274.38
354.583	258.38
354.81	257.38
355.037	269.38
355.264	282.38
355.491	271.38
355.718	264.38
355.945	270.38
356.172	276.38
356.399	264.38
356.626	258.38
356.853	268.38
357.08	288.38
357.307	268.38
357.534	257.38
357.761	255.38
357.988	285.38
358.215	290.38
358.441	269.38
358.668	256.38
358.895	268.38
359.122	264.38
359.349	255.38
359.576	257.38
359.802	285.38
360.029	284.38
360.256	272.38
360.483	255.38
360.709	276.38
360.936	276.38
361.163	274.38
361.39	267.38
361.616	255.38
361.843	261.38
362.07	264.38
362.296	280.38
362.523	270.38
362.749	289.38
362.976	292.38
363.203	260.38
363.429	268.38
363.656	259.38
363.882	270.38
364.109	282.38
364.335	267.38
364.562	264.38
364.788	262.38
365.015	261.38
365.241	271.38
365.468	268.38
365.694	263.38
365.92	267.38
366.147	279.38
366.373	287.38
366.599	273.38
366.826	276.38
367.052	258.38
367.278	289.38
367.505	296.38
367.731	277.38
367.957	274.38
368.184	272.38
368.41	276.38
368.636	288.38
368.862	255.38
369.089	282.38
369.315	284.38
369.541	289.38
369.767	292.38
369.993	286.38
370.219	274.38
370.445	286.38
370.672	264.38
370.898	300.38
371.124	289.38
371.35	296.38
371.576	285.38
371.802	281.38
372.028	308.38
372.254	297.38
372.48	291.38
372.706	305.38
372.932	277.38
373.158	302.38
373.384	324.38
373.61	290.38
373.835	296.38
374.061	309.38
374.287	314.38
374.513	331.38
374.739	320.38
374.965	323.38
375.191	325.38
375.416	298.38
375.642	314.38
375.868	309.38
376.094	308.38
376.319	304.38
376.545	312.38
376.771	298.38
376.997	297.38
377.222	298.38
377.448	310.38
377.674	304.38
377.899	312.38
378.125	304.38
378.35	285.38
378.576	289.38
378.802	302.38
379.027	310.38
379.253	280.38
379.478	293.38
379.704	281.38
379.929	296.38
380.155	299.38
380.38	287.38
380.606	291.38
380.831	273.38
381.057	270.38
381.282	315.38
381.507	296.38
381.733	295.38
381.958	302.38
382.184	300.38
382.409	317.38
382.634	305.38
382.86	328.38
383.085	325.38
383.31	301.38
383.535	314.38
383.761	335.38
383.986	328.38
384.211	346.38
384.436	337.38
384.662	326.38
384.887	356.38
385.112	360.38
385.337	343.38
385.562	355.38
385.787	346.38
386.013	357.38
386.238	341.38
386.463	365.38
386.688	345.38
386.913	322.38
387.138	348.38
387.363	329.38
387.588	339.38
387.813	336.38
388.038	344.38
388.263	348.38
388.488	353.38
388.713	338.38
388.938	365.38
389.163	334.38
389.387	342.38
389.612	344.38
389.837	346.38
390.062	337.38
390.287	353.38
390.512	340.38
390.736	370.38
390.961	346.38
391.186	349.38
391.411	371.38
391.636	363.38
391.86	372.38
392.085	382.38
392.31	401.38
392.534	362.38
392.759	378.38
392.984	383.38
393.208	371.38
393.433	376.38
393.658	364.38
393.882	367.38
394.107	364.38
394.331	357.38
394.556	389.38
394.78	388.38
395.005	378.38
395.229	388.38
395.454	388.38
395.678	402.38
395.903	395.38
396.127	397.38
396.352	387.38
396.576	378.38
396.801	382.38
397.025	371.38
397.249	386.38
397.474	396.38
397.698	387.38
397.922	391.38
398.147	409.38
398.371	396.38
398.595	427.38
398.82	437.38
399.044	468.38
399.268	505.38
399.492	586.38
399.717	600.38
399.941	598.38
400.165	532.38
400.389	506.38
400.613	472.38
400.837	457.38
401.062	432.38
401.286	416.38
401.51	419.38
401.734	433.38
401.958	444.38
402.182	425.38
402.406	432.38
402.63	426.38
402.854	434.38
403.078	470.38
403.302	466.38
403.526	490.38
403.75	487.38
403.974	482.38
404.198	491.38
404.422	481.38
404.645	457.38
404.869	493.38
405.093	489.38
405.317	480.38
405.541	501.38
405.765	473.38
405.988	468.38
406.212	464.38
406.436	475.38
406.66	505.38
406.883	508.38
407.107	539.38
407.331	551.38
407.555	567.38
407.778	548.38
408.002	540.38
408.226	520.38
408.449	529.38
408.673	494.38
408.896	470.38
409.12	487.38
409.344	512.38
409.567	498.38
409.791	513.38
410.014	500.38
410.238	516.38
410.461	490.38
410.685	478.38
410.908	471.38
411.132	484.38
411.355	480.38
411.578	466.38
411.802	454.38
412.025	459.38
412.249	464.38
412.472	450.38
412.695	457.38
412.919	441.38
413.142	459.38
413.365	446.38
413.589	452.38
413.812	461.38
414.035	447.38
414.258	438.38
414.482	457.38
414.705	433.38
414.928	442.38
415.151	448.38
415.374	452.38
415.597	454.38
415.821	441.38
416.044	422.38
416.267	429.38
416.49	408.38
416.713	424.38
416.936	420.38
417.159	435.38
417.382	429.38
417.605	437.38
417.828	463.38
418.051	445.38
418.274	444.38
418.497	434.38
418.72	462.38
418.943	432.38
419.166	488.38
419.389	518.38
419.611	491.38
419.834	453.38
420.057	454.38
420.28	459.38
420.503	458.38
420.726	428.38
420.948	425.38
421.171	436.38
421.394	481.38
421.617	429.38
421.839	452.38
422.062	456.38
422.285	451.38
422.507	443.38
422.73	443.38
422.953	438.38
423.175	435.38
423.398	437.38
423.621	472.38
423.843	449.38
424.066	472.38
424.288	446.38
424.511	438.38
424.733	444.38
424.956	436.38
425.178	450.38
425.401	462.38
425.623	439.38
425.846	424.38
426.068	436.38
426.291	438.38
426.513	417.38
426.735	420.38
426.958	419.38
427.18	422.38
427.402	418.38
427.625	398.38
427.847	398.38
428.069	414.38
428.292	401.38
428.514	405.38
428.736	398.38
428.958	395.38
429.181	419.38
429.403	393.38
429.625	401.38
429.847	390.38
430.069	393.38
430.292	392.38
430.514	395.38
430.736	407.38
430.958	377.38
431.18	394.38
431.402	406.38
431.624	406.38
431.846	422.38
432.068	393.38
432.29	416.38
432.512	409.38
432.734	397.38
432.956	401.38
433.178	424.38
433.4	444.38
433.622	413.38
433.844	424.38
434.066	400.38
434.287	413.38
434.509	416.38
434.731	419.38
434.953	444.38
435.175	475.38
435.397	455.38
435.618	442.38
435.84	410.38
436.062	403.38
436.284	417.38
436.505	408.38
436.727	411.38
436.949	415.38
437.17	420.38
437.392	412.38
437.614	398.38
437.835	388.38
438.057	394.38
438.278	394.38
438.5	399.38
438.721	394.38
438.943	417.38
439.165	406.38
439.386	398.38
439.608	422.38
439.829	396.38
440.05	398.38
440.272	405.38
440.493	406.38
440.715	417.38
440.936	430.38
441.158	438.38
441.379	412.38
441.6	444.38
441.822	462.38
442.043	465.38
442.264	460.38
442.486	446.38
442.707	458.38
442.928	434.38
443.149	445.38
443.371	443.38
443.592	477.38
443.813	449.38
444.034	462.38
444.255	457.38
444.476	494.38
444.698	534.38
444.919	532.38
445.14	621.38
445.361	544.38
445.582	476.38
445.803	459.38
446.024	453.38
446.245	446.38
446.466	435.38
446.687	412.38
446.908	427.38
447.129	406.38
447.35	394.38
447.571	413.38
447.792	394.38
448.013	425.38
448.234	390.38
448.455	410.38
448.675	404.38
448.896	404.38
449.117	364.38
449.338	394.38
449.559	397.38
449.779	388.38
450	377.38
450.221	393.38
450.442	392.38
450.662	390.38
450.883	409.38
451.104	387.38
451.324	394.38
451.545	405.38
451.766	370.38
451.986	396.38
452.207	394.38
452.428	375.38
452.648	386.38
452.869	370.38
453.089	371.38
453.31	390.38
453.53	363.38
453.751	380.38
453.971	348.38
454.192	365.38
454.412	336.38
454.633	368.38
454.853	378.38
455.073	379.38
455.294	372.38
455.514	362.38
455.734	357.38
455.955	364.38
456.175	374.38
456.395	362.38
456.616	354.38
456.836	378.38
457.056	367.38
457.276	342.38
457.497	364.38
457.717	365.38
457.937	371.38
458.157	376.38
458.377	378.38
458.598	378.38
458.818	391.38
459.038	375.38
459.258	386.38
459.478	389.38
459.698	404.38
459.918	439.38
460.138	432.38
460.358	444.38
460.578	473.38
460.798	488.38
461.018	470.38
461.238	464.38
461.458	473.38
461.678	474.38
461.898	475.38
462.118	482.38
462.338	509.38
462.558	521.38
462.777	513.38
462.997	545.38
463.217	587.38
463.437	594.38
463.657	550.38
463.876	529.38
464.096	523.38
464.316	540.38
464.536	545.38
464.755	520.38
464.975	497.38
465.195	472.38
465.414	436.38
465.634	415.38
465.854	419.38
466.073	416.38
466.293	405.38
466.512	421.38
466.732	396.38
466.951	392.38
467.171	403.38
467.391	396.38
467.61	380.38
467.829	388.38
468.049	378.38
468.268	384.38
468.488	379.38
468.707	380.38
468.927	375.38
469.146	384.38
469.365	393.38
469.585	380.38
469.804	392.38
470.023	400.38
470.243	392.38
470.462	407.38
470.681	408.38
470.901	409.38
471.12	381.38
471.339	406.38
471.558	389.38
471.777	387.38
471.997	382.38
472.216	380.38
472.435	377.38
472.654	358.38
472.873	364.38
473.092	370.38
473.311	346.38
473.53	363.38
473.749	376.38
473.968	386.38
474.187	357.38
474.406	354.38
474.625	372.38
474.844	350.38
475.063	373.38
475.282	365.38
475.501	362.38
475.72	388.38
475.939	374.38
476.158	371.38
476.377	382.38
476.596	384.38
476.814	388.38
477.033	378.38
477.252	378.38
477.471	411.38
477.69	407.38
477.908	413.38
478.127	439.38
478.346	429.38
478.564	442.38
478.783	429.38
479.002	438.38
479.22	459.38
479.439	448.38
479.658	424.38
479.876	446.38
480.095	427.38
480.313	455.38
480.532	473.38
480.751	463.38
480.969	445.38
481.188	443.38
481.406	425.38
481.624	414.38
481.843	404.38
482.061	406.38
482.28	402.38
482.498	409.38
482.717	399.38
482.935	413.38
483.153	410.38
483.372	409.38
483.59	426.38
483.808	412.38
484.027	410.38
484.245	410.38
484.463	396.38
484.681	414.38
484.9	408.38
485.118	432.38
485.336	436.38
485.554	435.38
485.772	422.38
485.99	430.38
486.209	417.38
486.427	429.38
486.645	403.38
486.863	424.38
487.081	423.38
487.299	422.38
487.517	418.38
487.735	440.38
487.953	437.38
488.171	404.38
488.389	424.38
488.607	418.38
488.825	434.38
489.043	440.38
489.261	427.38
489.479	427.38
489.696	420.38
489.914	420.38
490.132	411.38
490.35	420.38
490.568	433.38
490.786	416.38
491.003	430.38
491.221	421.38
491.439	425.38
491.657	414.38
491.874	440.38
492.092	462.38
492.31	429.38
492.527	436.38
492.745	417.38
492.963	439.38
493.18	425.38
493.398	424.38
493.615	448.38
493.833	451.38
494.05	436.38
494.268	432.38
494.485	466.38
494.703	446.38
494.92	436.38
495.138	450.38
495.355	453.38
495.573	448.38
495.79	460.38
496.008	457.38
496.225	455.38
496.442	454.38
496.66	481.38
496.877	462.38
497.094	487.38
497.312	498.38
497.529	466.38
497.746	503.38
497.963	501.38
498.181	525.38
498.398	546.38
498.615	605.38
498.832	609.38
499.049	654.38
499.267	712.38
499.484	756.38
499.701	839.38
499.918	905.38
500.135	1002.38
500.352	1128.38
500.569	1170.38
500.786	1120.38
501.003	1090.38
501.22	954.38
501.437	886.38
501.654	794.38
501.871	724.38
502.088	664.38
502.305	637.38
502.522	631.38
502.739	596.38
502.956	560.38
503.172	549.38
503.389	528.38
503.606	502.38
503.823	493.38
504.04	491.38
504.256	522.38
504.473	508.38
504.69	533.38
504.907	521.38
505.123	477.38
505.34	460.38
505.557	452.38
505.773	428.38
505.99	420.38
506.207	412.38
506.423	401.38
506.64	419.38
506.856	380.38
507.073	396.38
507.289	389.38
507.506	397.38
507.722	398.38
507.939	385.38
508.155	384.38
508.372	382.38
508.588	379.38
508.805	378.38
509.021	378.38
509.238	368.38
509.454	373.38
509.67	362.38
509.887	380.38
510.103	367.38
510.319	347.38
510.536	352.38
510.752	362.38
510.968	364.38
511.184	380.38
511.401	368.38
511.617	372.38
511.833	374.38
512.049	359.38
512.265	376.38
512.481	378.38
512.698	369.38
512.914	372.38
513.13	370.38
513.346	344.38
513.562	372.38
513.778	361.38
513.994	355.38
514.21	382.38
514.426	378.38
514.642	361.38
514.858	380.38
515.074	368.38
515.29	382.38
515.506	382.38
515.721	405.38
515.937	411.38
516.153	407.38
516.369	396.38
516.585	411.38
516.801	444.38
517.016	442.38
517.232	464.38
517.448	471.38
517.664	476.38
517.879	473.38
518.095	488.38
518.311	455.38
518.527	440.38
518.742	441.38
518.958	424.38
519.173	421.38
519.389	411.38
519.605	395.38
519.82	384.38
520.036	374.38
520.251	378.38
520.467	377.38
520.682	371.38
520.898	371.38
521.113	373.38
521.329	344.38
521.544	352.38
521.76	356.38
521.975	357.38
522.19	349.38
522.406	324.38
522.621	342.38
522.836	342.38
523.052	333.38
523.267	335.38
523.482	363.38
523.698	342.38
523.913	346.38
524.128	353.38
524.343	345.38
524.559	339.38
524.774	341.38
524.989	349.38
525.204	337.38
525.419	350.38
525.634	325.38
525.849	330.38
526.064	326.38
526.28	323.38
526.495	334.38
526.71	352.38
526.925	342.38
527.14	334.38
527.355	332.38
527.57	343.38
527.785	324.38
527.999	333.38
528.214	349.38
528.429	329.38
528.644	343.38
528.859	340.38
529.074	332.38
529.289	334.38
529.503	332.38
529.718	334.38
529.933	340.38
530.148	330.38
530.363	346.38
530.577	348.38
530.792	332.38
531.007	321.38
531.221	324.38
531.436	327.38
531.651	334.38
531.865	338.38
532.08	329.38
532.295	327.38
532.509	309.38
532.724	322.38
532.938	355.38
533.153	342.38
533.367	332.38
533.582	328.38
533.796	345.38
534.011	348.38
534.225	327.38
534.44	341.38
534.654	323.38
534.868	324.38
535.083	329.38
535.297	325.38
535.511	301.38
535.726	315.38
535.94	322.38
536.154	314.38
536.369	333.38
536.583	292.38
536.797	301.38
537.011	324.38
537.225	295.38
537.44	305.38
537.654	318.38
537.868	326.38
538.082	295.38
538.296	317.38
538.51	304.38
538.724	311.38
538.938	331.38
539.153	320.38
539.367	294.38
539.581	302.38
539.795	308.38
540.009	300.38
540.222	313.38
540.436	297.38
540.65	315.38
540.864	305.38
541.078	303.38
541.292	296.38
541.506	299.38
541.72	314.38
541.934	293.38
542.147	298.38
542.361	299.38
542.575	294.38
542.789	292.38
543.002	308.38
543.216	300.38
543.43	306.38
543.644	306.38
543.857	295.38
544.071	291.38
544.285	308.38
544.498	289.38
544.712	292.38
544.925	305.38
545.139	306.38
545.352	312.38
545.566	308.38
545.779	308.38
545.993	308.38
546.206	317.38
546.42	309.38
546.633	314.38
546.847	307.38
547.06	312.38
547.274	317.38
547.487	280.38
547.7	314.38
547.914	310.38
548.127	312.38
548.34	317.38
548.554	322.38
548.767	316.38
548.98	324.38
549.193	324.38
549.407	325.38
549.62	325.38
549.833	307.38
550.046	316.38
550.259	327.38
550.473	308.38
550.686	320.38
550.899	314.38
551.112	301.38
551.325	317.38
551.538	309.38
551.751	312.38
551.964	310.38
552.177	297.38
552.39	324.38
552.603	315.38
552.816	315.38
553.029	322.38
553.242	340.38
553.455	336.38
553.667	343.38
553.88	345.38
554.093	331.38
554.306	318.38
554.519	314.38
554.732	322.38
554.944	309.38
555.157	290.38
555.37	287.38
555.583	276.38
555.795	314.38
556.008	284.38
556.221	281.38
556.433	292.38
556.646	283.38
556.859	268.38
557.071	277.38
557.284	264.38
557.496	266.38
557.709	284.38
557.921	284.38
558.134	288.38
558.346	282.38
558.559	286.38
558.771	265.38
558.984	261.38
559.196	280.38
559.409	270.38
559.621	262.38
559.833	262.38
560.046	265.38
560.258	264.38
560.47	262.38
560.683	267.38
560.895	292.38
561.107	274.38
561.32	247.38
561.532	279.38
561.744	268.38
561.956	282.38
562.168	284.38
562.381	264.38
562.593	269.38
562.805	277.38
563.017	247.38
563.229	267.38
563.441	263.38
563.653	261.38
563.865	271.38
564.077	267.38
564.289	278.38
564.501	269.38
564.713	290.38
564.925	301.38
565.137	282.38
565.349	285.38
565.561	292.38
565.773	322.38
565.985	315.38
566.197	331.38
566.408	363.38
566.62	378.38
566.832	377.38
567.044	411.38
567.255	406.38
567.467	397.38
567.679	426.38
567.891	450.38
568.102	436.38
568.314	432.38
568.526	395.38
568.737	349.38
568.949	353.38
569.161	318.38
569.372	285.38
569.584	296.38
569.795	304.38
570.007	278.38
570.218	267.38
570.43	282.38
570.641	290.38
570.853	270.38
571.064	276.38
571.276	262.38
571.487	258.38
571.698	262.38
571.91	256.38
572.121	243.38
572.333	249.38
572.544	252.38
572.755	241.38
572.966	225.38
573.178	239.38
573.389	233.38
573.6	237.38
573.811	233.38
574.023	224.38
574.234	227.38
574.445	236.38
574.656	233.38
574.867	233.38
575.078	226.38
575.289	217.38
575.501	229.38
575.712	229.38
575.923	215.38
576.134	212.38
576.345	245.38
576.556	212.38
576.767	212.38
576.978	220.38
577.188	219.38
577.399	211.38
577.61	206.38
577.821	214.38
578.032	208.38
578.243	209.38
578.454	182.38
578.665	218.38
578.875	196.38
579.086	204.38
579.297	227.38
579.508	227.38
579.718	195.38
579.929	216.38
580.14	220.38
580.35	210.38
580.561	203.38
580.772	205.38
580.982	212.38
581.193	197.38
581.403	200.38
581.614	204.38
581.825	194.38
582.035	206.38
582.246	204.38
582.456	193.38
582.667	202.38
582.877	185.38
583.087	191.38
583.298	201.38
583.508	199.38
583.719	184.38
583.929	196.38
584.139	197.38
584.35	177.38
584.56	199.38
584.77	190.38
584.981	201.38
585.191	215.38
585.401	210.38
585.611	198.38
585.821	192.38
586.032	194.38
586.242	205.38
586.452	220.38
586.662	200.38
586.872	181.38
587.082	207.38
587.292	203.38
587.502	198.38
587.713	194.38
587.923	195.38
588.133	198.38
588.343	204.38
588.553	198.38
588.762	192.38
588.972	200.38
589.182	190.38
589.392	186.38
589.602	199.38
589.812	184.38
590.022	181.38
590.232	184.38
590.441	203.38
590.651	200.38
590.861	205.38
591.071	180.38
591.281	200.38
591.49	194.38
591.7	212.38
591.91	220.38
592.119	221.38
592.329	229.38
592.539	214.38
592.748	212.38
592.958	211.38
593.167	212.38
593.377	228.38
593.587	245.38
593.796	224.38
594.006	232.38
594.215	257.38
594.424	242.38
594.634	241.38
594.843	214.38
595.053	213.38
595.262	193.38
595.472	197.38
595.681	196.38
595.89	192.38
596.1	203.38
596.309	193.38
596.518	189.38
596.727	199.38
596.937	184.38
597.146	176.38
597.355	178.38
597.564	190.38
597.774	174.38
597.983	173.38
598.192	178.38
598.401	168.38
598.61	168.38
598.819	190.38
599.028	179.38
599.237	171.38
599.446	171.38
599.655	167.38
599.864	169.38
600.073	180.38
600.282	167.38
600.491	168.38
600.7	160.38
600.909	152.38
601.118	165.38
601.327	168.38
601.536	180.38
601.745	158.38
601.953	171.38
602.162	180.38
602.371	165.38
602.58	152.38
602.789	179.38
602.997	157.38
603.206	173.38
603.415	142.38
603.623	181.38
603.832	182.38
604.041	176.38
604.249	178.38
604.458	154.38
604.666	163.38
604.875	166.38
605.084	167.38
605.292	167.38
605.501	154.38
605.709	151.38
605.918	176.38
606.126	167.38
606.334	176.38
606.543	167.38
606.751	156.38
606.96	161.38
607.168	125.38
607.376	162.38
607.585	148.38
607.793	159.38
608.001	168.38
608.21	149.38
608.418	160.38
608.626	159.38
608.834	163.38
609.043	150.38
609.251	161.38
609.459	170.38
609.667	160.38
609.875	164.38
610.083	148.38
610.291	156.38
610.499	161.38
610.707	154.38
610.916	158.38
611.124	163.38
611.332	153.38
611.54	157.38
611.748	147.38
611.955	161.38
612.163	165.38
612.371	154.38
612.579	166.38
612.787	156.38
612.995	150.38
613.203	167.38
613.411	168.38
613.618	149.38
613.826	158.38
614.034	148.38
614.242	150.38
614.449	160.38
614.657	154.38
614.865	149.38
615.072	152.38
615.28	158.38
615.488	149.38
615.695	151.38
615.903	157.38
616.111	157.38
616.318	155.38
616.526	150.38
616.733	174.38
616.941	143.38
617.148	145.38
617.356	159.38
617.563	156.38
617.771	170.38
617.978	151.38
618.185	155.38
618.393	145.38
618.6	160.38
618.807	171.38
619.015	148.38
619.222	154.38
619.429	151.38
619.637	146.38
619.844	144.38
620.051	148.38
620.258	149.38
620.466	150.38
620.673	151.38
620.88	143.38
621.087	148.38
621.294	155.38
621.501	147.38
621.708	144.38
621.915	139.38
622.122	156.38
622.329	179.38
622.536	174.38
622.743	148.38
622.95	157.38
623.157	161.38
623.364	157.38
623.571	138.38
623.778	133.38
623.985	147.38
624.192	152.38
624.399	145.38
624.606	136.38
624.812	151.38
625.019	136.38
625.226	153.38
625.433	139.38
625.639	136.38
625.846	149.38
626.053	150.38
626.259	154.38
626.466	142.38
626.673	138.38
626.879	152.38
627.086	130.38
627.293	130.38
627.499	132.38
627.706	151.38
627.912	132.38
628.119	128.38
628.325	134.38
628.532	137.38
628.738	145.38
628.945	141.38
629.151	142.38
629.357	130.38
629.564	146.38
629.77	140.38
629.976	136.38
630.183	133.38
630.389	129.38
630.595	126.38
630.802	141.38
631.008	138.38
631.214	130.38
631.42	145.38
631.627	137.38
631.833	128.38
632.039	135.38
632.245	153.38
632.451	138.38
632.657	137.38
632.863	141.38
633.069	131.38
633.275	126.38
633.481	136.38
633.688	119.38
633.893	148.38
634.099	124.38
634.305	125.38
634.511	132.38
634.717	134.38
634.923	135.38
635.129	136.38
635.335	136.38
635.541	132.38
635.747	133.38
635.952	134.38
636.158	135.38
636.364	129.38
636.57	141.38
636.775	132.38
636.981	133.38
637.187	132.38
637.392	124.38
637.598	128.38
637.804	126.38
638.009	128.38
638.215	134.38
638.421	112.38
638.626	122.38
638.832	130.38
639.037	118.38
639.243	124.38
639.448	132.38
639.654	135.38
639.859	140.38
640.065	120.38
640.27	122.38
640.475	122.38
640.681	125.38
640.886	118.38
641.091	126.38
641.297	132.38
641.502	141.38
641.707	127.38
641.913	142.38
642.118	118.38
642.323	139.38
642.528	136.38
642.733	123.38
642.939	128.38
643.144	120.38
643.349	121.38
643.554	116.38
643.759	124.38
643.964	132.38
644.169	130.38
644.374	132.38
644.579	128.38
644.784	127.38
644.989	128.38
645.194	121.38
645.399	141.38
645.604	132.38
645.809	117.38
646.014	132.38
646.219	139.38
646.423	120.38
646.628	126.38
646.833	117.38
647.038	126.38
647.243	116.38
647.447	125.38
647.652	119.38
647.857	123.38
648.062	129.38
648.266	122.38
648.471	126.38
648.676	117.38
648.88	122.38
649.085	133.38
649.289	113.38
649.494	125.38
649.698	124.38
649.903	119.38
650.107	117.38
650.312	120.38
650.516	114.38
650.721	116.38
650.925	107.38
651.13	106.38
651.334	117.38
651.539	117.38
651.743	118.38
651.947	109.38
652.152	114.38
652.356	120.38
652.56	109.38
652.764	122.38
652.969	112.38
653.173	125.38
653.377	114.38
653.581	102.38
653.785	112.38
653.99	112.38
654.194	110.38
654.398	99.38
654.602	112.38
654.806	121.38
655.01	116.38
655.214	118.38
655.418	120.38
655.622	121.38
655.826	117.38
656.03	124.38
656.234	107.38
656.438	110.38
656.642	108.38
656.846	114.38
657.049	100.38
657.253	109.38
657.457	97.38
657.661	95.38
657.865	98.38
658.068	102.38
658.272	92.38
658.476	99.38
658.68	95.38
658.883	105.38
659.087	96.38
659.291	100.38
659.494	99.38
659.698	93.38
659.901	98.38
660.105	98.38
660.309	95.38
660.512	93.38
660.716	85.38
660.919	90.38
661.123	97.38
661.326	72.38
661.53	88.38
661.733	86.38
661.936	93.38
662.14	77.38
662.343	79.38
662.546	80.38
662.75	87.38
662.953	90.38
663.156	96.38
663.36	92.38
663.563	94.38
663.766	85.38
663.969	93.38
664.173	71.38
664.376	74.38
664.579	78.38
664.782	73.38
664.985	83.38
665.188	84.38
665.391	95.38
665.594	67.38
665.797	82.38
666	86.38
666.203	92.38
666.406	90.38
666.609	87.38
666.812	78.38
667.015	72.38
667.218	95.38
667.421	91.38
667.624	78.38
667.827	81.38
668.03	84.38
668.232	80.38
668.435	93.38
668.638	90.38
668.841	76.38
669.043	78.38
669.246	83.38
669.449	87.38
669.651	97.38
669.854	97.38
670.057	94.38
670.259	80.38
670.462	87.38
670.665	81.38
670.867	86.38
671.07	69.38
671.272	87.38
671.475	84.38
671.677	85.38
671.88	84.38
672.082	78.38
672.284	93.38
672.487	83.38
672.689	75.38
672.892	83.38
