Data from Fe(NO3)3@0.0125M.TitratingCurve.Agarose3%dH2O.NegLispCup.LampEnergy10.LIBS07252019_HRD10591_17-01-48-341.txt Node
Date: Thu Jul 25 17:01:48 EDT 2019
User: cochatt
Spectrometer: HR+D1059
Trigger mode: 1
Integration Time (sec): 1.000000E-1
Scans to average: 1
Electric dark correction enabled: true
Nonlinearity correction enabled: false
Boxcar width: 0
XAxis mode: Wavelengths
Number of Pixels in Spectrum: 2048
>>>>>Begin Spectral Data<<<<<
223.165	-27.62
223.4	-27.62
223.635	-27.62
223.869	-27.62
224.104	-13.62
224.338	-6.62
224.573	-10.62
224.808	-1.62
225.042	-1.62
225.277	-19.62
225.511	-9.62
225.746	-5.62
225.98	18.38
226.215	6.38
226.449	24.38
226.683	22.38
226.918	26.38
227.152	26.38
227.387	35.38
227.621	41.38
227.856	50.38
228.09	33.38
228.324	58.38
228.559	49.38
228.793	56.38
229.027	74.38
229.262	63.38
229.496	82.38
229.73	91.38
229.964	94.38
230.199	85.38
230.433	104.38
230.667	97.38
230.901	86.38
231.136	112.38
231.37	95.38
231.604	95.38
231.838	85.38
232.072	83.38
232.306	102.38
232.541	88.38
232.775	96.38
233.009	113.38
233.243	111.38
233.477	96.38
233.711	96.38
233.945	93.38
234.179	102.38
234.413	89.38
234.647	115.38
234.881	119.38
235.115	102.38
235.349	107.38
235.583	116.38
235.817	113.38
236.051	93.38
236.285	109.38
236.519	110.38
236.753	96.38
236.987	106.38
237.221	110.38
237.455	99.38
237.689	87.38
237.922	111.38
238.156	113.38
238.39	100.38
238.624	104.38
238.858	101.38
239.091	111.38
239.325	117.38
239.559	121.38
239.793	118.38
240.027	101.38
240.26	111.38
240.494	116.38
240.728	111.38
240.961	122.38
241.195	112.38
241.429	118.38
241.662	116.38
241.896	109.38
242.13	94.38
242.363	111.38
242.597	109.38
242.83	102.38
243.064	107.38
243.298	127.38
243.531	130.38
243.765	125.38
243.998	126.38
244.232	129.38
244.465	112.38
244.699	124.38
244.932	129.38
245.166	130.38
245.399	128.38
245.633	115.38
245.866	130.38
246.099	138.38
246.333	125.38
246.566	122.38
246.8	121.38
247.033	123.38
247.266	132.38
247.5	136.38
247.733	127.38
247.966	124.38
248.2	124.38
248.433	136.38
248.666	125.38
248.899	147.38
249.133	130.38
249.366	111.38
249.599	139.38
249.832	137.38
250.066	138.38
250.299	142.38
250.532	123.38
250.765	126.38
250.998	115.38
251.231	153.38
251.465	163.38
251.698	146.38
251.931	145.38
252.164	130.38
252.397	122.38
252.63	123.38
252.863	137.38
253.096	150.38
253.329	133.38
253.562	139.38
253.795	139.38
254.028	144.38
254.261	128.38
254.494	136.38
254.727	152.38
254.96	137.38
255.193	153.38
255.426	140.38
255.659	147.38
255.892	145.38
256.124	152.38
256.357	139.38
256.59	155.38
256.823	164.38
257.056	143.38
257.289	154.38
257.521	143.38
257.754	144.38
257.987	152.38
258.22	158.38
258.452	149.38
258.685	163.38
258.918	171.38
259.151	155.38
259.383	176.38
259.616	157.38
259.849	154.38
260.081	177.38
260.314	174.38
260.547	166.38
260.779	177.38
261.012	157.38
261.244	145.38
261.477	173.38
261.71	151.38
261.942	159.38
262.175	171.38
262.407	168.38
262.64	173.38
262.872	184.38
263.105	153.38
263.337	179.38
263.57	175.38
263.802	170.38
264.035	145.38
264.267	179.38
264.499	170.38
264.732	165.38
264.964	193.38
265.197	166.38
265.429	186.38
265.661	173.38
265.894	173.38
266.126	174.38
266.358	178.38
266.591	166.38
266.823	175.38
267.055	179.38
267.287	186.38
267.52	174.38
267.752	177.38
267.984	179.38
268.216	187.38
268.448	171.38
268.681	195.38
268.913	188.38
269.145	186.38
269.377	189.38
269.609	194.38
269.841	180.38
270.073	184.38
270.306	183.38
270.538	178.38
270.77	181.38
271.002	174.38
271.234	169.38
271.466	191.38
271.698	181.38
271.93	183.38
272.162	184.38
272.394	189.38
272.626	188.38
272.858	210.38
273.09	193.38
273.322	193.38
273.553	196.38
273.785	210.38
274.017	194.38
274.249	195.38
274.481	201.38
274.713	194.38
274.945	203.38
275.176	200.38
275.408	212.38
275.64	220.38
275.872	198.38
276.104	206.38
276.335	203.38
276.567	210.38
276.799	191.38
277.031	208.38
277.262	215.38
277.494	212.38
277.726	220.38
277.957	202.38
278.189	211.38
278.421	214.38
278.652	209.38
278.884	198.38
279.115	217.38
279.347	214.38
279.579	199.38
279.81	228.38
280.042	221.38
280.273	209.38
280.505	215.38
280.736	223.38
280.968	215.38
281.199	226.38
281.431	213.38
281.662	224.38
281.894	203.38
282.125	217.38
282.356	220.38
282.588	220.38
282.819	228.38
283.051	219.38
283.282	230.38
283.513	233.38
283.745	239.38
283.976	220.38
284.207	237.38
284.439	232.38
284.67	228.38
284.901	241.38
285.132	231.38
285.364	235.38
285.595	230.38
285.826	229.38
286.057	254.38
286.288	243.38
286.52	243.38
286.751	248.38
286.982	260.38
287.213	255.38
287.444	231.38
287.675	222.38
287.906	238.38
288.138	249.38
288.369	244.38
288.6	244.38
288.831	245.38
289.062	249.38
289.293	239.38
289.524	243.38
289.755	229.38
289.986	259.38
290.217	253.38
290.448	251.38
290.679	253.38
290.91	246.38
291.141	241.38
291.371	253.38
291.602	271.38
291.833	249.38
292.064	265.38
292.295	243.38
292.526	263.38
292.757	246.38
292.987	246.38
293.218	237.38
293.449	246.38
293.68	254.38
293.91	229.38
294.141	243.38
294.372	264.38
294.603	264.38
294.833	262.38
295.064	264.38
295.295	277.38
295.525	254.38
295.756	270.38
295.987	278.38
296.217	277.38
296.448	251.38
296.679	250.38
296.909	242.38
297.14	271.38
297.37	271.38
297.601	270.38
297.831	265.38
298.062	267.38
298.292	266.38
298.523	280.38
298.753	277.38
298.984	276.38
299.214	267.38
299.445	279.38
299.675	270.38
299.905	279.38
300.136	281.38
300.366	273.38
300.597	270.38
300.827	283.38
301.057	287.38
301.288	262.38
301.518	280.38
301.748	291.38
301.979	279.38
302.209	270.38
302.439	287.38
302.669	282.38
302.9	287.38
303.13	303.38
303.36	296.38
303.59	294.38
303.82	289.38
304.051	290.38
304.281	275.38
304.511	313.38
304.741	290.38
304.971	290.38
305.201	296.38
305.431	292.38
305.661	290.38
305.891	288.38
306.121	296.38
306.352	296.38
306.582	295.38
306.812	281.38
307.042	299.38
307.272	289.38
307.502	281.38
307.731	286.38
307.961	292.38
308.191	287.38
308.421	295.38
308.651	299.38
308.881	291.38
309.111	274.38
309.341	273.38
309.571	302.38
309.8	299.38
310.03	298.38
310.26	288.38
310.49	308.38
310.72	322.38
310.949	299.38
311.179	281.38
311.409	302.38
311.639	303.38
311.868	318.38
312.098	310.38
312.328	316.38
312.557	320.38
312.787	323.38
313.017	333.38
313.246	308.38
313.476	308.38
313.706	303.38
313.935	312.38
314.165	299.38
314.394	319.38
314.624	325.38
314.853	331.38
315.083	303.38
315.312	334.38
315.542	335.38
315.771	325.38
316.001	320.38
316.23	319.38
316.46	316.38
316.689	321.38
316.919	330.38
317.148	331.38
317.377	328.38
317.607	316.38
317.836	311.38
318.065	324.38
318.295	307.38
318.524	339.38
318.753	334.38
318.983	319.38
319.212	313.38
319.441	327.38
319.67	319.38
319.9	334.38
320.129	323.38
320.358	330.38
320.587	343.38
320.816	313.38
321.046	326.38
321.275	346.38
321.504	333.38
321.733	331.38
321.962	321.38
322.191	325.38
322.42	314.38
322.649	334.38
322.878	329.38
323.108	324.38
323.337	329.38
323.566	330.38
323.795	330.38
324.024	322.38
324.253	324.38
324.482	343.38
324.71	353.38
324.939	338.38
325.168	330.38
325.397	339.38
325.626	347.38
325.855	344.38
326.084	329.38
326.313	343.38
326.542	329.38
326.77	339.38
326.999	335.38
327.228	352.38
327.457	337.38
327.686	366.38
327.914	348.38
328.143	360.38
328.372	360.38
328.6	345.38
328.829	340.38
329.058	343.38
329.287	355.38
329.515	360.38
329.744	356.38
329.972	373.38
330.201	353.38
330.43	344.38
330.658	371.38
330.887	362.38
331.115	358.38
331.344	366.38
331.572	376.38
331.801	361.38
332.03	373.38
332.258	375.38
332.486	392.38
332.715	395.38
332.943	402.38
333.172	386.38
333.4	393.38
333.629	399.38
333.857	407.38
334.085	435.38
334.314	427.38
334.542	415.38
334.771	434.38
334.999	418.38
335.227	410.38
335.455	434.38
335.684	421.38
335.912	432.38
336.14	411.38
336.369	410.38
336.597	404.38
336.825	446.38
337.053	413.38
337.281	402.38
337.51	412.38
337.738	389.38
337.966	392.38
338.194	406.38
338.422	384.38
338.65	409.38
338.878	388.38
339.106	389.38
339.334	362.38
339.562	389.38
339.79	374.38
340.018	381.38
340.246	372.38
340.474	366.38
340.702	379.38
340.93	376.38
341.158	368.38
341.386	383.38
341.614	384.38
341.842	365.38
342.07	389.38
342.298	377.38
342.526	387.38
342.754	385.38
342.981	403.38
343.209	393.38
343.437	372.38
343.665	398.38
343.893	409.38
344.12	409.38
344.348	414.38
344.576	411.38
344.804	401.38
345.031	395.38
345.259	401.38
345.487	399.38
345.714	382.38
345.942	378.38
346.17	358.38
346.397	353.38
346.625	366.38
346.853	368.38
347.08	349.38
347.308	375.38
347.535	383.38
347.763	367.38
347.99	362.38
348.218	327.38
348.445	377.38
348.673	355.38
348.9	367.38
349.128	372.38
349.355	376.38
349.583	368.38
349.81	358.38
350.037	369.38
350.265	355.38
350.492	365.38
350.72	360.38
350.947	375.38
351.174	363.38
351.402	371.38
351.629	352.38
351.856	387.38
352.083	358.38
352.311	375.38
352.538	346.38
352.765	353.38
352.992	358.38
353.22	369.38
353.447	363.38
353.674	360.38
353.901	357.38
354.128	353.38
354.355	368.38
354.583	377.38
354.81	362.38
355.037	354.38
355.264	369.38
355.491	372.38
355.718	358.38
355.945	370.38
356.172	369.38
356.399	375.38
356.626	360.38
356.853	375.38
357.08	364.38
357.307	376.38
357.534	374.38
357.761	377.38
357.988	380.38
358.215	359.38
358.441	367.38
358.668	375.38
358.895	369.38
359.122	371.38
359.349	359.38
359.576	358.38
359.802	347.38
360.029	377.38
360.256	377.38
360.483	359.38
360.709	370.38
360.936	359.38
361.163	381.38
361.39	359.38
361.616	373.38
361.843	367.38
362.07	366.38
362.296	364.38
362.523	378.38
362.749	352.38
362.976	370.38
363.203	381.38
363.429	355.38
363.656	377.38
363.882	373.38
364.109	375.38
364.335	399.38
364.562	375.38
364.788	367.38
365.015	404.38
365.241	368.38
365.468	369.38
365.694	372.38
365.92	379.38
366.147	352.38
366.373	360.38
366.599	373.38
366.826	363.38
367.052	380.38
367.278	357.38
367.505	377.38
367.731	392.38
367.957	382.38
368.184	381.38
368.41	375.38
368.636	390.38
368.862	384.38
369.089	391.38
369.315	389.38
369.541	385.38
369.767	385.38
369.993	390.38
370.219	382.38
370.445	383.38
370.672	394.38
370.898	402.38
371.124	384.38
371.35	407.38
371.576	405.38
371.802	382.38
372.028	423.38
372.254	408.38
372.48	391.38
372.706	417.38
372.932	427.38
373.158	417.38
373.384	417.38
373.61	413.38
373.835	421.38
374.061	409.38
374.287	410.38
374.513	411.38
374.739	440.38
374.965	426.38
375.191	452.38
375.416	429.38
375.642	419.38
375.868	422.38
376.094	416.38
376.319	405.38
376.545	409.38
376.771	405.38
376.997	407.38
377.222	418.38
377.448	393.38
377.674	413.38
377.899	389.38
378.125	375.38
378.35	393.38
378.576	407.38
378.802	392.38
379.027	397.38
379.253	415.38
379.478	426.38
379.704	384.38
379.929	407.38
380.155	408.38
380.38	395.38
380.606	406.38
380.831	399.38
381.057	423.38
381.282	419.38
381.507	402.38
381.733	417.38
381.958	432.38
382.184	407.38
382.409	438.38
382.634	419.38
382.86	440.38
383.085	415.38
383.31	429.38
383.535	429.38
383.761	431.38
383.986	441.38
384.211	450.38
384.436	429.38
384.662	450.38
384.887	451.38
385.112	459.38
385.337	468.38
385.562	470.38
385.787	463.38
386.013	477.38
386.238	479.38
386.463	444.38
386.688	449.38
386.913	463.38
387.138	468.38
387.363	460.38
387.588	479.38
387.813	470.38
388.038	436.38
388.263	463.38
388.488	491.38
388.713	462.38
388.938	467.38
389.163	458.38
389.387	467.38
389.612	484.38
389.837	491.38
390.062	480.38
390.287	471.38
390.512	485.38
390.736	491.38
390.961	480.38
391.186	478.38
391.411	493.38
391.636	507.38
391.86	486.38
392.085	507.38
392.31	479.38
392.534	492.38
392.759	498.38
392.984	493.38
393.208	498.38
393.433	487.38
393.658	479.38
393.882	493.38
394.107	479.38
394.331	502.38
394.556	474.38
394.78	503.38
395.005	478.38
395.229	508.38
395.454	518.38
395.678	521.38
395.903	513.38
396.127	508.38
396.352	518.38
396.576	501.38
396.801	493.38
397.025	532.38
397.249	484.38
397.474	529.38
397.698	527.38
397.922	527.38
398.147	536.38
398.371	572.38
398.595	584.38
398.82	607.38
399.044	621.38
399.268	607.38
399.492	688.38
399.717	692.38
399.941	708.38
400.165	654.38
400.389	638.38
400.613	629.38
400.837	608.38
401.062	596.38
401.286	606.38
401.51	591.38
401.734	585.38
401.958	578.38
402.182	558.38
402.406	551.38
402.63	580.38
402.854	583.38
403.078	595.38
403.302	568.38
403.526	590.38
403.75	569.38
403.974	597.38
404.198	584.38
404.422	582.38
404.645	608.38
404.869	595.38
405.093	587.38
405.317	609.38
405.541	584.38
405.765	609.38
405.988	621.38
406.212	608.38
406.436	621.38
406.66	613.38
406.883	631.38
407.107	638.38
407.331	651.38
407.555	651.38
407.778	656.38
408.002	651.38
408.226	637.38
408.449	638.38
408.673	634.38
408.896	626.38
409.12	611.38
409.344	614.38
409.567	616.38
409.791	608.38
410.014	641.38
410.238	601.38
410.461	603.38
410.685	608.38
410.908	599.38
411.132	586.38
411.355	582.38
411.578	581.38
411.802	582.38
412.025	585.38
412.249	589.38
412.472	612.38
412.695	570.38
412.919	550.38
413.142	576.38
413.365	583.38
413.589	583.38
413.812	547.38
414.035	570.38
414.258	567.38
414.482	565.38
414.705	576.38
414.928	572.38
415.151	582.38
415.374	565.38
415.597	538.38
415.821	543.38
416.044	546.38
416.267	564.38
416.49	554.38
416.713	552.38
416.936	540.38
417.159	544.38
417.382	530.38
417.605	563.38
417.828	539.38
418.051	537.38
418.274	549.38
418.497	561.38
418.72	563.38
418.943	550.38
419.166	565.38
419.389	611.38
419.611	593.38
419.834	563.38
420.057	583.38
420.28	550.38
420.503	530.38
420.726	569.38
420.948	546.38
421.171	541.38
421.394	545.38
421.617	546.38
421.839	548.38
422.062	557.38
422.285	524.38
422.507	548.38
422.73	568.38
422.953	559.38
423.175	561.38
423.398	557.38
423.621	548.38
423.843	542.38
424.066	537.38
424.288	558.38
424.511	545.38
424.733	541.38
424.956	532.38
425.178	546.38
425.401	568.38
425.623	554.38
425.846	517.38
426.068	523.38
426.291	527.38
426.513	549.38
426.735	551.38
426.958	528.38
427.18	513.38
427.402	517.38
427.625	526.38
427.847	502.38
428.069	505.38
428.292	506.38
428.514	493.38
428.736	518.38
428.958	542.38
429.181	487.38
429.403	496.38
429.625	484.38
429.847	509.38
430.069	524.38
430.292	502.38
430.514	488.38
430.736	507.38
430.958	506.38
431.18	520.38
431.402	514.38
431.624	485.38
431.846	494.38
432.068	515.38
432.29	514.38
432.512	538.38
432.734	518.38
432.956	506.38
433.178	514.38
433.4	501.38
433.622	503.38
433.844	514.38
434.066	526.38
434.287	515.38
434.509	535.38
434.731	531.38
434.953	536.38
435.175	543.38
435.397	541.38
435.618	527.38
435.84	526.38
436.062	519.38
436.284	518.38
436.505	515.38
436.727	507.38
436.949	494.38
437.17	495.38
437.392	518.38
437.614	498.38
437.835	490.38
438.057	468.38
438.278	475.38
438.5	522.38
438.721	486.38
438.943	509.38
439.165	489.38
439.386	484.38
439.608	495.38
439.829	485.38
440.05	513.38
440.272	499.38
440.493	496.38
440.715	512.38
440.936	510.38
441.158	531.38
441.379	502.38
441.6	534.38
441.822	503.38
442.043	527.38
442.264	535.38
442.486	533.38
442.707	540.38
442.928	532.38
443.149	524.38
443.371	503.38
443.592	531.38
443.813	554.38
444.034	540.38
444.255	557.38
444.476	563.38
444.698	567.38
444.919	565.38
445.14	663.38
445.361	597.38
445.582	591.38
445.803	529.38
446.024	533.38
446.245	527.38
446.466	505.38
446.687	493.38
446.908	514.38
447.129	505.38
447.35	482.38
447.571	501.38
447.792	493.38
448.013	482.38
448.234	481.38
448.455	488.38
448.675	477.38
448.896	487.38
449.117	480.38
449.338	457.38
449.559	470.38
449.779	462.38
450	465.38
450.221	465.38
450.442	467.38
450.662	470.38
450.883	460.38
451.104	481.38
451.324	480.38
451.545	464.38
451.766	468.38
451.986	463.38
452.207	451.38
452.428	466.38
452.648	453.38
452.869	426.38
453.089	439.38
453.31	425.38
453.53	457.38
453.751	452.38
453.971	443.38
454.192	445.38
454.412	444.38
454.633	445.38
454.853	463.38
455.073	446.38
455.294	458.38
455.514	460.38
455.734	440.38
455.955	422.38
456.175	447.38
456.395	449.38
456.616	445.38
456.836	435.38
457.056	470.38
457.276	452.38
457.497	471.38
457.717	449.38
457.937	471.38
458.157	458.38
458.377	458.38
458.598	466.38
458.818	503.38
459.038	509.38
459.258	486.38
459.478	516.38
459.698	523.38
459.918	549.38
460.138	541.38
460.358	540.38
460.578	541.38
460.798	575.38
461.018	577.38
461.238	563.38
461.458	570.38
461.678	574.38
461.898	576.38
462.118	561.38
462.338	581.38
462.558	616.38
462.777	618.38
462.997	636.38
463.217	665.38
463.437	661.38
463.657	654.38
463.876	640.38
464.096	634.38
464.316	633.38
464.536	630.38
464.755	607.38
464.975	577.38
465.195	557.38
465.414	567.38
465.634	549.38
465.854	515.38
466.073	541.38
466.293	512.38
466.512	504.38
466.732	489.38
466.951	511.38
467.171	489.38
467.391	501.38
467.61	498.38
467.829	474.38
468.049	499.38
468.268	500.38
468.488	487.38
468.707	475.38
468.927	489.38
469.146	469.38
469.365	485.38
469.585	464.38
469.804	507.38
470.023	499.38
470.243	506.38
470.462	528.38
470.681	493.38
470.901	488.38
471.12	487.38
471.339	504.38
471.558	507.38
471.777	473.38
471.997	474.38
472.216	511.38
472.435	495.38
472.654	482.38
472.873	477.38
473.092	497.38
473.311	512.38
473.53	475.38
473.749	482.38
473.968	497.38
474.187	476.38
474.406	475.38
474.625	488.38
474.844	481.38
475.063	507.38
475.282	509.38
475.501	489.38
475.72	511.38
475.939	503.38
476.158	499.38
476.377	497.38
476.596	503.38
476.814	506.38
477.033	494.38
477.252	527.38
477.471	513.38
477.69	534.38
477.908	534.38
478.127	579.38
478.346	580.38
478.564	567.38
478.783	562.38
479.002	572.38
479.22	551.38
479.439	568.38
479.658	553.38
479.876	581.38
480.095	588.38
480.313	603.38
480.532	623.38
480.751	578.38
480.969	587.38
481.188	561.38
481.406	588.38
481.624	553.38
481.843	543.38
482.061	554.38
482.28	543.38
482.498	571.38
482.717	549.38
482.935	545.38
483.153	559.38
483.372	547.38
483.59	542.38
483.808	554.38
484.027	549.38
484.245	590.38
484.463	557.38
484.681	581.38
484.9	566.38
485.118	573.38
485.336	558.38
485.554	561.38
485.772	560.38
485.99	559.38
486.209	568.38
486.427	554.38
486.645	561.38
486.863	583.38
487.081	609.38
487.299	569.38
487.517	563.38
487.735	566.38
487.953	581.38
488.171	571.38
488.389	562.38
488.607	596.38
488.825	577.38
489.043	589.38
489.261	595.38
489.479	557.38
489.696	586.38
489.914	573.38
490.132	581.38
490.35	555.38
490.568	563.38
490.786	589.38
491.003	595.38
491.221	592.38
491.439	608.38
491.657	593.38
491.874	583.38
492.092	601.38
492.31	609.38
492.527	611.38
492.745	612.38
492.963	580.38
493.18	590.38
493.398	633.38
493.615	594.38
493.833	612.38
494.05	597.38
494.268	619.38
494.485	603.38
494.703	617.38
494.92	612.38
495.138	603.38
495.355	639.38
495.573	645.38
495.79	627.38
496.008	661.38
496.225	633.38
496.442	662.38
496.66	682.38
496.877	687.38
497.094	689.38
497.312	720.38
497.529	711.38
497.746	712.38
497.963	739.38
498.181	752.38
498.398	789.38
498.615	795.38
498.832	856.38
499.049	908.38
499.267	902.38
499.484	984.38
499.701	1015.38
499.918	1087.38
500.135	1153.38
500.352	1194.38
500.569	1219.38
500.786	1207.38
501.003	1215.38
501.22	1144.38
501.437	1057.38
501.654	983.38
501.871	961.38
502.088	895.38
502.305	871.38
502.522	833.38
502.739	802.38
502.956	759.38
503.172	775.38
503.389	721.38
503.606	733.38
503.823	724.38
504.04	731.38
504.256	692.38
504.473	697.38
504.69	674.38
504.907	661.38
505.123	659.38
505.34	639.38
505.557	630.38
505.773	623.38
505.99	585.38
506.207	589.38
506.423	602.38
506.64	591.38
506.856	567.38
507.073	560.38
507.289	550.38
507.506	555.38
507.722	572.38
507.939	530.38
508.155	540.38
508.372	535.38
508.588	545.38
508.805	538.38
509.021	517.38
509.238	537.38
509.454	529.38
509.67	506.38
509.887	525.38
510.103	520.38
510.319	521.38
510.536	528.38
510.752	511.38
510.968	508.38
511.184	502.38
511.401	496.38
511.617	503.38
511.833	475.38
512.049	513.38
512.265	488.38
512.481	519.38
512.698	508.38
512.914	524.38
513.13	507.38
513.346	513.38
513.562	517.38
513.778	524.38
513.994	517.38
514.21	506.38
514.426	523.38
514.642	523.38
514.858	503.38
515.074	532.38
515.29	528.38
515.506	541.38
515.721	531.38
515.937	551.38
516.153	553.38
516.369	566.38
516.585	579.38
516.801	588.38
517.016	589.38
517.232	585.38
517.448	628.38
517.664	591.38
517.879	615.38
518.095	587.38
518.311	590.38
518.527	601.38
518.742	569.38
518.958	584.38
519.173	547.38
519.389	547.38
519.605	546.38
519.82	517.38
520.036	533.38
520.251	525.38
520.467	542.38
520.682	521.38
520.898	519.38
521.113	490.38
521.329	491.38
521.544	508.38
521.76	505.38
521.975	495.38
522.19	491.38
522.406	503.38
522.621	465.38
522.836	482.38
523.052	474.38
523.267	495.38
523.482	457.38
523.698	463.38
523.913	465.38
524.128	488.38
524.343	471.38
524.559	474.38
524.774	455.38
524.989	483.38
525.204	471.38
525.419	493.38
525.634	475.38
525.849	469.38
526.064	474.38
526.28	486.38
526.495	451.38
526.71	451.38
526.925	463.38
527.14	464.38
527.355	458.38
527.57	470.38
527.785	463.38
527.999	481.38
528.214	473.38
528.429	470.38
528.644	464.38
528.859	472.38
529.074	473.38
529.289	466.38
529.503	467.38
529.718	457.38
529.933	441.38
530.148	466.38
530.363	463.38
530.577	469.38
530.792	458.38
531.007	471.38
531.221	461.38
531.436	457.38
531.651	450.38
531.865	452.38
532.08	450.38
532.295	451.38
532.509	454.38
532.724	451.38
532.938	455.38
533.153	445.38
533.367	443.38
533.582	467.38
533.796	464.38
534.011	436.38
534.225	470.38
534.44	465.38
534.654	467.38
534.868	449.38
535.083	465.38
535.297	457.38
535.511	441.38
535.726	441.38
535.94	432.38
536.154	432.38
536.369	448.38
536.583	448.38
536.797	434.38
537.011	437.38
537.225	413.38
537.44	436.38
537.654	417.38
537.868	432.38
538.082	423.38
538.296	419.38
538.51	432.38
538.724	447.38
538.938	429.38
539.153	415.38
539.367	436.38
539.581	446.38
539.795	445.38
540.009	432.38
540.222	414.38
540.436	426.38
540.65	416.38
540.864	419.38
541.078	433.38
541.292	435.38
541.506	424.38
541.72	422.38
541.934	416.38
542.147	435.38
542.361	455.38
542.575	435.38
542.789	418.38
543.002	412.38
543.216	439.38
543.43	429.38
543.644	421.38
543.857	438.38
544.071	433.38
544.285	437.38
544.498	424.38
544.712	408.38
544.925	432.38
545.139	425.38
545.352	438.38
545.566	436.38
545.779	427.38
545.993	431.38
546.206	445.38
546.42	429.38
546.633	431.38
546.847	416.38
547.06	433.38
547.274	422.38
547.487	425.38
547.7	443.38
547.914	442.38
548.127	456.38
548.34	453.38
548.554	451.38
548.767	437.38
548.98	454.38
549.193	420.38
549.407	430.38
549.62	416.38
549.833	429.38
550.046	420.38
550.259	426.38
550.473	450.38
550.686	443.38
550.899	433.38
551.112	421.38
551.325	457.38
551.538	438.38
551.751	418.38
551.964	417.38
552.177	439.38
552.39	413.38
552.603	411.38
552.816	463.38
553.029	431.38
553.242	421.38
553.455	433.38
553.667	427.38
553.88	460.38
554.093	423.38
554.306	411.38
554.519	423.38
554.732	437.38
554.944	407.38
555.157	420.38
555.37	415.38
555.583	416.38
555.795	411.38
556.008	393.38
556.221	409.38
556.433	381.38
556.646	390.38
556.859	402.38
557.071	385.38
557.284	378.38
557.496	409.38
557.709	381.38
557.921	385.38
558.134	381.38
558.346	375.38
558.559	380.38
558.771	370.38
558.984	371.38
559.196	368.38
559.409	366.38
559.621	367.38
559.833	382.38
560.046	371.38
560.258	378.38
560.47	357.38
560.683	363.38
560.895	379.38
561.107	381.38
561.32	378.38
561.532	365.38
561.744	370.38
561.956	368.38
562.168	367.38
562.381	358.38
562.593	381.38
562.805	387.38
563.017	371.38
563.229	390.38
563.441	394.38
563.653	405.38
563.865	401.38
564.077	360.38
564.289	388.38
564.501	399.38
564.713	422.38
564.925	404.38
565.137	402.38
565.349	418.38
565.561	419.38
565.773	439.38
565.985	459.38
566.197	461.38
566.408	469.38
566.62	491.38
566.832	517.38
567.044	503.38
567.255	522.38
567.467	535.38
567.679	514.38
567.891	521.38
568.102	531.38
568.314	511.38
568.526	488.38
568.737	453.38
568.949	435.38
569.161	437.38
569.372	410.38
569.584	405.38
569.795	411.38
570.007	375.38
570.218	373.38
570.43	383.38
570.641	375.38
570.853	377.38
571.064	382.38
571.276	375.38
571.487	347.38
571.698	352.38
571.91	338.38
572.121	346.38
572.333	353.38
572.544	341.38
572.755	339.38
572.966	332.38
573.178	336.38
573.389	327.38
573.6	325.38
573.811	321.38
574.023	326.38
574.234	324.38
574.445	317.38
574.656	310.38
574.867	328.38
575.078	305.38
575.289	302.38
575.501	291.38
575.712	310.38
575.923	287.38
576.134	295.38
576.345	303.38
576.556	307.38
576.767	287.38
576.978	299.38
577.188	303.38
577.399	287.38
577.61	291.38
577.821	292.38
578.032	287.38
578.243	281.38
578.454	279.38
578.665	295.38
578.875	260.38
579.086	276.38
579.297	259.38
579.508	287.38
579.718	299.38
579.929	282.38
580.14	286.38
580.35	275.38
580.561	287.38
580.772	272.38
580.982	282.38
581.193	276.38
581.403	278.38
581.614	273.38
581.825	270.38
582.035	268.38
582.246	272.38
582.456	290.38
582.667	276.38
582.877	293.38
583.087	275.38
583.298	263.38
583.508	283.38
583.719	267.38
583.929	263.38
584.139	271.38
584.35	280.38
584.56	253.38
584.77	249.38
584.981	246.38
585.191	269.38
585.401	259.38
585.611	249.38
585.821	251.38
586.032	268.38
586.242	249.38
586.452	277.38
586.662	272.38
586.872	282.38
587.082	261.38
587.292	255.38
587.502	262.38
587.713	267.38
587.923	265.38
588.133	253.38
588.343	267.38
588.553	261.38
588.762	263.38
588.972	277.38
589.182	331.38
589.392	309.38
589.602	267.38
589.812	312.38
590.022	297.38
590.232	279.38
590.441	278.38
590.651	265.38
590.861	274.38
591.071	267.38
591.281	274.38
591.49	282.38
591.7	261.38
591.91	257.38
592.119	265.38
592.329	261.38
592.539	285.38
592.748	284.38
592.958	278.38
593.167	299.38
593.377	265.38
593.587	293.38
593.796	270.38
594.006	290.38
594.215	294.38
594.424	288.38
594.634	271.38
594.843	301.38
595.053	285.38
595.262	288.38
595.472	271.38
595.681	271.38
595.89	257.38
596.1	267.38
596.309	260.38
596.518	244.38
596.727	258.38
596.937	237.38
597.146	261.38
597.355	229.38
597.564	248.38
597.774	222.38
597.983	238.38
598.192	238.38
598.401	238.38
598.61	242.38
598.819	232.38
599.028	233.38
599.237	217.38
599.446	225.38
599.655	232.38
599.864	254.38
600.073	208.38
600.282	222.38
600.491	230.38
600.7	239.38
600.909	213.38
601.118	211.38
601.327	215.38
601.536	215.38
601.745	225.38
601.953	227.38
602.162	240.38
602.371	217.38
602.58	223.38
602.789	214.38
602.997	228.38
603.206	223.38
603.415	208.38
603.623	227.38
603.832	225.38
604.041	201.38
604.249	207.38
604.458	223.38
604.666	205.38
604.875	215.38
605.084	229.38
605.292	216.38
605.501	215.38
605.709	213.38
605.918	222.38
606.126	217.38
606.334	209.38
606.543	213.38
606.751	224.38
606.96	221.38
607.168	210.38
607.376	222.38
607.585	211.38
607.793	210.38
608.001	237.38
608.21	212.38
608.418	217.38
608.626	203.38
608.834	226.38
609.043	191.38
609.251	208.38
609.459	210.38
609.667	208.38
609.875	201.38
610.083	205.38
610.291	218.38
610.499	204.38
610.707	211.38
610.916	202.38
611.124	207.38
611.332	209.38
611.54	233.38
611.748	213.38
611.955	205.38
612.163	211.38
612.371	209.38
612.579	197.38
612.787	201.38
612.995	203.38
613.203	206.38
613.411	220.38
613.618	205.38
613.826	212.38
614.034	220.38
614.242	196.38
614.449	189.38
614.657	206.38
614.865	202.38
615.072	195.38
615.28	208.38
615.488	188.38
615.695	210.38
615.903	196.38
616.111	207.38
616.318	208.38
616.526	195.38
616.733	201.38
616.941	198.38
617.148	191.38
617.356	203.38
617.563	202.38
617.771	201.38
617.978	217.38
618.185	191.38
618.393	190.38
618.6	205.38
618.807	203.38
619.015	213.38
619.222	189.38
619.429	198.38
619.637	213.38
619.844	179.38
620.051	191.38
620.258	199.38
620.466	190.38
620.673	199.38
620.88	188.38
621.087	177.38
621.294	198.38
621.501	187.38
621.708	179.38
621.915	189.38
622.122	184.38
622.329	198.38
622.536	213.38
622.743	206.38
622.95	206.38
623.157	187.38
623.364	206.38
623.571	187.38
623.778	186.38
623.985	181.38
624.192	187.38
624.399	160.38
624.606	181.38
624.812	172.38
625.019	188.38
625.226	171.38
625.433	187.38
625.639	185.38
625.846	170.38
626.053	194.38
626.259	178.38
626.466	163.38
626.673	170.38
626.879	167.38
627.086	176.38
627.293	177.38
627.499	186.38
627.706	173.38
627.912	163.38
628.119	175.38
628.325	188.38
628.532	190.38
628.738	190.38
628.945	176.38
629.151	175.38
629.357	179.38
629.564	184.38
629.77	166.38
629.976	173.38
630.183	179.38
630.389	182.38
630.595	172.38
630.802	170.38
631.008	179.38
631.214	165.38
631.42	183.38
631.627	170.38
631.833	177.38
632.039	165.38
632.245	159.38
632.451	165.38
632.657	158.38
632.863	168.38
633.069	187.38
633.275	179.38
633.481	166.38
633.688	181.38
633.893	175.38
634.099	167.38
634.305	162.38
634.511	156.38
634.717	159.38
634.923	162.38
635.129	189.38
635.335	158.38
635.541	166.38
635.747	170.38
635.952	158.38
636.158	168.38
636.364	138.38
636.57	146.38
636.775	154.38
636.981	163.38
637.187	150.38
637.392	161.38
637.598	161.38
637.804	167.38
638.009	161.38
638.215	173.38
638.421	178.38
638.626	178.38
638.832	168.38
639.037	149.38
639.243	162.38
639.448	148.38
639.654	151.38
639.859	167.38
640.065	161.38
640.27	161.38
640.475	155.38
640.681	159.38
640.886	159.38
641.091	156.38
641.297	142.38
641.502	160.38
641.707	153.38
641.913	171.38
642.118	151.38
642.323	165.38
642.528	154.38
642.733	153.38
642.939	152.38
643.144	166.38
643.349	166.38
643.554	162.38
643.759	156.38
643.964	154.38
644.169	165.38
644.374	161.38
644.579	166.38
644.784	148.38
644.989	161.38
645.194	149.38
645.399	153.38
645.604	142.38
645.809	154.38
646.014	149.38
646.219	159.38
646.423	147.38
646.628	144.38
646.833	158.38
647.038	175.38
647.243	159.38
647.447	169.38
647.652	148.38
647.857	157.38
648.062	177.38
648.266	165.38
648.471	153.38
648.676	150.38
648.88	162.38
649.085	170.38
649.289	163.38
649.494	164.38
649.698	148.38
649.903	160.38
650.107	143.38
650.312	156.38
650.516	153.38
650.721	150.38
650.925	161.38
651.13	149.38
651.334	154.38
651.539	162.38
651.743	163.38
651.947	145.38
652.152	153.38
652.356	144.38
652.56	142.38
652.764	149.38
652.969	145.38
653.173	140.38
653.377	146.38
653.581	145.38
653.785	139.38
653.99	153.38
654.194	143.38
654.398	140.38
654.602	136.38
654.806	141.38
655.01	158.38
655.214	142.38
655.418	152.38
655.622	150.38
655.826	145.38
656.03	154.38
656.234	145.38
656.438	151.38
656.642	142.38
656.846	147.38
657.049	148.38
657.253	131.38
657.457	130.38
657.661	124.38
657.865	129.38
658.068	122.38
658.272	133.38
658.476	111.38
658.68	119.38
658.883	116.38
659.087	102.38
659.291	114.38
659.494	110.38
659.698	96.38
659.901	116.38
660.105	106.38
660.309	113.38
660.512	86.38
660.716	99.38
660.919	90.38
661.123	101.38
661.326	98.38
661.53	90.38
661.733	96.38
661.936	89.38
662.14	79.38
662.343	84.38
662.546	87.38
662.75	74.38
662.953	80.38
663.156	74.38
663.36	85.38
663.563	83.38
663.766	81.38
663.969	74.38
664.173	88.38
664.376	83.38
664.579	71.38
664.782	70.38
664.985	86.38
665.188	74.38
665.391	76.38
665.594	80.38
665.797	76.38
666	80.38
666.203	80.38
666.406	86.38
666.609	81.38
666.812	83.38
667.015	91.38
667.218	67.38
667.421	84.38
667.624	87.38
667.827	78.38
668.03	81.38
668.232	78.38
668.435	76.38
668.638	66.38
668.841	82.38
669.043	87.38
669.246	86.38
669.449	86.38
669.651	64.38
669.854	81.38
670.057	89.38
670.259	76.38
670.462	82.38
670.665	73.38
670.867	75.38
671.07	82.38
671.272	94.38
671.475	83.38
671.677	85.38
671.88	87.38
672.082	77.38
672.284	76.38
672.487	72.38
672.689	68.38
672.892	85.38
