Data from Fe(NO3)3@0.0125M.TitratingCurve.Agarose3%dH2O.NegLispCup.LampEnergy10.LIBS07252019_HRD10591_16-59-52-337.txt Node
Date: Thu Jul 25 16:59:52 EDT 2019
User: cochatt
Spectrometer: HR+D1059
Trigger mode: 1
Integration Time (sec): 1.000000E-1
Scans to average: 1
Electric dark correction enabled: true
Nonlinearity correction enabled: false
Boxcar width: 0
XAxis mode: Wavelengths
Number of Pixels in Spectrum: 2048
>>>>>Begin Spectral Data<<<<<
223.165	-20.94
223.4	-20.94
223.635	-20.94
223.869	-11.94
224.104	-14.94
224.338	-12.94
224.573	-28.94
224.808	-15.94
225.042	1.06
225.277	-1.94
225.511	7.06
225.746	9.06
225.98	3.06
226.215	6.06
226.449	-3.94
226.683	17.06
226.918	35.06
227.152	33.06
227.387	36.06
227.621	36.06
227.856	43.06
228.09	57.06
228.324	45.06
228.559	57.06
228.793	66.06
229.027	72.06
229.262	69.06
229.496	81.06
229.73	75.06
229.964	77.06
230.199	84.06
230.433	72.06
230.667	84.06
230.901	82.06
231.136	89.06
231.37	81.06
231.604	92.06
231.838	97.06
232.072	89.06
232.306	97.06
232.541	93.06
232.775	86.06
233.009	95.06
233.243	87.06
233.477	81.06
233.711	112.06
233.945	88.06
234.179	106.06
234.413	97.06
234.647	99.06
234.881	99.06
235.115	98.06
235.349	99.06
235.583	99.06
235.817	99.06
236.051	89.06
236.285	90.06
236.519	104.06
236.753	97.06
236.987	107.06
237.221	98.06
237.455	111.06
237.689	99.06
237.922	92.06
238.156	95.06
238.39	89.06
238.624	112.06
238.858	107.06
239.091	103.06
239.325	90.06
239.559	105.06
239.793	90.06
240.027	101.06
240.26	114.06
240.494	104.06
240.728	115.06
240.961	108.06
241.195	108.06
241.429	105.06
241.662	101.06
241.896	103.06
242.13	99.06
242.363	96.06
242.597	101.06
242.83	89.06
243.064	93.06
243.298	106.06
243.531	116.06
243.765	107.06
243.998	107.06
244.232	104.06
244.465	114.06
244.699	104.06
244.932	119.06
245.166	123.06
245.399	101.06
245.633	111.06
245.866	115.06
246.099	116.06
246.333	113.06
246.566	116.06
246.8	103.06
247.033	117.06
247.266	117.06
247.5	119.06
247.733	119.06
247.966	112.06
248.2	120.06
248.433	106.06
248.666	114.06
248.899	106.06
249.133	119.06
249.366	123.06
249.599	125.06
249.832	120.06
250.066	128.06
250.299	126.06
250.532	144.06
250.765	118.06
250.998	120.06
251.231	112.06
251.465	117.06
251.698	115.06
251.931	119.06
252.164	112.06
252.397	125.06
252.63	117.06
252.863	138.06
253.096	129.06
253.329	124.06
253.562	133.06
253.795	127.06
254.028	113.06
254.261	136.06
254.494	141.06
254.727	128.06
254.96	132.06
255.193	132.06
255.426	140.06
255.659	128.06
255.892	126.06
256.124	144.06
256.357	136.06
256.59	138.06
256.823	145.06
257.056	141.06
257.289	135.06
257.521	119.06
257.754	122.06
257.987	138.06
258.22	131.06
258.452	138.06
258.685	130.06
258.918	139.06
259.151	147.06
259.383	131.06
259.616	141.06
259.849	142.06
260.081	150.06
260.314	157.06
260.547	167.06
260.779	143.06
261.012	142.06
261.244	146.06
261.477	169.06
261.71	144.06
261.942	131.06
262.175	147.06
262.407	139.06
262.64	160.06
262.872	158.06
263.105	157.06
263.337	159.06
263.57	155.06
263.802	159.06
264.035	156.06
264.267	152.06
264.499	142.06
264.732	135.06
264.964	128.06
265.197	144.06
265.429	146.06
265.661	147.06
265.894	152.06
266.126	140.06
266.358	159.06
266.591	143.06
266.823	152.06
267.055	143.06
267.287	154.06
267.52	150.06
267.752	151.06
267.984	163.06
268.216	159.06
268.448	171.06
268.681	157.06
268.913	159.06
269.145	151.06
269.377	168.06
269.609	160.06
269.841	144.06
270.073	161.06
270.306	149.06
270.538	151.06
270.77	167.06
271.002	162.06
271.234	167.06
271.466	175.06
271.698	166.06
271.93	167.06
272.162	169.06
272.394	175.06
272.626	180.06
272.858	177.06
273.09	183.06
273.322	177.06
273.553	169.06
273.785	170.06
274.017	169.06
274.249	182.06
274.481	186.06
274.713	202.06
274.945	196.06
275.176	197.06
275.408	186.06
275.64	188.06
275.872	200.06
276.104	192.06
276.335	197.06
276.567	199.06
276.799	192.06
277.031	177.06
277.262	214.06
277.494	193.06
277.726	202.06
277.957	181.06
278.189	191.06
278.421	191.06
278.652	200.06
278.884	191.06
279.115	197.06
279.347	191.06
279.579	193.06
279.81	183.06
280.042	181.06
280.273	204.06
280.505	200.06
280.736	189.06
280.968	209.06
281.199	197.06
281.431	192.06
281.662	207.06
281.894	193.06
282.125	224.06
282.356	204.06
282.588	207.06
282.819	196.06
283.051	204.06
283.282	196.06
283.513	209.06
283.745	206.06
283.976	216.06
284.207	213.06
284.439	216.06
284.67	224.06
284.901	219.06
285.132	242.06
285.364	211.06
285.595	213.06
285.826	226.06
286.057	237.06
286.288	228.06
286.52	239.06
286.751	238.06
286.982	226.06
287.213	227.06
287.444	207.06
287.675	222.06
287.906	234.06
288.138	231.06
288.369	241.06
288.6	229.06
288.831	243.06
289.062	253.06
289.293	252.06
289.524	234.06
289.755	251.06
289.986	234.06
290.217	239.06
290.448	248.06
290.679	248.06
290.91	251.06
291.141	235.06
291.371	243.06
291.602	245.06
291.833	235.06
292.064	259.06
292.295	245.06
292.526	254.06
292.757	257.06
292.987	248.06
293.218	242.06
293.449	263.06
293.68	252.06
293.91	260.06
294.141	244.06
294.372	259.06
294.603	269.06
294.833	273.06
295.064	291.06
295.295	264.06
295.525	263.06
295.756	258.06
295.987	267.06
296.217	281.06
296.448	277.06
296.679	275.06
296.909	277.06
297.14	268.06
297.37	274.06
297.601	270.06
297.831	273.06
298.062	275.06
298.292	263.06
298.523	279.06
298.753	275.06
298.984	277.06
299.214	284.06
299.445	284.06
299.675	266.06
299.905	281.06
300.136	301.06
300.366	296.06
300.597	293.06
300.827	281.06
301.057	284.06
301.288	291.06
301.518	277.06
301.748	308.06
301.979	295.06
302.209	286.06
302.439	306.06
302.669	279.06
302.9	296.06
303.13	317.06
303.36	326.06
303.59	302.06
303.82	307.06
304.051	314.06
304.281	298.06
304.511	303.06
304.741	300.06
304.971	309.06
305.201	311.06
305.431	316.06
305.661	311.06
305.891	320.06
306.121	305.06
306.352	325.06
306.582	311.06
306.812	323.06
307.042	296.06
307.272	315.06
307.502	325.06
307.731	327.06
307.961	330.06
308.191	317.06
308.421	327.06
308.651	329.06
308.881	304.06
309.111	315.06
309.341	324.06
309.571	322.06
309.8	328.06
310.03	316.06
310.26	338.06
310.49	320.06
310.72	333.06
310.949	329.06
311.179	324.06
311.409	348.06
311.639	343.06
311.868	344.06
312.098	334.06
312.328	338.06
312.557	322.06
312.787	346.06
313.017	351.06
313.246	341.06
313.476	345.06
313.706	350.06
313.935	363.06
314.165	347.06
314.394	343.06
314.624	346.06
314.853	363.06
315.083	345.06
315.312	375.06
315.542	364.06
315.771	355.06
316.001	375.06
316.23	356.06
316.46	365.06
316.689	370.06
316.919	369.06
317.148	375.06
317.377	379.06
317.607	358.06
317.836	374.06
318.065	382.06
318.295	376.06
318.524	389.06
318.753	389.06
318.983	378.06
319.212	378.06
319.441	362.06
319.67	368.06
319.9	386.06
320.129	383.06
320.358	372.06
320.587	368.06
320.816	387.06
321.046	387.06
321.275	389.06
321.504	394.06
321.733	397.06
321.962	388.06
322.191	384.06
322.42	371.06
322.649	378.06
322.878	404.06
323.108	385.06
323.337	397.06
323.566	397.06
323.795	395.06
324.024	389.06
324.253	403.06
324.482	395.06
324.71	403.06
324.939	418.06
325.168	410.06
325.397	427.06
325.626	409.06
325.855	410.06
326.084	417.06
326.313	404.06
326.542	411.06
326.77	412.06
326.999	417.06
327.228	409.06
327.457	383.06
327.686	431.06
327.914	435.06
328.143	415.06
328.372	397.06
328.6	415.06
328.829	441.06
329.058	429.06
329.287	418.06
329.515	408.06
329.744	429.06
329.972	437.06
330.201	439.06
330.43	430.06
330.658	444.06
330.887	436.06
331.115	428.06
331.344	435.06
331.572	448.06
331.801	437.06
332.03	450.06
332.258	433.06
332.486	423.06
332.715	451.06
332.943	442.06
333.172	445.06
333.4	464.06
333.629	455.06
333.857	452.06
334.085	451.06
334.314	446.06
334.542	454.06
334.771	448.06
334.999	440.06
335.227	448.06
335.455	464.06
335.684	443.06
335.912	460.06
336.14	473.06
336.369	443.06
336.597	480.06
336.825	467.06
337.053	462.06
337.281	469.06
337.51	465.06
337.738	480.06
337.966	474.06
338.194	462.06
338.422	465.06
338.65	472.06
338.878	475.06
339.106	461.06
339.334	467.06
339.562	454.06
339.79	459.06
340.018	471.06
340.246	460.06
340.474	451.06
340.702	463.06
340.93	466.06
341.158	436.06
341.386	473.06
341.614	452.06
341.842	451.06
342.07	454.06
342.298	455.06
342.526	451.06
342.754	454.06
342.981	458.06
343.209	455.06
343.437	471.06
343.665	456.06
343.893	473.06
344.12	464.06
344.348	475.06
344.576	455.06
344.804	460.06
345.031	468.06
345.259	506.06
345.487	459.06
345.714	467.06
345.942	450.06
346.17	475.06
346.397	463.06
346.625	458.06
346.853	459.06
347.08	436.06
347.308	452.06
347.535	456.06
347.763	452.06
347.99	452.06
348.218	466.06
348.445	482.06
348.673	453.06
348.9	484.06
349.128	454.06
349.355	452.06
349.583	474.06
349.81	450.06
350.037	449.06
350.265	439.06
350.492	467.06
350.72	432.06
350.947	449.06
351.174	438.06
351.402	457.06
351.629	436.06
351.856	445.06
352.083	463.06
352.311	463.06
352.538	463.06
352.765	478.06
352.992	441.06
353.22	448.06
353.447	441.06
353.674	441.06
353.901	470.06
354.128	457.06
354.355	457.06
354.583	459.06
354.81	440.06
355.037	460.06
355.264	458.06
355.491	450.06
355.718	452.06
355.945	471.06
356.172	462.06
356.399	456.06
356.626	465.06
356.853	449.06
357.08	441.06
357.307	458.06
357.534	455.06
357.761	439.06
357.988	461.06
358.215	481.06
358.441	463.06
358.668	465.06
358.895	459.06
359.122	463.06
359.349	474.06
359.576	466.06
359.802	426.06
360.029	474.06
360.256	459.06
360.483	463.06
360.709	452.06
360.936	459.06
361.163	475.06
361.39	475.06
361.616	470.06
361.843	471.06
362.07	482.06
362.296	478.06
362.523	475.06
362.749	467.06
362.976	465.06
363.203	475.06
363.429	474.06
363.656	488.06
363.882	487.06
364.109	491.06
364.335	453.06
364.562	483.06
364.788	484.06
365.015	469.06
365.241	484.06
365.468	496.06
365.694	488.06
365.92	487.06
366.147	469.06
366.373	486.06
366.599	477.06
366.826	484.06
367.052	495.06
367.278	492.06
367.505	483.06
367.731	496.06
367.957	492.06
368.184	501.06
368.41	483.06
368.636	490.06
368.862	486.06
369.089	525.06
369.315	502.06
369.541	501.06
369.767	498.06
369.993	495.06
370.219	503.06
370.445	512.06
370.672	490.06
370.898	514.06
371.124	513.06
371.35	502.06
371.576	502.06
371.802	505.06
372.028	514.06
372.254	537.06
372.48	514.06
372.706	539.06
372.932	516.06
373.158	496.06
373.384	495.06
373.61	515.06
373.835	536.06
374.061	488.06
374.287	495.06
374.513	519.06
374.739	503.06
374.965	536.06
375.191	515.06
375.416	529.06
375.642	517.06
375.868	531.06
376.094	500.06
376.319	524.06
376.545	508.06
376.771	508.06
376.997	498.06
377.222	517.06
377.448	513.06
377.674	519.06
377.899	515.06
378.125	499.06
378.35	496.06
378.576	508.06
378.802	511.06
379.027	511.06
379.253	509.06
379.478	521.06
379.704	519.06
379.929	507.06
380.155	508.06
380.38	524.06
380.606	499.06
380.831	508.06
381.057	524.06
381.282	537.06
381.507	535.06
381.733	538.06
381.958	524.06
382.184	542.06
382.409	533.06
382.634	553.06
382.86	526.06
383.085	547.06
383.31	539.06
383.535	559.06
383.761	543.06
383.986	550.06
384.211	539.06
384.436	535.06
384.662	526.06
384.887	552.06
385.112	557.06
385.337	525.06
385.562	550.06
385.787	553.06
386.013	570.06
386.238	563.06
386.463	562.06
386.688	555.06
386.913	552.06
387.138	584.06
387.363	579.06
387.588	558.06
387.813	577.06
388.038	599.06
388.263	576.06
388.488	587.06
388.713	567.06
388.938	581.06
389.163	577.06
389.387	575.06
389.612	590.06
389.837	556.06
390.062	554.06
390.287	586.06
390.512	573.06
390.736	587.06
390.961	584.06
391.186	594.06
391.411	574.06
391.636	587.06
391.86	594.06
392.085	593.06
392.31	593.06
392.534	600.06
392.759	604.06
392.984	618.06
393.208	607.06
393.433	599.06
393.658	610.06
393.882	590.06
394.107	585.06
394.331	588.06
394.556	589.06
394.78	617.06
395.005	568.06
395.229	563.06
395.454	611.06
395.678	620.06
395.903	629.06
396.127	602.06
396.352	618.06
396.576	597.06
396.801	599.06
397.025	596.06
397.249	622.06
397.474	596.06
397.698	643.06
397.922	643.06
398.147	624.06
398.371	615.06
398.595	615.06
398.82	624.06
399.044	649.06
399.268	653.06
399.492	664.06
399.717	666.06
399.941	661.06
400.165	688.06
400.389	662.06
400.613	681.06
400.837	664.06
401.062	645.06
401.286	661.06
401.51	661.06
401.734	668.06
401.958	661.06
402.182	658.06
402.406	639.06
402.63	658.06
402.854	665.06
403.078	645.06
403.302	628.06
403.526	652.06
403.75	639.06
403.974	655.06
404.198	641.06
404.422	659.06
404.645	682.06
404.869	659.06
405.093	651.06
405.317	639.06
405.541	644.06
405.765	661.06
405.988	639.06
406.212	667.06
406.436	678.06
406.66	678.06
406.883	643.06
407.107	704.06
407.331	695.06
407.555	703.06
407.778	720.06
408.002	693.06
408.226	687.06
408.449	685.06
408.673	704.06
408.896	678.06
409.12	671.06
409.344	693.06
409.567	689.06
409.791	677.06
410.014	667.06
410.238	677.06
410.461	672.06
410.685	697.06
410.908	663.06
411.132	672.06
411.355	636.06
411.578	671.06
411.802	678.06
412.025	660.06
412.249	659.06
412.472	657.06
412.695	673.06
412.919	658.06
413.142	699.06
413.365	679.06
413.589	669.06
413.812	677.06
414.035	668.06
414.258	640.06
414.482	669.06
414.705	647.06
414.928	655.06
415.151	645.06
415.374	643.06
415.597	637.06
415.821	626.06
416.044	645.06
416.267	618.06
416.49	633.06
416.713	633.06
416.936	662.06
417.159	634.06
417.382	618.06
417.605	634.06
417.828	620.06
418.051	595.06
418.274	615.06
418.497	632.06
418.72	645.06
418.943	627.06
419.166	618.06
419.389	657.06
419.611	687.06
419.834	649.06
420.057	650.06
420.28	649.06
420.503	637.06
420.726	623.06
420.948	609.06
421.171	627.06
421.394	641.06
421.617	634.06
421.839	603.06
422.062	634.06
422.285	625.06
422.507	612.06
422.73	604.06
422.953	642.06
423.175	618.06
423.398	628.06
423.621	620.06
423.843	616.06
424.066	643.06
424.288	627.06
424.511	629.06
424.733	614.06
424.956	636.06
425.178	645.06
425.401	636.06
425.623	621.06
425.846	628.06
426.068	609.06
426.291	614.06
426.513	617.06
426.735	622.06
426.958	625.06
427.18	620.06
427.402	628.06
427.625	617.06
427.847	593.06
428.069	607.06
428.292	607.06
428.514	613.06
428.736	608.06
428.958	620.06
429.181	637.06
429.403	611.06
429.625	619.06
429.847	624.06
430.069	617.06
430.292	605.06
430.514	634.06
430.736	606.06
430.958	629.06
431.18	621.06
431.402	625.06
431.624	600.06
431.846	601.06
432.068	606.06
432.29	622.06
432.512	625.06
432.734	629.06
432.956	607.06
433.178	612.06
433.4	605.06
433.622	635.06
433.844	618.06
434.066	604.06
434.287	615.06
434.509	630.06
434.731	620.06
434.953	610.06
435.175	608.06
435.397	627.06
435.618	610.06
435.84	608.06
436.062	603.06
436.284	611.06
436.505	627.06
436.727	603.06
436.949	613.06
437.17	608.06
437.392	596.06
437.614	605.06
437.835	599.06
438.057	625.06
438.278	603.06
438.5	596.06
438.721	625.06
438.943	605.06
439.165	613.06
439.386	602.06
439.608	625.06
439.829	589.06
440.05	616.06
440.272	640.06
440.493	607.06
440.715	603.06
440.936	605.06
441.158	609.06
441.379	598.06
441.6	649.06
441.822	621.06
442.043	620.06
442.264	623.06
442.486	617.06
442.707	612.06
442.928	631.06
443.149	632.06
443.371	618.06
443.592	622.06
443.813	591.06
444.034	617.06
444.255	629.06
444.476	601.06
444.698	628.06
444.919	635.06
445.14	705.06
445.361	664.06
445.582	627.06
445.803	597.06
446.024	609.06
446.245	611.06
446.466	601.06
446.687	629.06
446.908	621.06
447.129	608.06
447.35	596.06
447.571	598.06
447.792	602.06
448.013	604.06
448.234	585.06
448.455	584.06
448.675	602.06
448.896	595.06
449.117	596.06
449.338	572.06
449.559	596.06
449.779	582.06
450	568.06
450.221	594.06
450.442	575.06
450.662	550.06
450.883	564.06
451.104	573.06
451.324	571.06
451.545	569.06
451.766	553.06
451.986	579.06
452.207	563.06
452.428	571.06
452.648	581.06
452.869	584.06
453.089	578.06
453.31	597.06
453.53	575.06
453.751	584.06
453.971	573.06
454.192	575.06
454.412	561.06
454.633	566.06
454.853	560.06
455.073	573.06
455.294	577.06
455.514	577.06
455.734	565.06
455.955	556.06
456.175	562.06
456.395	572.06
456.616	580.06
456.836	572.06
457.056	567.06
457.276	544.06
457.497	595.06
457.717	556.06
457.937	575.06
458.157	588.06
458.377	587.06
458.598	594.06
458.818	578.06
459.038	585.06
459.258	588.06
459.478	612.06
459.698	615.06
459.918	608.06
460.138	605.06
460.358	627.06
460.578	630.06
460.798	637.06
461.018	629.06
461.238	627.06
461.458	629.06
461.678	644.06
461.898	641.06
462.118	641.06
462.338	669.06
462.558	672.06
462.777	669.06
462.997	660.06
463.217	637.06
463.437	643.06
463.657	639.06
463.876	674.06
464.096	684.06
464.316	647.06
464.536	647.06
464.755	668.06
464.975	665.06
465.195	646.06
465.414	639.06
465.634	606.06
465.854	618.06
466.073	642.06
466.293	646.06
466.512	624.06
466.732	653.06
466.951	627.06
467.171	615.06
467.391	639.06
467.61	617.06
467.829	615.06
468.049	614.06
468.268	624.06
468.488	625.06
468.707	631.06
468.927	627.06
469.146	632.06
469.365	633.06
469.585	636.06
469.804	625.06
470.023	627.06
470.243	595.06
470.462	642.06
470.681	635.06
470.901	637.06
471.12	623.06
471.339	633.06
471.558	631.06
471.777	639.06
471.997	636.06
472.216	645.06
472.435	656.06
472.654	643.06
472.873	628.06
473.092	643.06
473.311	661.06
473.53	635.06
473.749	631.06
473.968	646.06
474.187	661.06
474.406	661.06
474.625	651.06
474.844	671.06
475.063	663.06
475.282	651.06
475.501	661.06
475.72	674.06
475.939	683.06
476.158	684.06
476.377	683.06
476.596	680.06
476.814	688.06
477.033	700.06
477.252	703.06
477.471	684.06
477.69	720.06
477.908	713.06
478.127	708.06
478.346	717.06
478.564	719.06
478.783	719.06
479.002	744.06
479.22	713.06
479.439	743.06
479.658	725.06
479.876	752.06
480.095	755.06
480.313	764.06
480.532	769.06
480.751	731.06
480.969	747.06
481.188	752.06
481.406	759.06
481.624	777.06
481.843	767.06
482.061	778.06
482.28	752.06
482.498	748.06
482.717	769.06
482.935	765.06
483.153	753.06
483.372	779.06
483.59	809.06
483.808	793.06
484.027	785.06
484.245	786.06
484.463	771.06
484.681	810.06
484.9	794.06
485.118	775.06
485.336	806.06
485.554	796.06
485.772	799.06
485.99	781.06
486.209	804.06
486.427	801.06
486.645	799.06
486.863	786.06
487.081	790.06
487.299	787.06
487.517	827.06
487.735	776.06
487.953	794.06
488.171	791.06
488.389	795.06
488.607	792.06
488.825	801.06
489.043	809.06
489.261	821.06
489.479	810.06
489.696	796.06
489.914	779.06
490.132	789.06
490.35	827.06
490.568	796.06
490.786	798.06
491.003	819.06
491.221	812.06
491.439	824.06
491.657	807.06
491.874	815.06
492.092	819.06
492.31	843.06
492.527	841.06
492.745	830.06
492.963	833.06
493.18	813.06
493.398	840.06
493.615	852.06
493.833	840.06
494.05	844.06
494.268	856.06
494.485	832.06
494.703	822.06
494.92	844.06
495.138	869.06
495.355	842.06
495.573	848.06
495.79	870.06
496.008	901.06
496.225	879.06
496.442	876.06
496.66	888.06
496.877	885.06
497.094	885.06
497.312	875.06
497.529	875.06
497.746	888.06
497.963	903.06
498.181	913.06
498.398	931.06
498.615	927.06
498.832	950.06
499.049	975.06
499.267	1002.06
499.484	972.06
499.701	1029.06
499.918	1045.06
500.135	1060.06
500.352	1079.06
500.569	1075.06
500.786	1060.06
501.003	1052.06
501.22	1055.06
501.437	1011.06
501.654	1009.06
501.871	1013.06
502.088	968.06
502.305	981.06
502.522	961.06
502.739	950.06
502.956	924.06
503.172	921.06
503.389	925.06
503.606	904.06
503.823	888.06
504.04	904.06
504.256	895.06
504.473	902.06
504.69	874.06
504.907	868.06
505.123	857.06
505.34	852.06
505.557	864.06
505.773	839.06
505.99	789.06
506.207	817.06
506.423	812.06
506.64	779.06
506.856	826.06
507.073	780.06
507.289	756.06
507.506	811.06
507.722	803.06
507.939	800.06
508.155	755.06
508.372	760.06
508.588	770.06
508.805	730.06
509.021	755.06
509.238	754.06
509.454	734.06
509.67	756.06
509.887	786.06
510.103	737.06
510.319	772.06
510.536	747.06
510.752	729.06
510.968	762.06
511.184	721.06
511.401	723.06
511.617	738.06
511.833	748.06
512.049	729.06
512.265	736.06
512.481	753.06
512.698	709.06
512.914	744.06
513.13	732.06
513.346	724.06
513.562	705.06
513.778	728.06
513.994	714.06
514.21	711.06
514.426	738.06
514.642	736.06
514.858	725.06
515.074	713.06
515.29	715.06
515.506	730.06
515.721	741.06
515.937	745.06
516.153	744.06
516.369	727.06
516.585	746.06
516.801	727.06
517.016	780.06
517.232	775.06
517.448	759.06
517.664	768.06
517.879	746.06
518.095	737.06
518.311	763.06
518.527	735.06
518.742	732.06
518.958	774.06
519.173	746.06
519.389	728.06
519.605	724.06
519.82	726.06
520.036	739.06
520.251	732.06
520.467	703.06
520.682	719.06
520.898	711.06
521.113	708.06
521.329	691.06
521.544	732.06
521.76	701.06
521.975	712.06
522.19	680.06
522.406	703.06
522.621	709.06
522.836	692.06
523.052	687.06
523.267	667.06
523.482	691.06
523.698	680.06
523.913	687.06
524.128	680.06
524.343	715.06
524.559	661.06
524.774	698.06
524.989	700.06
525.204	683.06
525.419	675.06
525.634	661.06
525.849	668.06
526.064	671.06
526.28	691.06
526.495	703.06
526.71	667.06
526.925	665.06
527.14	663.06
527.355	648.06
527.57	680.06
527.785	673.06
527.999	700.06
528.214	668.06
528.429	670.06
528.644	691.06
528.859	670.06
529.074	684.06
529.289	673.06
529.503	691.06
529.718	680.06
529.933	687.06
530.148	661.06
530.363	672.06
530.577	684.06
530.792	671.06
531.007	644.06
531.221	676.06
531.436	653.06
531.651	673.06
531.865	667.06
532.08	647.06
532.295	643.06
532.509	659.06
532.724	636.06
532.938	661.06
533.153	692.06
533.367	647.06
533.582	647.06
533.796	669.06
534.011	635.06
534.225	658.06
534.44	632.06
534.654	648.06
534.868	612.06
535.083	641.06
535.297	649.06
535.511	669.06
535.726	659.06
535.94	658.06
536.154	654.06
536.369	637.06
536.583	645.06
536.797	643.06
537.011	639.06
537.225	635.06
537.44	624.06
537.654	633.06
537.868	631.06
538.082	605.06
538.296	625.06
538.51	641.06
538.724	624.06
538.938	591.06
539.153	633.06
539.367	617.06
539.581	614.06
539.795	613.06
540.009	629.06
540.222	612.06
540.436	606.06
540.65	623.06
540.864	611.06
541.078	614.06
541.292	615.06
541.506	643.06
541.72	635.06
541.934	636.06
542.147	634.06
542.361	618.06
542.575	618.06
542.789	594.06
543.002	621.06
543.216	623.06
543.43	619.06
543.644	600.06
543.857	598.06
544.071	625.06
544.285	638.06
544.498	613.06
544.712	606.06
544.925	639.06
545.139	609.06
545.352	617.06
545.566	617.06
545.779	592.06
545.993	606.06
546.206	602.06
546.42	620.06
546.633	592.06
546.847	617.06
547.06	633.06
547.274	626.06
547.487	615.06
547.7	607.06
547.914	614.06
548.127	582.06
548.34	589.06
548.554	613.06
548.767	612.06
548.98	593.06
549.193	597.06
549.407	618.06
549.62	615.06
549.833	600.06
550.046	607.06
550.259	609.06
550.473	611.06
550.686	598.06
550.899	588.06
551.112	594.06
551.325	587.06
551.538	573.06
551.751	610.06
551.964	584.06
552.177	589.06
552.39	583.06
552.603	604.06
552.816	594.06
553.029	592.06
553.242	600.06
553.455	595.06
553.667	593.06
553.88	605.06
554.093	570.06
554.306	579.06
554.519	577.06
554.732	555.06
554.944	574.06
555.157	571.06
555.37	590.06
555.583	571.06
555.795	565.06
556.008	570.06
556.221	579.06
556.433	568.06
556.646	556.06
556.859	531.06
557.071	571.06
557.284	543.06
557.496	554.06
557.709	541.06
557.921	562.06
558.134	525.06
558.346	537.06
558.559	547.06
558.771	541.06
558.984	555.06
559.196	538.06
559.409	563.06
559.621	547.06
559.833	528.06
560.046	531.06
560.258	523.06
560.47	516.06
560.683	506.06
560.895	533.06
561.107	503.06
561.32	535.06
561.532	536.06
561.744	504.06
561.956	527.06
562.168	553.06
562.381	540.06
562.593	522.06
562.805	525.06
563.017	536.06
563.229	523.06
563.441	530.06
563.653	516.06
563.865	527.06
564.077	533.06
564.289	549.06
564.501	520.06
564.713	545.06
564.925	540.06
565.137	548.06
565.349	543.06
565.561	537.06
565.773	543.06
565.985	554.06
566.197	545.06
566.408	552.06
566.62	554.06
566.832	537.06
567.044	543.06
567.255	559.06
567.467	549.06
567.679	547.06
567.891	573.06
568.102	540.06
568.314	557.06
568.526	548.06
568.737	534.06
568.949	532.06
569.161	522.06
569.372	515.06
569.584	537.06
569.795	495.06
570.007	503.06
570.218	508.06
570.43	487.06
570.641	505.06
570.853	453.06
571.064	499.06
571.276	495.06
571.487	456.06
571.698	463.06
571.91	468.06
572.121	455.06
572.333	477.06
572.544	473.06
572.755	445.06
572.966	469.06
573.178	444.06
573.389	450.06
573.6	454.06
573.811	428.06
574.023	447.06
574.234	440.06
574.445	440.06
574.656	434.06
574.867	426.06
575.078	440.06
575.289	432.06
575.501	425.06
575.712	421.06
575.923	435.06
576.134	431.06
576.345	432.06
576.556	424.06
576.767	415.06
576.978	429.06
577.188	427.06
577.399	415.06
577.61	415.06
577.821	425.06
578.032	391.06
578.243	419.06
578.454	396.06
578.665	399.06
578.875	403.06
579.086	399.06
579.297	406.06
579.508	412.06
579.718	427.06
579.929	407.06
580.14	393.06
580.35	388.06
580.561	402.06
580.772	378.06
580.982	393.06
581.193	376.06
581.403	388.06
581.614	398.06
581.825	408.06
582.035	407.06
582.246	397.06
582.456	378.06
582.667	387.06
582.877	382.06
583.087	380.06
583.298	360.06
583.508	385.06
583.719	383.06
583.929	389.06
584.139	375.06
584.35	374.06
584.56	387.06
584.77	367.06
584.981	383.06
585.191	371.06
585.401	390.06
585.611	356.06
585.821	371.06
586.032	389.06
586.242	364.06
586.452	363.06
586.662	353.06
586.872	356.06
587.082	374.06
587.292	348.06
587.502	362.06
587.713	359.06
587.923	369.06
588.133	369.06
588.343	372.06
588.553	342.06
588.762	364.06
588.972	351.06
589.182	380.06
589.392	382.06
589.602	390.06
589.812	393.06
590.022	372.06
590.232	359.06
590.441	350.06
590.651	377.06
590.861	349.06
591.071	368.06
591.281	337.06
591.49	361.06
591.7	374.06
591.91	358.06
592.119	337.06
592.329	380.06
592.539	354.06
592.748	371.06
592.958	361.06
593.167	362.06
593.377	369.06
593.587	376.06
593.796	357.06
594.006	330.06
594.215	344.06
594.424	367.06
594.634	349.06
594.843	353.06
595.053	352.06
595.262	343.06
595.472	351.06
595.681	339.06
595.89	325.06
596.1	338.06
596.309	351.06
596.518	319.06
596.727	341.06
596.937	334.06
597.146	329.06
597.355	351.06
597.564	343.06
597.774	314.06
597.983	304.06
598.192	316.06
598.401	322.06
598.61	323.06
598.819	316.06
599.028	323.06
599.237	323.06
599.446	335.06
599.655	319.06
599.864	326.06
600.073	299.06
600.282	317.06
600.491	334.06
600.7	327.06
600.909	320.06
601.118	308.06
601.327	304.06
601.536	305.06
601.745	320.06
601.953	307.06
602.162	339.06
602.371	312.06
602.58	307.06
602.789	313.06
602.997	308.06
603.206	298.06
603.415	295.06
603.623	307.06
603.832	319.06
604.041	298.06
604.249	297.06
604.458	301.06
604.666	296.06
604.875	312.06
605.084	293.06
605.292	280.06
605.501	296.06
605.709	295.06
605.918	283.06
606.126	282.06
606.334	298.06
606.543	287.06
606.751	298.06
606.96	301.06
607.168	307.06
607.376	280.06
607.585	287.06
607.793	268.06
608.001	281.06
608.21	304.06
608.418	282.06
608.626	303.06
608.834	282.06
609.043	285.06
609.251	275.06
609.459	293.06
609.667	281.06
609.875	281.06
610.083	284.06
610.291	295.06
610.499	283.06
610.707	291.06
610.916	292.06
611.124	288.06
611.332	275.06
611.54	309.06
611.748	281.06
611.955	281.06
612.163	289.06
612.371	289.06
612.579	294.06
612.787	276.06
612.995	284.06
613.203	298.06
613.411	275.06
613.618	282.06
613.826	284.06
614.034	301.06
614.242	274.06
614.449	268.06
614.657	295.06
614.865	289.06
615.072	283.06
615.28	276.06
615.488	261.06
615.695	279.06
615.903	284.06
616.111	278.06
616.318	272.06
616.526	290.06
616.733	281.06
616.941	270.06
617.148	265.06
617.356	265.06
617.563	271.06
617.771	277.06
617.978	269.06
618.185	282.06
618.393	275.06
618.6	267.06
618.807	263.06
619.015	269.06
619.222	264.06
619.429	259.06
619.637	268.06
619.844	261.06
620.051	273.06
620.258	251.06
620.466	242.06
620.673	258.06
620.88	243.06
621.087	282.06
621.294	261.06
621.501	274.06
621.708	255.06
621.915	237.06
622.122	255.06
622.329	252.06
622.536	270.06
622.743	288.06
622.95	258.06
623.157	259.06
623.364	244.06
623.571	267.06
623.778	259.06
623.985	248.06
624.192	249.06
624.399	277.06
624.606	247.06
624.812	267.06
625.019	241.06
625.226	248.06
625.433	236.06
625.639	231.06
625.846	248.06
626.053	242.06
626.259	249.06
626.466	251.06
626.673	230.06
626.879	243.06
627.086	242.06
627.293	241.06
627.499	235.06
627.706	240.06
627.912	235.06
628.119	230.06
628.325	232.06
628.532	245.06
628.738	255.06
628.945	227.06
629.151	214.06
629.357	220.06
629.564	236.06
629.77	228.06
629.976	212.06
630.183	241.06
630.389	237.06
630.595	233.06
630.802	218.06
631.008	231.06
631.214	231.06
631.42	240.06
631.627	230.06
631.833	243.06
632.039	239.06
632.245	228.06
632.451	239.06
632.657	231.06
632.863	216.06
633.069	228.06
633.275	223.06
633.481	230.06
633.688	216.06
633.893	233.06
634.099	231.06
634.305	194.06
634.511	216.06
634.717	226.06
634.923	212.06
635.129	226.06
635.335	208.06
635.541	220.06
635.747	220.06
635.952	217.06
636.158	204.06
636.364	216.06
636.57	207.06
636.775	204.06
636.981	223.06
637.187	217.06
637.392	219.06
637.598	212.06
637.804	213.06
638.009	220.06
638.215	211.06
638.421	205.06
638.626	222.06
638.832	214.06
639.037	212.06
639.243	211.06
639.448	199.06
639.654	221.06
639.859	216.06
640.065	215.06
640.27	213.06
640.475	204.06
640.681	221.06
640.886	221.06
641.091	201.06
641.297	216.06
641.502	204.06
641.707	207.06
641.913	211.06
642.118	216.06
642.323	200.06
642.528	219.06
642.733	217.06
642.939	205.06
643.144	205.06
643.349	203.06
643.554	216.06
643.759	199.06
643.964	200.06
644.169	206.06
644.374	199.06
644.579	200.06
644.784	192.06
644.989	195.06
645.194	204.06
645.399	193.06
645.604	201.06
645.809	192.06
646.014	210.06
646.219	193.06
646.423	202.06
646.628	195.06
646.833	204.06
647.038	203.06
647.243	220.06
647.447	197.06
647.652	211.06
647.857	201.06
648.062	220.06
648.266	222.06
648.471	216.06
648.676	211.06
648.88	196.06
649.085	188.06
649.289	204.06
649.494	219.06
649.698	183.06
649.903	207.06
650.107	217.06
650.312	214.06
650.516	209.06
650.721	194.06
650.925	190.06
651.13	206.06
651.334	205.06
651.539	188.06
651.743	202.06
651.947	186.06
652.152	186.06
652.356	199.06
652.56	199.06
652.764	188.06
652.969	187.06
653.173	183.06
653.377	191.06
653.581	184.06
653.785	183.06
653.99	184.06
654.194	187.06
654.398	175.06
654.602	180.06
654.806	179.06
655.01	186.06
655.214	170.06
655.418	168.06
655.622	174.06
655.826	167.06
656.03	173.06
656.234	161.06
656.438	170.06
656.642	155.06
656.846	176.06
657.049	164.06
657.253	160.06
657.457	152.06
657.661	139.06
657.865	133.06
658.068	149.06
658.272	134.06
658.476	134.06
658.68	132.06
658.883	120.06
659.087	126.06
659.291	117.06
659.494	121.06
659.698	117.06
659.901	101.06
660.105	113.06
660.309	110.06
660.512	121.06
660.716	104.06
660.919	111.06
661.123	104.06
661.326	83.06
661.53	94.06
661.733	102.06
661.936	94.06
662.14	101.06
662.343	107.06
662.546	76.06
662.75	89.06
662.953	85.06
663.156	92.06
663.36	78.06
663.563	105.06
663.766	78.06
663.969	87.06
664.173	85.06
664.376	81.06
664.579	79.06
664.782	82.06
664.985	74.06
665.188	93.06
665.391	77.06
665.594	78.06
665.797	76.06
666	74.06
666.203	77.06
666.406	69.06
666.609	103.06
666.812	81.06
667.015	83.06
667.218	78.06
667.421	77.06
667.624	83.06
667.827	83.06
668.03	89.06
668.232	88.06
668.435	86.06
668.638	77.06
668.841	82.06
669.043	84.06
669.246	84.06
669.449	75.06
669.651	87.06
669.854	92.06
670.057	74.06
670.259	75.06
670.462	91.06
670.665	80.06
670.867	89.06
671.07	73.06
671.272	84.06
671.475	91.06
671.677	69.06
671.88	76.06
672.082	79.06
672.284	82.06
672.487	87.06
672.689	68.06
672.892	81.06
