Data from Fe(NO3)3@0.0125M.TitratingCurve.Agarose3%dH2O.NegLispCup.LampEnergy10.LIBS07252019_HRD10591_17-01-20-338.txt Node
Date: Thu Jul 25 17:01:20 EDT 2019
User: cochatt
Spectrometer: HR+D1059
Trigger mode: 1
Integration Time (sec): 1.000000E-1
Scans to average: 1
Electric dark correction enabled: true
Nonlinearity correction enabled: false
Boxcar width: 0
XAxis mode: Wavelengths
Number of Pixels in Spectrum: 2048
>>>>>Begin Spectral Data<<<<<
223.165	-34.25
223.4	-34.25
223.635	-34.25
223.869	-6.25
224.104	-24.25
224.338	-16.25
224.573	-15.25
224.808	-0.25
225.042	-1.25
225.277	-4.25
225.511	-13.25
225.746	-14.25
225.98	5.75
226.215	29.75
226.449	18.75
226.683	23.75
226.918	27.75
227.152	23.75
227.387	38.75
227.621	40.75
227.856	29.75
228.09	47.75
228.324	55.75
228.559	59.75
228.793	61.75
229.027	74.75
229.262	91.75
229.496	83.75
229.73	89.75
229.964	84.75
230.199	72.75
230.433	91.75
230.667	80.75
230.901	93.75
231.136	96.75
231.37	87.75
231.604	99.75
231.838	89.75
232.072	95.75
232.306	100.75
232.541	97.75
232.775	97.75
233.009	114.75
233.243	101.75
233.477	104.75
233.711	97.75
233.945	85.75
234.179	96.75
234.413	111.75
234.647	93.75
234.881	103.75
235.115	104.75
235.349	109.75
235.583	96.75
235.817	105.75
236.051	96.75
236.285	100.75
236.519	102.75
236.753	123.75
236.987	94.75
237.221	115.75
237.455	111.75
237.689	101.75
237.922	100.75
238.156	105.75
238.39	102.75
238.624	111.75
238.858	105.75
239.091	103.75
239.325	89.75
239.559	100.75
239.793	102.75
240.027	102.75
240.26	110.75
240.494	108.75
240.728	105.75
240.961	119.75
241.195	104.75
241.429	112.75
241.662	104.75
241.896	127.75
242.13	104.75
242.363	109.75
242.597	119.75
242.83	114.75
243.064	102.75
243.298	107.75
243.531	113.75
243.765	119.75
243.998	124.75
244.232	118.75
244.465	123.75
244.699	127.75
244.932	119.75
245.166	119.75
245.399	115.75
245.633	114.75
245.866	117.75
246.099	118.75
246.333	124.75
246.566	119.75
246.8	135.75
247.033	126.75
247.266	122.75
247.5	118.75
247.733	139.75
247.966	118.75
248.2	120.75
248.433	117.75
248.666	134.75
248.899	119.75
249.133	128.75
249.366	139.75
249.599	127.75
249.832	119.75
250.066	131.75
250.299	127.75
250.532	133.75
250.765	133.75
250.998	127.75
251.231	121.75
251.465	131.75
251.698	136.75
251.931	131.75
252.164	127.75
252.397	148.75
252.63	148.75
252.863	149.75
253.096	152.75
253.329	134.75
253.562	135.75
253.795	129.75
254.028	145.75
254.261	120.75
254.494	152.75
254.727	145.75
254.96	132.75
255.193	131.75
255.426	133.75
255.659	130.75
255.892	152.75
256.124	151.75
256.357	157.75
256.59	158.75
256.823	143.75
257.056	160.75
257.289	151.75
257.521	150.75
257.754	169.75
257.987	149.75
258.22	133.75
258.452	157.75
258.685	153.75
258.918	144.75
259.151	162.75
259.383	167.75
259.616	136.75
259.849	145.75
260.081	171.75
260.314	167.75
260.547	155.75
260.779	156.75
261.012	154.75
261.244	158.75
261.477	163.75
261.71	150.75
261.942	152.75
262.175	164.75
262.407	155.75
262.64	175.75
262.872	167.75
263.105	154.75
263.337	159.75
263.57	153.75
263.802	144.75
264.035	150.75
264.267	154.75
264.499	148.75
264.732	165.75
264.964	171.75
265.197	187.75
265.429	183.75
265.661	180.75
265.894	171.75
266.126	153.75
266.358	176.75
266.591	164.75
266.823	171.75
267.055	155.75
267.287	151.75
267.52	159.75
267.752	174.75
267.984	161.75
268.216	145.75
268.448	163.75
268.681	178.75
268.913	181.75
269.145	183.75
269.377	175.75
269.609	170.75
269.841	181.75
270.073	183.75
270.306	176.75
270.538	190.75
270.77	184.75
271.002	167.75
271.234	186.75
271.466	177.75
271.698	186.75
271.93	180.75
272.162	186.75
272.394	189.75
272.626	181.75
272.858	199.75
273.09	195.75
273.322	181.75
273.553	185.75
273.785	173.75
274.017	181.75
274.249	198.75
274.481	202.75
274.713	199.75
274.945	206.75
275.176	197.75
275.408	201.75
275.64	195.75
275.872	192.75
276.104	193.75
276.335	199.75
276.567	210.75
276.799	199.75
277.031	200.75
277.262	195.75
277.494	210.75
277.726	197.75
277.957	205.75
278.189	204.75
278.421	198.75
278.652	212.75
278.884	201.75
279.115	204.75
279.347	195.75
279.579	199.75
279.81	187.75
280.042	190.75
280.273	208.75
280.505	198.75
280.736	215.75
280.968	202.75
281.199	207.75
281.431	226.75
281.662	210.75
281.894	206.75
282.125	209.75
282.356	222.75
282.588	212.75
282.819	221.75
283.051	229.75
283.282	214.75
283.513	232.75
283.745	214.75
283.976	208.75
284.207	232.75
284.439	232.75
284.67	227.75
284.901	221.75
285.132	219.75
285.364	210.75
285.595	241.75
285.826	235.75
286.057	224.75
286.288	205.75
286.52	215.75
286.751	235.75
286.982	235.75
287.213	233.75
287.444	225.75
287.675	241.75
287.906	251.75
288.138	233.75
288.369	220.75
288.6	239.75
288.831	228.75
289.062	245.75
289.293	231.75
289.524	252.75
289.755	230.75
289.986	229.75
290.217	258.75
290.448	237.75
290.679	232.75
290.91	245.75
291.141	222.75
291.371	247.75
291.602	243.75
291.833	236.75
292.064	236.75
292.295	240.75
292.526	238.75
292.757	224.75
292.987	227.75
293.218	219.75
293.449	236.75
293.68	237.75
293.91	235.75
294.141	247.75
294.372	255.75
294.603	255.75
294.833	247.75
295.064	243.75
295.295	256.75
295.525	235.75
295.756	251.75
295.987	261.75
296.217	245.75
296.448	236.75
296.679	242.75
296.909	248.75
297.14	265.75
297.37	244.75
297.601	248.75
297.831	253.75
298.062	241.75
298.292	257.75
298.523	269.75
298.753	258.75
298.984	269.75
299.214	246.75
299.445	239.75
299.675	263.75
299.905	259.75
300.136	256.75
300.366	255.75
300.597	272.75
300.827	261.75
301.057	253.75
301.288	279.75
301.518	272.75
301.748	253.75
301.979	275.75
302.209	292.75
302.439	263.75
302.669	276.75
302.9	282.75
303.13	273.75
303.36	282.75
303.59	272.75
303.82	281.75
304.051	279.75
304.281	288.75
304.511	290.75
304.741	279.75
304.971	294.75
305.201	289.75
305.431	275.75
305.661	270.75
305.891	264.75
306.121	274.75
306.352	272.75
306.582	288.75
306.812	285.75
307.042	281.75
307.272	288.75
307.502	265.75
307.731	291.75
307.961	291.75
308.191	276.75
308.421	275.75
308.651	276.75
308.881	294.75
309.111	286.75
309.341	293.75
309.571	289.75
309.8	288.75
310.03	278.75
310.26	289.75
310.49	302.75
310.72	292.75
310.949	291.75
311.179	274.75
311.409	284.75
311.639	328.75
311.868	308.75
312.098	301.75
312.328	309.75
312.557	287.75
312.787	285.75
313.017	295.75
313.246	297.75
313.476	287.75
313.706	294.75
313.935	305.75
314.165	303.75
314.394	301.75
314.624	287.75
314.853	295.75
315.083	325.75
315.312	316.75
315.542	301.75
315.771	302.75
316.001	304.75
316.23	323.75
316.46	305.75
316.689	303.75
316.919	301.75
317.148	319.75
317.377	314.75
317.607	328.75
317.836	310.75
318.065	295.75
318.295	329.75
318.524	318.75
318.753	326.75
318.983	315.75
319.212	311.75
319.441	322.75
319.67	312.75
319.9	322.75
320.129	323.75
320.358	339.75
320.587	305.75
320.816	317.75
321.046	319.75
321.275	331.75
321.504	317.75
321.733	310.75
321.962	320.75
322.191	327.75
322.42	341.75
322.649	343.75
322.878	323.75
323.108	324.75
323.337	321.75
323.566	315.75
323.795	334.75
324.024	338.75
324.253	332.75
324.482	322.75
324.71	333.75
324.939	347.75
325.168	335.75
325.397	343.75
325.626	333.75
325.855	346.75
326.084	350.75
326.313	330.75
326.542	325.75
326.77	324.75
326.999	349.75
327.228	346.75
327.457	348.75
327.686	353.75
327.914	348.75
328.143	334.75
328.372	364.75
328.6	343.75
328.829	337.75
329.058	349.75
329.287	338.75
329.515	357.75
329.744	347.75
329.972	340.75
330.201	348.75
330.43	353.75
330.658	359.75
330.887	347.75
331.115	366.75
331.344	358.75
331.572	350.75
331.801	369.75
332.03	378.75
332.258	359.75
332.486	354.75
332.715	375.75
332.943	376.75
333.172	373.75
333.4	363.75
333.629	387.75
333.857	391.75
334.085	373.75
334.314	397.75
334.542	407.75
334.771	386.75
334.999	399.75
335.227	394.75
335.455	409.75
335.684	396.75
335.912	403.75
336.14	397.75
336.369	363.75
336.597	388.75
336.825	409.75
337.053	389.75
337.281	385.75
337.51	366.75
337.738	383.75
337.966	392.75
338.194	374.75
338.422	401.75
338.65	385.75
338.878	387.75
339.106	373.75
339.334	396.75
339.562	375.75
339.79	381.75
340.018	379.75
340.246	356.75
340.474	371.75
340.702	387.75
340.93	348.75
341.158	371.75
341.386	385.75
341.614	373.75
341.842	355.75
342.07	358.75
342.298	370.75
342.526	364.75
342.754	359.75
342.981	363.75
343.209	369.75
343.437	393.75
343.665	388.75
343.893	389.75
344.12	400.75
344.348	411.75
344.576	413.75
344.804	370.75
345.031	383.75
345.259	391.75
345.487	371.75
345.714	384.75
345.942	355.75
346.17	374.75
346.397	356.75
346.625	367.75
346.853	360.75
347.08	369.75
347.308	338.75
347.535	361.75
347.763	362.75
347.99	369.75
348.218	355.75
348.445	363.75
348.673	365.75
348.9	373.75
349.128	363.75
349.355	366.75
349.583	348.75
349.81	363.75
350.037	347.75
350.265	360.75
350.492	366.75
350.72	357.75
350.947	371.75
351.174	347.75
351.402	359.75
351.629	339.75
351.856	346.75
352.083	355.75
352.311	358.75
352.538	355.75
352.765	350.75
352.992	369.75
353.22	358.75
353.447	342.75
353.674	352.75
353.901	346.75
354.128	343.75
354.355	364.75
354.583	363.75
354.81	349.75
355.037	347.75
355.264	346.75
355.491	354.75
355.718	348.75
355.945	353.75
356.172	367.75
356.399	365.75
356.626	371.75
356.853	353.75
357.08	359.75
357.307	357.75
357.534	353.75
357.761	331.75
357.988	368.75
358.215	376.75
358.441	383.75
358.668	374.75
358.895	372.75
359.122	360.75
359.349	353.75
359.576	343.75
359.802	364.75
360.029	363.75
360.256	374.75
360.483	356.75
360.709	369.75
360.936	352.75
361.163	355.75
361.39	349.75
361.616	375.75
361.843	366.75
362.07	370.75
362.296	369.75
362.523	375.75
362.749	367.75
362.976	357.75
363.203	375.75
363.429	358.75
363.656	373.75
363.882	357.75
364.109	377.75
364.335	369.75
364.562	370.75
364.788	367.75
365.015	379.75
365.241	362.75
365.468	353.75
365.694	363.75
365.92	379.75
366.147	374.75
366.373	382.75
366.599	370.75
366.826	378.75
367.052	381.75
367.278	376.75
367.505	388.75
367.731	358.75
367.957	371.75
368.184	389.75
368.41	377.75
368.636	393.75
368.862	384.75
369.089	402.75
369.315	387.75
369.541	389.75
369.767	386.75
369.993	384.75
370.219	387.75
370.445	361.75
370.672	386.75
370.898	393.75
371.124	390.75
371.35	390.75
371.576	396.75
371.802	385.75
372.028	399.75
372.254	396.75
372.48	407.75
372.706	415.75
372.932	397.75
373.158	380.75
373.384	391.75
373.61	406.75
373.835	407.75
374.061	404.75
374.287	409.75
374.513	403.75
374.739	402.75
374.965	393.75
375.191	398.75
375.416	407.75
375.642	403.75
375.868	414.75
376.094	393.75
376.319	415.75
376.545	392.75
376.771	398.75
376.997	387.75
377.222	393.75
377.448	401.75
377.674	398.75
377.899	398.75
378.125	396.75
378.35	401.75
378.576	387.75
378.802	398.75
379.027	389.75
379.253	397.75
379.478	389.75
379.704	384.75
379.929	377.75
380.155	394.75
380.38	392.75
380.606	397.75
380.831	398.75
381.057	390.75
381.282	403.75
381.507	388.75
381.733	393.75
381.958	424.75
382.184	423.75
382.409	415.75
382.634	398.75
382.86	405.75
383.085	417.75
383.31	421.75
383.535	431.75
383.761	447.75
383.986	429.75
384.211	429.75
384.436	420.75
384.662	432.75
384.887	423.75
385.112	397.75
385.337	420.75
385.562	433.75
385.787	431.75
386.013	424.75
386.238	446.75
386.463	447.75
386.688	446.75
386.913	439.75
387.138	437.75
387.363	444.75
387.588	450.75
387.813	444.75
388.038	440.75
388.263	462.75
388.488	449.75
388.713	468.75
388.938	472.75
389.163	452.75
389.387	451.75
389.612	449.75
389.837	462.75
390.062	451.75
390.287	457.75
390.512	441.75
390.736	447.75
390.961	463.75
391.186	445.75
391.411	461.75
391.636	442.75
391.86	477.75
392.085	488.75
392.31	478.75
392.534	451.75
392.759	470.75
392.984	479.75
393.208	476.75
393.433	485.75
393.658	491.75
393.882	468.75
394.107	477.75
394.331	473.75
394.556	479.75
394.78	471.75
395.005	469.75
395.229	478.75
395.454	465.75
395.678	492.75
395.903	483.75
396.127	492.75
396.352	479.75
396.576	481.75
396.801	510.75
397.025	519.75
397.249	482.75
397.474	502.75
397.698	502.75
397.922	516.75
398.147	524.75
398.371	519.75
398.595	513.75
398.82	525.75
399.044	537.75
399.268	570.75
399.492	601.75
399.717	571.75
399.941	597.75
400.165	582.75
400.389	585.75
400.613	574.75
400.837	556.75
401.062	539.75
401.286	529.75
401.51	513.75
401.734	511.75
401.958	531.75
402.182	533.75
402.406	517.75
402.63	529.75
402.854	522.75
403.078	520.75
403.302	504.75
403.526	526.75
403.75	540.75
403.974	517.75
404.198	550.75
404.422	540.75
404.645	559.75
404.869	547.75
405.093	527.75
405.317	520.75
405.541	527.75
405.765	531.75
405.988	542.75
406.212	571.75
406.436	545.75
406.66	536.75
406.883	567.75
407.107	583.75
407.331	573.75
407.555	573.75
407.778	547.75
408.002	601.75
408.226	579.75
408.449	576.75
408.673	565.75
408.896	557.75
409.12	559.75
409.344	591.75
409.567	539.75
409.791	587.75
410.014	550.75
410.238	541.75
410.461	546.75
410.685	525.75
410.908	555.75
411.132	538.75
411.355	519.75
411.578	520.75
411.802	548.75
412.025	548.75
412.249	536.75
412.472	543.75
412.695	536.75
412.919	520.75
413.142	527.75
413.365	527.75
413.589	520.75
413.812	535.75
414.035	530.75
414.258	529.75
414.482	517.75
414.705	518.75
414.928	499.75
415.151	537.75
415.374	498.75
415.597	515.75
415.821	526.75
416.044	525.75
416.267	502.75
416.49	500.75
416.713	519.75
416.936	519.75
417.159	509.75
417.382	503.75
417.605	508.75
417.828	509.75
418.051	505.75
418.274	474.75
418.497	502.75
418.72	496.75
418.943	492.75
419.166	531.75
419.389	563.75
419.611	536.75
419.834	547.75
420.057	487.75
420.28	503.75
420.503	493.75
420.726	503.75
420.948	466.75
421.171	501.75
421.394	523.75
421.617	518.75
421.839	523.75
422.062	492.75
422.285	486.75
422.507	480.75
422.73	493.75
422.953	484.75
423.175	492.75
423.398	507.75
423.621	491.75
423.843	502.75
424.066	517.75
424.288	501.75
424.511	480.75
424.733	495.75
424.956	497.75
425.178	505.75
425.401	494.75
425.623	496.75
425.846	497.75
426.068	502.75
426.291	483.75
426.513	478.75
426.735	489.75
426.958	492.75
427.18	498.75
427.402	490.75
427.625	473.75
427.847	466.75
428.069	486.75
428.292	486.75
428.514	475.75
428.736	464.75
428.958	469.75
429.181	474.75
429.403	456.75
429.625	484.75
429.847	492.75
430.069	466.75
430.292	465.75
430.514	471.75
430.736	478.75
430.958	483.75
431.18	464.75
431.402	493.75
431.624	463.75
431.846	478.75
432.068	497.75
432.29	455.75
432.512	481.75
432.734	472.75
432.956	465.75
433.178	467.75
433.4	469.75
433.622	495.75
433.844	485.75
434.066	509.75
434.287	484.75
434.509	494.75
434.731	487.75
434.953	481.75
435.175	518.75
435.397	475.75
435.618	480.75
435.84	473.75
436.062	472.75
436.284	479.75
436.505	475.75
436.727	485.75
436.949	478.75
437.17	473.75
437.392	467.75
437.614	486.75
437.835	471.75
438.057	474.75
438.278	460.75
438.5	462.75
438.721	459.75
438.943	460.75
439.165	451.75
439.386	454.75
439.608	486.75
439.829	472.75
440.05	478.75
440.272	479.75
440.493	475.75
440.715	485.75
440.936	478.75
441.158	480.75
441.379	503.75
441.6	497.75
441.822	492.75
442.043	494.75
442.264	502.75
442.486	482.75
442.707	495.75
442.928	491.75
443.149	493.75
443.371	495.75
443.592	498.75
443.813	493.75
444.034	509.75
444.255	491.75
444.476	511.75
444.698	503.75
444.919	528.75
445.14	593.75
445.361	537.75
445.582	492.75
445.803	483.75
446.024	480.75
446.245	515.75
446.466	461.75
446.687	479.75
446.908	471.75
447.129	469.75
447.35	465.75
447.571	479.75
447.792	472.75
448.013	449.75
448.234	453.75
448.455	442.75
448.675	438.75
448.896	466.75
449.117	424.75
449.338	444.75
449.559	444.75
449.779	442.75
450	437.75
450.221	434.75
450.442	415.75
450.662	427.75
450.883	427.75
451.104	449.75
451.324	425.75
451.545	449.75
451.766	443.75
451.986	428.75
452.207	421.75
452.428	430.75
452.648	440.75
452.869	435.75
453.089	421.75
453.31	423.75
453.53	424.75
453.751	417.75
453.971	439.75
454.192	408.75
454.412	403.75
454.633	433.75
454.853	441.75
455.073	433.75
455.294	416.75
455.514	405.75
455.734	413.75
455.955	412.75
456.175	408.75
456.395	413.75
456.616	418.75
456.836	419.75
457.056	428.75
457.276	416.75
457.497	427.75
457.717	435.75
457.937	439.75
458.157	439.75
458.377	439.75
458.598	441.75
458.818	441.75
459.038	469.75
459.258	464.75
459.478	449.75
459.698	478.75
459.918	469.75
460.138	485.75
460.358	505.75
460.578	508.75
460.798	512.75
461.018	522.75
461.238	527.75
461.458	516.75
461.678	520.75
461.898	516.75
462.118	533.75
462.338	544.75
462.558	563.75
462.777	542.75
462.997	543.75
463.217	557.75
463.437	583.75
463.657	552.75
463.876	557.75
464.096	571.75
464.316	558.75
464.536	531.75
464.755	523.75
464.975	528.75
465.195	513.75
465.414	518.75
465.634	490.75
465.854	482.75
466.073	491.75
466.293	471.75
466.512	480.75
466.732	466.75
466.951	468.75
467.171	472.75
467.391	478.75
467.61	467.75
467.829	460.75
468.049	468.75
468.268	443.75
468.488	467.75
468.707	454.75
468.927	451.75
469.146	459.75
469.365	485.75
469.585	454.75
469.804	472.75
470.023	487.75
470.243	486.75
470.462	461.75
470.681	468.75
470.901	478.75
471.12	475.75
471.339	463.75
471.558	458.75
471.777	463.75
471.997	461.75
472.216	469.75
472.435	458.75
472.654	480.75
472.873	480.75
473.092	471.75
473.311	466.75
473.53	464.75
473.749	454.75
473.968	454.75
474.187	470.75
474.406	462.75
474.625	459.75
474.844	477.75
475.063	464.75
475.282	484.75
475.501	461.75
475.72	474.75
475.939	479.75
476.158	472.75
476.377	488.75
476.596	501.75
476.814	500.75
477.033	500.75
477.252	492.75
477.471	504.75
477.69	520.75
477.908	530.75
478.127	527.75
478.346	532.75
478.564	551.75
478.783	533.75
479.002	544.75
479.22	547.75
479.439	529.75
479.658	537.75
479.876	549.75
480.095	563.75
480.313	559.75
480.532	575.75
480.751	558.75
480.969	550.75
481.188	549.75
481.406	534.75
481.624	545.75
481.843	541.75
482.061	551.75
482.28	562.75
482.498	525.75
482.717	517.75
482.935	547.75
483.153	562.75
483.372	560.75
483.59	559.75
483.808	550.75
484.027	548.75
484.245	561.75
484.463	571.75
484.681	579.75
484.9	567.75
485.118	581.75
485.336	553.75
485.554	585.75
485.772	588.75
485.99	569.75
486.209	583.75
486.427	570.75
486.645	594.75
486.863	584.75
487.081	576.75
487.299	562.75
487.517	576.75
487.735	581.75
487.953	567.75
488.171	559.75
488.389	577.75
488.607	581.75
488.825	562.75
489.043	594.75
489.261	548.75
489.479	558.75
489.696	591.75
489.914	583.75
490.132	552.75
490.35	583.75
490.568	555.75
490.786	583.75
491.003	563.75
491.221	572.75
491.439	583.75
491.657	581.75
491.874	588.75
492.092	580.75
492.31	601.75
492.527	578.75
492.745	594.75
492.963	578.75
493.18	608.75
493.398	585.75
493.615	600.75
493.833	586.75
494.05	601.75
494.268	598.75
494.485	619.75
494.703	614.75
494.92	587.75
495.138	603.75
495.355	629.75
495.573	619.75
495.79	627.75
496.008	630.75
496.225	637.75
496.442	641.75
496.66	622.75
496.877	620.75
497.094	654.75
497.312	646.75
497.529	650.75
497.746	683.75
497.963	705.75
498.181	688.75
498.398	712.75
498.615	739.75
498.832	738.75
499.049	813.75
499.267	813.75
499.484	842.75
499.701	869.75
499.918	903.75
500.135	917.75
500.352	931.75
500.569	936.75
500.786	933.75
501.003	930.75
501.22	886.75
501.437	887.75
501.654	846.75
501.871	829.75
502.088	774.75
502.305	766.75
502.522	744.75
502.739	734.75
502.956	723.75
503.172	679.75
503.389	691.75
503.606	660.75
503.823	658.75
504.04	653.75
504.256	636.75
504.473	618.75
504.69	643.75
504.907	630.75
505.123	629.75
505.34	571.75
505.557	593.75
505.773	581.75
505.99	577.75
506.207	565.75
506.423	581.75
506.64	555.75
506.856	539.75
507.073	538.75
507.289	550.75
507.506	526.75
507.722	557.75
507.939	515.75
508.155	517.75
508.372	520.75
508.588	526.75
508.805	533.75
509.021	509.75
509.238	519.75
509.454	478.75
509.67	514.75
509.887	494.75
510.103	485.75
510.319	481.75
510.536	474.75
510.752	492.75
510.968	489.75
511.184	495.75
511.401	511.75
511.617	496.75
511.833	475.75
512.049	498.75
512.265	513.75
512.481	483.75
512.698	493.75
512.914	513.75
513.13	494.75
513.346	499.75
513.562	485.75
513.778	489.75
513.994	477.75
514.21	465.75
514.426	483.75
514.642	506.75
514.858	501.75
515.074	504.75
515.29	485.75
515.506	488.75
515.721	502.75
515.937	504.75
516.153	515.75
516.369	519.75
516.585	528.75
516.801	531.75
517.016	522.75
517.232	534.75
517.448	534.75
517.664	544.75
517.879	573.75
518.095	551.75
518.311	532.75
518.527	534.75
518.742	525.75
518.958	525.75
519.173	526.75
519.389	519.75
519.605	516.75
519.82	507.75
520.036	492.75
520.251	480.75
520.467	528.75
520.682	491.75
520.898	502.75
521.113	470.75
521.329	492.75
521.544	484.75
521.76	466.75
521.975	473.75
522.19	459.75
522.406	477.75
522.621	475.75
522.836	468.75
523.052	457.75
523.267	480.75
523.482	465.75
523.698	443.75
523.913	461.75
524.128	475.75
524.343	449.75
524.559	436.75
524.774	455.75
524.989	448.75
525.204	451.75
525.419	459.75
525.634	444.75
525.849	436.75
526.064	445.75
526.28	463.75
526.495	436.75
526.71	449.75
526.925	456.75
527.14	420.75
527.355	440.75
527.57	443.75
527.785	449.75
527.999	448.75
528.214	449.75
528.429	432.75
528.644	437.75
528.859	442.75
529.074	416.75
529.289	438.75
529.503	456.75
529.718	435.75
529.933	436.75
530.148	444.75
530.363	424.75
530.577	441.75
530.792	429.75
531.007	429.75
531.221	413.75
531.436	441.75
531.651	451.75
531.865	447.75
532.08	437.75
532.295	438.75
532.509	428.75
532.724	444.75
532.938	429.75
533.153	444.75
533.367	437.75
533.582	427.75
533.796	427.75
534.011	433.75
534.225	451.75
534.44	425.75
534.654	421.75
534.868	412.75
535.083	427.75
535.297	443.75
535.511	440.75
535.726	415.75
535.94	427.75
536.154	417.75
536.369	394.75
536.583	399.75
536.797	409.75
537.011	400.75
537.225	401.75
537.44	415.75
537.654	423.75
537.868	408.75
538.082	405.75
538.296	406.75
538.51	430.75
538.724	409.75
538.938	417.75
539.153	385.75
539.367	421.75
539.581	403.75
539.795	410.75
540.009	412.75
540.222	407.75
540.436	419.75
540.65	387.75
540.864	382.75
541.078	401.75
541.292	415.75
541.506	399.75
541.72	398.75
541.934	406.75
542.147	421.75
542.361	389.75
542.575	386.75
542.789	399.75
543.002	379.75
543.216	396.75
543.43	401.75
543.644	415.75
543.857	393.75
544.071	414.75
544.285	404.75
544.498	395.75
544.712	407.75
544.925	400.75
545.139	427.75
545.352	422.75
545.566	414.75
545.779	402.75
545.993	421.75
546.206	415.75
546.42	398.75
546.633	421.75
546.847	405.75
547.06	406.75
547.274	413.75
547.487	427.75
547.7	415.75
547.914	414.75
548.127	424.75
548.34	421.75
548.554	403.75
548.767	423.75
548.98	401.75
549.193	405.75
549.407	424.75
549.62	417.75
549.833	436.75
550.046	401.75
550.259	410.75
550.473	399.75
550.686	403.75
550.899	408.75
551.112	396.75
551.325	404.75
551.538	399.75
551.751	393.75
551.964	389.75
552.177	387.75
552.39	387.75
552.603	417.75
552.816	412.75
553.029	390.75
553.242	413.75
553.455	401.75
553.667	405.75
553.88	409.75
554.093	407.75
554.306	379.75
554.519	411.75
554.732	393.75
554.944	374.75
555.157	390.75
555.37	391.75
555.583	379.75
555.795	383.75
556.008	389.75
556.221	375.75
556.433	387.75
556.646	379.75
556.859	347.75
557.071	369.75
557.284	382.75
557.496	371.75
557.709	372.75
557.921	344.75
558.134	383.75
558.346	349.75
558.559	374.75
558.771	359.75
558.984	344.75
559.196	342.75
559.409	364.75
559.621	360.75
559.833	365.75
560.046	361.75
560.258	349.75
560.47	371.75
560.683	358.75
560.895	347.75
561.107	343.75
561.32	347.75
561.532	364.75
561.744	351.75
561.956	357.75
562.168	353.75
562.381	356.75
562.593	366.75
562.805	369.75
563.017	339.75
563.229	335.75
563.441	341.75
563.653	357.75
563.865	365.75
564.077	363.75
564.289	344.75
564.501	354.75
564.713	365.75
564.925	385.75
565.137	383.75
565.349	386.75
565.561	400.75
565.773	391.75
565.985	374.75
566.197	422.75
566.408	406.75
566.62	414.75
566.832	430.75
567.044	404.75
567.255	441.75
567.467	449.75
567.679	415.75
567.891	420.75
568.102	449.75
568.314	436.75
568.526	396.75
568.737	402.75
568.949	385.75
569.161	372.75
569.372	382.75
569.584	369.75
569.795	348.75
570.007	347.75
570.218	364.75
570.43	335.75
570.641	357.75
570.853	335.75
571.064	344.75
571.276	335.75
571.487	322.75
571.698	343.75
571.91	320.75
572.121	306.75
572.333	327.75
572.544	294.75
572.755	292.75
572.966	314.75
573.178	306.75
573.389	311.75
573.6	299.75
573.811	284.75
574.023	293.75
574.234	286.75
574.445	296.75
574.656	283.75
574.867	296.75
575.078	296.75
575.289	311.75
575.501	289.75
575.712	283.75
575.923	297.75
576.134	291.75
576.345	269.75
576.556	297.75
576.767	271.75
576.978	264.75
577.188	271.75
577.399	285.75
577.61	276.75
577.821	277.75
578.032	265.75
578.243	294.75
578.454	272.75
578.665	265.75
578.875	266.75
579.086	267.75
579.297	274.75
579.508	273.75
579.718	285.75
579.929	259.75
580.14	248.75
580.35	266.75
580.561	266.75
580.772	263.75
580.982	268.75
581.193	269.75
581.403	260.75
581.614	271.75
581.825	257.75
582.035	257.75
582.246	266.75
582.456	249.75
582.667	248.75
582.877	260.75
583.087	257.75
583.298	246.75
583.508	262.75
583.719	249.75
583.929	287.75
584.139	251.75
584.35	237.75
584.56	248.75
584.77	254.75
584.981	244.75
585.191	241.75
585.401	241.75
585.611	259.75
585.821	265.75
586.032	240.75
586.242	251.75
586.452	241.75
586.662	243.75
586.872	231.75
587.082	240.75
587.292	256.75
587.502	231.75
587.713	246.75
587.923	243.75
588.133	256.75
588.343	243.75
588.553	235.75
588.762	259.75
588.972	273.75
589.182	285.75
589.392	280.75
589.602	270.75
589.812	274.75
590.022	258.75
590.232	252.75
590.441	242.75
590.651	251.75
590.861	247.75
591.071	238.75
591.281	241.75
591.49	232.75
591.7	240.75
591.91	248.75
592.119	252.75
592.329	239.75
592.539	231.75
592.748	253.75
592.958	239.75
593.167	242.75
593.377	251.75
593.587	271.75
593.796	273.75
594.006	257.75
594.215	246.75
594.424	255.75
594.634	247.75
594.843	253.75
595.053	240.75
595.262	235.75
595.472	252.75
595.681	236.75
595.89	229.75
596.1	235.75
596.309	226.75
596.518	235.75
596.727	227.75
596.937	230.75
597.146	216.75
597.355	235.75
597.564	228.75
597.774	226.75
597.983	235.75
598.192	219.75
598.401	204.75
598.61	220.75
598.819	219.75
599.028	225.75
599.237	208.75
599.446	207.75
599.655	215.75
599.864	199.75
600.073	207.75
600.282	220.75
600.491	222.75
600.7	217.75
600.909	207.75
601.118	219.75
601.327	221.75
601.536	208.75
601.745	219.75
601.953	233.75
602.162	224.75
602.371	212.75
602.58	218.75
602.789	203.75
602.997	210.75
603.206	208.75
603.415	197.75
603.623	214.75
603.832	195.75
604.041	199.75
604.249	192.75
604.458	200.75
604.666	199.75
604.875	206.75
605.084	186.75
605.292	197.75
605.501	186.75
605.709	191.75
605.918	199.75
606.126	194.75
606.334	198.75
606.543	212.75
606.751	201.75
606.96	202.75
607.168	203.75
607.376	191.75
607.585	197.75
607.793	196.75
608.001	211.75
608.21	189.75
608.418	217.75
608.626	207.75
608.834	194.75
609.043	182.75
609.251	201.75
609.459	190.75
609.667	195.75
609.875	197.75
610.083	194.75
610.291	206.75
610.499	216.75
610.707	199.75
610.916	209.75
611.124	203.75
611.332	200.75
611.54	198.75
611.748	209.75
611.955	191.75
612.163	187.75
612.371	212.75
612.579	195.75
612.787	186.75
612.995	189.75
613.203	188.75
613.411	199.75
613.618	193.75
613.826	200.75
614.034	190.75
614.242	196.75
614.449	193.75
614.657	192.75
614.865	198.75
615.072	199.75
615.28	187.75
615.488	189.75
615.695	183.75
615.903	189.75
616.111	192.75
616.318	180.75
616.526	192.75
616.733	199.75
616.941	183.75
617.148	187.75
617.356	208.75
617.563	191.75
617.771	198.75
617.978	205.75
618.185	176.75
618.393	174.75
618.6	190.75
618.807	176.75
619.015	185.75
619.222	181.75
619.429	194.75
619.637	184.75
619.844	199.75
620.051	210.75
620.258	195.75
620.466	180.75
620.673	182.75
620.88	166.75
621.087	187.75
621.294	169.75
621.501	161.75
621.708	186.75
621.915	177.75
622.122	162.75
622.329	180.75
622.536	183.75
622.743	175.75
622.95	167.75
623.157	181.75
623.364	183.75
623.571	175.75
623.778	167.75
623.985	181.75
624.192	166.75
624.399	170.75
624.606	177.75
624.812	172.75
625.019	175.75
625.226	184.75
625.433	186.75
625.639	167.75
625.846	181.75
626.053	163.75
626.259	175.75
626.466	175.75
626.673	175.75
626.879	167.75
627.086	164.75
627.293	195.75
627.499	172.75
627.706	166.75
627.912	169.75
628.119	166.75
628.325	175.75
628.532	171.75
628.738	168.75
628.945	174.75
629.151	166.75
629.357	176.75
629.564	166.75
629.77	155.75
629.976	142.75
630.183	156.75
630.389	175.75
630.595	175.75
630.802	179.75
631.008	174.75
631.214	164.75
631.42	165.75
631.627	168.75
631.833	157.75
632.039	159.75
632.245	156.75
632.451	149.75
632.657	162.75
632.863	157.75
633.069	160.75
633.275	178.75
633.481	156.75
633.688	153.75
633.893	158.75
634.099	153.75
634.305	146.75
634.511	159.75
634.717	179.75
634.923	171.75
635.129	148.75
635.335	139.75
635.541	149.75
635.747	156.75
635.952	150.75
636.158	145.75
636.364	157.75
636.57	153.75
636.775	155.75
636.981	159.75
637.187	142.75
637.392	176.75
637.598	137.75
637.804	164.75
638.009	159.75
638.215	153.75
638.421	138.75
638.626	147.75
638.832	151.75
639.037	143.75
639.243	149.75
639.448	148.75
639.654	158.75
639.859	157.75
640.065	147.75
640.27	163.75
640.475	139.75
640.681	156.75
640.886	153.75
641.091	155.75
641.297	161.75
641.502	144.75
641.707	152.75
641.913	160.75
642.118	152.75
642.323	157.75
642.528	145.75
642.733	136.75
642.939	152.75
643.144	148.75
643.349	156.75
643.554	158.75
643.759	165.75
643.964	149.75
644.169	156.75
644.374	159.75
644.579	136.75
644.784	156.75
644.989	145.75
645.194	129.75
645.399	153.75
645.604	136.75
645.809	149.75
646.014	140.75
646.219	160.75
646.423	164.75
646.628	148.75
646.833	152.75
647.038	146.75
647.243	180.75
647.447	161.75
647.652	163.75
647.857	165.75
648.062	148.75
648.266	153.75
648.471	146.75
648.676	159.75
648.88	161.75
649.085	158.75
649.289	160.75
649.494	167.75
649.698	155.75
649.903	158.75
650.107	158.75
650.312	158.75
650.516	148.75
650.721	167.75
650.925	154.75
651.13	147.75
651.334	149.75
651.539	157.75
651.743	164.75
651.947	152.75
652.152	147.75
652.356	163.75
652.56	135.75
652.764	135.75
652.969	136.75
653.173	155.75
653.377	148.75
653.581	142.75
653.785	164.75
653.99	146.75
654.194	146.75
654.398	142.75
654.602	151.75
654.806	151.75
655.01	165.75
655.214	140.75
655.418	136.75
655.622	147.75
655.826	165.75
656.03	159.75
656.234	184.75
656.438	156.75
656.642	199.75
656.846	167.75
657.049	161.75
657.253	157.75
657.457	140.75
657.661	137.75
657.865	153.75
658.068	135.75
658.272	127.75
658.476	128.75
658.68	108.75
658.883	109.75
659.087	118.75
659.291	96.75
659.494	110.75
659.698	110.75
659.901	99.75
660.105	112.75
660.309	109.75
660.512	105.75
660.716	111.75
660.919	92.75
661.123	81.75
661.326	91.75
661.53	108.75
661.733	83.75
661.936	83.75
662.14	91.75
662.343	91.75
662.546	79.75
662.75	70.75
662.953	87.75
663.156	77.75
663.36	89.75
663.563	82.75
663.766	80.75
663.969	84.75
664.173	94.75
664.376	78.75
664.579	88.75
664.782	90.75
664.985	79.75
665.188	94.75
665.391	88.75
665.594	83.75
665.797	82.75
666	72.75
666.203	69.75
666.406	67.75
666.609	70.75
666.812	80.75
667.015	79.75
667.218	79.75
667.421	73.75
667.624	79.75
667.827	85.75
668.03	69.75
668.232	80.75
668.435	83.75
668.638	79.75
668.841	80.75
669.043	65.75
669.246	84.75
669.449	72.75
669.651	83.75
669.854	73.75
670.057	81.75
670.259	82.75
670.462	78.75
670.665	86.75
670.867	81.75
671.07	81.75
671.272	85.75
671.475	80.75
671.677	73.75
671.88	72.75
672.082	79.75
672.284	73.75
672.487	80.75
672.689	76.75
672.892	74.75
