Data from Fe(NO3)3@0.1M.TitratingCurve.Agarose3%dH2O.NegLispCup.LampEnergy10.LIBS07252019_HRD10591_16-39-06-332.txt Node
Date: Thu Jul 25 16:39:06 EDT 2019
User: cochatt
Spectrometer: HR+D1059
Trigger mode: 1
Integration Time (sec): 1.000000E-1
Scans to average: 1
Electric dark correction enabled: true
Nonlinearity correction enabled: false
Boxcar width: 0
XAxis mode: Wavelengths
Number of Pixels in Spectrum: 2048
>>>>>Begin Spectral Data<<<<<
223.165	-17.94
223.4	-17.94
223.635	-17.94
223.869	-15.94
224.104	-12.94
224.338	-21.94
224.573	-13.94
224.808	-18.94
225.042	-10.94
225.277	-2.94
225.511	1.06
225.746	16.06
225.98	13.06
226.215	2.06
226.449	8.06
226.683	11.06
226.918	29.06
227.152	35.06
227.387	24.06
227.621	37.06
227.856	49.06
228.09	30.06
228.324	50.06
228.559	50.06
228.793	62.06
229.027	77.06
229.262	72.06
229.496	85.06
229.73	90.06
229.964	85.06
230.199	76.06
230.433	94.06
230.667	82.06
230.901	81.06
231.136	87.06
231.37	91.06
231.604	93.06
231.838	117.06
232.072	102.06
232.306	95.06
232.541	96.06
232.775	98.06
233.009	92.06
233.243	96.06
233.477	91.06
233.711	95.06
233.945	98.06
234.179	79.06
234.413	92.06
234.647	107.06
234.881	75.06
235.115	95.06
235.349	83.06
235.583	97.06
235.817	103.06
236.051	107.06
236.285	95.06
236.519	110.06
236.753	86.06
236.987	100.06
237.221	93.06
237.455	97.06
237.689	97.06
237.922	96.06
238.156	76.06
238.39	91.06
238.624	85.06
238.858	105.06
239.091	101.06
239.325	113.06
239.559	103.06
239.793	93.06
240.027	98.06
240.26	93.06
240.494	102.06
240.728	109.06
240.961	100.06
241.195	98.06
241.429	102.06
241.662	89.06
241.896	112.06
242.13	90.06
242.363	92.06
242.597	100.06
242.83	109.06
243.064	117.06
243.298	100.06
243.531	96.06
243.765	95.06
243.998	118.06
244.232	109.06
244.465	106.06
244.699	121.06
244.932	104.06
245.166	98.06
245.399	106.06
245.633	105.06
245.866	105.06
246.099	102.06
246.333	118.06
246.566	99.06
246.8	118.06
247.033	88.06
247.266	101.06
247.5	114.06
247.733	119.06
247.966	99.06
248.2	102.06
248.433	107.06
248.666	107.06
248.899	108.06
249.133	104.06
249.366	118.06
249.599	114.06
249.832	118.06
250.066	112.06
250.299	113.06
250.532	125.06
250.765	107.06
250.998	110.06
251.231	120.06
251.465	118.06
251.698	116.06
251.931	117.06
252.164	120.06
252.397	115.06
252.63	126.06
252.863	106.06
253.096	126.06
253.329	115.06
253.562	125.06
253.795	118.06
254.028	130.06
254.261	103.06
254.494	120.06
254.727	116.06
254.96	124.06
255.193	126.06
255.426	124.06
255.659	132.06
255.892	126.06
256.124	127.06
256.357	130.06
256.59	128.06
256.823	117.06
257.056	110.06
257.289	110.06
257.521	131.06
257.754	122.06
257.987	127.06
258.22	123.06
258.452	126.06
258.685	129.06
258.918	141.06
259.151	131.06
259.383	138.06
259.616	122.06
259.849	145.06
260.081	130.06
260.314	132.06
260.547	127.06
260.779	125.06
261.012	124.06
261.244	138.06
261.477	138.06
261.71	131.06
261.942	128.06
262.175	139.06
262.407	140.06
262.64	142.06
262.872	127.06
263.105	146.06
263.337	122.06
263.57	126.06
263.802	136.06
264.035	140.06
264.267	136.06
264.499	141.06
264.732	141.06
264.964	129.06
265.197	135.06
265.429	145.06
265.661	136.06
265.894	140.06
266.126	145.06
266.358	148.06
266.591	140.06
266.823	141.06
267.055	144.06
267.287	155.06
267.52	139.06
267.752	132.06
267.984	160.06
268.216	146.06
268.448	144.06
268.681	138.06
268.913	144.06
269.145	141.06
269.377	137.06
269.609	126.06
269.841	143.06
270.073	140.06
270.306	148.06
270.538	150.06
270.77	150.06
271.002	144.06
271.234	153.06
271.466	139.06
271.698	143.06
271.93	146.06
272.162	150.06
272.394	145.06
272.626	148.06
272.858	132.06
273.09	160.06
273.322	142.06
273.553	148.06
273.785	158.06
274.017	149.06
274.249	159.06
274.481	164.06
274.713	157.06
274.945	159.06
275.176	164.06
275.408	165.06
275.64	164.06
275.872	166.06
276.104	170.06
276.335	157.06
276.567	162.06
276.799	157.06
277.031	161.06
277.262	152.06
277.494	160.06
277.726	152.06
277.957	169.06
278.189	156.06
278.421	155.06
278.652	162.06
278.884	167.06
279.115	167.06
279.347	156.06
279.579	149.06
279.81	165.06
280.042	170.06
280.273	165.06
280.505	152.06
280.736	162.06
280.968	161.06
281.199	168.06
281.431	163.06
281.662	179.06
281.894	169.06
282.125	171.06
282.356	173.06
282.588	184.06
282.819	173.06
283.051	164.06
283.282	184.06
283.513	162.06
283.745	163.06
283.976	154.06
284.207	171.06
284.439	172.06
284.67	180.06
284.901	168.06
285.132	174.06
285.364	183.06
285.595	167.06
285.826	192.06
286.057	184.06
286.288	174.06
286.52	178.06
286.751	164.06
286.982	185.06
287.213	180.06
287.444	171.06
287.675	180.06
287.906	180.06
288.138	171.06
288.369	180.06
288.6	174.06
288.831	182.06
289.062	181.06
289.293	173.06
289.524	189.06
289.755	169.06
289.986	176.06
290.217	181.06
290.448	197.06
290.679	177.06
290.91	186.06
291.141	180.06
291.371	173.06
291.602	181.06
291.833	211.06
292.064	193.06
292.295	184.06
292.526	187.06
292.757	201.06
292.987	199.06
293.218	174.06
293.449	203.06
293.68	190.06
293.91	184.06
294.141	182.06
294.372	190.06
294.603	196.06
294.833	177.06
295.064	171.06
295.295	190.06
295.525	173.06
295.756	186.06
295.987	192.06
296.217	192.06
296.448	195.06
296.679	208.06
296.909	199.06
297.14	205.06
297.37	188.06
297.601	201.06
297.831	200.06
298.062	196.06
298.292	202.06
298.523	211.06
298.753	195.06
298.984	205.06
299.214	202.06
299.445	208.06
299.675	196.06
299.905	204.06
300.136	202.06
300.366	210.06
300.597	201.06
300.827	208.06
301.057	215.06
301.288	217.06
301.518	200.06
301.748	206.06
301.979	211.06
302.209	203.06
302.439	210.06
302.669	217.06
302.9	222.06
303.13	216.06
303.36	226.06
303.59	212.06
303.82	219.06
304.051	209.06
304.281	211.06
304.511	211.06
304.741	202.06
304.971	190.06
305.201	213.06
305.431	205.06
305.661	212.06
305.891	208.06
306.121	211.06
306.352	220.06
306.582	225.06
306.812	223.06
307.042	200.06
307.272	194.06
307.502	217.06
307.731	201.06
307.961	221.06
308.191	233.06
308.421	207.06
308.651	197.06
308.881	217.06
309.111	193.06
309.341	220.06
309.571	221.06
309.8	198.06
310.03	223.06
310.26	213.06
310.49	219.06
310.72	220.06
310.949	217.06
311.179	210.06
311.409	228.06
311.639	229.06
311.868	205.06
312.098	222.06
312.328	204.06
312.557	222.06
312.787	219.06
313.017	223.06
313.246	225.06
313.476	227.06
313.706	229.06
313.935	231.06
314.165	211.06
314.394	230.06
314.624	234.06
314.853	223.06
315.083	218.06
315.312	211.06
315.542	229.06
315.771	240.06
316.001	225.06
316.23	227.06
316.46	242.06
316.689	221.06
316.919	202.06
317.148	214.06
317.377	232.06
317.607	230.06
317.836	219.06
318.065	220.06
318.295	213.06
318.524	212.06
318.753	222.06
318.983	237.06
319.212	233.06
319.441	226.06
319.67	212.06
319.9	220.06
320.129	220.06
320.358	224.06
320.587	213.06
320.816	227.06
321.046	244.06
321.275	234.06
321.504	233.06
321.733	228.06
321.962	225.06
322.191	239.06
322.42	219.06
322.649	244.06
322.878	219.06
323.108	241.06
323.337	240.06
323.566	225.06
323.795	244.06
324.024	236.06
324.253	226.06
324.482	256.06
324.71	252.06
324.939	250.06
325.168	237.06
325.397	228.06
325.626	249.06
325.855	237.06
326.084	247.06
326.313	256.06
326.542	242.06
326.77	259.06
326.999	244.06
327.228	253.06
327.457	241.06
327.686	232.06
327.914	260.06
328.143	252.06
328.372	256.06
328.6	236.06
328.829	245.06
329.058	237.06
329.287	244.06
329.515	251.06
329.744	266.06
329.972	254.06
330.201	248.06
330.43	258.06
330.658	246.06
330.887	251.06
331.115	257.06
331.344	252.06
331.572	274.06
331.801	278.06
332.03	271.06
332.258	258.06
332.486	286.06
332.715	292.06
332.943	284.06
333.172	309.06
333.4	288.06
333.629	299.06
333.857	288.06
334.085	312.06
334.314	298.06
334.542	298.06
334.771	297.06
334.999	294.06
335.227	293.06
335.455	290.06
335.684	290.06
335.912	276.06
336.14	282.06
336.369	269.06
336.597	284.06
336.825	282.06
337.053	291.06
337.281	275.06
337.51	285.06
337.738	286.06
337.966	256.06
338.194	268.06
338.422	255.06
338.65	259.06
338.878	268.06
339.106	255.06
339.334	260.06
339.562	255.06
339.79	259.06
340.018	250.06
340.246	259.06
340.474	256.06
340.702	262.06
340.93	256.06
341.158	281.06
341.386	276.06
341.614	278.06
341.842	283.06
342.07	261.06
342.298	266.06
342.526	269.06
342.754	273.06
342.981	275.06
343.209	280.06
343.437	284.06
343.665	292.06
343.893	316.06
344.12	309.06
344.348	297.06
344.576	280.06
344.804	281.06
345.031	259.06
345.259	290.06
345.487	275.06
345.714	270.06
345.942	267.06
346.17	268.06
346.397	273.06
346.625	270.06
346.853	276.06
347.08	266.06
347.308	250.06
347.535	252.06
347.763	277.06
347.99	252.06
348.218	262.06
348.445	273.06
348.673	244.06
348.9	268.06
349.128	249.06
349.355	244.06
349.583	266.06
349.81	262.06
350.037	243.06
350.265	277.06
350.492	251.06
350.72	258.06
350.947	258.06
351.174	250.06
351.402	267.06
351.629	250.06
351.856	265.06
352.083	256.06
352.311	246.06
352.538	254.06
352.765	248.06
352.992	246.06
353.22	243.06
353.447	256.06
353.674	250.06
353.901	244.06
354.128	254.06
354.355	243.06
354.583	246.06
354.81	268.06
355.037	274.06
355.264	275.06
355.491	231.06
355.718	244.06
355.945	260.06
356.172	271.06
356.399	252.06
356.626	256.06
356.853	259.06
357.08	268.06
357.307	284.06
357.534	252.06
357.761	267.06
357.988	257.06
358.215	253.06
358.441	244.06
358.668	257.06
358.895	266.06
359.122	268.06
359.349	256.06
359.576	259.06
359.802	250.06
360.029	266.06
360.256	267.06
360.483	258.06
360.709	253.06
360.936	285.06
361.163	251.06
361.39	270.06
361.616	268.06
361.843	267.06
362.07	261.06
362.296	259.06
362.523	272.06
362.749	266.06
362.976	254.06
363.203	264.06
363.429	270.06
363.656	273.06
363.882	259.06
364.109	259.06
364.335	265.06
364.562	274.06
364.788	266.06
365.015	276.06
365.241	258.06
365.468	266.06
365.694	262.06
365.92	281.06
366.147	261.06
366.373	262.06
366.599	255.06
366.826	252.06
367.052	270.06
367.278	261.06
367.505	268.06
367.731	289.06
367.957	279.06
368.184	282.06
368.41	269.06
368.636	268.06
368.862	271.06
369.089	259.06
369.315	269.06
369.541	281.06
369.767	274.06
369.993	275.06
370.219	265.06
370.445	268.06
370.672	284.06
370.898	265.06
371.124	288.06
371.35	272.06
371.576	284.06
371.802	288.06
372.028	302.06
372.254	281.06
372.48	292.06
372.706	295.06
372.932	286.06
373.158	284.06
373.384	318.06
373.61	294.06
373.835	286.06
374.061	296.06
374.287	304.06
374.513	298.06
374.739	304.06
374.965	297.06
375.191	311.06
375.416	322.06
375.642	314.06
375.868	310.06
376.094	295.06
376.319	294.06
376.545	282.06
376.771	298.06
376.997	287.06
377.222	286.06
377.448	293.06
377.674	284.06
377.899	290.06
378.125	288.06
378.35	279.06
378.576	286.06
378.802	300.06
379.027	277.06
379.253	299.06
379.478	285.06
379.704	302.06
379.929	295.06
380.155	280.06
380.38	271.06
380.606	290.06
380.831	291.06
381.057	303.06
381.282	299.06
381.507	309.06
381.733	298.06
381.958	307.06
382.184	276.06
382.409	290.06
382.634	303.06
382.86	315.06
383.085	301.06
383.31	312.06
383.535	304.06
383.761	320.06
383.986	320.06
384.211	316.06
384.436	315.06
384.662	337.06
384.887	334.06
385.112	323.06
385.337	343.06
385.562	323.06
385.787	332.06
386.013	350.06
386.238	345.06
386.463	333.06
386.688	348.06
386.913	339.06
387.138	343.06
387.363	327.06
387.588	335.06
387.813	352.06
388.038	329.06
388.263	346.06
388.488	337.06
388.713	328.06
388.938	341.06
389.163	336.06
389.387	338.06
389.612	324.06
389.837	325.06
390.062	330.06
390.287	322.06
390.512	338.06
390.736	341.06
390.961	347.06
391.186	356.06
391.411	330.06
391.636	358.06
391.86	357.06
392.085	393.06
392.31	361.06
392.534	355.06
392.759	354.06
392.984	376.06
393.208	378.06
393.433	352.06
393.658	346.06
393.882	363.06
394.107	353.06
394.331	355.06
394.556	365.06
394.78	345.06
395.005	370.06
395.229	378.06
395.454	382.06
395.678	387.06
395.903	375.06
396.127	368.06
396.352	372.06
396.576	353.06
396.801	352.06
397.025	391.06
397.249	384.06
397.474	394.06
397.698	382.06
397.922	393.06
398.147	393.06
398.371	398.06
398.595	405.06
398.82	416.06
399.044	450.06
399.268	489.06
399.492	526.06
399.717	552.06
399.941	546.06
400.165	493.06
400.389	463.06
400.613	447.06
400.837	429.06
401.062	416.06
401.286	422.06
401.51	424.06
401.734	418.06
401.958	426.06
402.182	405.06
402.406	420.06
402.63	429.06
402.854	429.06
403.078	445.06
403.302	451.06
403.526	426.06
403.75	449.06
403.974	450.06
404.198	461.06
404.422	463.06
404.645	431.06
404.869	450.06
405.093	459.06
405.317	447.06
405.541	448.06
405.765	443.06
405.988	441.06
406.212	454.06
406.436	440.06
406.66	445.06
406.883	458.06
407.107	499.06
407.331	503.06
407.555	482.06
407.778	511.06
408.002	500.06
408.226	509.06
408.449	473.06
408.673	484.06
408.896	453.06
409.12	447.06
409.344	456.06
409.567	453.06
409.791	439.06
410.014	464.06
410.238	420.06
410.461	441.06
410.685	435.06
410.908	445.06
411.132	424.06
411.355	440.06
411.578	452.06
411.802	441.06
412.025	433.06
412.249	417.06
412.472	418.06
412.695	428.06
412.919	411.06
413.142	437.06
413.365	419.06
413.589	405.06
413.812	440.06
414.035	446.06
414.258	430.06
414.482	419.06
414.705	448.06
414.928	443.06
415.151	433.06
415.374	424.06
415.597	415.06
415.821	404.06
416.044	401.06
416.267	421.06
416.49	420.06
416.713	387.06
416.936	419.06
417.159	409.06
417.382	406.06
417.605	430.06
417.828	399.06
418.051	428.06
418.274	422.06
418.497	424.06
418.72	416.06
418.943	458.06
419.166	456.06
419.389	452.06
419.611	444.06
419.834	436.06
420.057	434.06
420.28	418.06
420.503	418.06
420.726	417.06
420.948	406.06
421.171	426.06
421.394	400.06
421.617	411.06
421.839	429.06
422.062	426.06
422.285	406.06
422.507	429.06
422.73	428.06
422.953	419.06
423.175	422.06
423.398	430.06
423.621	434.06
423.843	430.06
424.066	429.06
424.288	450.06
424.511	428.06
424.733	433.06
424.956	424.06
425.178	418.06
425.401	404.06
425.623	429.06
425.846	400.06
426.068	408.06
426.291	410.06
426.513	413.06
426.735	409.06
426.958	406.06
427.18	396.06
427.402	377.06
427.625	382.06
427.847	391.06
428.069	401.06
428.292	403.06
428.514	397.06
428.736	378.06
428.958	408.06
429.181	383.06
429.403	397.06
429.625	390.06
429.847	377.06
430.069	388.06
430.292	380.06
430.514	382.06
430.736	387.06
430.958	373.06
431.18	389.06
431.402	382.06
431.624	383.06
431.846	374.06
432.068	390.06
432.29	386.06
432.512	405.06
432.734	408.06
432.956	386.06
433.178	387.06
433.4	385.06
433.622	407.06
433.844	382.06
434.066	396.06
434.287	402.06
434.509	391.06
434.731	411.06
434.953	411.06
435.175	413.06
435.397	414.06
435.618	394.06
435.84	378.06
436.062	385.06
436.284	413.06
436.505	384.06
436.727	414.06
436.949	384.06
437.17	391.06
437.392	384.06
437.614	379.06
437.835	381.06
438.057	369.06
438.278	374.06
438.5	393.06
438.721	386.06
438.943	387.06
439.165	400.06
439.386	377.06
439.608	398.06
439.829	390.06
440.05	388.06
440.272	408.06
440.493	383.06
440.715	403.06
440.936	412.06
441.158	433.06
441.379	416.06
441.6	433.06
441.822	426.06
442.043	430.06
442.264	442.06
442.486	424.06
442.707	427.06
442.928	448.06
443.149	429.06
443.371	438.06
443.592	439.06
443.813	443.06
444.034	445.06
444.255	433.06
444.476	460.06
444.698	488.06
444.919	470.06
445.14	572.06
445.361	527.06
445.582	440.06
445.803	432.06
446.024	422.06
446.245	426.06
446.466	406.06
446.687	417.06
446.908	406.06
447.129	402.06
447.35	405.06
447.571	407.06
447.792	364.06
448.013	380.06
448.234	365.06
448.455	381.06
448.675	405.06
448.896	389.06
449.117	375.06
449.338	374.06
449.559	383.06
449.779	384.06
450	381.06
450.221	378.06
450.442	355.06
450.662	378.06
450.883	352.06
451.104	368.06
451.324	353.06
451.545	361.06
451.766	371.06
451.986	370.06
452.207	380.06
452.428	371.06
452.648	380.06
452.869	346.06
453.089	376.06
453.31	366.06
453.53	349.06
453.751	350.06
453.971	350.06
454.192	361.06
454.412	337.06
454.633	337.06
454.853	350.06
455.073	357.06
455.294	369.06
455.514	347.06
455.734	338.06
455.955	325.06
456.175	340.06
456.395	345.06
456.616	343.06
456.836	336.06
457.056	349.06
457.276	336.06
457.497	333.06
457.717	339.06
457.937	359.06
458.157	346.06
458.377	360.06
458.598	349.06
458.818	378.06
459.038	382.06
459.258	369.06
459.478	386.06
459.698	384.06
459.918	404.06
460.138	415.06
460.358	421.06
460.578	444.06
460.798	457.06
461.018	448.06
461.238	448.06
461.458	436.06
461.678	456.06
461.898	451.06
462.118	450.06
462.338	480.06
462.558	500.06
462.777	514.06
462.997	520.06
463.217	560.06
463.437	578.06
463.657	511.06
463.876	515.06
464.096	496.06
464.316	494.06
464.536	491.06
464.755	482.06
464.975	477.06
465.195	471.06
465.414	456.06
465.634	410.06
465.854	401.06
466.073	421.06
466.293	382.06
466.512	377.06
466.732	393.06
466.951	382.06
467.171	392.06
467.391	404.06
467.61	389.06
467.829	388.06
468.049	372.06
468.268	386.06
468.488	377.06
468.707	382.06
468.927	383.06
469.146	400.06
469.365	372.06
469.585	396.06
469.804	390.06
470.023	412.06
470.243	410.06
470.462	402.06
470.681	399.06
470.901	388.06
471.12	387.06
471.339	406.06
471.558	362.06
471.777	384.06
471.997	372.06
472.216	382.06
472.435	373.06
472.654	358.06
472.873	348.06
473.092	354.06
473.311	366.06
473.53	378.06
473.749	385.06
473.968	363.06
474.187	360.06
474.406	349.06
474.625	370.06
474.844	357.06
475.063	389.06
475.282	376.06
475.501	377.06
475.72	381.06
475.939	378.06
476.158	385.06
476.377	380.06
476.596	375.06
476.814	393.06
477.033	371.06
477.252	383.06
477.471	377.06
477.69	428.06
477.908	405.06
478.127	417.06
478.346	425.06
478.564	427.06
478.783	426.06
479.002	434.06
479.22	444.06
479.439	441.06
479.658	416.06
479.876	437.06
480.095	451.06
480.313	454.06
480.532	476.06
480.751	432.06
480.969	433.06
481.188	420.06
481.406	419.06
481.624	421.06
481.843	420.06
482.061	403.06
482.28	412.06
482.498	423.06
482.717	413.06
482.935	413.06
483.153	398.06
483.372	421.06
483.59	411.06
483.808	395.06
484.027	408.06
484.245	409.06
484.463	405.06
484.681	425.06
484.9	425.06
485.118	398.06
485.336	406.06
485.554	401.06
485.772	418.06
485.99	405.06
486.209	416.06
486.427	413.06
486.645	414.06
486.863	413.06
487.081	433.06
487.299	419.06
487.517	410.06
487.735	412.06
487.953	422.06
488.171	418.06
488.389	416.06
488.607	410.06
488.825	416.06
489.043	423.06
489.261	436.06
489.479	408.06
489.696	421.06
489.914	407.06
490.132	421.06
490.35	434.06
490.568	435.06
490.786	416.06
491.003	453.06
491.221	440.06
491.439	436.06
491.657	414.06
491.874	443.06
492.092	454.06
492.31	463.06
492.527	445.06
492.745	453.06
492.963	451.06
493.18	446.06
493.398	443.06
493.615	462.06
493.833	450.06
494.05	440.06
494.268	451.06
494.485	460.06
494.703	452.06
494.92	435.06
495.138	474.06
495.355	450.06
495.573	464.06
495.79	458.06
496.008	453.06
496.225	461.06
496.442	467.06
496.66	500.06
496.877	473.06
497.094	489.06
497.312	501.06
497.529	492.06
497.746	516.06
497.963	526.06
498.181	514.06
498.398	544.06
498.615	580.06
498.832	604.06
499.049	624.06
499.267	664.06
499.484	741.06
499.701	799.06
499.918	880.06
500.135	956.06
500.352	1016.06
500.569	1065.06
500.786	1026.06
501.003	967.06
501.22	861.06
501.437	802.06
501.654	762.06
501.871	692.06
502.088	663.06
502.305	632.06
502.522	574.06
502.739	560.06
502.956	551.06
503.172	532.06
503.389	530.06
503.606	501.06
503.823	472.06
504.04	506.06
504.256	506.06
504.473	505.06
504.69	517.06
504.907	502.06
505.123	464.06
505.34	458.06
505.557	466.06
505.773	444.06
505.99	417.06
506.207	411.06
506.423	406.06
506.64	398.06
506.856	403.06
507.073	411.06
507.289	400.06
507.506	398.06
507.722	385.06
507.939	412.06
508.155	388.06
508.372	402.06
508.588	391.06
508.805	383.06
509.021	369.06
509.238	401.06
509.454	374.06
509.67	364.06
509.887	394.06
510.103	378.06
510.319	378.06
510.536	361.06
510.752	353.06
510.968	365.06
511.184	348.06
511.401	359.06
511.617	379.06
511.833	372.06
512.049	381.06
512.265	375.06
512.481	383.06
512.698	355.06
512.914	380.06
513.13	376.06
513.346	364.06
513.562	357.06
513.778	357.06
513.994	383.06
514.21	362.06
514.426	361.06
514.642	383.06
514.858	377.06
515.074	366.06
515.29	388.06
515.506	396.06
515.721	383.06
515.937	390.06
516.153	387.06
516.369	390.06
516.585	415.06
516.801	428.06
517.016	416.06
517.232	412.06
517.448	465.06
517.664	451.06
517.879	466.06
518.095	452.06
518.311	462.06
518.527	438.06
518.742	443.06
518.958	431.06
519.173	415.06
519.389	395.06
519.605	369.06
519.82	388.06
520.036	395.06
520.251	382.06
520.467	384.06
520.682	366.06
520.898	365.06
521.113	335.06
521.329	375.06
521.544	359.06
521.76	366.06
521.975	356.06
522.19	356.06
522.406	360.06
522.621	354.06
522.836	357.06
523.052	354.06
523.267	340.06
523.482	364.06
523.698	350.06
523.913	358.06
524.128	340.06
524.343	340.06
524.559	355.06
524.774	356.06
524.989	336.06
525.204	342.06
525.419	336.06
525.634	347.06
525.849	344.06
526.064	331.06
526.28	344.06
526.495	332.06
526.71	328.06
526.925	341.06
527.14	318.06
527.355	363.06
527.57	331.06
527.785	332.06
527.999	330.06
528.214	344.06
528.429	352.06
528.644	341.06
528.859	331.06
529.074	334.06
529.289	324.06
529.503	320.06
529.718	328.06
529.933	329.06
530.148	344.06
530.363	322.06
530.577	334.06
530.792	317.06
531.007	349.06
531.221	336.06
531.436	344.06
531.651	325.06
531.865	323.06
532.08	333.06
532.295	345.06
532.509	333.06
532.724	322.06
532.938	329.06
533.153	335.06
533.367	330.06
533.582	337.06
533.796	343.06
534.011	340.06
534.225	346.06
534.44	343.06
534.654	326.06
534.868	328.06
535.083	333.06
535.297	338.06
535.511	335.06
535.726	328.06
535.94	324.06
536.154	317.06
536.369	315.06
536.583	316.06
536.797	304.06
537.011	317.06
537.225	315.06
537.44	318.06
537.654	316.06
537.868	311.06
538.082	308.06
538.296	310.06
538.51	322.06
538.724	296.06
538.938	318.06
539.153	304.06
539.367	317.06
539.581	316.06
539.795	306.06
540.009	304.06
540.222	295.06
540.436	306.06
540.65	292.06
540.864	321.06
541.078	306.06
541.292	305.06
541.506	329.06
541.72	305.06
541.934	322.06
542.147	317.06
542.361	317.06
542.575	305.06
542.789	296.06
543.002	288.06
543.216	319.06
543.43	301.06
543.644	316.06
543.857	327.06
544.071	318.06
544.285	330.06
544.498	304.06
544.712	308.06
544.925	318.06
545.139	324.06
545.352	309.06
545.566	321.06
545.779	324.06
545.993	321.06
546.206	324.06
546.42	331.06
546.633	308.06
546.847	297.06
547.06	317.06
547.274	317.06
547.487	328.06
547.7	321.06
547.914	336.06
548.127	324.06
548.34	309.06
548.554	308.06
548.767	336.06
548.98	319.06
549.193	312.06
549.407	312.06
549.62	328.06
549.833	321.06
550.046	317.06
550.259	318.06
550.473	325.06
550.686	324.06
550.899	306.06
551.112	324.06
551.325	304.06
551.538	314.06
551.751	307.06
551.964	325.06
552.177	305.06
552.39	335.06
552.603	334.06
552.816	342.06
553.029	323.06
553.242	336.06
553.455	324.06
553.667	326.06
553.88	335.06
554.093	322.06
554.306	349.06
554.519	323.06
554.732	338.06
554.944	311.06
555.157	308.06
555.37	302.06
555.583	306.06
555.795	300.06
556.008	325.06
556.221	294.06
556.433	304.06
556.646	293.06
556.859	287.06
557.071	285.06
557.284	269.06
557.496	273.06
557.709	282.06
557.921	284.06
558.134	270.06
558.346	276.06
558.559	290.06
558.771	280.06
558.984	282.06
559.196	276.06
559.409	282.06
559.621	289.06
559.833	263.06
560.046	267.06
560.258	257.06
560.47	251.06
560.683	267.06
560.895	269.06
561.107	276.06
561.32	277.06
561.532	273.06
561.744	261.06
561.956	260.06
562.168	266.06
562.381	270.06
562.593	252.06
562.805	255.06
563.017	274.06
563.229	268.06
563.441	266.06
563.653	278.06
563.865	285.06
564.077	286.06
564.289	297.06
564.501	269.06
564.713	290.06
564.925	295.06
565.137	293.06
565.349	286.06
565.561	289.06
565.773	310.06
565.985	314.06
566.197	330.06
566.408	364.06
566.62	364.06
566.832	380.06
567.044	390.06
567.255	384.06
567.467	422.06
567.679	410.06
567.891	398.06
568.102	390.06
568.314	406.06
568.526	384.06
568.737	348.06
568.949	333.06
569.161	319.06
569.372	306.06
569.584	297.06
569.795	313.06
570.007	282.06
570.218	281.06
570.43	276.06
570.641	300.06
570.853	260.06
571.064	278.06
571.276	269.06
571.487	243.06
571.698	262.06
571.91	255.06
572.121	256.06
572.333	271.06
572.544	239.06
572.755	256.06
572.966	242.06
573.178	244.06
573.389	221.06
573.6	236.06
573.811	234.06
574.023	235.06
574.234	220.06
574.445	229.06
574.656	232.06
574.867	231.06
575.078	229.06
575.289	212.06
575.501	224.06
575.712	240.06
575.923	218.06
576.134	221.06
576.345	224.06
576.556	226.06
576.767	226.06
576.978	213.06
577.188	227.06
577.399	208.06
577.61	209.06
577.821	205.06
578.032	205.06
578.243	201.06
578.454	224.06
578.665	218.06
578.875	210.06
579.086	225.06
579.297	194.06
579.508	205.06
579.718	206.06
579.929	219.06
580.14	206.06
580.35	198.06
580.561	197.06
580.772	190.06
580.982	202.06
581.193	197.06
581.403	194.06
581.614	216.06
581.825	208.06
582.035	206.06
582.246	204.06
582.456	198.06
582.667	213.06
582.877	203.06
583.087	200.06
583.298	205.06
583.508	203.06
583.719	192.06
583.929	216.06
584.139	210.06
584.35	188.06
584.56	195.06
584.77	197.06
584.981	178.06
585.191	196.06
585.401	207.06
585.611	198.06
585.821	186.06
586.032	193.06
586.242	198.06
586.452	201.06
586.662	205.06
586.872	189.06
587.082	196.06
587.292	208.06
587.502	195.06
587.713	189.06
587.923	197.06
588.133	201.06
588.343	202.06
588.553	187.06
588.762	173.06
588.972	202.06
589.182	202.06
589.392	189.06
589.602	188.06
589.812	204.06
590.022	196.06
590.232	215.06
590.441	192.06
590.651	211.06
590.861	184.06
591.071	205.06
591.281	192.06
591.49	190.06
591.7	198.06
591.91	213.06
592.119	197.06
592.329	206.06
592.539	228.06
592.748	233.06
592.958	224.06
593.167	227.06
593.377	226.06
593.587	243.06
593.796	228.06
594.006	231.06
594.215	226.06
594.424	225.06
594.634	226.06
594.843	200.06
595.053	206.06
595.262	222.06
595.472	201.06
595.681	198.06
595.89	193.06
596.1	178.06
596.309	197.06
596.518	190.06
596.727	176.06
596.937	191.06
597.146	184.06
597.355	198.06
597.564	179.06
597.774	187.06
597.983	188.06
598.192	179.06
598.401	180.06
598.61	166.06
598.819	184.06
599.028	178.06
599.237	179.06
599.446	176.06
599.655	162.06
599.864	174.06
600.073	182.06
600.282	178.06
600.491	181.06
600.7	169.06
600.909	183.06
601.118	188.06
601.327	186.06
601.536	185.06
601.745	167.06
601.953	163.06
602.162	195.06
602.371	177.06
602.58	182.06
602.789	180.06
602.997	181.06
603.206	173.06
603.415	173.06
603.623	172.06
603.832	165.06
604.041	171.06
604.249	168.06
604.458	191.06
604.666	168.06
604.875	157.06
605.084	162.06
605.292	162.06
605.501	165.06
605.709	176.06
605.918	165.06
606.126	161.06
606.334	176.06
606.543	166.06
606.751	158.06
606.96	180.06
607.168	164.06
607.376	163.06
607.585	155.06
607.793	180.06
608.001	173.06
608.21	160.06
608.418	181.06
608.626	173.06
608.834	182.06
609.043	171.06
609.251	168.06
609.459	161.06
609.667	178.06
609.875	165.06
610.083	174.06
610.291	165.06
610.499	182.06
610.707	155.06
610.916	162.06
611.124	160.06
611.332	159.06
611.54	160.06
611.748	163.06
611.955	165.06
612.163	164.06
612.371	156.06
612.579	163.06
612.787	162.06
612.995	166.06
613.203	176.06
613.411	168.06
613.618	161.06
613.826	163.06
614.034	173.06
614.242	165.06
614.449	158.06
614.657	163.06
614.865	155.06
615.072	152.06
615.28	157.06
615.488	156.06
615.695	153.06
615.903	165.06
616.111	171.06
616.318	169.06
616.526	167.06
616.733	165.06
616.941	150.06
617.148	163.06
617.356	156.06
617.563	168.06
617.771	157.06
617.978	167.06
618.185	166.06
618.393	156.06
618.6	162.06
618.807	154.06
619.015	143.06
619.222	148.06
619.429	167.06
619.637	154.06
619.844	158.06
620.051	152.06
620.258	146.06
620.466	159.06
620.673	140.06
620.88	133.06
621.087	136.06
621.294	148.06
621.501	137.06
621.708	148.06
621.915	152.06
622.122	169.06
622.329	150.06
622.536	155.06
622.743	148.06
622.95	147.06
623.157	152.06
623.364	148.06
623.571	148.06
623.778	153.06
623.985	156.06
624.192	154.06
624.399	158.06
624.606	157.06
624.812	152.06
625.019	136.06
625.226	148.06
625.433	137.06
625.639	134.06
625.846	150.06
626.053	153.06
626.259	151.06
626.466	161.06
626.673	149.06
626.879	142.06
627.086	141.06
627.293	142.06
627.499	138.06
627.706	146.06
627.912	149.06
628.119	145.06
628.325	159.06
628.532	148.06
628.738	137.06
628.945	137.06
629.151	142.06
629.357	137.06
629.564	149.06
629.77	148.06
629.976	145.06
630.183	147.06
630.389	140.06
630.595	137.06
630.802	138.06
631.008	137.06
631.214	124.06
631.42	139.06
631.627	145.06
631.833	138.06
632.039	141.06
632.245	139.06
632.451	147.06
632.657	136.06
632.863	124.06
633.069	140.06
633.275	155.06
633.481	164.06
633.688	141.06
633.893	132.06
634.099	155.06
634.305	134.06
634.511	123.06
634.717	133.06
634.923	146.06
635.129	122.06
635.335	126.06
635.541	138.06
635.747	134.06
635.952	146.06
636.158	150.06
636.364	125.06
636.57	125.06
636.775	139.06
636.981	142.06
637.187	123.06
637.392	112.06
637.598	140.06
637.804	130.06
638.009	134.06
638.215	138.06
638.421	143.06
638.626	130.06
638.832	140.06
639.037	128.06
639.243	135.06
639.448	135.06
639.654	140.06
639.859	126.06
640.065	122.06
640.27	148.06
640.475	133.06
640.681	135.06
640.886	142.06
641.091	128.06
641.297	124.06
641.502	134.06
641.707	130.06
641.913	136.06
642.118	123.06
642.323	138.06
642.528	153.06
642.733	138.06
642.939	137.06
643.144	142.06
643.349	112.06
643.554	120.06
643.759	114.06
643.964	136.06
644.169	122.06
644.374	123.06
644.579	130.06
644.784	124.06
644.989	136.06
645.194	124.06
645.399	139.06
645.604	120.06
645.809	126.06
646.014	132.06
646.219	113.06
646.423	134.06
646.628	116.06
646.833	133.06
647.038	134.06
647.243	125.06
647.447	141.06
647.652	121.06
647.857	143.06
648.062	118.06
648.266	124.06
648.471	142.06
648.676	146.06
648.88	134.06
649.085	125.06
649.289	128.06
649.494	143.06
649.698	136.06
649.903	125.06
650.107	149.06
650.312	144.06
650.516	147.06
650.721	124.06
650.925	116.06
651.13	129.06
651.334	116.06
651.539	120.06
651.743	114.06
651.947	122.06
652.152	132.06
652.356	120.06
652.56	128.06
652.764	118.06
652.969	120.06
653.173	112.06
653.377	115.06
653.581	132.06
653.785	133.06
653.99	138.06
654.194	97.06
654.398	114.06
654.602	114.06
654.806	128.06
655.01	122.06
655.214	116.06
655.418	124.06
655.622	120.06
655.826	132.06
656.03	122.06
656.234	103.06
656.438	122.06
656.642	135.06
656.846	133.06
657.049	110.06
657.253	118.06
657.457	117.06
657.661	129.06
657.865	129.06
658.068	101.06
658.272	114.06
658.476	107.06
658.68	110.06
658.883	106.06
659.087	93.06
659.291	106.06
659.494	102.06
659.698	94.06
659.901	93.06
660.105	94.06
660.309	101.06
660.512	91.06
660.716	93.06
660.919	90.06
661.123	100.06
661.326	87.06
661.53	82.06
661.733	100.06
661.936	83.06
662.14	84.06
662.343	96.06
662.546	101.06
662.75	89.06
662.953	89.06
663.156	81.06
663.36	91.06
663.563	64.06
663.766	75.06
663.969	85.06
664.173	83.06
664.376	84.06
664.579	84.06
664.782	65.06
664.985	86.06
665.188	89.06
665.391	79.06
665.594	85.06
665.797	81.06
666	79.06
666.203	73.06
666.406	77.06
666.609	82.06
666.812	106.06
667.015	80.06
667.218	78.06
667.421	70.06
667.624	73.06
667.827	91.06
668.03	89.06
668.232	87.06
668.435	73.06
668.638	84.06
668.841	75.06
669.043	72.06
669.246	82.06
669.449	85.06
669.651	78.06
669.854	75.06
670.057	78.06
670.259	90.06
670.462	64.06
670.665	74.06
670.867	72.06
671.07	73.06
671.272	76.06
671.475	72.06
671.677	76.06
671.88	90.06
672.082	82.06
672.284	73.06
672.487	90.06
672.689	81.06
672.892	78.06
