Data from Fe(NO3)3@0.1M.TitratingCurve.Agarose3%dH2O.NegLispCup.LampEnergy10.LIBS07252019_HRD10591_16-37-44-331.txt Node
Date: Thu Jul 25 16:37:44 EDT 2019
User: cochatt
Spectrometer: HR+D1059
Trigger mode: 1
Integration Time (sec): 1.000000E-1
Scans to average: 1
Electric dark correction enabled: true
Nonlinearity correction enabled: false
Boxcar width: 0
XAxis mode: Wavelengths
Number of Pixels in Spectrum: 2048
>>>>>Begin Spectral Data<<<<<
223.165	-18.12
223.4	-18.12
223.635	-18.12
223.869	-22.12
224.104	-21.12
224.338	-7.12
224.573	-22.12
224.808	-7.12
225.042	-16.12
225.277	-5.12
225.511	0.88
225.746	3.88
225.98	8.88
226.215	25.88
226.449	17.88
226.683	14.88
226.918	2.88
227.152	43.88
227.387	36.88
227.621	30.88
227.856	64.88
228.09	48.88
228.324	62.88
228.559	61.88
228.793	80.88
229.027	70.88
229.262	83.88
229.496	79.88
229.73	90.88
229.964	82.88
230.199	81.88
230.433	83.88
230.667	94.88
230.901	114.88
231.136	105.88
231.37	107.88
231.604	92.88
231.838	78.88
232.072	104.88
232.306	82.88
232.541	101.88
232.775	102.88
233.009	105.88
233.243	108.88
233.477	99.88
233.711	101.88
233.945	106.88
234.179	103.88
234.413	118.88
234.647	110.88
234.881	120.88
235.115	104.88
235.349	98.88
235.583	101.88
235.817	97.88
236.051	99.88
236.285	105.88
236.519	118.88
236.753	114.88
236.987	103.88
237.221	103.88
237.455	89.88
237.689	115.88
237.922	100.88
238.156	106.88
238.39	105.88
238.624	111.88
238.858	116.88
239.091	88.88
239.325	100.88
239.559	92.88
239.793	98.88
240.027	105.88
240.26	109.88
240.494	103.88
240.728	119.88
240.961	99.88
241.195	114.88
241.429	108.88
241.662	113.88
241.896	100.88
242.13	118.88
242.363	109.88
242.597	103.88
242.83	115.88
243.064	103.88
243.298	107.88
243.531	108.88
243.765	128.88
243.998	108.88
244.232	110.88
244.465	125.88
244.699	122.88
244.932	119.88
245.166	118.88
245.399	104.88
245.633	128.88
245.866	120.88
246.099	110.88
246.333	122.88
246.566	124.88
246.8	130.88
247.033	114.88
247.266	123.88
247.5	126.88
247.733	130.88
247.966	118.88
248.2	129.88
248.433	123.88
248.666	107.88
248.899	117.88
249.133	133.88
249.366	134.88
249.599	127.88
249.832	135.88
250.066	121.88
250.299	119.88
250.532	118.88
250.765	120.88
250.998	130.88
251.231	144.88
251.465	128.88
251.698	124.88
251.931	125.88
252.164	130.88
252.397	136.88
252.63	132.88
252.863	128.88
253.096	120.88
253.329	125.88
253.562	124.88
253.795	141.88
254.028	134.88
254.261	132.88
254.494	126.88
254.727	122.88
254.96	131.88
255.193	141.88
255.426	138.88
255.659	157.88
255.892	147.88
256.124	135.88
256.357	136.88
256.59	128.88
256.823	133.88
257.056	143.88
257.289	146.88
257.521	156.88
257.754	125.88
257.987	141.88
258.22	140.88
258.452	144.88
258.685	147.88
258.918	147.88
259.151	148.88
259.383	160.88
259.616	148.88
259.849	147.88
260.081	140.88
260.314	158.88
260.547	135.88
260.779	136.88
261.012	151.88
261.244	161.88
261.477	163.88
261.71	158.88
261.942	148.88
262.175	151.88
262.407	149.88
262.64	144.88
262.872	145.88
263.105	142.88
263.337	166.88
263.57	155.88
263.802	168.88
264.035	154.88
264.267	152.88
264.499	149.88
264.732	159.88
264.964	145.88
265.197	155.88
265.429	168.88
265.661	176.88
265.894	155.88
266.126	161.88
266.358	150.88
266.591	164.88
266.823	156.88
267.055	162.88
267.287	154.88
267.52	153.88
267.752	168.88
267.984	168.88
268.216	163.88
268.448	169.88
268.681	162.88
268.913	161.88
269.145	151.88
269.377	152.88
269.609	158.88
269.841	165.88
270.073	171.88
270.306	166.88
270.538	167.88
270.77	170.88
271.002	175.88
271.234	158.88
271.466	152.88
271.698	163.88
271.93	168.88
272.162	172.88
272.394	173.88
272.626	173.88
272.858	175.88
273.09	174.88
273.322	178.88
273.553	175.88
273.785	172.88
274.017	182.88
274.249	182.88
274.481	181.88
274.713	182.88
274.945	188.88
275.176	186.88
275.408	181.88
275.64	180.88
275.872	178.88
276.104	167.88
276.335	180.88
276.567	191.88
276.799	189.88
277.031	180.88
277.262	182.88
277.494	192.88
277.726	187.88
277.957	190.88
278.189	181.88
278.421	184.88
278.652	175.88
278.884	187.88
279.115	194.88
279.347	196.88
279.579	174.88
279.81	189.88
280.042	170.88
280.273	189.88
280.505	189.88
280.736	173.88
280.968	173.88
281.199	185.88
281.431	170.88
281.662	170.88
281.894	181.88
282.125	194.88
282.356	201.88
282.588	209.88
282.819	178.88
283.051	183.88
283.282	195.88
283.513	210.88
283.745	213.88
283.976	195.88
284.207	198.88
284.439	217.88
284.67	199.88
284.901	203.88
285.132	208.88
285.364	185.88
285.595	211.88
285.826	178.88
286.057	211.88
286.288	210.88
286.52	220.88
286.751	195.88
286.982	212.88
287.213	190.88
287.444	203.88
287.675	214.88
287.906	183.88
288.138	193.88
288.369	194.88
288.6	216.88
288.831	208.88
289.062	213.88
289.293	220.88
289.524	211.88
289.755	203.88
289.986	236.88
290.217	211.88
290.448	227.88
290.679	215.88
290.91	216.88
291.141	207.88
291.371	195.88
291.602	202.88
291.833	200.88
292.064	206.88
292.295	206.88
292.526	200.88
292.757	217.88
292.987	209.88
293.218	204.88
293.449	188.88
293.68	194.88
293.91	201.88
294.141	216.88
294.372	223.88
294.603	243.88
294.833	231.88
295.064	219.88
295.295	220.88
295.525	213.88
295.756	213.88
295.987	215.88
296.217	216.88
296.448	201.88
296.679	225.88
296.909	227.88
297.14	223.88
297.37	225.88
297.601	218.88
297.831	218.88
298.062	218.88
298.292	234.88
298.523	230.88
298.753	232.88
298.984	220.88
299.214	215.88
299.445	227.88
299.675	212.88
299.905	221.88
300.136	234.88
300.366	227.88
300.597	233.88
300.827	218.88
301.057	239.88
301.288	222.88
301.518	234.88
301.748	228.88
301.979	244.88
302.209	230.88
302.439	233.88
302.669	228.88
302.9	236.88
303.13	243.88
303.36	232.88
303.59	233.88
303.82	216.88
304.051	234.88
304.281	242.88
304.511	226.88
304.741	247.88
304.971	248.88
305.201	236.88
305.431	244.88
305.661	229.88
305.891	229.88
306.121	222.88
306.352	220.88
306.582	226.88
306.812	231.88
307.042	217.88
307.272	237.88
307.502	242.88
307.731	246.88
307.961	226.88
308.191	236.88
308.421	236.88
308.651	251.88
308.881	232.88
309.111	229.88
309.341	228.88
309.571	234.88
309.8	223.88
310.03	250.88
310.26	216.88
310.49	229.88
310.72	223.88
310.949	244.88
311.179	249.88
311.409	225.88
311.639	250.88
311.868	244.88
312.098	235.88
312.328	222.88
312.557	239.88
312.787	233.88
313.017	247.88
313.246	259.88
313.476	264.88
313.706	226.88
313.935	212.88
314.165	240.88
314.394	254.88
314.624	236.88
314.853	245.88
315.083	252.88
315.312	234.88
315.542	255.88
315.771	250.88
316.001	232.88
316.23	253.88
316.46	254.88
316.689	258.88
316.919	258.88
317.148	271.88
317.377	271.88
317.607	262.88
317.836	251.88
318.065	246.88
318.295	235.88
318.524	254.88
318.753	266.88
318.983	249.88
319.212	269.88
319.441	268.88
319.67	268.88
319.9	264.88
320.129	252.88
320.358	246.88
320.587	249.88
320.816	247.88
321.046	254.88
321.275	244.88
321.504	240.88
321.733	260.88
321.962	243.88
322.191	252.88
322.42	235.88
322.649	254.88
322.878	250.88
323.108	255.88
323.337	257.88
323.566	247.88
323.795	262.88
324.024	252.88
324.253	254.88
324.482	259.88
324.71	259.88
324.939	264.88
325.168	264.88
325.397	260.88
325.626	266.88
325.855	268.88
326.084	268.88
326.313	275.88
326.542	276.88
326.77	262.88
326.999	263.88
327.228	266.88
327.457	259.88
327.686	265.88
327.914	263.88
328.143	283.88
328.372	282.88
328.6	277.88
328.829	292.88
329.058	289.88
329.287	270.88
329.515	272.88
329.744	285.88
329.972	288.88
330.201	272.88
330.43	270.88
330.658	288.88
330.887	279.88
331.115	286.88
331.344	283.88
331.572	291.88
331.801	285.88
332.03	278.88
332.258	295.88
332.486	296.88
332.715	310.88
332.943	314.88
333.172	307.88
333.4	331.88
333.629	329.88
333.857	371.88
334.085	301.88
334.314	333.88
334.542	318.88
334.771	306.88
334.999	300.88
335.227	306.88
335.455	302.88
335.684	318.88
335.912	298.88
336.14	287.88
336.369	323.88
336.597	313.88
336.825	325.88
337.053	289.88
337.281	290.88
337.51	288.88
337.738	294.88
337.966	297.88
338.194	304.88
338.422	291.88
338.65	313.88
338.878	275.88
339.106	296.88
339.334	286.88
339.562	295.88
339.79	272.88
340.018	284.88
340.246	290.88
340.474	276.88
340.702	258.88
340.93	280.88
341.158	273.88
341.386	283.88
341.614	268.88
341.842	276.88
342.07	284.88
342.298	273.88
342.526	269.88
342.754	281.88
342.981	289.88
343.209	297.88
343.437	304.88
343.665	293.88
343.893	303.88
344.12	328.88
344.348	308.88
344.576	294.88
344.804	300.88
345.031	297.88
345.259	263.88
345.487	273.88
345.714	258.88
345.942	279.88
346.17	278.88
346.397	292.88
346.625	300.88
346.853	287.88
347.08	299.88
347.308	279.88
347.535	281.88
347.763	289.88
347.99	277.88
348.218	276.88
348.445	282.88
348.673	291.88
348.9	272.88
349.128	279.88
349.355	282.88
349.583	260.88
349.81	276.88
350.037	274.88
350.265	264.88
350.492	293.88
350.72	278.88
350.947	265.88
351.174	269.88
351.402	283.88
351.629	269.88
351.856	266.88
352.083	295.88
352.311	280.88
352.538	272.88
352.765	268.88
352.992	269.88
353.22	268.88
353.447	260.88
353.674	261.88
353.901	254.88
354.128	292.88
354.355	263.88
354.583	256.88
354.81	268.88
355.037	283.88
355.264	269.88
355.491	266.88
355.718	260.88
355.945	286.88
356.172	279.88
356.399	282.88
356.626	258.88
356.853	279.88
357.08	284.88
357.307	278.88
357.534	264.88
357.761	293.88
357.988	285.88
358.215	267.88
358.441	270.88
358.668	279.88
358.895	293.88
359.122	277.88
359.349	279.88
359.576	270.88
359.802	271.88
360.029	280.88
360.256	278.88
360.483	266.88
360.709	281.88
360.936	293.88
361.163	271.88
361.39	269.88
361.616	291.88
361.843	268.88
362.07	278.88
362.296	276.88
362.523	281.88
362.749	297.88
362.976	299.88
363.203	260.88
363.429	271.88
363.656	299.88
363.882	274.88
364.109	279.88
364.335	288.88
364.562	280.88
364.788	280.88
365.015	285.88
365.241	295.88
365.468	273.88
365.694	284.88
365.92	272.88
366.147	267.88
366.373	275.88
366.599	289.88
366.826	286.88
367.052	287.88
367.278	272.88
367.505	282.88
367.731	290.88
367.957	300.88
368.184	290.88
368.41	281.88
368.636	296.88
368.862	284.88
369.089	275.88
369.315	289.88
369.541	282.88
369.767	286.88
369.993	284.88
370.219	287.88
370.445	275.88
370.672	286.88
370.898	282.88
371.124	314.88
371.35	290.88
371.576	281.88
371.802	290.88
372.028	292.88
372.254	291.88
372.48	291.88
372.706	301.88
372.932	323.88
373.158	291.88
373.384	308.88
373.61	306.88
373.835	299.88
374.061	300.88
374.287	319.88
374.513	298.88
374.739	312.88
374.965	342.88
375.191	348.88
375.416	323.88
375.642	303.88
375.868	316.88
376.094	318.88
376.319	318.88
376.545	319.88
376.771	320.88
376.997	319.88
377.222	295.88
377.448	314.88
377.674	288.88
377.899	299.88
378.125	292.88
378.35	295.88
378.576	313.88
378.802	311.88
379.027	296.88
379.253	288.88
379.478	300.88
379.704	299.88
379.929	318.88
380.155	308.88
380.38	324.88
380.606	303.88
380.831	325.88
381.057	323.88
381.282	321.88
381.507	328.88
381.733	324.88
381.958	324.88
382.184	330.88
382.409	324.88
382.634	336.88
382.86	343.88
383.085	333.88
383.31	351.88
383.535	350.88
383.761	359.88
383.986	350.88
384.211	365.88
384.436	360.88
384.662	345.88
384.887	365.88
385.112	346.88
385.337	338.88
385.562	352.88
385.787	355.88
386.013	384.88
386.238	362.88
386.463	375.88
386.688	369.88
386.913	373.88
387.138	355.88
387.363	372.88
387.588	362.88
387.813	374.88
388.038	351.88
388.263	356.88
388.488	361.88
388.713	350.88
388.938	356.88
389.163	359.88
389.387	367.88
389.612	349.88
389.837	350.88
390.062	364.88
390.287	376.88
390.512	372.88
390.736	362.88
390.961	343.88
391.186	366.88
391.411	390.88
391.636	389.88
391.86	391.88
392.085	400.88
392.31	399.88
392.534	399.88
392.759	384.88
392.984	381.88
393.208	396.88
393.433	382.88
393.658	374.88
393.882	378.88
394.107	407.88
394.331	381.88
394.556	394.88
394.78	392.88
395.005	400.88
395.229	389.88
395.454	404.88
395.678	399.88
395.903	398.88
396.127	390.88
396.352	399.88
396.576	380.88
396.801	371.88
397.025	380.88
397.249	396.88
397.474	419.88
397.698	409.88
397.922	408.88
398.147	423.88
398.371	419.88
398.595	420.88
398.82	456.88
399.044	457.88
399.268	500.88
399.492	566.88
399.717	598.88
399.941	587.88
400.165	536.88
400.389	495.88
400.613	489.88
400.837	465.88
401.062	468.88
401.286	451.88
401.51	452.88
401.734	441.88
401.958	459.88
402.182	483.88
402.406	447.88
402.63	463.88
402.854	466.88
403.078	460.88
403.302	458.88
403.526	486.88
403.75	485.88
403.974	497.88
404.198	505.88
404.422	487.88
404.645	487.88
404.869	491.88
405.093	490.88
405.317	472.88
405.541	487.88
405.765	464.88
405.988	462.88
406.212	488.88
406.436	487.88
406.66	495.88
406.883	481.88
407.107	515.88
407.331	528.88
407.555	535.88
407.778	538.88
408.002	534.88
408.226	523.88
408.449	496.88
408.673	503.88
408.896	478.88
409.12	508.88
409.344	498.88
409.567	483.88
409.791	477.88
410.014	492.88
410.238	478.88
410.461	487.88
410.685	465.88
410.908	470.88
411.132	467.88
411.355	480.88
411.578	456.88
411.802	471.88
412.025	478.88
412.249	485.88
412.472	461.88
412.695	476.88
412.919	430.88
413.142	455.88
413.365	446.88
413.589	459.88
413.812	454.88
414.035	447.88
414.258	458.88
414.482	463.88
414.705	442.88
414.928	469.88
415.151	466.88
415.374	434.88
415.597	470.88
415.821	430.88
416.044	426.88
416.267	454.88
416.49	461.88
416.713	456.88
416.936	432.88
417.159	436.88
417.382	458.88
417.605	443.88
417.828	432.88
418.051	447.88
418.274	467.88
418.497	437.88
418.72	455.88
418.943	443.88
419.166	481.88
419.389	471.88
419.611	483.88
419.834	458.88
420.057	454.88
420.28	436.88
420.503	430.88
420.726	444.88
420.948	447.88
421.171	429.88
421.394	443.88
421.617	431.88
421.839	438.88
422.062	433.88
422.285	438.88
422.507	454.88
422.73	453.88
422.953	460.88
423.175	450.88
423.398	443.88
423.621	467.88
423.843	466.88
424.066	460.88
424.288	461.88
424.511	438.88
424.733	452.88
424.956	420.88
425.178	447.88
425.401	432.88
425.623	444.88
425.846	440.88
426.068	427.88
426.291	419.88
426.513	420.88
426.735	424.88
426.958	437.88
427.18	415.88
427.402	411.88
427.625	417.88
427.847	417.88
428.069	405.88
428.292	399.88
428.514	412.88
428.736	420.88
428.958	397.88
429.181	392.88
429.403	392.88
429.625	409.88
429.847	384.88
430.069	393.88
430.292	395.88
430.514	391.88
430.736	401.88
430.958	406.88
431.18	409.88
431.402	427.88
431.624	406.88
431.846	412.88
432.068	418.88
432.29	420.88
432.512	405.88
432.734	415.88
432.956	395.88
433.178	405.88
433.4	400.88
433.622	410.88
433.844	415.88
434.066	401.88
434.287	406.88
434.509	413.88
434.731	429.88
434.953	431.88
435.175	455.88
435.397	459.88
435.618	429.88
435.84	422.88
436.062	416.88
436.284	409.88
436.505	395.88
436.727	406.88
436.949	424.88
437.17	388.88
437.392	392.88
437.614	405.88
437.835	394.88
438.057	392.88
438.278	378.88
438.5	383.88
438.721	396.88
438.943	399.88
439.165	396.88
439.386	413.88
439.608	406.88
439.829	394.88
440.05	398.88
440.272	400.88
440.493	406.88
440.715	420.88
440.936	428.88
441.158	435.88
441.379	448.88
441.6	451.88
441.822	456.88
442.043	436.88
442.264	430.88
442.486	422.88
442.707	418.88
442.928	444.88
443.149	412.88
443.371	446.88
443.592	445.88
443.813	443.88
444.034	444.88
444.255	468.88
444.476	472.88
444.698	502.88
444.919	501.88
445.14	608.88
445.361	518.88
445.582	441.88
445.803	452.88
446.024	443.88
446.245	416.88
446.466	412.88
446.687	390.88
446.908	406.88
447.129	418.88
447.35	409.88
447.571	399.88
447.792	388.88
448.013	398.88
448.234	394.88
448.455	383.88
448.675	388.88
448.896	386.88
449.117	371.88
449.338	394.88
449.559	386.88
449.779	370.88
450	351.88
450.221	374.88
450.442	371.88
450.662	382.88
450.883	391.88
451.104	379.88
451.324	393.88
451.545	384.88
451.766	379.88
451.986	380.88
452.207	383.88
452.428	378.88
452.648	384.88
452.869	378.88
453.089	379.88
453.31	358.88
453.53	358.88
453.751	359.88
453.971	392.88
454.192	344.88
454.412	366.88
454.633	345.88
454.853	344.88
455.073	365.88
455.294	372.88
455.514	358.88
455.734	344.88
455.955	355.88
456.175	359.88
456.395	365.88
456.616	350.88
456.836	363.88
457.056	355.88
457.276	348.88
457.497	366.88
457.717	352.88
457.937	358.88
458.157	353.88
458.377	370.88
458.598	378.88
458.818	382.88
459.038	371.88
459.258	413.88
459.478	392.88
459.698	406.88
459.918	419.88
460.138	419.88
460.358	433.88
460.578	458.88
460.798	454.88
461.018	448.88
461.238	436.88
461.458	458.88
461.678	430.88
461.898	458.88
462.118	464.88
462.338	495.88
462.558	507.88
462.777	494.88
462.997	529.88
463.217	562.88
463.437	548.88
463.657	519.88
463.876	536.88
464.096	518.88
464.316	499.88
464.536	521.88
464.755	486.88
464.975	497.88
465.195	471.88
465.414	442.88
465.634	420.88
465.854	427.88
466.073	424.88
466.293	397.88
466.512	405.88
466.732	379.88
466.951	389.88
467.171	404.88
467.391	403.88
467.61	412.88
467.829	404.88
468.049	387.88
468.268	381.88
468.488	380.88
468.707	377.88
468.927	372.88
469.146	409.88
469.365	400.88
469.585	380.88
469.804	399.88
470.023	382.88
470.243	401.88
470.462	394.88
470.681	407.88
470.901	412.88
471.12	388.88
471.339	412.88
471.558	390.88
471.777	396.88
471.997	390.88
472.216	395.88
472.435	405.88
472.654	390.88
472.873	384.88
473.092	359.88
473.311	375.88
473.53	374.88
473.749	402.88
473.968	375.88
474.187	375.88
474.406	372.88
474.625	378.88
474.844	394.88
475.063	395.88
475.282	387.88
475.501	397.88
475.72	378.88
475.939	375.88
476.158	366.88
476.377	388.88
476.596	394.88
476.814	406.88
477.033	393.88
477.252	400.88
477.471	421.88
477.69	422.88
477.908	439.88
478.127	438.88
478.346	427.88
478.564	434.88
478.783	453.88
479.002	441.88
479.22	457.88
479.439	457.88
479.658	443.88
479.876	461.88
480.095	466.88
480.313	427.88
480.532	486.88
480.751	463.88
480.969	458.88
481.188	439.88
481.406	454.88
481.624	444.88
481.843	434.88
482.061	415.88
482.28	442.88
482.498	416.88
482.717	416.88
482.935	425.88
483.153	424.88
483.372	418.88
483.59	418.88
483.808	428.88
484.027	420.88
484.245	434.88
484.463	431.88
484.681	441.88
484.9	438.88
485.118	447.88
485.336	431.88
485.554	417.88
485.772	418.88
485.99	436.88
486.209	426.88
486.427	422.88
486.645	436.88
486.863	456.88
487.081	426.88
487.299	452.88
487.517	432.88
487.735	446.88
487.953	444.88
488.171	436.88
488.389	434.88
488.607	440.88
488.825	443.88
489.043	427.88
489.261	427.88
489.479	426.88
489.696	434.88
489.914	436.88
490.132	423.88
490.35	417.88
490.568	430.88
490.786	431.88
491.003	426.88
491.221	446.88
491.439	450.88
491.657	459.88
491.874	456.88
492.092	460.88
492.31	456.88
492.527	461.88
492.745	443.88
492.963	452.88
493.18	452.88
493.398	482.88
493.615	467.88
493.833	468.88
494.05	457.88
494.268	463.88
494.485	471.88
494.703	477.88
494.92	477.88
495.138	462.88
495.355	460.88
495.573	456.88
495.79	474.88
496.008	473.88
496.225	470.88
496.442	479.88
496.66	503.88
496.877	487.88
497.094	489.88
497.312	494.88
497.529	526.88
497.746	532.88
497.963	543.88
498.181	553.88
498.398	580.88
498.615	595.88
498.832	637.88
499.049	672.88
499.267	732.88
499.484	758.88
499.701	794.88
499.918	851.88
500.135	984.88
500.352	1063.88
500.569	1102.88
500.786	1064.88
501.003	1003.88
501.22	918.88
501.437	842.88
501.654	772.88
501.871	718.88
502.088	667.88
502.305	632.88
502.522	618.88
502.739	605.88
502.956	568.88
503.172	566.88
503.389	553.88
503.606	534.88
503.823	518.88
504.04	510.88
504.256	510.88
504.473	538.88
504.69	529.88
504.907	548.88
505.123	503.88
505.34	473.88
505.557	477.88
505.773	467.88
505.99	456.88
506.207	434.88
506.423	436.88
506.64	444.88
506.856	431.88
507.073	412.88
507.289	422.88
507.506	445.88
507.722	418.88
507.939	402.88
508.155	415.88
508.372	425.88
508.588	413.88
508.805	401.88
509.021	382.88
509.238	391.88
509.454	394.88
509.67	395.88
509.887	399.88
510.103	374.88
510.319	384.88
510.536	383.88
510.752	380.88
510.968	377.88
511.184	380.88
511.401	380.88
511.617	384.88
511.833	391.88
512.049	383.88
512.265	406.88
512.481	382.88
512.698	390.88
512.914	391.88
513.13	392.88
513.346	406.88
513.562	402.88
513.778	386.88
513.994	391.88
514.21	391.88
514.426	388.88
514.642	381.88
514.858	410.88
515.074	396.88
515.29	424.88
515.506	416.88
515.721	419.88
515.937	428.88
516.153	392.88
516.369	416.88
516.585	428.88
516.801	431.88
517.016	445.88
517.232	462.88
517.448	485.88
517.664	479.88
517.879	489.88
518.095	493.88
518.311	470.88
518.527	458.88
518.742	454.88
518.958	444.88
519.173	426.88
519.389	435.88
519.605	400.88
519.82	412.88
520.036	421.88
520.251	410.88
520.467	395.88
520.682	376.88
520.898	380.88
521.113	388.88
521.329	375.88
521.544	391.88
521.76	376.88
521.975	383.88
522.19	385.88
522.406	356.88
522.621	359.88
522.836	379.88
523.052	384.88
523.267	374.88
523.482	364.88
523.698	360.88
523.913	347.88
524.128	352.88
524.343	364.88
524.559	358.88
524.774	357.88
524.989	376.88
525.204	376.88
525.419	374.88
525.634	336.88
525.849	378.88
526.064	362.88
526.28	365.88
526.495	354.88
526.71	383.88
526.925	372.88
527.14	354.88
527.355	352.88
527.57	361.88
527.785	352.88
527.999	350.88
528.214	388.88
528.429	354.88
528.644	352.88
528.859	367.88
529.074	380.88
529.289	376.88
529.503	350.88
529.718	359.88
529.933	370.88
530.148	360.88
530.363	354.88
530.577	346.88
530.792	338.88
531.007	376.88
531.221	350.88
531.436	364.88
531.651	377.88
531.865	362.88
532.08	374.88
532.295	365.88
532.509	349.88
532.724	331.88
532.938	333.88
533.153	370.88
533.367	347.88
533.582	341.88
533.796	345.88
534.011	370.88
534.225	380.88
534.44	366.88
534.654	360.88
534.868	354.88
535.083	352.88
535.297	338.88
535.511	340.88
535.726	358.88
535.94	366.88
536.154	334.88
536.369	348.88
536.583	352.88
536.797	340.88
537.011	344.88
537.225	339.88
537.44	335.88
537.654	329.88
537.868	323.88
538.082	331.88
538.296	333.88
538.51	335.88
538.724	348.88
538.938	336.88
539.153	323.88
539.367	339.88
539.581	331.88
539.795	326.88
540.009	335.88
540.222	333.88
540.436	329.88
540.65	346.88
540.864	319.88
541.078	321.88
541.292	327.88
541.506	343.88
541.72	330.88
541.934	326.88
542.147	343.88
542.361	330.88
542.575	316.88
542.789	323.88
543.002	335.88
543.216	324.88
543.43	333.88
543.644	326.88
543.857	344.88
544.071	330.88
544.285	351.88
544.498	319.88
544.712	316.88
544.925	325.88
545.139	332.88
545.352	335.88
545.566	322.88
545.779	335.88
545.993	336.88
546.206	340.88
546.42	360.88
546.633	342.88
546.847	329.88
547.06	353.88
547.274	324.88
547.487	344.88
547.7	332.88
547.914	335.88
548.127	326.88
548.34	333.88
548.554	336.88
548.767	333.88
548.98	337.88
549.193	348.88
549.407	352.88
549.62	364.88
549.833	335.88
550.046	335.88
550.259	333.88
550.473	335.88
550.686	331.88
550.899	339.88
551.112	334.88
551.325	327.88
551.538	323.88
551.751	346.88
551.964	327.88
552.177	324.88
552.39	321.88
552.603	342.88
552.816	342.88
553.029	344.88
553.242	347.88
553.455	357.88
553.667	351.88
553.88	358.88
554.093	318.88
554.306	342.88
554.519	341.88
554.732	326.88
554.944	338.88
555.157	307.88
555.37	319.88
555.583	317.88
555.795	293.88
556.008	310.88
556.221	297.88
556.433	292.88
556.646	301.88
556.859	302.88
557.071	307.88
557.284	314.88
557.496	301.88
557.709	294.88
557.921	290.88
558.134	290.88
558.346	284.88
558.559	286.88
558.771	275.88
558.984	295.88
559.196	288.88
559.409	278.88
559.621	294.88
559.833	283.88
560.046	298.88
560.258	294.88
560.47	276.88
560.683	288.88
560.895	300.88
561.107	292.88
561.32	289.88
561.532	286.88
561.744	294.88
561.956	285.88
562.168	286.88
562.381	286.88
562.593	279.88
562.805	280.88
563.017	275.88
563.229	287.88
563.441	293.88
563.653	286.88
563.865	281.88
564.077	285.88
564.289	292.88
564.501	298.88
564.713	288.88
564.925	306.88
565.137	294.88
565.349	306.88
565.561	303.88
565.773	317.88
565.985	321.88
566.197	361.88
566.408	351.88
566.62	386.88
566.832	414.88
567.044	409.88
567.255	396.88
567.467	404.88
567.679	424.88
567.891	462.88
568.102	456.88
568.314	439.88
568.526	390.88
568.737	378.88
568.949	346.88
569.161	337.88
569.372	316.88
569.584	282.88
569.795	296.88
570.007	291.88
570.218	288.88
570.43	276.88
570.641	299.88
570.853	272.88
571.064	283.88
571.276	281.88
571.487	297.88
571.698	267.88
571.91	273.88
572.121	266.88
572.333	272.88
572.544	258.88
572.755	246.88
572.966	256.88
573.178	245.88
573.389	264.88
573.6	237.88
573.811	234.88
574.023	256.88
574.234	254.88
574.445	236.88
574.656	242.88
574.867	244.88
575.078	233.88
575.289	236.88
575.501	231.88
575.712	237.88
575.923	259.88
576.134	247.88
576.345	248.88
576.556	228.88
576.767	235.88
576.978	214.88
577.188	233.88
577.399	230.88
577.61	229.88
577.821	233.88
578.032	219.88
578.243	216.88
578.454	231.88
578.665	232.88
578.875	223.88
579.086	218.88
579.297	218.88
579.508	207.88
579.718	220.88
579.929	215.88
580.14	211.88
580.35	227.88
580.561	199.88
580.772	208.88
580.982	222.88
581.193	214.88
581.403	220.88
581.614	237.88
581.825	203.88
582.035	230.88
582.246	213.88
582.456	215.88
582.667	217.88
582.877	204.88
583.087	220.88
583.298	216.88
583.508	203.88
583.719	215.88
583.929	196.88
584.139	193.88
584.35	205.88
584.56	199.88
584.77	230.88
584.981	186.88
585.191	202.88
585.401	204.88
585.611	215.88
585.821	205.88
586.032	202.88
586.242	193.88
586.452	204.88
586.662	211.88
586.872	208.88
587.082	202.88
587.292	200.88
587.502	202.88
587.713	194.88
587.923	205.88
588.133	226.88
588.343	204.88
588.553	207.88
588.762	201.88
588.972	211.88
589.182	205.88
589.392	204.88
589.602	210.88
589.812	214.88
590.022	206.88
590.232	190.88
590.441	222.88
590.651	212.88
590.861	198.88
591.071	202.88
591.281	204.88
591.49	190.88
591.7	204.88
591.91	213.88
592.119	208.88
592.329	218.88
592.539	218.88
592.748	214.88
592.958	234.88
593.167	247.88
593.377	232.88
593.587	234.88
593.796	238.88
594.006	232.88
594.215	224.88
594.424	228.88
594.634	238.88
594.843	255.88
595.053	214.88
595.262	220.88
595.472	211.88
595.681	212.88
595.89	194.88
596.1	210.88
596.309	201.88
596.518	207.88
596.727	188.88
596.937	187.88
597.146	208.88
597.355	198.88
597.564	183.88
597.774	197.88
597.983	200.88
598.192	190.88
598.401	185.88
598.61	199.88
598.819	175.88
599.028	188.88
599.237	190.88
599.446	178.88
599.655	189.88
599.864	193.88
600.073	177.88
600.282	165.88
600.491	172.88
600.7	167.88
600.909	173.88
601.118	170.88
601.327	182.88
601.536	194.88
601.745	168.88
601.953	162.88
602.162	168.88
602.371	186.88
602.58	182.88
602.789	180.88
602.997	180.88
603.206	187.88
603.415	165.88
603.623	176.88
603.832	180.88
604.041	176.88
604.249	172.88
604.458	164.88
604.666	174.88
604.875	161.88
605.084	154.88
605.292	180.88
605.501	156.88
605.709	158.88
605.918	173.88
606.126	159.88
606.334	172.88
606.543	183.88
606.751	167.88
606.96	171.88
607.168	174.88
607.376	153.88
607.585	179.88
607.793	164.88
608.001	178.88
608.21	175.88
608.418	175.88
608.626	172.88
608.834	153.88
609.043	162.88
609.251	194.88
609.459	174.88
609.667	155.88
609.875	179.88
610.083	153.88
610.291	166.88
610.499	160.88
610.707	168.88
610.916	175.88
611.124	164.88
611.332	169.88
611.54	163.88
611.748	162.88
611.955	152.88
612.163	160.88
612.371	168.88
612.579	173.88
612.787	159.88
612.995	156.88
613.203	172.88
613.411	175.88
613.618	159.88
613.826	179.88
614.034	156.88
614.242	170.88
614.449	158.88
614.657	171.88
614.865	168.88
615.072	169.88
615.28	170.88
615.488	181.88
615.695	150.88
615.903	158.88
616.111	159.88
616.318	161.88
616.526	162.88
616.733	148.88
616.941	159.88
617.148	164.88
617.356	169.88
617.563	151.88
617.771	164.88
617.978	163.88
618.185	158.88
618.393	164.88
618.6	151.88
618.807	171.88
619.015	173.88
619.222	159.88
619.429	158.88
619.637	166.88
619.844	150.88
620.051	149.88
620.258	135.88
620.466	154.88
620.673	160.88
620.88	155.88
621.087	154.88
621.294	155.88
621.501	148.88
621.708	150.88
621.915	155.88
622.122	144.88
622.329	152.88
622.536	157.88
622.743	155.88
622.95	159.88
623.157	159.88
623.364	166.88
623.571	166.88
623.778	160.88
623.985	162.88
624.192	152.88
624.399	130.88
624.606	146.88
624.812	144.88
625.019	155.88
625.226	156.88
625.433	134.88
625.639	149.88
625.846	143.88
626.053	142.88
626.259	151.88
626.466	132.88
626.673	143.88
626.879	151.88
627.086	143.88
627.293	155.88
627.499	141.88
627.706	146.88
627.912	163.88
628.119	136.88
628.325	144.88
628.532	137.88
628.738	138.88
628.945	157.88
629.151	140.88
629.357	138.88
629.564	149.88
629.77	137.88
629.976	152.88
630.183	125.88
630.389	137.88
630.595	150.88
630.802	133.88
631.008	154.88
631.214	154.88
631.42	135.88
631.627	159.88
631.833	123.88
632.039	129.88
632.245	150.88
632.451	140.88
632.657	135.88
632.863	136.88
633.069	155.88
633.275	138.88
633.481	140.88
633.688	145.88
633.893	138.88
634.099	137.88
634.305	135.88
634.511	136.88
634.717	135.88
634.923	132.88
635.129	146.88
635.335	141.88
635.541	123.88
635.747	132.88
635.952	143.88
636.158	130.88
636.364	135.88
636.57	141.88
636.775	128.88
636.981	124.88
637.187	127.88
637.392	139.88
637.598	138.88
637.804	124.88
638.009	127.88
638.215	145.88
638.421	143.88
638.626	130.88
638.832	126.88
639.037	131.88
639.243	130.88
639.448	125.88
639.654	135.88
639.859	150.88
640.065	127.88
640.27	148.88
640.475	138.88
640.681	126.88
640.886	128.88
641.091	124.88
641.297	125.88
641.502	123.88
641.707	127.88
641.913	130.88
642.118	128.88
642.323	122.88
642.528	131.88
642.733	127.88
642.939	128.88
643.144	133.88
643.349	129.88
643.554	133.88
643.759	135.88
643.964	137.88
644.169	132.88
644.374	126.88
644.579	130.88
644.784	127.88
644.989	122.88
645.194	126.88
645.399	142.88
645.604	115.88
645.809	129.88
646.014	129.88
646.219	123.88
646.423	124.88
646.628	126.88
646.833	133.88
647.038	127.88
647.243	138.88
647.447	138.88
647.652	131.88
647.857	126.88
648.062	133.88
648.266	134.88
648.471	137.88
648.676	122.88
648.88	128.88
649.085	122.88
649.289	132.88
649.494	124.88
649.698	130.88
649.903	117.88
650.107	128.88
650.312	136.88
650.516	126.88
650.721	130.88
650.925	126.88
651.13	124.88
651.334	124.88
651.539	134.88
651.743	125.88
651.947	120.88
652.152	125.88
652.356	117.88
652.56	126.88
652.764	126.88
652.969	109.88
653.173	93.88
653.377	115.88
653.581	120.88
653.785	118.88
653.99	99.88
654.194	110.88
654.398	110.88
654.602	115.88
654.806	125.88
655.01	113.88
655.214	108.88
655.418	120.88
655.622	106.88
655.826	105.88
656.03	114.88
656.234	114.88
656.438	108.88
656.642	110.88
656.846	104.88
657.049	106.88
657.253	114.88
657.457	100.88
657.661	106.88
657.865	116.88
658.068	118.88
658.272	83.88
658.476	95.88
658.68	102.88
658.883	95.88
659.087	101.88
659.291	92.88
659.494	100.88
659.698	93.88
659.901	103.88
660.105	98.88
660.309	83.88
660.512	90.88
660.716	82.88
660.919	83.88
661.123	85.88
661.326	97.88
661.53	83.88
661.733	83.88
661.936	101.88
662.14	85.88
662.343	85.88
662.546	90.88
662.75	83.88
662.953	86.88
663.156	75.88
663.36	87.88
663.563	92.88
663.766	94.88
663.969	85.88
664.173	78.88
664.376	93.88
664.579	76.88
664.782	84.88
664.985	80.88
665.188	82.88
665.391	97.88
665.594	80.88
665.797	77.88
666	79.88
666.203	100.88
666.406	77.88
666.609	77.88
666.812	78.88
667.015	86.88
667.218	94.88
667.421	83.88
667.624	72.88
667.827	84.88
668.03	83.88
668.232	70.88
668.435	85.88
668.638	79.88
668.841	82.88
669.043	66.88
669.246	82.88
669.449	80.88
669.651	76.88
669.854	77.88
670.057	92.88
670.259	83.88
670.462	87.88
670.665	84.88
670.867	91.88
671.07	98.88
671.272	77.88
671.475	85.88
671.677	81.88
671.88	96.88
672.082	77.88
672.284	92.88
672.487	84.88
672.689	85.88
672.892	77.88
