Data from Fe(NO3)3@0.05M.TitratingCurve.Agarose3%dH2O.NegLispCup.LampEnergy10.LIBS07252019_HRD10591_16-46-44-334.txt Node
Date: Thu Jul 25 16:46:44 EDT 2019
User: cochatt
Spectrometer: HR+D1059
Trigger mode: 1
Integration Time (sec): 1.000000E-1
Scans to average: 1
Electric dark correction enabled: true
Nonlinearity correction enabled: false
Boxcar width: 0
XAxis mode: Wavelengths
Number of Pixels in Spectrum: 2048
>>>>>Begin Spectral Data<<<<<
223.165	-11.62
223.4	-11.62
223.635	-11.62
223.869	-19.62
224.104	-3.62
224.338	-29.62
224.573	-17.62
224.808	-13.62
225.042	-21.62
225.277	-3.62
225.511	-5.62
225.746	-2.62
225.98	14.38
226.215	20.38
226.449	12.38
226.683	28.38
226.918	29.38
227.152	24.38
227.387	33.38
227.621	33.38
227.856	30.38
228.09	34.38
228.324	52.38
228.559	54.38
228.793	63.38
229.027	94.38
229.262	113.38
229.496	124.38
229.73	135.38
229.964	114.38
230.199	101.38
230.433	134.38
230.667	128.38
230.901	127.38
231.136	128.38
231.37	133.38
231.604	140.38
231.838	127.38
232.072	139.38
232.306	136.38
232.541	142.38
232.775	136.38
233.009	153.38
233.243	152.38
233.477	166.38
233.711	154.38
233.945	144.38
234.179	132.38
234.413	142.38
234.647	154.38
234.881	159.38
235.115	148.38
235.349	160.38
235.583	146.38
235.817	169.38
236.051	163.38
236.285	165.38
236.519	165.38
236.753	156.38
236.987	155.38
237.221	170.38
237.455	162.38
237.689	161.38
237.922	170.38
238.156	183.38
238.39	181.38
238.624	201.38
238.858	189.38
239.091	193.38
239.325	181.38
239.559	162.38
239.793	174.38
240.027	194.38
240.26	189.38
240.494	177.38
240.728	205.38
240.961	201.38
241.195	188.38
241.429	192.38
241.662	181.38
241.896	197.38
242.13	183.38
242.363	195.38
242.597	195.38
242.83	213.38
243.064	197.38
243.298	203.38
243.531	193.38
243.765	196.38
243.998	220.38
244.232	211.38
244.465	209.38
244.699	219.38
244.932	219.38
245.166	210.38
245.399	237.38
245.633	226.38
245.866	233.38
246.099	221.38
246.333	224.38
246.566	221.38
246.8	228.38
247.033	239.38
247.266	245.38
247.5	229.38
247.733	231.38
247.966	215.38
248.2	242.38
248.433	228.38
248.666	230.38
248.899	220.38
249.133	241.38
249.366	262.38
249.599	245.38
249.832	261.38
250.066	261.38
250.299	258.38
250.532	240.38
250.765	245.38
250.998	249.38
251.231	244.38
251.465	264.38
251.698	269.38
251.931	280.38
252.164	268.38
252.397	268.38
252.63	271.38
252.863	278.38
253.096	273.38
253.329	269.38
253.562	278.38
253.795	276.38
254.028	297.38
254.261	294.38
254.494	319.38
254.727	301.38
254.96	291.38
255.193	290.38
255.426	286.38
255.659	288.38
255.892	273.38
256.124	279.38
256.357	297.38
256.59	316.38
256.823	286.38
257.056	290.38
257.289	319.38
257.521	301.38
257.754	296.38
257.987	312.38
258.22	322.38
258.452	295.38
258.685	307.38
258.918	317.38
259.151	320.38
259.383	319.38
259.616	313.38
259.849	343.38
260.081	353.38
260.314	372.38
260.547	342.38
260.779	331.38
261.012	357.38
261.244	364.38
261.477	354.38
261.71	350.38
261.942	341.38
262.175	326.38
262.407	318.38
262.64	323.38
262.872	364.38
263.105	362.38
263.337	360.38
263.57	354.38
263.802	357.38
264.035	353.38
264.267	345.38
264.499	341.38
264.732	336.38
264.964	327.38
265.197	334.38
265.429	336.38
265.661	349.38
265.894	345.38
266.126	349.38
266.358	342.38
266.591	342.38
266.823	372.38
267.055	365.38
267.287	360.38
267.52	360.38
267.752	357.38
267.984	355.38
268.216	340.38
268.448	368.38
268.681	376.38
268.913	360.38
269.145	353.38
269.377	376.38
269.609	381.38
269.841	372.38
270.073	380.38
270.306	393.38
270.538	397.38
270.77	377.38
271.002	375.38
271.234	336.38
271.466	374.38
271.698	379.38
271.93	393.38
272.162	381.38
272.394	399.38
272.626	402.38
272.858	414.38
273.09	401.38
273.322	408.38
273.553	388.38
273.785	427.38
274.017	429.38
274.249	444.38
274.481	455.38
274.713	439.38
274.945	517.38
275.176	497.38
275.408	470.38
275.64	455.38
275.872	469.38
276.104	435.38
276.335	417.38
276.567	415.38
276.799	413.38
277.031	450.38
277.262	453.38
277.494	436.38
277.726	424.38
277.957	450.38
278.189	449.38
278.421	439.38
278.652	458.38
278.884	425.38
279.115	439.38
279.347	450.38
279.579	441.38
279.81	449.38
280.042	452.38
280.273	451.38
280.505	445.38
280.736	439.38
280.968	470.38
281.199	472.38
281.431	471.38
281.662	464.38
281.894	458.38
282.125	456.38
282.356	463.38
282.588	451.38
282.819	464.38
283.051	492.38
283.282	473.38
283.513	466.38
283.745	466.38
283.976	457.38
284.207	489.38
284.439	480.38
284.67	483.38
284.901	478.38
285.132	476.38
285.364	488.38
285.595	487.38
285.826	487.38
286.057	481.38
286.288	489.38
286.52	498.38
286.751	489.38
286.982	498.38
287.213	486.38
287.444	483.38
287.675	510.38
287.906	488.38
288.138	499.38
288.369	513.38
288.6	497.38
288.831	508.38
289.062	517.38
289.293	497.38
289.524	512.38
289.755	513.38
289.986	473.38
290.217	525.38
290.448	515.38
290.679	512.38
290.91	514.38
291.141	502.38
291.371	533.38
291.602	537.38
291.833	500.38
292.064	503.38
292.295	518.38
292.526	504.38
292.757	499.38
292.987	538.38
293.218	509.38
293.449	502.38
293.68	536.38
293.91	522.38
294.141	522.38
294.372	518.38
294.603	510.38
294.833	535.38
295.064	515.38
295.295	546.38
295.525	518.38
295.756	533.38
295.987	517.38
296.217	531.38
296.448	527.38
296.679	549.38
296.909	535.38
297.14	529.38
297.37	543.38
297.601	563.38
297.831	553.38
298.062	527.38
298.292	580.38
298.523	585.38
298.753	577.38
298.984	542.38
299.214	564.38
299.445	553.38
299.675	547.38
299.905	558.38
300.136	569.38
300.366	573.38
300.597	572.38
300.827	581.38
301.057	595.38
301.288	565.38
301.518	569.38
301.748	576.38
301.979	599.38
302.209	595.38
302.439	583.38
302.669	584.38
302.9	592.38
303.13	566.38
303.36	581.38
303.59	578.38
303.82	602.38
304.051	568.38
304.281	567.38
304.511	591.38
304.741	590.38
304.971	581.38
305.201	604.38
305.431	576.38
305.661	602.38
305.891	599.38
306.121	569.38
306.352	588.38
306.582	583.38
306.812	570.38
307.042	599.38
307.272	606.38
307.502	585.38
307.731	584.38
307.961	599.38
308.191	583.38
308.421	598.38
308.651	597.38
308.881	585.38
309.111	591.38
309.341	596.38
309.571	600.38
309.8	610.38
310.03	595.38
310.26	581.38
310.49	599.38
310.72	594.38
310.949	599.38
311.179	621.38
311.409	597.38
311.639	606.38
311.868	609.38
312.098	608.38
312.328	604.38
312.557	609.38
312.787	633.38
313.017	648.38
313.246	622.38
313.476	605.38
313.706	607.38
313.935	627.38
314.165	617.38
314.394	640.38
314.624	638.38
314.853	607.38
315.083	649.38
315.312	639.38
315.542	652.38
315.771	628.38
316.001	626.38
316.23	647.38
316.46	630.38
316.689	638.38
316.919	650.38
317.148	680.38
317.377	640.38
317.607	621.38
317.836	622.38
318.065	661.38
318.295	667.38
318.524	660.38
318.753	636.38
318.983	665.38
319.212	640.38
319.441	625.38
319.67	649.38
319.9	643.38
320.129	647.38
320.358	673.38
320.587	653.38
320.816	652.38
321.046	657.38
321.275	642.38
321.504	649.38
321.733	672.38
321.962	675.38
322.191	661.38
322.42	664.38
322.649	657.38
322.878	656.38
323.108	654.38
323.337	676.38
323.566	650.38
323.795	690.38
324.024	673.38
324.253	665.38
324.482	674.38
324.71	698.38
324.939	666.38
325.168	670.38
325.397	673.38
325.626	682.38
325.855	699.38
326.084	707.38
326.313	695.38
326.542	687.38
326.77	713.38
326.999	702.38
327.228	679.38
327.457	690.38
327.686	710.38
327.914	728.38
328.143	703.38
328.372	687.38
328.6	730.38
328.829	705.38
329.058	688.38
329.287	709.38
329.515	721.38
329.744	724.38
329.972	727.38
330.201	702.38
330.43	724.38
330.658	712.38
330.887	730.38
331.115	744.38
331.344	710.38
331.572	740.38
331.801	748.38
332.03	766.38
332.258	774.38
332.486	741.38
332.715	773.38
332.943	796.38
333.172	788.38
333.4	789.38
333.629	806.38
333.857	805.38
334.085	811.38
334.314	816.38
334.542	851.38
334.771	840.38
334.999	819.38
335.227	839.38
335.455	864.38
335.684	854.38
335.912	840.38
336.14	839.38
336.369	840.38
336.597	824.38
336.825	817.38
337.053	813.38
337.281	832.38
337.51	794.38
337.738	811.38
337.966	793.38
338.194	791.38
338.422	789.38
338.65	768.38
338.878	768.38
339.106	789.38
339.334	753.38
339.562	793.38
339.79	766.38
340.018	762.38
340.246	769.38
340.474	754.38
340.702	780.38
340.93	771.38
341.158	782.38
341.386	734.38
341.614	759.38
341.842	762.38
342.07	720.38
342.298	773.38
342.526	784.38
342.754	742.38
342.981	768.38
343.209	772.38
343.437	779.38
343.665	764.38
343.893	799.38
344.12	832.38
344.348	839.38
344.576	828.38
344.804	779.38
345.031	796.38
345.259	772.38
345.487	763.38
345.714	752.38
345.942	757.38
346.17	754.38
346.397	722.38
346.625	721.38
346.853	748.38
347.08	744.38
347.308	751.38
347.535	762.38
347.763	704.38
347.99	735.38
348.218	727.38
348.445	713.38
348.673	708.38
348.9	736.38
349.128	725.38
349.355	740.38
349.583	743.38
349.81	710.38
350.037	720.38
350.265	710.38
350.492	730.38
350.72	710.38
350.947	731.38
351.174	738.38
351.402	723.38
351.629	708.38
351.856	724.38
352.083	733.38
352.311	713.38
352.538	685.38
352.765	716.38
352.992	725.38
353.22	724.38
353.447	696.38
353.674	694.38
353.901	699.38
354.128	724.38
354.355	716.38
354.583	710.38
354.81	714.38
355.037	731.38
355.264	725.38
355.491	709.38
355.718	737.38
355.945	712.38
356.172	728.38
356.399	711.38
356.626	726.38
356.853	725.38
357.08	757.38
357.307	714.38
357.534	735.38
357.761	716.38
357.988	709.38
358.215	734.38
358.441	760.38
358.668	728.38
358.895	724.38
359.122	704.38
359.349	710.38
359.576	706.38
359.802	716.38
360.029	706.38
360.256	718.38
360.483	688.38
360.709	733.38
360.936	729.38
361.163	732.38
361.39	704.38
361.616	734.38
361.843	719.38
362.07	742.38
362.296	719.38
362.523	738.38
362.749	742.38
362.976	746.38
363.203	737.38
363.429	732.38
363.656	722.38
363.882	746.38
364.109	728.38
364.335	728.38
364.562	720.38
364.788	741.38
365.015	743.38
365.241	739.38
365.468	746.38
365.694	742.38
365.92	726.38
366.147	710.38
366.373	711.38
366.599	726.38
366.826	732.38
367.052	736.38
367.278	725.38
367.505	764.38
367.731	741.38
367.957	757.38
368.184	760.38
368.41	736.38
368.636	755.38
368.862	762.38
369.089	757.38
369.315	756.38
369.541	754.38
369.767	773.38
369.993	730.38
370.219	790.38
370.445	779.38
370.672	782.38
370.898	798.38
371.124	785.38
371.35	814.38
371.576	781.38
371.802	789.38
372.028	816.38
372.254	804.38
372.48	811.38
372.706	812.38
372.932	818.38
373.158	823.38
373.384	826.38
373.61	816.38
373.835	823.38
374.061	841.38
374.287	818.38
374.513	803.38
374.739	844.38
374.965	860.38
375.191	848.38
375.416	848.38
375.642	813.38
375.868	838.38
376.094	831.38
376.319	854.38
376.545	807.38
376.771	831.38
376.997	822.38
377.222	824.38
377.448	833.38
377.674	804.38
377.899	798.38
378.125	797.38
378.35	805.38
378.576	783.38
378.802	772.38
379.027	812.38
379.253	818.38
379.478	805.38
379.704	821.38
379.929	842.38
380.155	810.38
380.38	793.38
380.606	804.38
380.831	814.38
381.057	816.38
381.282	803.38
381.507	800.38
381.733	835.38
381.958	828.38
382.184	848.38
382.409	877.38
382.634	865.38
382.86	890.38
383.085	844.38
383.31	867.38
383.535	871.38
383.761	883.38
383.986	878.38
384.211	892.38
384.436	913.38
384.662	882.38
384.887	896.38
385.112	887.38
385.337	894.38
385.562	905.38
385.787	904.38
386.013	946.38
386.238	912.38
386.463	954.38
386.688	937.38
386.913	926.38
387.138	934.38
387.363	957.38
387.588	951.38
387.813	947.38
388.038	935.38
388.263	965.38
388.488	975.38
388.713	957.38
388.938	958.38
389.163	928.38
389.387	959.38
389.612	937.38
389.837	949.38
390.062	957.38
390.287	959.38
390.512	937.38
390.736	952.38
390.961	954.38
391.186	990.38
391.411	1018.38
391.636	1006.38
391.86	1000.38
392.085	1022.38
392.31	1020.38
392.534	1023.38
392.759	1029.38
392.984	1015.38
393.208	1008.38
393.433	1010.38
393.658	1011.38
393.882	1030.38
394.107	1039.38
394.331	1011.38
394.556	996.38
394.78	1024.38
395.005	1048.38
395.229	1026.38
395.454	1048.38
395.678	1062.38
395.903	1055.38
396.127	1057.38
396.352	1043.38
396.576	1069.38
396.801	1075.38
397.025	1070.38
397.249	1040.38
397.474	1121.38
397.698	1076.38
397.922	1080.38
398.147	1113.38
398.371	1146.38
398.595	1114.38
398.82	1143.38
399.044	1200.38
399.268	1252.38
399.492	1311.38
399.717	1397.38
399.941	1392.38
400.165	1336.38
400.389	1328.38
400.613	1292.38
400.837	1238.38
401.062	1230.38
401.286	1207.38
401.51	1198.38
401.734	1179.38
401.958	1172.38
402.182	1174.38
402.406	1162.38
402.63	1162.38
402.854	1191.38
403.078	1215.38
403.302	1208.38
403.526	1160.38
403.75	1188.38
403.974	1176.38
404.198	1182.38
404.422	1228.38
404.645	1238.38
404.869	1216.38
405.093	1229.38
405.317	1208.38
405.541	1255.38
405.765	1248.38
405.988	1219.38
406.212	1248.38
406.436	1268.38
406.66	1270.38
406.883	1283.38
407.107	1347.38
407.331	1343.38
407.555	1380.38
407.778	1349.38
408.002	1344.38
408.226	1332.38
408.449	1366.38
408.673	1275.38
408.896	1324.38
409.12	1275.38
409.344	1267.38
409.567	1238.38
409.791	1234.38
410.014	1246.38
410.238	1241.38
410.461	1262.38
410.685	1237.38
410.908	1225.38
411.132	1218.38
411.355	1194.38
411.578	1223.38
411.802	1188.38
412.025	1208.38
412.249	1229.38
412.472	1210.38
412.695	1224.38
412.919	1205.38
413.142	1222.38
413.365	1177.38
413.589	1214.38
413.812	1176.38
414.035	1170.38
414.258	1167.38
414.482	1158.38
414.705	1180.38
414.928	1201.38
415.151	1174.38
415.374	1173.38
415.597	1160.38
415.821	1152.38
416.044	1186.38
416.267	1120.38
416.49	1152.38
416.713	1166.38
416.936	1152.38
417.159	1144.38
417.382	1127.38
417.605	1129.38
417.828	1126.38
418.051	1148.38
418.274	1117.38
418.497	1109.38
418.72	1127.38
418.943	1123.38
419.166	1173.38
419.389	1300.38
419.611	1243.38
419.834	1172.38
420.057	1165.38
420.28	1152.38
420.503	1095.38
420.726	1129.38
420.948	1121.38
421.171	1134.38
421.394	1119.38
421.617	1094.38
421.839	1117.38
422.062	1139.38
422.285	1100.38
422.507	1138.38
422.73	1127.38
422.953	1100.38
423.175	1140.38
423.398	1123.38
423.621	1126.38
423.843	1155.38
424.066	1136.38
424.288	1104.38
424.511	1097.38
424.733	1116.38
424.956	1102.38
425.178	1090.38
425.401	1144.38
425.623	1134.38
425.846	1106.38
426.068	1086.38
426.291	1120.38
426.513	1125.38
426.735	1102.38
426.958	1126.38
427.18	1074.38
427.402	1090.38
427.625	1076.38
427.847	1079.38
428.069	1061.38
428.292	1106.38
428.514	1039.38
428.736	1045.38
428.958	1078.38
429.181	1038.38
429.403	1049.38
429.625	1053.38
429.847	1033.38
430.069	1040.38
430.292	1032.38
430.514	1045.38
430.736	1087.38
430.958	1053.38
431.18	1081.38
431.402	1038.38
431.624	1056.38
431.846	1062.38
432.068	1079.38
432.29	1053.38
432.512	1068.38
432.734	1082.38
432.956	1084.38
433.178	1084.38
433.4	1053.38
433.622	1086.38
433.844	1088.38
434.066	1094.38
434.287	1063.38
434.509	1087.38
434.731	1105.38
434.953	1084.38
435.175	1109.38
435.397	1145.38
435.618	1078.38
435.84	1072.38
436.062	1104.38
436.284	1069.38
436.505	1057.38
436.727	1078.38
436.949	1076.38
437.17	1041.38
437.392	1052.38
437.614	1069.38
437.835	1016.38
438.057	1023.38
438.278	1022.38
438.5	1043.38
438.721	1038.38
438.943	1054.38
439.165	1033.38
439.386	1055.38
439.608	1045.38
439.829	1007.38
440.05	1082.38
440.272	1075.38
440.493	1077.38
440.715	1087.38
440.936	1089.38
441.158	1098.38
441.379	1117.38
441.6	1137.38
441.822	1111.38
442.043	1112.38
442.264	1092.38
442.486	1088.38
442.707	1115.38
442.928	1136.38
443.149	1107.38
443.371	1100.38
443.592	1113.38
443.813	1113.38
444.034	1107.38
444.255	1122.38
444.476	1179.38
444.698	1199.38
444.919	1189.38
445.14	1288.38
445.361	1218.38
445.582	1161.38
445.803	1109.38
446.024	1085.38
446.245	1106.38
446.466	1087.38
446.687	1060.38
446.908	1053.38
447.129	1056.38
447.35	1039.38
447.571	1035.38
447.792	1011.38
448.013	1016.38
448.234	994.38
448.455	1019.38
448.675	976.38
448.896	1038.38
449.117	979.38
449.338	966.38
449.559	992.38
449.779	975.38
450	976.38
450.221	976.38
450.442	946.38
450.662	964.38
450.883	994.38
451.104	981.38
451.324	971.38
451.545	990.38
451.766	968.38
451.986	970.38
452.207	935.38
452.428	946.38
452.648	946.38
452.869	957.38
453.089	920.38
453.31	950.38
453.53	938.38
453.751	938.38
453.971	941.38
454.192	945.38
454.412	925.38
454.633	949.38
454.853	923.38
455.073	920.38
455.294	919.38
455.514	939.38
455.734	916.38
455.955	932.38
456.175	931.38
456.395	935.38
456.616	961.38
456.836	925.38
457.056	957.38
457.276	922.38
457.497	922.38
457.717	917.38
457.937	961.38
458.157	952.38
458.377	962.38
458.598	1006.38
458.818	1033.38
459.038	1007.38
459.258	1033.38
459.478	1035.38
459.698	1048.38
459.918	1076.38
460.138	1094.38
460.358	1114.38
460.578	1153.38
460.798	1139.38
461.018	1176.38
461.238	1161.38
461.458	1173.38
461.678	1135.38
461.898	1173.38
462.118	1184.38
462.338	1221.38
462.558	1217.38
462.777	1238.38
462.997	1282.38
463.217	1334.38
463.437	1344.38
463.657	1308.38
463.876	1277.38
464.096	1294.38
464.316	1256.38
464.536	1254.38
464.755	1260.38
464.975	1240.38
465.195	1188.38
465.414	1177.38
465.634	1117.38
465.854	1120.38
466.073	1105.38
466.293	1066.38
466.512	1044.38
466.732	1080.38
466.951	1037.38
467.171	1043.38
467.391	1043.38
467.61	1042.38
467.829	1060.38
468.049	1017.38
468.268	1017.38
468.488	989.38
468.707	1015.38
468.927	1024.38
469.146	1029.38
469.365	999.38
469.585	1009.38
469.804	1035.38
470.023	1052.38
470.243	1053.38
470.462	1028.38
470.681	1049.38
470.901	1053.38
471.12	1010.38
471.339	1041.38
471.558	1030.38
471.777	1054.38
471.997	1034.38
472.216	1045.38
472.435	1008.38
472.654	1010.38
472.873	1025.38
473.092	1028.38
473.311	991.38
473.53	1009.38
473.749	1025.38
473.968	1025.38
474.187	1002.38
474.406	1008.38
474.625	1010.38
474.844	1036.38
475.063	1033.38
475.282	1024.38
475.501	1006.38
475.72	1046.38
475.939	1069.38
476.158	1063.38
476.377	1076.38
476.596	1078.38
476.814	1106.38
477.033	1076.38
477.252	1094.38
477.471	1121.38
477.69	1116.38
477.908	1181.38
478.127	1172.38
478.346	1145.38
478.564	1152.38
478.783	1169.38
479.002	1201.38
479.22	1215.38
479.439	1214.38
479.658	1196.38
479.876	1193.38
480.095	1220.38
480.313	1240.38
480.532	1250.38
480.751	1216.38
480.969	1237.38
481.188	1253.38
481.406	1182.38
481.624	1190.38
481.843	1169.38
482.061	1226.38
482.28	1213.38
482.498	1174.38
482.717	1156.38
482.935	1176.38
483.153	1173.38
483.372	1188.38
483.59	1194.38
483.808	1183.38
484.027	1198.38
484.245	1201.38
484.463	1184.38
484.681	1175.38
484.9	1223.38
485.118	1206.38
485.336	1192.38
485.554	1196.38
485.772	1238.38
485.99	1202.38
486.209	1224.38
486.427	1228.38
486.645	1215.38
486.863	1221.38
487.081	1207.38
487.299	1215.38
487.517	1212.38
487.735	1237.38
487.953	1223.38
488.171	1220.38
488.389	1222.38
488.607	1225.38
488.825	1210.38
489.043	1204.38
489.261	1226.38
489.479	1209.38
489.696	1229.38
489.914	1227.38
490.132	1212.38
490.35	1226.38
490.568	1205.38
490.786	1225.38
491.003	1224.38
491.221	1243.38
491.439	1234.38
491.657	1224.38
491.874	1246.38
492.092	1266.38
492.31	1265.38
492.527	1252.38
492.745	1269.38
492.963	1276.38
493.18	1264.38
493.398	1285.38
493.615	1272.38
493.833	1271.38
494.05	1247.38
494.268	1291.38
494.485	1272.38
494.703	1306.38
494.92	1355.38
495.138	1348.38
495.355	1324.38
495.573	1305.38
495.79	1364.38
496.008	1373.38
496.225	1357.38
496.442	1362.38
496.66	1349.38
496.877	1397.38
497.094	1408.38
497.312	1434.38
497.529	1438.38
497.746	1497.38
497.963	1559.38
498.181	1544.38
498.398	1586.38
498.615	1664.38
498.832	1732.38
499.049	1783.38
499.267	1838.38
499.484	1910.38
499.701	2057.38
499.918	2087.38
500.135	2267.38
500.352	2345.38
500.569	2377.38
500.786	2357.38
501.003	2314.38
501.22	2248.38
501.437	2123.38
501.654	1985.38
501.871	1906.38
502.088	1829.38
502.305	1751.38
502.522	1716.38
502.739	1674.38
502.956	1590.38
503.172	1600.38
503.389	1523.38
503.606	1481.38
503.823	1492.38
504.04	1459.38
504.256	1432.38
504.473	1413.38
504.69	1396.38
504.907	1379.38
505.123	1334.38
505.34	1327.38
505.557	1249.38
505.773	1288.38
505.99	1262.38
506.207	1217.38
506.423	1193.38
506.64	1200.38
506.856	1166.38
507.073	1176.38
507.289	1128.38
507.506	1156.38
507.722	1142.38
507.939	1145.38
508.155	1112.38
508.372	1116.38
508.588	1089.38
508.805	1116.38
509.021	1094.38
509.238	1096.38
509.454	1042.38
509.67	1068.38
509.887	1042.38
510.103	1026.38
510.319	1017.38
510.536	1046.38
510.752	1071.38
510.968	1059.38
511.184	1049.38
511.401	1053.38
511.617	1024.38
511.833	1020.38
512.049	1032.38
512.265	1056.38
512.481	1029.38
512.698	1006.38
512.914	1029.38
513.13	1028.38
513.346	1039.38
513.562	1037.38
513.778	1038.38
513.994	1022.38
514.21	1030.38
514.426	1047.38
514.642	1058.38
514.858	1044.38
515.074	1057.38
515.29	1083.38
515.506	1045.38
515.721	1098.38
515.937	1075.38
516.153	1069.38
516.369	1078.38
516.585	1104.38
516.801	1140.38
517.016	1166.38
517.232	1180.38
517.448	1171.38
517.664	1180.38
517.879	1215.38
518.095	1166.38
518.311	1182.38
518.527	1153.38
518.742	1145.38
518.958	1136.38
519.173	1094.38
519.389	1106.38
519.605	1080.38
519.82	1088.38
520.036	1078.38
520.251	1074.38
520.467	1065.38
520.682	1008.38
520.898	1024.38
521.113	998.38
521.329	1006.38
521.544	994.38
521.76	980.38
521.975	979.38
522.19	982.38
522.406	974.38
522.621	984.38
522.836	953.38
523.052	948.38
523.267	941.38
523.482	967.38
523.698	923.38
523.913	961.38
524.128	942.38
524.343	937.38
524.559	920.38
524.774	946.38
524.989	921.38
525.204	929.38
525.419	897.38
525.634	945.38
525.849	936.38
526.064	938.38
526.28	922.38
526.495	937.38
526.71	921.38
526.925	914.38
527.14	918.38
527.355	909.38
527.57	893.38
527.785	898.38
527.999	902.38
528.214	889.38
528.429	894.38
528.644	907.38
528.859	910.38
529.074	905.38
529.289	886.38
529.503	900.38
529.718	894.38
529.933	893.38
530.148	889.38
530.363	882.38
530.577	877.38
530.792	886.38
531.007	896.38
531.221	884.38
531.436	897.38
531.651	889.38
531.865	889.38
532.08	869.38
532.295	878.38
532.509	854.38
532.724	832.38
532.938	863.38
533.153	866.38
533.367	841.38
533.582	845.38
533.796	894.38
534.011	877.38
534.225	895.38
534.44	863.38
534.654	868.38
534.868	845.38
535.083	849.38
535.297	836.38
535.511	832.38
535.726	856.38
535.94	857.38
536.154	855.38
536.369	838.38
536.583	814.38
536.797	816.38
537.011	821.38
537.225	796.38
537.44	834.38
537.654	834.38
537.868	825.38
538.082	805.38
538.296	815.38
538.51	834.38
538.724	832.38
538.938	839.38
539.153	814.38
539.367	833.38
539.581	831.38
539.795	802.38
540.009	802.38
540.222	817.38
540.436	798.38
540.65	799.38
540.864	823.38
541.078	814.38
541.292	804.38
541.506	797.38
541.72	821.38
541.934	818.38
542.147	832.38
542.361	790.38
542.575	808.38
542.789	776.38
543.002	786.38
543.216	802.38
543.43	807.38
543.644	776.38
543.857	792.38
544.071	806.38
544.285	790.38
544.498	828.38
544.712	769.38
544.925	798.38
545.139	809.38
545.352	821.38
545.566	793.38
545.779	812.38
545.993	812.38
546.206	816.38
546.42	810.38
546.633	804.38
546.847	784.38
547.06	794.38
547.274	792.38
547.487	825.38
547.7	806.38
547.914	812.38
548.127	815.38
548.34	821.38
548.554	782.38
548.767	794.38
548.98	806.38
549.193	812.38
549.407	806.38
549.62	814.38
549.833	818.38
550.046	816.38
550.259	828.38
550.473	801.38
550.686	800.38
550.899	774.38
551.112	833.38
551.325	808.38
551.538	814.38
551.751	807.38
551.964	764.38
552.177	809.38
552.39	819.38
552.603	810.38
552.816	832.38
553.029	827.38
553.242	830.38
553.455	794.38
553.667	843.38
553.88	810.38
554.093	800.38
554.306	801.38
554.519	799.38
554.732	755.38
554.944	781.38
555.157	740.38
555.37	743.38
555.583	741.38
555.795	768.38
556.008	733.38
556.221	731.38
556.433	726.38
556.646	732.38
556.859	726.38
557.071	704.38
557.284	680.38
557.496	711.38
557.709	711.38
557.921	718.38
558.134	671.38
558.346	672.38
558.559	675.38
558.771	678.38
558.984	661.38
559.196	704.38
559.409	662.38
559.621	695.38
559.833	678.38
560.046	678.38
560.258	674.38
560.47	675.38
560.683	677.38
560.895	674.38
561.107	674.38
561.32	647.38
561.532	665.38
561.744	682.38
561.956	683.38
562.168	681.38
562.381	659.38
562.593	680.38
562.805	684.38
563.017	688.38
563.229	688.38
563.441	694.38
563.653	702.38
563.865	664.38
564.077	688.38
564.289	713.38
564.501	678.38
564.713	691.38
564.925	711.38
565.137	723.38
565.349	741.38
565.561	750.38
565.773	775.38
565.985	822.38
566.197	818.38
566.408	817.38
566.62	830.38
566.832	899.38
567.044	880.38
567.255	897.38
567.467	896.38
567.679	926.38
567.891	945.38
568.102	892.38
568.314	882.38
568.526	859.38
568.737	828.38
568.949	787.38
569.161	770.38
569.372	762.38
569.584	719.38
569.795	727.38
570.007	702.38
570.218	667.38
570.43	662.38
570.641	665.38
570.853	646.38
571.064	664.38
571.276	650.38
571.487	630.38
571.698	654.38
571.91	625.38
572.121	589.38
572.333	605.38
572.544	579.38
572.755	579.38
572.966	580.38
573.178	577.38
573.389	550.38
573.6	552.38
573.811	548.38
574.023	563.38
574.234	564.38
574.445	549.38
574.656	545.38
574.867	530.38
575.078	542.38
575.289	533.38
575.501	522.38
575.712	532.38
575.923	516.38
576.134	536.38
576.345	511.38
576.556	519.38
576.767	517.38
576.978	497.38
577.188	534.38
577.399	507.38
577.61	492.38
577.821	504.38
578.032	499.38
578.243	516.38
578.454	513.38
578.665	486.38
578.875	498.38
579.086	473.38
579.297	477.38
579.508	476.38
579.718	472.38
579.929	481.38
580.14	493.38
580.35	472.38
580.561	485.38
580.772	482.38
580.982	486.38
581.193	483.38
581.403	465.38
581.614	462.38
581.825	478.38
582.035	461.38
582.246	485.38
582.456	466.38
582.667	474.38
582.877	465.38
583.087	480.38
583.298	446.38
583.508	453.38
583.719	457.38
583.929	447.38
584.139	451.38
584.35	456.38
584.56	491.38
584.77	434.38
584.981	440.38
585.191	471.38
585.401	447.38
585.611	460.38
585.821	430.38
586.032	445.38
586.242	450.38
586.452	453.38
586.662	430.38
586.872	433.38
587.082	436.38
587.292	471.38
587.502	437.38
587.713	453.38
587.923	447.38
588.133	443.38
588.343	432.38
588.553	439.38
588.762	420.38
588.972	463.38
589.182	477.38
589.392	458.38
589.602	453.38
589.812	455.38
590.022	450.38
590.232	447.38
590.441	453.38
590.651	464.38
590.861	457.38
591.071	445.38
591.281	444.38
591.49	463.38
591.7	470.38
591.91	455.38
592.119	438.38
592.329	450.38
592.539	477.38
592.748	473.38
592.958	453.38
593.167	471.38
593.377	474.38
593.587	477.38
593.796	472.38
594.006	474.38
594.215	462.38
594.424	479.38
594.634	483.38
594.843	470.38
595.053	468.38
595.262	467.38
595.472	447.38
595.681	427.38
595.89	422.38
596.1	431.38
596.309	417.38
596.518	418.38
596.727	406.38
596.937	425.38
597.146	431.38
597.355	400.38
597.564	393.38
597.774	410.38
597.983	385.38
598.192	390.38
598.401	396.38
598.61	398.38
598.819	377.38
599.028	388.38
599.237	384.38
599.446	370.38
599.655	361.38
599.864	370.38
600.073	358.38
600.282	384.38
600.491	350.38
600.7	365.38
600.909	374.38
601.118	349.38
601.327	366.38
601.536	375.38
601.745	354.38
601.953	359.38
602.162	351.38
602.371	366.38
602.58	362.38
602.789	346.38
602.997	353.38
603.206	334.38
603.415	358.38
603.623	350.38
603.832	334.38
604.041	356.38
604.249	331.38
604.458	346.38
604.666	338.38
604.875	356.38
605.084	331.38
605.292	335.38
605.501	342.38
605.709	360.38
605.918	344.38
606.126	340.38
606.334	338.38
606.543	338.38
606.751	328.38
606.96	328.38
607.168	329.38
607.376	324.38
607.585	353.38
607.793	346.38
608.001	325.38
608.21	323.38
608.418	331.38
608.626	321.38
608.834	311.38
609.043	309.38
609.251	340.38
609.459	327.38
609.667	319.38
609.875	350.38
610.083	327.38
610.291	330.38
610.499	314.38
610.707	339.38
610.916	341.38
611.124	318.38
611.332	316.38
611.54	317.38
611.748	306.38
611.955	309.38
612.163	331.38
612.371	310.38
612.579	312.38
612.787	331.38
612.995	324.38
613.203	316.38
613.411	294.38
613.618	310.38
613.826	306.38
614.034	313.38
614.242	334.38
614.449	310.38
614.657	316.38
614.865	331.38
615.072	312.38
615.28	322.38
615.488	326.38
615.695	317.38
615.903	328.38
616.111	307.38
616.318	311.38
616.526	314.38
616.733	300.38
616.941	308.38
617.148	304.38
617.356	301.38
617.563	327.38
617.771	326.38
617.978	318.38
618.185	303.38
618.393	310.38
618.6	302.38
618.807	283.38
619.015	317.38
619.222	302.38
619.429	308.38
619.637	307.38
619.844	296.38
620.051	292.38
620.258	294.38
620.466	302.38
620.673	272.38
620.88	284.38
621.087	279.38
621.294	284.38
621.501	282.38
621.708	281.38
621.915	280.38
622.122	286.38
622.329	289.38
622.536	298.38
622.743	289.38
622.95	276.38
623.157	289.38
623.364	280.38
623.571	293.38
623.778	280.38
623.985	286.38
624.192	270.38
624.399	288.38
624.606	302.38
624.812	260.38
625.019	277.38
625.226	270.38
625.433	293.38
625.639	270.38
625.846	284.38
626.053	280.38
626.259	269.38
626.466	263.38
626.673	258.38
626.879	265.38
627.086	264.38
627.293	265.38
627.499	268.38
627.706	272.38
627.912	261.38
628.119	262.38
628.325	271.38
628.532	260.38
628.738	256.38
628.945	256.38
629.151	252.38
629.357	224.38
629.564	241.38
629.77	260.38
629.976	261.38
630.183	255.38
630.389	238.38
630.595	262.38
630.802	239.38
631.008	257.38
631.214	249.38
631.42	251.38
631.627	266.38
631.833	243.38
632.039	246.38
632.245	233.38
632.451	236.38
632.657	260.38
632.863	234.38
633.069	258.38
633.275	236.38
633.481	246.38
633.688	223.38
633.893	252.38
634.099	244.38
634.305	221.38
634.511	234.38
634.717	239.38
634.923	242.38
635.129	227.38
635.335	247.38
635.541	231.38
635.747	224.38
635.952	248.38
636.158	229.38
636.364	239.38
636.57	230.38
636.775	242.38
636.981	231.38
637.187	229.38
637.392	237.38
637.598	235.38
637.804	229.38
638.009	217.38
638.215	231.38
638.421	229.38
638.626	227.38
638.832	225.38
639.037	221.38
639.243	215.38
639.448	221.38
639.654	249.38
639.859	226.38
640.065	214.38
640.27	215.38
640.475	222.38
640.681	219.38
640.886	220.38
641.091	205.38
641.297	236.38
641.502	240.38
641.707	218.38
641.913	224.38
642.118	209.38
642.323	211.38
642.528	218.38
642.733	221.38
642.939	201.38
643.144	215.38
643.349	230.38
643.554	208.38
643.759	228.38
643.964	213.38
644.169	225.38
644.374	192.38
644.579	218.38
644.784	221.38
644.989	223.38
645.194	223.38
645.399	216.38
645.604	217.38
645.809	225.38
646.014	217.38
646.219	218.38
646.423	213.38
646.628	210.38
646.833	208.38
647.038	219.38
647.243	240.38
647.447	217.38
647.652	234.38
647.857	224.38
648.062	215.38
648.266	221.38
648.471	232.38
648.676	225.38
648.88	217.38
649.085	233.38
649.289	240.38
649.494	224.38
649.698	232.38
649.903	221.38
650.107	230.38
650.312	225.38
650.516	219.38
650.721	211.38
650.925	206.38
651.13	212.38
651.334	209.38
651.539	218.38
651.743	209.38
651.947	221.38
652.152	226.38
652.356	200.38
652.56	198.38
652.764	210.38
652.969	194.38
653.173	202.38
653.377	200.38
653.581	197.38
653.785	196.38
653.99	188.38
654.194	180.38
654.398	186.38
654.602	192.38
654.806	211.38
655.01	189.38
655.214	182.38
655.418	185.38
655.622	190.38
655.826	184.38
656.03	202.38
656.234	188.38
656.438	180.38
656.642	205.38
656.846	177.38
657.049	176.38
657.253	170.38
657.457	161.38
657.661	164.38
657.865	146.38
658.068	149.38
658.272	135.38
658.476	129.38
658.68	136.38
658.883	136.38
659.087	131.38
659.291	121.38
659.494	121.38
659.698	128.38
659.901	119.38
660.105	101.38
660.309	104.38
660.512	101.38
660.716	97.38
660.919	93.38
661.123	92.38
661.326	102.38
661.53	93.38
661.733	84.38
661.936	95.38
662.14	90.38
662.343	93.38
662.546	94.38
662.75	88.38
662.953	89.38
663.156	83.38
663.36	94.38
663.563	81.38
663.766	87.38
663.969	75.38
664.173	77.38
664.376	88.38
664.579	83.38
664.782	88.38
664.985	94.38
665.188	89.38
665.391	74.38
665.594	71.38
665.797	79.38
666	93.38
666.203	87.38
666.406	84.38
666.609	68.38
666.812	73.38
667.015	71.38
667.218	86.38
667.421	81.38
667.624	85.38
667.827	78.38
668.03	73.38
668.232	87.38
668.435	88.38
668.638	77.38
668.841	66.38
669.043	73.38
669.246	87.38
669.449	87.38
669.651	78.38
669.854	69.38
670.057	79.38
670.259	81.38
670.462	81.38
670.665	89.38
670.867	89.38
671.07	78.38
671.272	73.38
671.475	74.38
671.677	78.38
671.88	66.38
672.082	73.38
672.284	87.38
672.487	80.38
672.689	79.38
672.892	67.38
