Data from Fe(NO3)3@0.025M.TitratingCurve.Agarose3%dH2O.NegLispCup.LampEnergy10.LIBS07252019_HRD10591_16-55-11-336.txt Node
Date: Thu Jul 25 16:55:11 EDT 2019
User: cochatt
Spectrometer: HR+D1059
Trigger mode: 1
Integration Time (sec): 1.000000E-1
Scans to average: 1
Electric dark correction enabled: true
Nonlinearity correction enabled: false
Boxcar width: 0
XAxis mode: Wavelengths
Number of Pixels in Spectrum: 2048
>>>>>Begin Spectral Data<<<<<
223.165	-21.62
223.4	-21.62
223.635	-21.62
223.869	-19.62
224.104	-25.62
224.338	-31.62
224.573	2.38
224.808	-9.62
225.042	-14.62
225.277	2.38
225.511	13.38
225.746	3.38
225.98	-2.62
226.215	24.38
226.449	-5.62
226.683	20.38
226.918	30.38
227.152	34.38
227.387	44.38
227.621	42.38
227.856	41.38
228.09	36.38
228.324	54.38
228.559	64.38
228.793	61.38
229.027	78.38
229.262	74.38
229.496	73.38
229.73	78.38
229.964	79.38
230.199	82.38
230.433	90.38
230.667	98.38
230.901	101.38
231.136	94.38
231.37	96.38
231.604	86.38
231.838	93.38
232.072	96.38
232.306	91.38
232.541	95.38
232.775	96.38
233.009	103.38
233.243	93.38
233.477	95.38
233.711	96.38
233.945	105.38
234.179	106.38
234.413	93.38
234.647	101.38
234.881	101.38
235.115	108.38
235.349	93.38
235.583	115.38
235.817	101.38
236.051	99.38
236.285	92.38
236.519	106.38
236.753	90.38
236.987	97.38
237.221	114.38
237.455	91.38
237.689	110.38
237.922	84.38
238.156	100.38
238.39	114.38
238.624	111.38
238.858	116.38
239.091	107.38
239.325	101.38
239.559	97.38
239.793	109.38
240.027	99.38
240.26	99.38
240.494	99.38
240.728	103.38
240.961	96.38
241.195	93.38
241.429	109.38
241.662	104.38
241.896	93.38
242.13	101.38
242.363	107.38
242.597	90.38
242.83	100.38
243.064	108.38
243.298	101.38
243.531	105.38
243.765	103.38
243.998	109.38
244.232	94.38
244.465	110.38
244.699	106.38
244.932	110.38
245.166	119.38
245.399	113.38
245.633	109.38
245.866	129.38
246.099	110.38
246.333	117.38
246.566	123.38
246.8	118.38
247.033	99.38
247.266	120.38
247.5	117.38
247.733	118.38
247.966	119.38
248.2	94.38
248.433	126.38
248.666	99.38
248.899	113.38
249.133	119.38
249.366	115.38
249.599	123.38
249.832	110.38
250.066	131.38
250.299	118.38
250.532	117.38
250.765	116.38
250.998	116.38
251.231	97.38
251.465	114.38
251.698	111.38
251.931	110.38
252.164	122.38
252.397	114.38
252.63	134.38
252.863	128.38
253.096	114.38
253.329	119.38
253.562	124.38
253.795	129.38
254.028	119.38
254.261	137.38
254.494	131.38
254.727	120.38
254.96	123.38
255.193	117.38
255.426	114.38
255.659	128.38
255.892	131.38
256.124	132.38
256.357	124.38
256.59	129.38
256.823	119.38
257.056	148.38
257.289	122.38
257.521	125.38
257.754	131.38
257.987	136.38
258.22	122.38
258.452	130.38
258.685	158.38
258.918	144.38
259.151	130.38
259.383	122.38
259.616	143.38
259.849	144.38
260.081	136.38
260.314	139.38
260.547	135.38
260.779	134.38
261.012	151.38
261.244	151.38
261.477	142.38
261.71	132.38
261.942	135.38
262.175	139.38
262.407	157.38
262.64	129.38
262.872	136.38
263.105	143.38
263.337	131.38
263.57	143.38
263.802	143.38
264.035	139.38
264.267	144.38
264.499	152.38
264.732	152.38
264.964	150.38
265.197	135.38
265.429	162.38
265.661	149.38
265.894	138.38
266.126	146.38
266.358	152.38
266.591	133.38
266.823	151.38
267.055	137.38
267.287	141.38
267.52	142.38
267.752	149.38
267.984	149.38
268.216	142.38
268.448	141.38
268.681	151.38
268.913	153.38
269.145	146.38
269.377	145.38
269.609	155.38
269.841	152.38
270.073	153.38
270.306	140.38
270.538	145.38
270.77	158.38
271.002	172.38
271.234	170.38
271.466	156.38
271.698	156.38
271.93	166.38
272.162	156.38
272.394	161.38
272.626	153.38
272.858	163.38
273.09	164.38
273.322	167.38
273.553	172.38
273.785	164.38
274.017	169.38
274.249	172.38
274.481	158.38
274.713	163.38
274.945	174.38
275.176	182.38
275.408	143.38
275.64	165.38
275.872	159.38
276.104	173.38
276.335	168.38
276.567	163.38
276.799	165.38
277.031	185.38
277.262	165.38
277.494	179.38
277.726	166.38
277.957	159.38
278.189	167.38
278.421	156.38
278.652	164.38
278.884	174.38
279.115	175.38
279.347	164.38
279.579	172.38
279.81	162.38
280.042	179.38
280.273	187.38
280.505	198.38
280.736	177.38
280.968	170.38
281.199	179.38
281.431	177.38
281.662	175.38
281.894	195.38
282.125	186.38
282.356	189.38
282.588	183.38
282.819	180.38
283.051	181.38
283.282	196.38
283.513	180.38
283.745	184.38
283.976	172.38
284.207	203.38
284.439	199.38
284.67	211.38
284.901	185.38
285.132	193.38
285.364	190.38
285.595	177.38
285.826	175.38
286.057	181.38
286.288	210.38
286.52	191.38
286.751	187.38
286.982	185.38
287.213	206.38
287.444	198.38
287.675	191.38
287.906	206.38
288.138	184.38
288.369	198.38
288.6	202.38
288.831	174.38
289.062	193.38
289.293	197.38
289.524	193.38
289.755	202.38
289.986	201.38
290.217	197.38
290.448	221.38
290.679	203.38
290.91	207.38
291.141	203.38
291.371	204.38
291.602	202.38
291.833	205.38
292.064	198.38
292.295	204.38
292.526	211.38
292.757	218.38
292.987	196.38
293.218	218.38
293.449	207.38
293.68	199.38
293.91	213.38
294.141	195.38
294.372	203.38
294.603	209.38
294.833	211.38
295.064	227.38
295.295	216.38
295.525	198.38
295.756	213.38
295.987	208.38
296.217	210.38
296.448	224.38
296.679	227.38
296.909	228.38
297.14	209.38
297.37	228.38
297.601	230.38
297.831	208.38
298.062	224.38
298.292	223.38
298.523	229.38
298.753	212.38
298.984	215.38
299.214	217.38
299.445	223.38
299.675	213.38
299.905	220.38
300.136	211.38
300.366	216.38
300.597	236.38
300.827	231.38
301.057	231.38
301.288	223.38
301.518	229.38
301.748	236.38
301.979	254.38
302.209	229.38
302.439	233.38
302.669	238.38
302.9	226.38
303.13	251.38
303.36	257.38
303.59	235.38
303.82	219.38
304.051	249.38
304.281	247.38
304.511	237.38
304.741	235.38
304.971	214.38
305.201	234.38
305.431	243.38
305.661	230.38
305.891	236.38
306.121	237.38
306.352	237.38
306.582	242.38
306.812	243.38
307.042	263.38
307.272	253.38
307.502	253.38
307.731	241.38
307.961	210.38
308.191	245.38
308.421	248.38
308.651	238.38
308.881	232.38
309.111	233.38
309.341	241.38
309.571	249.38
309.8	244.38
310.03	258.38
310.26	246.38
310.49	251.38
310.72	238.38
310.949	233.38
311.179	248.38
311.409	260.38
311.639	252.38
311.868	257.38
312.098	242.38
312.328	244.38
312.557	267.38
312.787	247.38
313.017	264.38
313.246	263.38
313.476	255.38
313.706	278.38
313.935	265.38
314.165	248.38
314.394	270.38
314.624	260.38
314.853	256.38
315.083	261.38
315.312	268.38
315.542	254.38
315.771	270.38
316.001	265.38
316.23	269.38
316.46	263.38
316.689	262.38
316.919	249.38
317.148	280.38
317.377	262.38
317.607	263.38
317.836	275.38
318.065	278.38
318.295	258.38
318.524	270.38
318.753	264.38
318.983	267.38
319.212	265.38
319.441	258.38
319.67	275.38
319.9	274.38
320.129	263.38
320.358	279.38
320.587	253.38
320.816	265.38
321.046	285.38
321.275	286.38
321.504	269.38
321.733	275.38
321.962	271.38
322.191	279.38
322.42	277.38
322.649	267.38
322.878	283.38
323.108	269.38
323.337	267.38
323.566	295.38
323.795	281.38
324.024	287.38
324.253	282.38
324.482	283.38
324.71	266.38
324.939	275.38
325.168	270.38
325.397	307.38
325.626	288.38
325.855	263.38
326.084	281.38
326.313	280.38
326.542	286.38
326.77	274.38
326.999	277.38
327.228	278.38
327.457	285.38
327.686	289.38
327.914	276.38
328.143	298.38
328.372	292.38
328.6	285.38
328.829	290.38
329.058	295.38
329.287	290.38
329.515	292.38
329.744	296.38
329.972	282.38
330.201	298.38
330.43	306.38
330.658	317.38
330.887	305.38
331.115	302.38
331.344	295.38
331.572	313.38
331.801	301.38
332.03	311.38
332.258	298.38
332.486	307.38
332.715	308.38
332.943	335.38
333.172	306.38
333.4	323.38
333.629	330.38
333.857	348.38
334.085	336.38
334.314	318.38
334.542	340.38
334.771	353.38
334.999	343.38
335.227	323.38
335.455	334.38
335.684	351.38
335.912	330.38
336.14	350.38
336.369	341.38
336.597	347.38
336.825	331.38
337.053	337.38
337.281	327.38
337.51	331.38
337.738	354.38
337.966	317.38
338.194	331.38
338.422	318.38
338.65	334.38
338.878	317.38
339.106	314.38
339.334	309.38
339.562	311.38
339.79	319.38
340.018	305.38
340.246	323.38
340.474	324.38
340.702	317.38
340.93	339.38
341.158	330.38
341.386	317.38
341.614	323.38
341.842	311.38
342.07	326.38
342.298	312.38
342.526	327.38
342.754	321.38
342.981	300.38
343.209	328.38
343.437	332.38
343.665	344.38
343.893	347.38
344.12	339.38
344.348	341.38
344.576	341.38
344.804	317.38
345.031	331.38
345.259	334.38
345.487	326.38
345.714	349.38
345.942	322.38
346.17	307.38
346.397	331.38
346.625	303.38
346.853	298.38
347.08	303.38
347.308	304.38
347.535	295.38
347.763	303.38
347.99	298.38
348.218	301.38
348.445	302.38
348.673	306.38
348.9	306.38
349.128	321.38
349.355	308.38
349.583	297.38
349.81	319.38
350.037	313.38
350.265	317.38
350.492	319.38
350.72	295.38
350.947	310.38
351.174	315.38
351.402	301.38
351.629	311.38
351.856	307.38
352.083	328.38
352.311	311.38
352.538	308.38
352.765	299.38
352.992	323.38
353.22	291.38
353.447	310.38
353.674	314.38
353.901	311.38
354.128	318.38
354.355	310.38
354.583	307.38
354.81	303.38
355.037	321.38
355.264	327.38
355.491	309.38
355.718	319.38
355.945	297.38
356.172	306.38
356.399	283.38
356.626	319.38
356.853	324.38
357.08	310.38
357.307	324.38
357.534	313.38
357.761	305.38
357.988	327.38
358.215	339.38
358.441	319.38
358.668	319.38
358.895	302.38
359.122	316.38
359.349	308.38
359.576	309.38
359.802	326.38
360.029	321.38
360.256	297.38
360.483	326.38
360.709	308.38
360.936	317.38
361.163	336.38
361.39	325.38
361.616	306.38
361.843	317.38
362.07	328.38
362.296	329.38
362.523	331.38
362.749	312.38
362.976	305.38
363.203	325.38
363.429	314.38
363.656	331.38
363.882	326.38
364.109	318.38
364.335	314.38
364.562	310.38
364.788	327.38
365.015	324.38
365.241	324.38
365.468	323.38
365.694	303.38
365.92	319.38
366.147	297.38
366.373	322.38
366.599	327.38
366.826	324.38
367.052	333.38
367.278	325.38
367.505	327.38
367.731	324.38
367.957	328.38
368.184	329.38
368.41	334.38
368.636	318.38
368.862	322.38
369.089	336.38
369.315	330.38
369.541	332.38
369.767	327.38
369.993	321.38
370.219	334.38
370.445	335.38
370.672	339.38
370.898	326.38
371.124	307.38
371.35	338.38
371.576	349.38
371.802	363.38
372.028	348.38
372.254	355.38
372.48	326.38
372.706	359.38
372.932	363.38
373.158	346.38
373.384	344.38
373.61	353.38
373.835	354.38
374.061	359.38
374.287	342.38
374.513	365.38
374.739	364.38
374.965	348.38
375.191	355.38
375.416	342.38
375.642	345.38
375.868	354.38
376.094	351.38
376.319	346.38
376.545	341.38
376.771	334.38
376.997	345.38
377.222	358.38
377.448	354.38
377.674	353.38
377.899	349.38
378.125	350.38
378.35	348.38
378.576	345.38
378.802	346.38
379.027	347.38
379.253	341.38
379.478	346.38
379.704	339.38
379.929	326.38
380.155	350.38
380.38	334.38
380.606	345.38
380.831	339.38
381.057	365.38
381.282	349.38
381.507	350.38
381.733	351.38
381.958	358.38
382.184	358.38
382.409	359.38
382.634	377.38
382.86	357.38
383.085	356.38
383.31	376.38
383.535	375.38
383.761	369.38
383.986	366.38
384.211	375.38
384.436	395.38
384.662	378.38
384.887	377.38
385.112	380.38
385.337	388.38
385.562	378.38
385.787	400.38
386.013	403.38
386.238	385.38
386.463	386.38
386.688	394.38
386.913	389.38
387.138	401.38
387.363	411.38
387.588	386.38
387.813	409.38
388.038	417.38
388.263	403.38
388.488	405.38
388.713	414.38
388.938	387.38
389.163	395.38
389.387	400.38
389.612	407.38
389.837	404.38
390.062	398.38
390.287	413.38
390.512	399.38
390.736	372.38
390.961	410.38
391.186	412.38
391.411	413.38
391.636	450.38
391.86	427.38
392.085	441.38
392.31	406.38
392.534	410.38
392.759	407.38
392.984	435.38
393.208	414.38
393.433	410.38
393.658	417.38
393.882	424.38
394.107	404.38
394.331	452.38
394.556	430.38
394.78	412.38
395.005	422.38
395.229	419.38
395.454	438.38
395.678	447.38
395.903	422.38
396.127	423.38
396.352	430.38
396.576	438.38
396.801	426.38
397.025	455.38
397.249	427.38
397.474	449.38
397.698	446.38
397.922	448.38
398.147	453.38
398.371	492.38
398.595	475.38
398.82	513.38
399.044	505.38
399.268	521.38
399.492	571.38
399.717	544.38
399.941	555.38
400.165	561.38
400.389	555.38
400.613	530.38
400.837	515.38
401.062	509.38
401.286	478.38
401.51	498.38
401.734	475.38
401.958	491.38
402.182	479.38
402.406	482.38
402.63	494.38
402.854	493.38
403.078	474.38
403.302	486.38
403.526	469.38
403.75	483.38
403.974	499.38
404.198	497.38
404.422	499.38
404.645	466.38
404.869	481.38
405.093	490.38
405.317	489.38
405.541	518.38
405.765	503.38
405.988	501.38
406.212	513.38
406.436	478.38
406.66	533.38
406.883	524.38
407.107	535.38
407.331	525.38
407.555	535.38
407.778	554.38
408.002	546.38
408.226	542.38
408.449	546.38
408.673	536.38
408.896	501.38
409.12	528.38
409.344	518.38
409.567	498.38
409.791	510.38
410.014	505.38
410.238	487.38
410.461	504.38
410.685	501.38
410.908	486.38
411.132	500.38
411.355	500.38
411.578	486.38
411.802	490.38
412.025	484.38
412.249	478.38
412.472	488.38
412.695	487.38
412.919	493.38
413.142	488.38
413.365	496.38
413.589	475.38
413.812	466.38
414.035	470.38
414.258	461.38
414.482	483.38
414.705	472.38
414.928	480.38
415.151	462.38
415.374	488.38
415.597	463.38
415.821	460.38
416.044	442.38
416.267	446.38
416.49	457.38
416.713	447.38
416.936	477.38
417.159	457.38
417.382	450.38
417.605	452.38
417.828	457.38
418.051	463.38
418.274	450.38
418.497	444.38
418.72	465.38
418.943	481.38
419.166	478.38
419.389	508.38
419.611	489.38
419.834	464.38
420.057	490.38
420.28	471.38
420.503	447.38
420.726	469.38
420.948	477.38
421.171	444.38
421.394	454.38
421.617	461.38
421.839	454.38
422.062	449.38
422.285	454.38
422.507	445.38
422.73	465.38
422.953	463.38
423.175	466.38
423.398	466.38
423.621	450.38
423.843	450.38
424.066	446.38
424.288	428.38
424.511	453.38
424.733	449.38
424.956	437.38
425.178	425.38
425.401	447.38
425.623	443.38
425.846	448.38
426.068	450.38
426.291	429.38
426.513	438.38
426.735	417.38
426.958	439.38
427.18	430.38
427.402	446.38
427.625	446.38
427.847	438.38
428.069	425.38
428.292	428.38
428.514	417.38
428.736	420.38
428.958	426.38
429.181	430.38
429.403	406.38
429.625	418.38
429.847	391.38
430.069	419.38
430.292	435.38
430.514	438.38
430.736	415.38
430.958	430.38
431.18	426.38
431.402	432.38
431.624	411.38
431.846	423.38
432.068	418.38
432.29	444.38
432.512	439.38
432.734	429.38
432.956	419.38
433.178	433.38
433.4	422.38
433.622	441.38
433.844	439.38
434.066	441.38
434.287	433.38
434.509	463.38
434.731	458.38
434.953	450.38
435.175	447.38
435.397	462.38
435.618	429.38
435.84	429.38
436.062	427.38
436.284	439.38
436.505	429.38
436.727	423.38
436.949	420.38
437.17	423.38
437.392	404.38
437.614	430.38
437.835	407.38
438.057	407.38
438.278	410.38
438.5	407.38
438.721	412.38
438.943	422.38
439.165	398.38
439.386	407.38
439.608	431.38
439.829	418.38
440.05	428.38
440.272	411.38
440.493	420.38
440.715	414.38
440.936	423.38
441.158	437.38
441.379	436.38
441.6	448.38
441.822	442.38
442.043	473.38
442.264	430.38
442.486	434.38
442.707	435.38
442.928	449.38
443.149	448.38
443.371	445.38
443.592	445.38
443.813	456.38
444.034	454.38
444.255	441.38
444.476	451.38
444.698	458.38
444.919	457.38
445.14	526.38
445.361	477.38
445.582	458.38
445.803	451.38
446.024	428.38
446.245	444.38
446.466	420.38
446.687	432.38
446.908	435.38
447.129	407.38
447.35	417.38
447.571	413.38
447.792	413.38
448.013	409.38
448.234	407.38
448.455	403.38
448.675	391.38
448.896	404.38
449.117	405.38
449.338	406.38
449.559	408.38
449.779	400.38
450	388.38
450.221	415.38
450.442	398.38
450.662	377.38
450.883	384.38
451.104	395.38
451.324	399.38
451.545	405.38
451.766	390.38
451.986	394.38
452.207	396.38
452.428	393.38
452.648	397.38
452.869	380.38
453.089	384.38
453.31	382.38
453.53	360.38
453.751	377.38
453.971	366.38
454.192	367.38
454.412	376.38
454.633	389.38
454.853	393.38
455.073	379.38
455.294	377.38
455.514	388.38
455.734	363.38
455.955	365.38
456.175	381.38
456.395	364.38
456.616	366.38
456.836	367.38
457.056	394.38
457.276	377.38
457.497	387.38
457.717	377.38
457.937	375.38
458.157	387.38
458.377	406.38
458.598	391.38
458.818	400.38
459.038	399.38
459.258	389.38
459.478	429.38
459.698	426.38
459.918	448.38
460.138	443.38
460.358	477.38
460.578	455.38
460.798	470.38
461.018	471.38
461.238	469.38
461.458	485.38
461.678	473.38
461.898	499.38
462.118	498.38
462.338	516.38
462.558	502.38
462.777	509.38
462.997	546.38
463.217	508.38
463.437	518.38
463.657	529.38
463.876	510.38
464.096	528.38
464.316	525.38
464.536	491.38
464.755	509.38
464.975	491.38
465.195	470.38
465.414	448.38
465.634	450.38
465.854	436.38
466.073	458.38
466.293	449.38
466.512	427.38
466.732	436.38
466.951	425.38
467.171	426.38
467.391	423.38
467.61	414.38
467.829	397.38
468.049	426.38
468.268	407.38
468.488	403.38
468.707	409.38
468.927	423.38
469.146	417.38
469.365	406.38
469.585	422.38
469.804	408.38
470.023	437.38
470.243	415.38
470.462	405.38
470.681	420.38
470.901	414.38
471.12	419.38
471.339	422.38
471.558	415.38
471.777	391.38
471.997	412.38
472.216	403.38
472.435	433.38
472.654	420.38
472.873	400.38
473.092	407.38
473.311	422.38
473.53	420.38
473.749	416.38
473.968	409.38
474.187	419.38
474.406	425.38
474.625	415.38
474.844	429.38
475.063	404.38
475.282	416.38
475.501	426.38
475.72	439.38
475.939	414.38
476.158	437.38
476.377	416.38
476.596	410.38
476.814	434.38
477.033	449.38
477.252	441.38
477.471	462.38
477.69	475.38
477.908	462.38
478.127	467.38
478.346	448.38
478.564	471.38
478.783	478.38
479.002	474.38
479.22	477.38
479.439	478.38
479.658	499.38
479.876	483.38
480.095	514.38
480.313	486.38
480.532	501.38
480.751	515.38
480.969	498.38
481.188	500.38
481.406	465.38
481.624	463.38
481.843	485.38
482.061	453.38
482.28	483.38
482.498	487.38
482.717	458.38
482.935	489.38
483.153	481.38
483.372	482.38
483.59	488.38
483.808	483.38
484.027	480.38
484.245	485.38
484.463	480.38
484.681	477.38
484.9	500.38
485.118	485.38
485.336	472.38
485.554	480.38
485.772	488.38
485.99	474.38
486.209	507.38
486.427	484.38
486.645	473.38
486.863	474.38
487.081	472.38
487.299	473.38
487.517	477.38
487.735	492.38
487.953	485.38
488.171	498.38
488.389	484.38
488.607	491.38
488.825	490.38
489.043	494.38
489.261	474.38
489.479	490.38
489.696	488.38
489.914	513.38
490.132	495.38
490.35	492.38
490.568	501.38
490.786	500.38
491.003	508.38
491.221	510.38
491.439	517.38
491.657	491.38
491.874	506.38
492.092	494.38
492.31	516.38
492.527	509.38
492.745	535.38
492.963	517.38
493.18	523.38
493.398	511.38
493.615	507.38
493.833	508.38
494.05	534.38
494.268	524.38
494.485	504.38
494.703	532.38
494.92	515.38
495.138	538.38
495.355	519.38
495.573	543.38
495.79	531.38
496.008	539.38
496.225	555.38
496.442	541.38
496.66	566.38
496.877	579.38
497.094	590.38
497.312	610.38
497.529	585.38
497.746	609.38
497.963	629.38
498.181	627.38
498.398	646.38
498.615	701.38
498.832	724.38
499.049	766.38
499.267	769.38
499.484	800.38
499.701	840.38
499.918	885.38
500.135	909.38
500.352	926.38
500.569	951.38
500.786	924.38
501.003	907.38
501.22	863.38
501.437	851.38
501.654	813.38
501.871	777.38
502.088	750.38
502.305	718.38
502.522	730.38
502.739	687.38
502.956	647.38
503.172	651.38
503.389	637.38
503.606	621.38
503.823	611.38
504.04	596.38
504.256	609.38
504.473	589.38
504.69	577.38
504.907	562.38
505.123	568.38
505.34	559.38
505.557	537.38
505.773	514.38
505.99	508.38
506.207	506.38
506.423	481.38
506.64	485.38
506.856	477.38
507.073	517.38
507.289	475.38
507.506	483.38
507.722	470.38
507.939	468.38
508.155	455.38
508.372	461.38
508.588	479.38
508.805	447.38
509.021	446.38
509.238	458.38
509.454	442.38
509.67	441.38
509.887	452.38
510.103	452.38
510.319	445.38
510.536	436.38
510.752	439.38
510.968	429.38
511.184	439.38
511.401	452.38
511.617	443.38
511.833	426.38
512.049	442.38
512.265	447.38
512.481	467.38
512.698	459.38
512.914	430.38
513.13	479.38
513.346	434.38
513.562	456.38
513.778	447.38
513.994	453.38
514.21	470.38
514.426	471.38
514.642	463.38
514.858	446.38
515.074	450.38
515.29	452.38
515.506	467.38
515.721	462.38
515.937	459.38
516.153	473.38
516.369	489.38
516.585	484.38
516.801	504.38
517.016	502.38
517.232	521.38
517.448	515.38
517.664	525.38
517.879	514.38
518.095	523.38
518.311	512.38
518.527	510.38
518.742	492.38
518.958	507.38
519.173	471.38
519.389	488.38
519.605	479.38
519.82	453.38
520.036	444.38
520.251	455.38
520.467	447.38
520.682	437.38
520.898	443.38
521.113	435.38
521.329	446.38
521.544	441.38
521.76	426.38
521.975	431.38
522.19	444.38
522.406	411.38
522.621	426.38
522.836	423.38
523.052	415.38
523.267	420.38
523.482	422.38
523.698	411.38
523.913	404.38
524.128	419.38
524.343	405.38
524.559	427.38
524.774	413.38
524.989	425.38
525.204	411.38
525.419	404.38
525.634	406.38
525.849	405.38
526.064	399.38
526.28	419.38
526.495	392.38
526.71	397.38
526.925	404.38
527.14	397.38
527.355	392.38
527.57	401.38
527.785	405.38
527.999	411.38
528.214	397.38
528.429	415.38
528.644	405.38
528.859	407.38
529.074	427.38
529.289	409.38
529.503	389.38
529.718	396.38
529.933	418.38
530.148	405.38
530.363	395.38
530.577	398.38
530.792	399.38
531.007	399.38
531.221	412.38
531.436	399.38
531.651	409.38
531.865	394.38
532.08	388.38
532.295	397.38
532.509	400.38
532.724	392.38
532.938	394.38
533.153	407.38
533.367	400.38
533.582	405.38
533.796	420.38
534.011	411.38
534.225	409.38
534.44	394.38
534.654	388.38
534.868	409.38
535.083	407.38
535.297	402.38
535.511	397.38
535.726	396.38
535.94	388.38
536.154	383.38
536.369	376.38
536.583	393.38
536.797	372.38
537.011	394.38
537.225	389.38
537.44	393.38
537.654	370.38
537.868	360.38
538.082	379.38
538.296	381.38
538.51	387.38
538.724	377.38
538.938	379.38
539.153	404.38
539.367	396.38
539.581	395.38
539.795	386.38
540.009	383.38
540.222	387.38
540.436	382.38
540.65	357.38
540.864	391.38
541.078	384.38
541.292	387.38
541.506	384.38
541.72	380.38
541.934	385.38
542.147	385.38
542.361	375.38
542.575	360.38
542.789	381.38
543.002	392.38
543.216	370.38
543.43	377.38
543.644	393.38
543.857	371.38
544.071	395.38
544.285	379.38
544.498	388.38
544.712	378.38
544.925	398.38
545.139	386.38
545.352	381.38
545.566	390.38
545.779	371.38
545.993	387.38
546.206	383.38
546.42	378.38
546.633	387.38
546.847	385.38
547.06	402.38
547.274	387.38
547.487	360.38
547.7	381.38
547.914	374.38
548.127	388.38
548.34	397.38
548.554	394.38
548.767	389.38
548.98	363.38
549.193	375.38
549.407	389.38
549.62	374.38
549.833	397.38
550.046	386.38
550.259	401.38
550.473	386.38
550.686	393.38
550.899	380.38
551.112	399.38
551.325	381.38
551.538	401.38
551.751	383.38
551.964	385.38
552.177	374.38
552.39	387.38
552.603	405.38
552.816	407.38
553.029	399.38
553.242	404.38
553.455	413.38
553.667	407.38
553.88	391.38
554.093	390.38
554.306	395.38
554.519	379.38
554.732	365.38
554.944	367.38
555.157	349.38
555.37	366.38
555.583	362.38
555.795	362.38
556.008	362.38
556.221	365.38
556.433	333.38
556.646	353.38
556.859	342.38
557.071	351.38
557.284	341.38
557.496	339.38
557.709	339.38
557.921	359.38
558.134	333.38
558.346	339.38
558.559	361.38
558.771	337.38
558.984	336.38
559.196	341.38
559.409	348.38
559.621	347.38
559.833	347.38
560.046	332.38
560.258	331.38
560.47	340.38
560.683	347.38
560.895	331.38
561.107	328.38
561.32	315.38
561.532	341.38
561.744	345.38
561.956	344.38
562.168	325.38
562.381	350.38
562.593	333.38
562.805	342.38
563.017	343.38
563.229	345.38
563.441	354.38
563.653	360.38
563.865	355.38
564.077	373.38
564.289	352.38
564.501	354.38
564.713	361.38
564.925	355.38
565.137	380.38
565.349	364.38
565.561	399.38
565.773	379.38
565.985	383.38
566.197	419.38
566.408	405.38
566.62	415.38
566.832	428.38
567.044	437.38
567.255	447.38
567.467	447.38
567.679	469.38
567.891	433.38
568.102	407.38
568.314	405.38
568.526	429.38
568.737	403.38
568.949	402.38
569.161	381.38
569.372	370.38
569.584	359.38
569.795	345.38
570.007	367.38
570.218	353.38
570.43	354.38
570.641	339.38
570.853	338.38
571.064	327.38
571.276	305.38
571.487	311.38
571.698	315.38
571.91	317.38
572.121	307.38
572.333	329.38
572.544	312.38
572.755	293.38
572.966	291.38
573.178	300.38
573.389	305.38
573.6	291.38
573.811	277.38
574.023	278.38
574.234	283.38
574.445	302.38
574.656	281.38
574.867	292.38
575.078	287.38
575.289	294.38
575.501	290.38
575.712	279.38
575.923	290.38
576.134	284.38
576.345	275.38
576.556	268.38
576.767	281.38
576.978	282.38
577.188	283.38
577.399	281.38
577.61	267.38
577.821	262.38
578.032	258.38
578.243	267.38
578.454	269.38
578.665	269.38
578.875	265.38
579.086	269.38
579.297	260.38
579.508	248.38
579.718	252.38
579.929	255.38
580.14	238.38
580.35	254.38
580.561	236.38
580.772	243.38
580.982	262.38
581.193	259.38
581.403	273.38
581.614	255.38
581.825	252.38
582.035	265.38
582.246	268.38
582.456	251.38
582.667	249.38
582.877	248.38
583.087	253.38
583.298	253.38
583.508	247.38
583.719	254.38
583.929	232.38
584.139	227.38
584.35	247.38
584.56	229.38
584.77	245.38
584.981	236.38
585.191	235.38
585.401	263.38
585.611	255.38
585.821	232.38
586.032	247.38
586.242	241.38
586.452	267.38
586.662	231.38
586.872	255.38
587.082	243.38
587.292	261.38
587.502	232.38
587.713	253.38
587.923	267.38
588.133	251.38
588.343	248.38
588.553	245.38
588.762	251.38
588.972	261.38
589.182	267.38
589.392	261.38
589.602	239.38
589.812	256.38
590.022	271.38
590.232	248.38
590.441	249.38
590.651	262.38
590.861	258.38
591.071	245.38
591.281	275.38
591.49	245.38
591.7	265.38
591.91	269.38
592.119	245.38
592.329	254.38
592.539	255.38
592.748	243.38
592.958	259.38
593.167	268.38
593.377	258.38
593.587	279.38
593.796	273.38
594.006	264.38
594.215	269.38
594.424	272.38
594.634	265.38
594.843	252.38
595.053	251.38
595.262	259.38
595.472	234.38
595.681	264.38
595.89	255.38
596.1	248.38
596.309	242.38
596.518	237.38
596.727	237.38
596.937	235.38
597.146	231.38
597.355	249.38
597.564	237.38
597.774	231.38
597.983	233.38
598.192	230.38
598.401	234.38
598.61	235.38
598.819	214.38
599.028	235.38
599.237	215.38
599.446	227.38
599.655	229.38
599.864	213.38
600.073	214.38
600.282	227.38
600.491	215.38
600.7	212.38
600.909	218.38
601.118	207.38
601.327	226.38
601.536	189.38
601.745	198.38
601.953	210.38
602.162	199.38
602.371	201.38
602.58	217.38
602.789	213.38
602.997	216.38
603.206	223.38
603.415	214.38
603.623	222.38
603.832	197.38
604.041	202.38
604.249	196.38
604.458	209.38
604.666	205.38
604.875	193.38
605.084	205.38
605.292	202.38
605.501	212.38
605.709	209.38
605.918	203.38
606.126	206.38
606.334	213.38
606.543	205.38
606.751	209.38
606.96	208.38
607.168	214.38
607.376	220.38
607.585	234.38
607.793	206.38
608.001	204.38
608.21	210.38
608.418	204.38
608.626	206.38
608.834	212.38
609.043	213.38
609.251	190.38
609.459	210.38
609.667	227.38
609.875	202.38
610.083	222.38
610.291	208.38
610.499	196.38
610.707	189.38
610.916	190.38
611.124	197.38
611.332	193.38
611.54	191.38
611.748	187.38
611.955	215.38
612.163	196.38
612.371	174.38
612.579	201.38
612.787	206.38
612.995	199.38
613.203	204.38
613.411	186.38
613.618	199.38
613.826	189.38
614.034	193.38
614.242	191.38
614.449	206.38
614.657	186.38
614.865	196.38
615.072	202.38
615.28	204.38
615.488	194.38
615.695	185.38
615.903	188.38
616.111	179.38
616.318	198.38
616.526	185.38
616.733	203.38
616.941	194.38
617.148	188.38
617.356	201.38
617.563	203.38
617.771	203.38
617.978	200.38
618.185	205.38
618.393	185.38
618.6	190.38
618.807	181.38
619.015	173.38
619.222	193.38
619.429	180.38
619.637	206.38
619.844	182.38
620.051	197.38
620.258	192.38
620.466	192.38
620.673	170.38
620.88	188.38
621.087	177.38
621.294	187.38
621.501	191.38
621.708	164.38
621.915	190.38
622.122	201.38
622.329	182.38
622.536	177.38
622.743	203.38
622.95	186.38
623.157	184.38
623.364	170.38
623.571	193.38
623.778	193.38
623.985	189.38
624.192	174.38
624.399	179.38
624.606	190.38
624.812	190.38
625.019	182.38
625.226	159.38
625.433	179.38
625.639	175.38
625.846	188.38
626.053	171.38
626.259	168.38
626.466	174.38
626.673	175.38
626.879	182.38
627.086	181.38
627.293	186.38
627.499	182.38
627.706	181.38
627.912	190.38
628.119	197.38
628.325	179.38
628.532	173.38
628.738	174.38
628.945	177.38
629.151	185.38
629.357	178.38
629.564	184.38
629.77	149.38
629.976	163.38
630.183	169.38
630.389	173.38
630.595	163.38
630.802	172.38
631.008	180.38
631.214	166.38
631.42	158.38
631.627	179.38
631.833	161.38
632.039	162.38
632.245	164.38
632.451	166.38
632.657	187.38
632.863	176.38
633.069	165.38
633.275	170.38
633.481	176.38
633.688	183.38
633.893	162.38
634.099	171.38
634.305	164.38
634.511	166.38
634.717	177.38
634.923	170.38
635.129	162.38
635.335	162.38
635.541	173.38
635.747	165.38
635.952	163.38
636.158	136.38
636.364	172.38
636.57	174.38
636.775	165.38
636.981	168.38
637.187	167.38
637.392	161.38
637.598	161.38
637.804	161.38
638.009	160.38
638.215	166.38
638.421	161.38
638.626	155.38
638.832	154.38
639.037	167.38
639.243	153.38
639.448	167.38
639.654	172.38
639.859	155.38
640.065	162.38
640.27	154.38
640.475	169.38
640.681	165.38
640.886	175.38
641.091	164.38
641.297	156.38
641.502	174.38
641.707	161.38
641.913	160.38
642.118	159.38
642.323	162.38
642.528	171.38
642.733	152.38
642.939	170.38
643.144	158.38
643.349	155.38
643.554	151.38
643.759	159.38
643.964	152.38
644.169	156.38
644.374	167.38
644.579	174.38
644.784	159.38
644.989	159.38
645.194	159.38
645.399	174.38
645.604	175.38
645.809	157.38
646.014	157.38
646.219	178.38
646.423	162.38
646.628	154.38
646.833	181.38
647.038	166.38
647.243	161.38
647.447	170.38
647.652	164.38
647.857	168.38
648.062	163.38
648.266	147.38
648.471	163.38
648.676	160.38
648.88	147.38
649.085	161.38
649.289	162.38
649.494	165.38
649.698	162.38
649.903	163.38
650.107	170.38
650.312	177.38
650.516	160.38
650.721	154.38
650.925	173.38
651.13	161.38
651.334	152.38
651.539	154.38
651.743	168.38
651.947	156.38
652.152	150.38
652.356	155.38
652.56	147.38
652.764	158.38
652.969	150.38
653.173	163.38
653.377	154.38
653.581	159.38
653.785	143.38
653.99	156.38
654.194	155.38
654.398	150.38
654.602	159.38
654.806	164.38
655.01	169.38
655.214	156.38
655.418	159.38
655.622	137.38
655.826	163.38
656.03	156.38
656.234	147.38
656.438	150.38
656.642	147.38
656.846	157.38
657.049	157.38
657.253	140.38
657.457	132.38
657.661	125.38
657.865	146.38
658.068	135.38
658.272	133.38
658.476	130.38
658.68	134.38
658.883	131.38
659.087	124.38
659.291	121.38
659.494	115.38
659.698	113.38
659.901	125.38
660.105	116.38
660.309	115.38
660.512	113.38
660.716	102.38
660.919	111.38
661.123	106.38
661.326	106.38
661.53	110.38
661.733	97.38
661.936	102.38
662.14	100.38
662.343	86.38
662.546	83.38
662.75	104.38
662.953	92.38
663.156	83.38
663.36	83.38
663.563	84.38
663.766	80.38
663.969	79.38
664.173	92.38
664.376	82.38
664.579	93.38
664.782	94.38
664.985	88.38
665.188	81.38
665.391	85.38
665.594	84.38
665.797	84.38
666	84.38
666.203	84.38
666.406	85.38
666.609	88.38
666.812	83.38
667.015	78.38
667.218	71.38
667.421	74.38
667.624	79.38
667.827	90.38
668.03	79.38
668.232	90.38
668.435	77.38
668.638	76.38
668.841	101.38
669.043	71.38
669.246	86.38
669.449	81.38
669.651	89.38
669.854	85.38
670.057	86.38
670.259	78.38
670.462	87.38
670.665	78.38
670.867	83.38
671.07	82.38
671.272	88.38
671.475	85.38
671.677	99.38
671.88	86.38
672.082	87.38
672.284	84.38
672.487	80.38
672.689	82.38
672.892	84.38
