Data from Fe(NO3)3@0.0125M.TitratingCurve.Agarose3%dH2O.NegLispCup.LampEnergy10.LIBS07252019_HRD10591_16-58-56-336.txt Node
Date: Thu Jul 25 16:58:56 EDT 2019
User: cochatt
Spectrometer: HR+D1059
Trigger mode: 1
Integration Time (sec): 1.000000E-1
Scans to average: 1
Electric dark correction enabled: true
Nonlinearity correction enabled: false
Boxcar width: 0
XAxis mode: Wavelengths
Number of Pixels in Spectrum: 2048
>>>>>Begin Spectral Data<<<<<
223.165	-21.88
223.4	-21.88
223.635	-21.88
223.869	-6.88
224.104	-25.88
224.338	-1.88
224.573	-18.88
224.808	-10.88
225.042	-28.88
225.277	0.12
225.511	-12.88
225.746	6.12
225.98	16.12
226.215	6.12
226.449	20.12
226.683	25.12
226.918	36.12
227.152	18.12
227.387	39.12
227.621	42.12
227.856	40.12
228.09	43.12
228.324	58.12
228.559	44.12
228.793	68.12
229.027	102.12
229.262	92.12
229.496	102.12
229.73	124.12
229.964	114.12
230.199	119.12
230.433	139.12
230.667	113.12
230.901	118.12
231.136	125.12
231.37	113.12
231.604	135.12
231.838	115.12
232.072	124.12
232.306	135.12
232.541	125.12
232.775	136.12
233.009	126.12
233.243	148.12
233.477	140.12
233.711	132.12
233.945	137.12
234.179	145.12
234.413	133.12
234.647	161.12
234.881	152.12
235.115	141.12
235.349	136.12
235.583	129.12
235.817	136.12
236.051	128.12
236.285	142.12
236.519	145.12
236.753	148.12
236.987	146.12
237.221	142.12
237.455	160.12
237.689	138.12
237.922	156.12
238.156	149.12
238.39	155.12
238.624	153.12
238.858	160.12
239.091	162.12
239.325	161.12
239.559	158.12
239.793	169.12
240.027	173.12
240.26	166.12
240.494	182.12
240.728	148.12
240.961	173.12
241.195	155.12
241.429	157.12
241.662	153.12
241.896	160.12
242.13	172.12
242.363	164.12
242.597	169.12
242.83	167.12
243.064	174.12
243.298	166.12
243.531	189.12
243.765	179.12
243.998	185.12
244.232	200.12
244.465	175.12
244.699	186.12
244.932	186.12
245.166	183.12
245.399	189.12
245.633	199.12
245.866	183.12
246.099	185.12
246.333	190.12
246.566	205.12
246.8	193.12
247.033	200.12
247.266	188.12
247.5	193.12
247.733	208.12
247.966	207.12
248.2	225.12
248.433	219.12
248.666	206.12
248.899	217.12
249.133	223.12
249.366	229.12
249.599	225.12
249.832	193.12
250.066	210.12
250.299	211.12
250.532	211.12
250.765	233.12
250.998	223.12
251.231	219.12
251.465	232.12
251.698	229.12
251.931	229.12
252.164	236.12
252.397	214.12
252.63	248.12
252.863	248.12
253.096	238.12
253.329	237.12
253.562	258.12
253.795	237.12
254.028	246.12
254.261	272.12
254.494	245.12
254.727	248.12
254.96	235.12
255.193	264.12
255.426	271.12
255.659	253.12
255.892	250.12
256.124	258.12
256.357	270.12
256.59	269.12
256.823	256.12
257.056	284.12
257.289	263.12
257.521	261.12
257.754	276.12
257.987	263.12
258.22	262.12
258.452	259.12
258.685	278.12
258.918	260.12
259.151	274.12
259.383	279.12
259.616	281.12
259.849	294.12
260.081	302.12
260.314	309.12
260.547	290.12
260.779	276.12
261.012	284.12
261.244	292.12
261.477	309.12
261.71	276.12
261.942	308.12
262.175	292.12
262.407	299.12
262.64	289.12
262.872	280.12
263.105	308.12
263.337	310.12
263.57	323.12
263.802	291.12
264.035	296.12
264.267	298.12
264.499	297.12
264.732	305.12
264.964	305.12
265.197	313.12
265.429	300.12
265.661	294.12
265.894	322.12
266.126	307.12
266.358	309.12
266.591	320.12
266.823	301.12
267.055	321.12
267.287	312.12
267.52	321.12
267.752	335.12
267.984	335.12
268.216	333.12
268.448	317.12
268.681	332.12
268.913	335.12
269.145	322.12
269.377	336.12
269.609	327.12
269.841	346.12
270.073	329.12
270.306	328.12
270.538	337.12
270.77	319.12
271.002	345.12
271.234	339.12
271.466	342.12
271.698	340.12
271.93	358.12
272.162	343.12
272.394	344.12
272.626	338.12
272.858	355.12
273.09	353.12
273.322	375.12
273.553	380.12
273.785	347.12
274.017	374.12
274.249	395.12
274.481	385.12
274.713	398.12
274.945	396.12
275.176	434.12
275.408	371.12
275.64	410.12
275.872	408.12
276.104	380.12
276.335	387.12
276.567	398.12
276.799	381.12
277.031	393.12
277.262	390.12
277.494	381.12
277.726	392.12
277.957	389.12
278.189	396.12
278.421	382.12
278.652	416.12
278.884	384.12
279.115	377.12
279.347	393.12
279.579	386.12
279.81	392.12
280.042	408.12
280.273	399.12
280.505	425.12
280.736	412.12
280.968	393.12
281.199	413.12
281.431	416.12
281.662	432.12
281.894	446.12
282.125	422.12
282.356	429.12
282.588	428.12
282.819	413.12
283.051	441.12
283.282	436.12
283.513	451.12
283.745	433.12
283.976	429.12
284.207	434.12
284.439	440.12
284.67	426.12
284.901	439.12
285.132	434.12
285.364	424.12
285.595	443.12
285.826	440.12
286.057	465.12
286.288	448.12
286.52	439.12
286.751	452.12
286.982	434.12
287.213	446.12
287.444	466.12
287.675	456.12
287.906	481.12
288.138	468.12
288.369	452.12
288.6	454.12
288.831	459.12
289.062	441.12
289.293	467.12
289.524	480.12
289.755	477.12
289.986	464.12
290.217	461.12
290.448	479.12
290.679	438.12
290.91	490.12
291.141	480.12
291.371	468.12
291.602	485.12
291.833	486.12
292.064	482.12
292.295	488.12
292.526	476.12
292.757	462.12
292.987	470.12
293.218	489.12
293.449	474.12
293.68	488.12
293.91	485.12
294.141	506.12
294.372	468.12
294.603	466.12
294.833	494.12
295.064	483.12
295.295	483.12
295.525	484.12
295.756	502.12
295.987	512.12
296.217	481.12
296.448	481.12
296.679	478.12
296.909	504.12
297.14	483.12
297.37	503.12
297.601	530.12
297.831	497.12
298.062	496.12
298.292	523.12
298.523	528.12
298.753	505.12
298.984	522.12
299.214	527.12
299.445	506.12
299.675	515.12
299.905	513.12
300.136	530.12
300.366	507.12
300.597	522.12
300.827	535.12
301.057	515.12
301.288	523.12
301.518	538.12
301.748	544.12
301.979	532.12
302.209	557.12
302.439	547.12
302.669	533.12
302.9	535.12
303.13	530.12
303.36	546.12
303.59	537.12
303.82	574.12
304.051	568.12
304.281	533.12
304.511	537.12
304.741	550.12
304.971	572.12
305.201	566.12
305.431	553.12
305.661	594.12
305.891	564.12
306.121	578.12
306.352	564.12
306.582	566.12
306.812	558.12
307.042	577.12
307.272	564.12
307.502	540.12
307.731	590.12
307.961	563.12
308.191	578.12
308.421	587.12
308.651	557.12
308.881	546.12
309.111	576.12
309.341	585.12
309.571	587.12
309.8	576.12
310.03	584.12
310.26	596.12
310.49	574.12
310.72	573.12
310.949	582.12
311.179	590.12
311.409	594.12
311.639	589.12
311.868	598.12
312.098	611.12
312.328	574.12
312.557	617.12
312.787	582.12
313.017	608.12
313.246	586.12
313.476	601.12
313.706	614.12
313.935	614.12
314.165	614.12
314.394	617.12
314.624	597.12
314.853	615.12
315.083	612.12
315.312	604.12
315.542	616.12
315.771	616.12
316.001	604.12
316.23	618.12
316.46	630.12
316.689	640.12
316.919	643.12
317.148	636.12
317.377	656.12
317.607	625.12
317.836	636.12
318.065	634.12
318.295	645.12
318.524	652.12
318.753	643.12
318.983	650.12
319.212	644.12
319.441	640.12
319.67	637.12
319.9	652.12
320.129	635.12
320.358	636.12
320.587	650.12
320.816	643.12
321.046	637.12
321.275	646.12
321.504	669.12
321.733	658.12
321.962	658.12
322.191	664.12
322.42	650.12
322.649	650.12
322.878	653.12
323.108	662.12
323.337	676.12
323.566	652.12
323.795	658.12
324.024	679.12
324.253	676.12
324.482	668.12
324.71	654.12
324.939	668.12
325.168	669.12
325.397	682.12
325.626	671.12
325.855	678.12
326.084	688.12
326.313	693.12
326.542	702.12
326.77	717.12
326.999	680.12
327.228	681.12
327.457	680.12
327.686	697.12
327.914	683.12
328.143	722.12
328.372	688.12
328.6	704.12
328.829	697.12
329.058	674.12
329.287	725.12
329.515	704.12
329.744	698.12
329.972	728.12
330.201	706.12
330.43	706.12
330.658	672.12
330.887	682.12
331.115	701.12
331.344	696.12
331.572	690.12
331.801	715.12
332.03	703.12
332.258	705.12
332.486	719.12
332.715	724.12
332.943	737.12
333.172	731.12
333.4	725.12
333.629	738.12
333.857	778.12
334.085	757.12
334.314	732.12
334.542	728.12
334.771	779.12
334.999	756.12
335.227	780.12
335.455	769.12
335.684	788.12
335.912	783.12
336.14	744.12
336.369	773.12
336.597	769.12
336.825	763.12
337.053	804.12
337.281	774.12
337.51	770.12
337.738	745.12
337.966	742.12
338.194	757.12
338.422	743.12
338.65	742.12
338.878	776.12
339.106	743.12
339.334	766.12
339.562	761.12
339.79	738.12
340.018	736.12
340.246	744.12
340.474	725.12
340.702	742.12
340.93	767.12
341.158	736.12
341.386	718.12
341.614	737.12
341.842	695.12
342.07	784.12
342.298	760.12
342.526	753.12
342.754	717.12
342.981	779.12
343.209	744.12
343.437	753.12
343.665	754.12
343.893	762.12
344.12	788.12
344.348	772.12
344.576	770.12
344.804	750.12
345.031	731.12
345.259	752.12
345.487	757.12
345.714	749.12
345.942	757.12
346.17	768.12
346.397	739.12
346.625	718.12
346.853	725.12
347.08	714.12
347.308	712.12
347.535	739.12
347.763	714.12
347.99	733.12
348.218	733.12
348.445	722.12
348.673	729.12
348.9	717.12
349.128	709.12
349.355	726.12
349.583	700.12
349.81	728.12
350.037	723.12
350.265	706.12
350.492	730.12
350.72	716.12
350.947	717.12
351.174	699.12
351.402	717.12
351.629	732.12
351.856	752.12
352.083	705.12
352.311	712.12
352.538	699.12
352.765	710.12
352.992	752.12
353.22	723.12
353.447	720.12
353.674	706.12
353.901	725.12
354.128	725.12
354.355	725.12
354.583	702.12
354.81	716.12
355.037	740.12
355.264	712.12
355.491	715.12
355.718	709.12
355.945	725.12
356.172	718.12
356.399	728.12
356.626	730.12
356.853	708.12
357.08	732.12
357.307	722.12
357.534	715.12
357.761	697.12
357.988	739.12
358.215	738.12
358.441	725.12
358.668	718.12
358.895	715.12
359.122	736.12
359.349	751.12
359.576	739.12
359.802	728.12
360.029	731.12
360.256	745.12
360.483	732.12
360.709	744.12
360.936	738.12
361.163	740.12
361.39	734.12
361.616	750.12
361.843	717.12
362.07	717.12
362.296	734.12
362.523	746.12
362.749	742.12
362.976	747.12
363.203	749.12
363.429	736.12
363.656	733.12
363.882	733.12
364.109	741.12
364.335	745.12
364.562	749.12
364.788	761.12
365.015	770.12
365.241	757.12
365.468	754.12
365.694	733.12
365.92	740.12
366.147	744.12
366.373	747.12
366.599	741.12
366.826	742.12
367.052	705.12
367.278	761.12
367.505	749.12
367.731	765.12
367.957	744.12
368.184	755.12
368.41	760.12
368.636	759.12
368.862	762.12
369.089	765.12
369.315	760.12
369.541	771.12
369.767	771.12
369.993	755.12
370.219	765.12
370.445	774.12
370.672	760.12
370.898	773.12
371.124	804.12
371.35	800.12
371.576	746.12
371.802	797.12
372.028	773.12
372.254	782.12
372.48	769.12
372.706	774.12
372.932	780.12
373.158	768.12
373.384	789.12
373.61	803.12
373.835	786.12
374.061	795.12
374.287	823.12
374.513	797.12
374.739	787.12
374.965	789.12
375.191	811.12
375.416	813.12
375.642	790.12
375.868	792.12
376.094	818.12
376.319	786.12
376.545	758.12
376.771	773.12
376.997	747.12
377.222	798.12
377.448	773.12
377.674	786.12
377.899	783.12
378.125	774.12
378.35	746.12
378.576	752.12
378.802	768.12
379.027	796.12
379.253	773.12
379.478	793.12
379.704	758.12
379.929	804.12
380.155	776.12
380.38	769.12
380.606	779.12
380.831	776.12
381.057	801.12
381.282	767.12
381.507	786.12
381.733	773.12
381.958	795.12
382.184	788.12
382.409	804.12
382.634	814.12
382.86	808.12
383.085	808.12
383.31	830.12
383.535	797.12
383.761	819.12
383.986	821.12
384.211	801.12
384.436	832.12
384.662	810.12
384.887	832.12
385.112	824.12
385.337	843.12
385.562	843.12
385.787	817.12
386.013	846.12
386.238	860.12
386.463	878.12
386.688	837.12
386.913	842.12
387.138	827.12
387.363	852.12
387.588	842.12
387.813	871.12
388.038	834.12
388.263	849.12
388.488	841.12
388.713	835.12
388.938	853.12
389.163	878.12
389.387	873.12
389.612	849.12
389.837	849.12
390.062	858.12
390.287	874.12
390.512	860.12
390.736	826.12
390.961	832.12
391.186	883.12
391.411	872.12
391.636	874.12
391.86	874.12
392.085	883.12
392.31	871.12
392.534	871.12
392.759	869.12
392.984	873.12
393.208	891.12
393.433	864.12
393.658	884.12
393.882	858.12
394.107	865.12
394.331	868.12
394.556	876.12
394.78	902.12
395.005	881.12
395.229	864.12
395.454	892.12
395.678	902.12
395.903	900.12
396.127	886.12
396.352	905.12
396.576	882.12
396.801	913.12
397.025	898.12
397.249	919.12
397.474	899.12
397.698	916.12
397.922	913.12
398.147	912.12
398.371	937.12
398.595	938.12
398.82	953.12
399.044	980.12
399.268	962.12
399.492	991.12
399.717	998.12
399.941	1011.12
400.165	1022.12
400.389	972.12
400.613	993.12
400.837	978.12
401.062	984.12
401.286	977.12
401.51	980.12
401.734	969.12
401.958	970.12
402.182	961.12
402.406	931.12
402.63	934.12
402.854	961.12
403.078	932.12
403.302	940.12
403.526	967.12
403.75	943.12
403.974	925.12
404.198	946.12
404.422	934.12
404.645	913.12
404.869	965.12
405.093	981.12
405.317	953.12
405.541	968.12
405.765	986.12
405.988	964.12
406.212	974.12
406.436	971.12
406.66	1020.12
406.883	975.12
407.107	1022.12
407.331	1015.12
407.555	1041.12
407.778	1003.12
408.002	1044.12
408.226	1020.12
408.449	1050.12
408.673	993.12
408.896	1021.12
409.12	990.12
409.344	1024.12
409.567	991.12
409.791	985.12
410.014	961.12
410.238	974.12
410.461	979.12
410.685	974.12
410.908	953.12
411.132	990.12
411.355	971.12
411.578	947.12
411.802	990.12
412.025	953.12
412.249	973.12
412.472	975.12
412.695	954.12
412.919	969.12
413.142	950.12
413.365	949.12
413.589	956.12
413.812	953.12
414.035	964.12
414.258	965.12
414.482	960.12
414.705	956.12
414.928	930.12
415.151	916.12
415.374	935.12
415.597	916.12
415.821	896.12
416.044	901.12
416.267	901.12
416.49	931.12
416.713	912.12
416.936	900.12
417.159	873.12
417.382	911.12
417.605	912.12
417.828	932.12
418.051	901.12
418.274	884.12
418.497	885.12
418.72	891.12
418.943	900.12
419.166	917.12
419.389	945.12
419.611	967.12
419.834	927.12
420.057	934.12
420.28	893.12
420.503	904.12
420.726	880.12
420.948	874.12
421.171	887.12
421.394	894.12
421.617	896.12
421.839	884.12
422.062	892.12
422.285	871.12
422.507	899.12
422.73	889.12
422.953	861.12
423.175	870.12
423.398	910.12
423.621	878.12
423.843	868.12
424.066	906.12
424.288	888.12
424.511	894.12
424.733	896.12
424.956	875.12
425.178	891.12
425.401	882.12
425.623	890.12
425.846	874.12
426.068	874.12
426.291	908.12
426.513	882.12
426.735	856.12
426.958	892.12
427.18	866.12
427.402	876.12
427.625	872.12
427.847	890.12
428.069	903.12
428.292	881.12
428.514	858.12
428.736	899.12
428.958	860.12
429.181	868.12
429.403	877.12
429.625	890.12
429.847	881.12
430.069	854.12
430.292	867.12
430.514	846.12
430.736	887.12
430.958	854.12
431.18	847.12
431.402	838.12
431.624	874.12
431.846	841.12
432.068	858.12
432.29	864.12
432.512	887.12
432.734	904.12
432.956	863.12
433.178	867.12
433.4	876.12
433.622	881.12
433.844	880.12
434.066	866.12
434.287	876.12
434.509	862.12
434.731	883.12
434.953	864.12
435.175	884.12
435.397	875.12
435.618	839.12
435.84	873.12
436.062	876.12
436.284	857.12
436.505	842.12
436.727	850.12
436.949	862.12
437.17	848.12
437.392	839.12
437.614	841.12
437.835	837.12
438.057	835.12
438.278	830.12
438.5	846.12
438.721	829.12
438.943	825.12
439.165	811.12
439.386	868.12
439.608	854.12
439.829	849.12
440.05	842.12
440.272	835.12
440.493	829.12
440.715	835.12
440.936	846.12
441.158	840.12
441.379	867.12
441.6	869.12
441.822	869.12
442.043	845.12
442.264	875.12
442.486	837.12
442.707	874.12
442.928	861.12
443.149	848.12
443.371	867.12
443.592	861.12
443.813	871.12
444.034	865.12
444.255	849.12
444.476	882.12
444.698	885.12
444.919	871.12
445.14	983.12
445.361	895.12
445.582	862.12
445.803	861.12
446.024	851.12
446.245	868.12
446.466	813.12
446.687	833.12
446.908	857.12
447.129	817.12
447.35	840.12
447.571	825.12
447.792	819.12
448.013	837.12
448.234	810.12
448.455	803.12
448.675	806.12
448.896	804.12
449.117	799.12
449.338	808.12
449.559	791.12
449.779	801.12
450	782.12
450.221	760.12
450.442	792.12
450.662	775.12
450.883	802.12
451.104	760.12
451.324	787.12
451.545	787.12
451.766	778.12
451.986	773.12
452.207	782.12
452.428	794.12
452.648	786.12
452.869	756.12
453.089	780.12
453.31	781.12
453.53	774.12
453.751	783.12
453.971	779.12
454.192	796.12
454.412	782.12
454.633	774.12
454.853	759.12
455.073	761.12
455.294	760.12
455.514	748.12
455.734	749.12
455.955	754.12
456.175	777.12
456.395	759.12
456.616	781.12
456.836	737.12
457.056	763.12
457.276	757.12
457.497	802.12
457.717	790.12
457.937	771.12
458.157	762.12
458.377	772.12
458.598	765.12
458.818	781.12
459.038	776.12
459.258	808.12
459.478	843.12
459.698	821.12
459.918	828.12
460.138	817.12
460.358	858.12
460.578	845.12
460.798	861.12
461.018	844.12
461.238	834.12
461.458	849.12
461.678	859.12
461.898	860.12
462.118	858.12
462.338	884.12
462.558	892.12
462.777	899.12
462.997	928.12
463.217	942.12
463.437	932.12
463.657	910.12
463.876	913.12
464.096	924.12
464.316	897.12
464.536	890.12
464.755	906.12
464.975	891.12
465.195	877.12
465.414	889.12
465.634	829.12
465.854	844.12
466.073	852.12
466.293	853.12
466.512	859.12
466.732	827.12
466.951	797.12
467.171	811.12
467.391	821.12
467.61	826.12
467.829	797.12
468.049	844.12
468.268	821.12
468.488	788.12
468.707	830.12
468.927	813.12
469.146	801.12
469.365	824.12
469.585	820.12
469.804	821.12
470.023	806.12
470.243	822.12
470.462	824.12
470.681	820.12
470.901	854.12
471.12	832.12
471.339	839.12
471.558	854.12
471.777	852.12
471.997	841.12
472.216	845.12
472.435	829.12
472.654	871.12
472.873	845.12
473.092	867.12
473.311	855.12
473.53	852.12
473.749	851.12
473.968	864.12
474.187	867.12
474.406	848.12
474.625	853.12
474.844	851.12
475.063	868.12
475.282	856.12
475.501	893.12
475.72	866.12
475.939	874.12
476.158	902.12
476.377	889.12
476.596	906.12
476.814	892.12
477.033	899.12
477.252	911.12
477.471	904.12
477.69	936.12
477.908	938.12
478.127	963.12
478.346	929.12
478.564	956.12
478.783	939.12
479.002	974.12
479.22	974.12
479.439	975.12
479.658	1009.12
479.876	984.12
480.095	982.12
480.313	981.12
480.532	997.12
480.751	1004.12
480.969	1003.12
481.188	992.12
481.406	1016.12
481.624	996.12
481.843	1004.12
482.061	1007.12
482.28	1007.12
482.498	997.12
482.717	998.12
482.935	1020.12
483.153	1024.12
483.372	999.12
483.59	1019.12
483.808	992.12
484.027	987.12
484.245	1015.12
484.463	1056.12
484.681	1050.12
484.9	1050.12
485.118	1036.12
485.336	1014.12
485.554	1029.12
485.772	1028.12
485.99	990.12
486.209	1032.12
486.427	1019.12
486.645	1041.12
486.863	1052.12
487.081	1036.12
487.299	1030.12
487.517	1078.12
487.735	1040.12
487.953	1050.12
488.171	1066.12
488.389	1044.12
488.607	1046.12
488.825	1031.12
489.043	1049.12
489.261	1059.12
489.479	1074.12
489.696	1042.12
489.914	1033.12
490.132	1036.12
490.35	1034.12
490.568	1043.12
490.786	1078.12
491.003	1063.12
491.221	1034.12
491.439	1040.12
491.657	1045.12
491.874	1070.12
492.092	1061.12
492.31	1074.12
492.527	1055.12
492.745	1024.12
492.963	1066.12
493.18	1086.12
493.398	1066.12
493.615	1083.12
493.833	1073.12
494.05	1082.12
494.268	1095.12
494.485	1104.12
494.703	1078.12
494.92	1099.12
495.138	1092.12
495.355	1083.12
495.573	1097.12
495.79	1089.12
496.008	1160.12
496.225	1117.12
496.442	1100.12
496.66	1108.12
496.877	1112.12
497.094	1129.12
497.312	1151.12
497.529	1122.12
497.746	1171.12
497.963	1182.12
498.181	1214.12
498.398	1217.12
498.615	1242.12
498.832	1247.12
499.049	1240.12
499.267	1276.12
499.484	1314.12
499.701	1308.12
499.918	1341.12
500.135	1404.12
500.352	1409.12
500.569	1434.12
500.786	1444.12
501.003	1432.12
501.22	1411.12
501.437	1372.12
501.654	1352.12
501.871	1298.12
502.088	1280.12
502.305	1276.12
502.522	1216.12
502.739	1222.12
502.956	1187.12
503.172	1166.12
503.389	1146.12
503.606	1138.12
503.823	1141.12
504.04	1144.12
504.256	1142.12
504.473	1122.12
504.69	1105.12
504.907	1069.12
505.123	1080.12
505.34	1059.12
505.557	1078.12
505.773	1039.12
505.99	1042.12
506.207	1027.12
506.423	1015.12
506.64	991.12
506.856	986.12
507.073	1002.12
507.289	975.12
507.506	935.12
507.722	982.12
507.939	957.12
508.155	985.12
508.372	939.12
508.588	946.12
508.805	953.12
509.021	927.12
509.238	935.12
509.454	930.12
509.67	912.12
509.887	956.12
510.103	904.12
510.319	889.12
510.536	933.12
510.752	858.12
510.968	892.12
511.184	906.12
511.401	941.12
511.617	895.12
511.833	872.12
512.049	891.12
512.265	914.12
512.481	889.12
512.698	914.12
512.914	872.12
513.13	880.12
513.346	884.12
513.562	910.12
513.778	910.12
513.994	893.12
514.21	906.12
514.426	865.12
514.642	916.12
514.858	866.12
515.074	897.12
515.29	914.12
515.506	887.12
515.721	912.12
515.937	901.12
516.153	904.12
516.369	920.12
516.585	947.12
516.801	920.12
517.016	931.12
517.232	916.12
517.448	920.12
517.664	961.12
517.879	912.12
518.095	930.12
518.311	922.12
518.527	910.12
518.742	913.12
518.958	908.12
519.173	890.12
519.389	906.12
519.605	902.12
519.82	901.12
520.036	908.12
520.251	899.12
520.467	874.12
520.682	856.12
520.898	870.12
521.113	863.12
521.329	858.12
521.544	865.12
521.76	868.12
521.975	854.12
522.19	816.12
522.406	873.12
522.621	852.12
522.836	851.12
523.052	840.12
523.267	808.12
523.482	841.12
523.698	843.12
523.913	822.12
524.128	834.12
524.343	824.12
524.559	838.12
524.774	793.12
524.989	831.12
525.204	836.12
525.419	796.12
525.634	814.12
525.849	791.12
526.064	801.12
526.28	817.12
526.495	843.12
526.71	812.12
526.925	793.12
527.14	790.12
527.355	806.12
527.57	790.12
527.785	790.12
527.999	809.12
528.214	830.12
528.429	794.12
528.644	821.12
528.859	809.12
529.074	789.12
529.289	775.12
529.503	811.12
529.718	813.12
529.933	828.12
530.148	783.12
530.363	764.12
530.577	794.12
530.792	785.12
531.007	771.12
531.221	778.12
531.436	788.12
531.651	778.12
531.865	792.12
532.08	794.12
532.295	791.12
532.509	749.12
532.724	791.12
532.938	776.12
533.153	779.12
533.367	754.12
533.582	766.12
533.796	774.12
534.011	756.12
534.225	775.12
534.44	752.12
534.654	754.12
534.868	749.12
535.083	764.12
535.297	734.12
535.511	761.12
535.726	769.12
535.94	765.12
536.154	748.12
536.369	755.12
536.583	759.12
536.797	744.12
537.011	728.12
537.225	728.12
537.44	728.12
537.654	734.12
537.868	768.12
538.082	728.12
538.296	734.12
538.51	758.12
538.724	724.12
538.938	758.12
539.153	717.12
539.367	728.12
539.581	729.12
539.795	698.12
540.009	725.12
540.222	731.12
540.436	742.12
540.65	702.12
540.864	689.12
541.078	732.12
541.292	708.12
541.506	719.12
541.72	708.12
541.934	733.12
542.147	716.12
542.361	706.12
542.575	717.12
542.789	734.12
543.002	696.12
543.216	705.12
543.43	715.12
543.644	697.12
543.857	697.12
544.071	730.12
544.285	731.12
544.498	691.12
544.712	712.12
544.925	694.12
545.139	687.12
545.352	704.12
545.566	699.12
545.779	701.12
545.993	708.12
546.206	682.12
546.42	686.12
546.633	701.12
546.847	698.12
547.06	716.12
547.274	692.12
547.487	698.12
547.7	708.12
547.914	700.12
548.127	701.12
548.34	706.12
548.554	689.12
548.767	704.12
548.98	683.12
549.193	677.12
549.407	681.12
549.62	709.12
549.833	700.12
550.046	690.12
550.259	676.12
550.473	668.12
550.686	674.12
550.899	685.12
551.112	681.12
551.325	708.12
551.538	694.12
551.751	669.12
551.964	692.12
552.177	679.12
552.39	668.12
552.603	673.12
552.816	678.12
553.029	675.12
553.242	702.12
553.455	677.12
553.667	676.12
553.88	686.12
554.093	660.12
554.306	656.12
554.519	651.12
554.732	666.12
554.944	654.12
555.157	640.12
555.37	670.12
555.583	653.12
555.795	635.12
556.008	649.12
556.221	642.12
556.433	624.12
556.646	626.12
556.859	619.12
557.071	626.12
557.284	618.12
557.496	596.12
557.709	602.12
557.921	624.12
558.134	606.12
558.346	590.12
558.559	603.12
558.771	605.12
558.984	608.12
559.196	594.12
559.409	589.12
559.621	611.12
559.833	585.12
560.046	588.12
560.258	592.12
560.47	620.12
560.683	603.12
560.895	590.12
561.107	607.12
561.32	601.12
561.532	592.12
561.744	613.12
561.956	578.12
562.168	604.12
562.381	605.12
562.593	598.12
562.805	602.12
563.017	600.12
563.229	581.12
563.441	586.12
563.653	600.12
563.865	590.12
564.077	583.12
564.289	600.12
564.501	610.12
564.713	578.12
564.925	614.12
565.137	623.12
565.349	616.12
565.561	601.12
565.773	632.12
565.985	630.12
566.197	615.12
566.408	646.12
566.62	631.12
566.832	635.12
567.044	637.12
567.255	655.12
567.467	654.12
567.679	647.12
567.891	635.12
568.102	633.12
568.314	622.12
568.526	622.12
568.737	618.12
568.949	611.12
569.161	618.12
569.372	576.12
569.584	572.12
569.795	586.12
570.007	587.12
570.218	562.12
570.43	569.12
570.641	546.12
570.853	539.12
571.064	550.12
571.276	536.12
571.487	545.12
571.698	537.12
571.91	522.12
572.121	519.12
572.333	516.12
572.544	501.12
572.755	520.12
572.966	516.12
573.178	481.12
573.389	493.12
573.6	513.12
573.811	489.12
574.023	482.12
574.234	491.12
574.445	484.12
574.656	468.12
574.867	468.12
575.078	479.12
575.289	466.12
575.501	483.12
575.712	463.12
575.923	474.12
576.134	477.12
576.345	473.12
576.556	470.12
576.767	479.12
576.978	474.12
577.188	472.12
577.399	450.12
577.61	448.12
577.821	476.12
578.032	452.12
578.243	448.12
578.454	443.12
578.665	438.12
578.875	436.12
579.086	451.12
579.297	445.12
579.508	440.12
579.718	439.12
579.929	453.12
580.14	437.12
580.35	441.12
580.561	435.12
580.772	416.12
580.982	429.12
581.193	425.12
581.403	423.12
581.614	429.12
581.825	420.12
582.035	406.12
582.246	411.12
582.456	417.12
582.667	416.12
582.877	416.12
583.087	405.12
583.298	425.12
583.508	420.12
583.719	411.12
583.929	429.12
584.139	410.12
584.35	401.12
584.56	410.12
584.77	424.12
584.981	404.12
585.191	415.12
585.401	376.12
585.611	393.12
585.821	405.12
586.032	410.12
586.242	416.12
586.452	413.12
586.662	405.12
586.872	386.12
587.082	412.12
587.292	397.12
587.502	402.12
587.713	406.12
587.923	404.12
588.133	396.12
588.343	394.12
588.553	392.12
588.762	388.12
588.972	408.12
589.182	426.12
589.392	397.12
589.602	389.12
589.812	412.12
590.022	388.12
590.232	389.12
590.441	379.12
590.651	390.12
590.861	408.12
591.071	391.12
591.281	389.12
591.49	396.12
591.7	377.12
591.91	391.12
592.119	394.12
592.329	385.12
592.539	396.12
592.748	391.12
592.958	376.12
593.167	376.12
593.377	374.12
593.587	390.12
593.796	384.12
594.006	392.12
594.215	390.12
594.424	388.12
594.634	393.12
594.843	364.12
595.053	362.12
595.262	364.12
595.472	369.12
595.681	376.12
595.89	363.12
596.1	380.12
596.309	376.12
596.518	373.12
596.727	370.12
596.937	356.12
597.146	361.12
597.355	356.12
597.564	356.12
597.774	338.12
597.983	338.12
598.192	331.12
598.401	336.12
598.61	354.12
598.819	345.12
599.028	320.12
599.237	333.12
599.446	345.12
599.655	342.12
599.864	340.12
600.073	344.12
600.282	337.12
600.491	331.12
600.7	339.12
600.909	335.12
601.118	332.12
601.327	340.12
601.536	345.12
601.745	337.12
601.953	326.12
602.162	345.12
602.371	340.12
602.58	317.12
602.789	331.12
602.997	314.12
603.206	319.12
603.415	334.12
603.623	340.12
603.832	325.12
604.041	335.12
604.249	334.12
604.458	320.12
604.666	328.12
604.875	324.12
605.084	326.12
605.292	311.12
605.501	313.12
605.709	313.12
605.918	315.12
606.126	307.12
606.334	314.12
606.543	316.12
606.751	306.12
606.96	289.12
607.168	297.12
607.376	302.12
607.585	308.12
607.793	320.12
608.001	336.12
608.21	309.12
608.418	331.12
608.626	293.12
608.834	300.12
609.043	306.12
609.251	300.12
609.459	301.12
609.667	311.12
609.875	293.12
610.083	310.12
610.291	289.12
610.499	312.12
610.707	307.12
610.916	294.12
611.124	291.12
611.332	292.12
611.54	296.12
611.748	288.12
611.955	292.12
612.163	297.12
612.371	283.12
612.579	289.12
612.787	291.12
612.995	296.12
613.203	305.12
613.411	296.12
613.618	308.12
613.826	308.12
614.034	280.12
614.242	276.12
614.449	289.12
614.657	288.12
614.865	271.12
615.072	293.12
615.28	282.12
615.488	291.12
615.695	276.12
615.903	276.12
616.111	277.12
616.318	275.12
616.526	277.12
616.733	274.12
616.941	278.12
617.148	288.12
617.356	289.12
617.563	293.12
617.771	290.12
617.978	277.12
618.185	279.12
618.393	284.12
618.6	284.12
618.807	268.12
619.015	290.12
619.222	274.12
619.429	287.12
619.637	271.12
619.844	279.12
620.051	258.12
620.258	256.12
620.466	266.12
620.673	259.12
620.88	260.12
621.087	278.12
621.294	255.12
621.501	253.12
621.708	264.12
621.915	270.12
622.122	265.12
622.329	241.12
622.536	264.12
622.743	264.12
622.95	248.12
623.157	284.12
623.364	267.12
623.571	273.12
623.778	274.12
623.985	268.12
624.192	263.12
624.399	256.12
624.606	256.12
624.812	255.12
625.019	254.12
625.226	245.12
625.433	252.12
625.639	251.12
625.846	244.12
626.053	253.12
626.259	240.12
626.466	261.12
626.673	236.12
626.879	238.12
627.086	241.12
627.293	251.12
627.499	240.12
627.706	248.12
627.912	226.12
628.119	241.12
628.325	248.12
628.532	249.12
628.738	245.12
628.945	236.12
629.151	250.12
629.357	240.12
629.564	240.12
629.77	250.12
629.976	240.12
630.183	231.12
630.389	229.12
630.595	220.12
630.802	225.12
631.008	235.12
631.214	230.12
631.42	232.12
631.627	249.12
631.833	229.12
632.039	232.12
632.245	230.12
632.451	216.12
632.657	217.12
632.863	210.12
633.069	236.12
633.275	217.12
633.481	216.12
633.688	234.12
633.893	218.12
634.099	225.12
634.305	221.12
634.511	205.12
634.717	231.12
634.923	224.12
635.129	224.12
635.335	212.12
635.541	211.12
635.747	221.12
635.952	233.12
636.158	234.12
636.364	229.12
636.57	232.12
636.775	223.12
636.981	216.12
637.187	199.12
637.392	226.12
637.598	227.12
637.804	226.12
638.009	215.12
638.215	221.12
638.421	197.12
638.626	208.12
638.832	214.12
639.037	214.12
639.243	227.12
639.448	221.12
639.654	217.12
639.859	223.12
640.065	210.12
640.27	216.12
640.475	212.12
640.681	208.12
640.886	217.12
641.091	221.12
641.297	228.12
641.502	204.12
641.707	206.12
641.913	213.12
642.118	226.12
642.323	204.12
642.528	217.12
642.733	209.12
642.939	210.12
643.144	220.12
643.349	200.12
643.554	209.12
643.759	198.12
643.964	220.12
644.169	219.12
644.374	224.12
644.579	206.12
644.784	199.12
644.989	201.12
645.194	211.12
645.399	203.12
645.604	204.12
645.809	214.12
646.014	219.12
646.219	199.12
646.423	199.12
646.628	190.12
646.833	214.12
647.038	209.12
647.243	213.12
647.447	217.12
647.652	221.12
647.857	202.12
648.062	199.12
648.266	193.12
648.471	205.12
648.676	224.12
648.88	209.12
649.085	211.12
649.289	196.12
649.494	214.12
649.698	218.12
649.903	219.12
650.107	203.12
650.312	203.12
650.516	202.12
650.721	213.12
650.925	201.12
651.13	200.12
651.334	212.12
651.539	190.12
651.743	200.12
651.947	222.12
652.152	198.12
652.356	194.12
652.56	189.12
652.764	194.12
652.969	200.12
653.173	185.12
653.377	190.12
653.581	194.12
653.785	186.12
653.99	195.12
654.194	198.12
654.398	187.12
654.602	192.12
654.806	185.12
655.01	177.12
655.214	190.12
655.418	178.12
655.622	178.12
655.826	180.12
656.03	192.12
656.234	203.12
656.438	196.12
656.642	191.12
656.846	192.12
657.049	181.12
657.253	158.12
657.457	164.12
657.661	166.12
657.865	148.12
658.068	151.12
658.272	154.12
658.476	152.12
658.68	125.12
658.883	140.12
659.087	128.12
659.291	137.12
659.494	124.12
659.698	114.12
659.901	112.12
660.105	116.12
660.309	106.12
660.512	104.12
660.716	101.12
660.919	100.12
661.123	110.12
661.326	100.12
661.53	92.12
661.733	97.12
661.936	113.12
662.14	98.12
662.343	92.12
662.546	85.12
662.75	98.12
662.953	109.12
663.156	92.12
663.36	77.12
663.563	97.12
663.766	93.12
663.969	83.12
664.173	91.12
664.376	89.12
664.579	93.12
664.782	85.12
664.985	97.12
665.188	100.12
665.391	84.12
665.594	85.12
665.797	78.12
666	73.12
666.203	87.12
666.406	69.12
666.609	84.12
666.812	88.12
667.015	97.12
667.218	85.12
667.421	98.12
667.624	82.12
667.827	90.12
668.03	74.12
668.232	82.12
668.435	87.12
668.638	84.12
668.841	83.12
669.043	77.12
669.246	78.12
669.449	73.12
669.651	76.12
669.854	81.12
670.057	79.12
670.259	84.12
670.462	87.12
670.665	76.12
670.867	83.12
671.07	96.12
671.272	85.12
671.475	90.12
671.677	76.12
671.88	84.12
672.082	86.12
672.284	81.12
672.487	82.12
672.689	94.12
672.892	94.12
