Data from Fe(NO3)3@0.025M.TitratingCurve.Agarose3%dH2O.NegLispCup.LampEnergy10.LIBS07252019_HRD10591_16-54-15-335.txt Node
Date: Thu Jul 25 16:54:15 EDT 2019
User: cochatt
Spectrometer: HR+D1059
Trigger mode: 1
Integration Time (sec): 1.000000E-1
Scans to average: 1
Electric dark correction enabled: true
Nonlinearity correction enabled: false
Boxcar width: 0
XAxis mode: Wavelengths
Number of Pixels in Spectrum: 2048
>>>>>Begin Spectral Data<<<<<
223.165	-24.94
223.4	-24.94
223.635	-24.94
223.869	-19.94
224.104	-26.94
224.338	-15.94
224.573	-4.94
224.808	-7.94
225.042	5.06
225.277	-2.94
225.511	-10.94
225.746	0.06
225.98	6.06
226.215	6.06
226.449	18.06
226.683	9.06
226.918	42.06
227.152	28.06
227.387	35.06
227.621	39.06
227.856	45.06
228.09	63.06
228.324	61.06
228.559	73.06
228.793	84.06
229.027	87.06
229.262	102.06
229.496	91.06
229.73	106.06
229.964	107.06
230.199	119.06
230.433	109.06
230.667	99.06
230.901	112.06
231.136	120.06
231.37	110.06
231.604	118.06
231.838	108.06
232.072	123.06
232.306	112.06
232.541	118.06
232.775	134.06
233.009	109.06
233.243	124.06
233.477	120.06
233.711	128.06
233.945	130.06
234.179	137.06
234.413	127.06
234.647	136.06
234.881	132.06
235.115	133.06
235.349	132.06
235.583	128.06
235.817	138.06
236.051	139.06
236.285	151.06
236.519	138.06
236.753	128.06
236.987	138.06
237.221	142.06
237.455	143.06
237.689	154.06
237.922	160.06
238.156	153.06
238.39	160.06
238.624	167.06
238.858	162.06
239.091	146.06
239.325	151.06
239.559	153.06
239.793	161.06
240.027	195.06
240.26	167.06
240.494	159.06
240.728	169.06
240.961	182.06
241.195	160.06
241.429	175.06
241.662	180.06
241.896	164.06
242.13	160.06
242.363	150.06
242.597	164.06
242.83	160.06
243.064	151.06
243.298	171.06
243.531	171.06
243.765	177.06
243.998	168.06
244.232	168.06
244.465	176.06
244.699	155.06
244.932	191.06
245.166	192.06
245.399	176.06
245.633	171.06
245.866	191.06
246.099	172.06
246.333	188.06
246.566	168.06
246.8	175.06
247.033	185.06
247.266	182.06
247.5	192.06
247.733	170.06
247.966	190.06
248.2	194.06
248.433	189.06
248.666	187.06
248.899	199.06
249.133	202.06
249.366	208.06
249.599	219.06
249.832	206.06
250.066	201.06
250.299	183.06
250.532	176.06
250.765	201.06
250.998	201.06
251.231	194.06
251.465	209.06
251.698	193.06
251.931	227.06
252.164	190.06
252.397	203.06
252.63	239.06
252.863	221.06
253.096	241.06
253.329	213.06
253.562	218.06
253.795	235.06
254.028	235.06
254.261	223.06
254.494	233.06
254.727	216.06
254.96	237.06
255.193	224.06
255.426	225.06
255.659	225.06
255.892	213.06
256.124	221.06
256.357	226.06
256.59	242.06
256.823	252.06
257.056	213.06
257.289	230.06
257.521	210.06
257.754	231.06
257.987	230.06
258.22	238.06
258.452	232.06
258.685	236.06
258.918	248.06
259.151	254.06
259.383	263.06
259.616	238.06
259.849	274.06
260.081	297.06
260.314	305.06
260.547	279.06
260.779	260.06
261.012	284.06
261.244	284.06
261.477	292.06
261.71	270.06
261.942	270.06
262.175	259.06
262.407	266.06
262.64	270.06
262.872	282.06
263.105	282.06
263.337	274.06
263.57	292.06
263.802	272.06
264.035	251.06
264.267	255.06
264.499	243.06
264.732	249.06
264.964	248.06
265.197	254.06
265.429	239.06
265.661	249.06
265.894	263.06
266.126	250.06
266.358	268.06
266.591	274.06
266.823	289.06
267.055	274.06
267.287	250.06
267.52	278.06
267.752	271.06
267.984	268.06
268.216	284.06
268.448	286.06
268.681	269.06
268.913	283.06
269.145	272.06
269.377	282.06
269.609	266.06
269.841	279.06
270.073	283.06
270.306	299.06
270.538	297.06
270.77	281.06
271.002	274.06
271.234	286.06
271.466	269.06
271.698	300.06
271.93	284.06
272.162	288.06
272.394	305.06
272.626	284.06
272.858	275.06
273.09	302.06
273.322	316.06
273.553	325.06
273.785	331.06
274.017	340.06
274.249	365.06
274.481	366.06
274.713	359.06
274.945	401.06
275.176	402.06
275.408	383.06
275.64	362.06
275.872	368.06
276.104	346.06
276.335	319.06
276.567	317.06
276.799	327.06
277.031	316.06
277.262	324.06
277.494	323.06
277.726	319.06
277.957	301.06
278.189	323.06
278.421	322.06
278.652	325.06
278.884	314.06
279.115	312.06
279.347	330.06
279.579	318.06
279.81	326.06
280.042	322.06
280.273	338.06
280.505	318.06
280.736	320.06
280.968	332.06
281.199	336.06
281.431	326.06
281.662	334.06
281.894	346.06
282.125	333.06
282.356	344.06
282.588	326.06
282.819	324.06
283.051	348.06
283.282	349.06
283.513	337.06
283.745	336.06
283.976	357.06
284.207	355.06
284.439	349.06
284.67	330.06
284.901	361.06
285.132	338.06
285.364	368.06
285.595	369.06
285.826	353.06
286.057	346.06
286.288	338.06
286.52	353.06
286.751	344.06
286.982	351.06
287.213	360.06
287.444	361.06
287.675	360.06
287.906	355.06
288.138	364.06
288.369	355.06
288.6	369.06
288.831	373.06
289.062	366.06
289.293	353.06
289.524	359.06
289.755	352.06
289.986	375.06
290.217	365.06
290.448	372.06
290.679	374.06
290.91	368.06
291.141	354.06
291.371	365.06
291.602	371.06
291.833	367.06
292.064	358.06
292.295	352.06
292.526	363.06
292.757	367.06
292.987	353.06
293.218	368.06
293.449	372.06
293.68	365.06
293.91	351.06
294.141	382.06
294.372	376.06
294.603	358.06
294.833	370.06
295.064	386.06
295.295	382.06
295.525	388.06
295.756	378.06
295.987	376.06
296.217	387.06
296.448	365.06
296.679	388.06
296.909	386.06
297.14	395.06
297.37	387.06
297.601	374.06
297.831	373.06
298.062	387.06
298.292	371.06
298.523	386.06
298.753	398.06
298.984	394.06
299.214	389.06
299.445	390.06
299.675	371.06
299.905	392.06
300.136	403.06
300.366	412.06
300.597	406.06
300.827	416.06
301.057	389.06
301.288	402.06
301.518	404.06
301.748	418.06
301.979	412.06
302.209	419.06
302.439	412.06
302.669	415.06
302.9	426.06
303.13	413.06
303.36	417.06
303.59	414.06
303.82	424.06
304.051	432.06
304.281	417.06
304.511	418.06
304.741	418.06
304.971	412.06
305.201	424.06
305.431	411.06
305.661	434.06
305.891	426.06
306.121	418.06
306.352	440.06
306.582	430.06
306.812	421.06
307.042	432.06
307.272	408.06
307.502	437.06
307.731	429.06
307.961	424.06
308.191	427.06
308.421	420.06
308.651	424.06
308.881	411.06
309.111	426.06
309.341	424.06
309.571	440.06
309.8	439.06
310.03	434.06
310.26	422.06
310.49	430.06
310.72	448.06
310.949	429.06
311.179	442.06
311.409	436.06
311.639	446.06
311.868	434.06
312.098	438.06
312.328	461.06
312.557	464.06
312.787	445.06
313.017	451.06
313.246	455.06
313.476	445.06
313.706	489.06
313.935	444.06
314.165	456.06
314.394	468.06
314.624	445.06
314.853	442.06
315.083	449.06
315.312	467.06
315.542	470.06
315.771	447.06
316.001	443.06
316.23	462.06
316.46	459.06
316.689	459.06
316.919	441.06
317.148	482.06
317.377	462.06
317.607	463.06
317.836	467.06
318.065	463.06
318.295	490.06
318.524	471.06
318.753	449.06
318.983	478.06
319.212	473.06
319.441	472.06
319.67	468.06
319.9	476.06
320.129	500.06
320.358	479.06
320.587	457.06
320.816	473.06
321.046	457.06
321.275	476.06
321.504	490.06
321.733	476.06
321.962	490.06
322.191	479.06
322.42	491.06
322.649	484.06
322.878	484.06
323.108	497.06
323.337	484.06
323.566	493.06
323.795	478.06
324.024	500.06
324.253	487.06
324.482	476.06
324.71	491.06
324.939	476.06
325.168	502.06
325.397	502.06
325.626	509.06
325.855	508.06
326.084	517.06
326.313	488.06
326.542	492.06
326.77	520.06
326.999	498.06
327.228	509.06
327.457	502.06
327.686	514.06
327.914	522.06
328.143	499.06
328.372	540.06
328.6	503.06
328.829	486.06
329.058	520.06
329.287	520.06
329.515	507.06
329.744	543.06
329.972	524.06
330.201	518.06
330.43	499.06
330.658	519.06
330.887	535.06
331.115	532.06
331.344	534.06
331.572	510.06
331.801	537.06
332.03	544.06
332.258	548.06
332.486	540.06
332.715	551.06
332.943	569.06
333.172	542.06
333.4	559.06
333.629	576.06
333.857	584.06
334.085	578.06
334.314	580.06
334.542	578.06
334.771	576.06
334.999	584.06
335.227	581.06
335.455	582.06
335.684	590.06
335.912	597.06
336.14	585.06
336.369	575.06
336.597	578.06
336.825	584.06
337.053	587.06
337.281	571.06
337.51	554.06
337.738	592.06
337.966	570.06
338.194	570.06
338.422	556.06
338.65	562.06
338.878	568.06
339.106	562.06
339.334	568.06
339.562	568.06
339.79	553.06
340.018	545.06
340.246	525.06
340.474	559.06
340.702	548.06
340.93	548.06
341.158	550.06
341.386	548.06
341.614	553.06
341.842	523.06
342.07	555.06
342.298	547.06
342.526	550.06
342.754	551.06
342.981	556.06
343.209	569.06
343.437	572.06
343.665	568.06
343.893	585.06
344.12	576.06
344.348	569.06
344.576	574.06
344.804	550.06
345.031	568.06
345.259	562.06
345.487	550.06
345.714	554.06
345.942	532.06
346.17	552.06
346.397	547.06
346.625	554.06
346.853	530.06
347.08	550.06
347.308	541.06
347.535	529.06
347.763	529.06
347.99	493.06
348.218	534.06
348.445	531.06
348.673	519.06
348.9	533.06
349.128	545.06
349.355	518.06
349.583	530.06
349.81	530.06
350.037	523.06
350.265	505.06
350.492	509.06
350.72	520.06
350.947	516.06
351.174	532.06
351.402	535.06
351.629	513.06
351.856	516.06
352.083	514.06
352.311	518.06
352.538	525.06
352.765	520.06
352.992	502.06
353.22	512.06
353.447	531.06
353.674	510.06
353.901	528.06
354.128	498.06
354.355	508.06
354.583	515.06
354.81	532.06
355.037	519.06
355.264	512.06
355.491	519.06
355.718	524.06
355.945	559.06
356.172	523.06
356.399	521.06
356.626	502.06
356.853	524.06
357.08	524.06
357.307	528.06
357.534	509.06
357.761	528.06
357.988	548.06
358.215	529.06
358.441	541.06
358.668	513.06
358.895	522.06
359.122	544.06
359.349	536.06
359.576	507.06
359.802	533.06
360.029	518.06
360.256	510.06
360.483	546.06
360.709	539.06
360.936	544.06
361.163	526.06
361.39	526.06
361.616	523.06
361.843	540.06
362.07	551.06
362.296	580.06
362.523	533.06
362.749	526.06
362.976	518.06
363.203	539.06
363.429	520.06
363.656	534.06
363.882	510.06
364.109	556.06
364.335	534.06
364.562	536.06
364.788	562.06
365.015	553.06
365.241	543.06
365.468	543.06
365.694	524.06
365.92	536.06
366.147	530.06
366.373	524.06
366.599	528.06
366.826	537.06
367.052	527.06
367.278	532.06
367.505	571.06
367.731	544.06
367.957	538.06
368.184	533.06
368.41	545.06
368.636	560.06
368.862	560.06
369.089	535.06
369.315	557.06
369.541	544.06
369.767	563.06
369.993	538.06
370.219	536.06
370.445	587.06
370.672	559.06
370.898	568.06
371.124	586.06
371.35	588.06
371.576	555.06
371.802	582.06
372.028	595.06
372.254	568.06
372.48	575.06
372.706	596.06
372.932	590.06
373.158	614.06
373.384	600.06
373.61	596.06
373.835	574.06
374.061	564.06
374.287	601.06
374.513	586.06
374.739	595.06
374.965	637.06
375.191	624.06
375.416	597.06
375.642	597.06
375.868	598.06
376.094	591.06
376.319	585.06
376.545	587.06
376.771	588.06
376.997	586.06
377.222	572.06
377.448	570.06
377.674	553.06
377.899	560.06
378.125	567.06
378.35	578.06
378.576	576.06
378.802	560.06
379.027	567.06
379.253	562.06
379.478	577.06
379.704	569.06
379.929	583.06
380.155	558.06
380.38	589.06
380.606	580.06
380.831	567.06
381.057	584.06
381.282	605.06
381.507	564.06
381.733	591.06
381.958	608.06
382.184	594.06
382.409	626.06
382.634	601.06
382.86	589.06
383.085	602.06
383.31	600.06
383.535	591.06
383.761	620.06
383.986	606.06
384.211	640.06
384.436	644.06
384.662	619.06
384.887	626.06
385.112	607.06
385.337	638.06
385.562	643.06
385.787	616.06
386.013	664.06
386.238	631.06
386.463	667.06
386.688	655.06
386.913	645.06
387.138	663.06
387.363	653.06
387.588	655.06
387.813	653.06
388.038	660.06
388.263	656.06
388.488	668.06
388.713	678.06
388.938	660.06
389.163	654.06
389.387	652.06
389.612	639.06
389.837	658.06
390.062	649.06
390.287	644.06
390.512	653.06
390.736	672.06
390.961	668.06
391.186	671.06
391.411	674.06
391.636	682.06
391.86	683.06
392.085	686.06
392.31	669.06
392.534	686.06
392.759	712.06
392.984	676.06
393.208	680.06
393.433	710.06
393.658	664.06
393.882	672.06
394.107	694.06
394.331	678.06
394.556	680.06
394.78	700.06
395.005	692.06
395.229	701.06
395.454	690.06
395.678	706.06
395.903	680.06
396.127	690.06
396.352	694.06
396.576	716.06
396.801	715.06
397.025	719.06
397.249	712.06
397.474	731.06
397.698	716.06
397.922	756.06
398.147	705.06
398.371	748.06
398.595	762.06
398.82	755.06
399.044	766.06
399.268	804.06
399.492	838.06
399.717	862.06
399.941	863.06
400.165	880.06
400.389	811.06
400.613	814.06
400.837	780.06
401.062	792.06
401.286	780.06
401.51	780.06
401.734	772.06
401.958	779.06
402.182	780.06
402.406	752.06
402.63	774.06
402.854	754.06
403.078	774.06
403.302	757.06
403.526	764.06
403.75	788.06
403.974	800.06
404.198	760.06
404.422	778.06
404.645	774.06
404.869	796.06
405.093	802.06
405.317	790.06
405.541	781.06
405.765	791.06
405.988	810.06
406.212	807.06
406.436	797.06
406.66	844.06
406.883	805.06
407.107	862.06
407.331	857.06
407.555	890.06
407.778	871.06
408.002	871.06
408.226	863.06
408.449	877.06
408.673	840.06
408.896	847.06
409.12	832.06
409.344	835.06
409.567	809.06
409.791	787.06
410.014	824.06
410.238	814.06
410.461	796.06
410.685	802.06
410.908	788.06
411.132	817.06
411.355	797.06
411.578	798.06
411.802	801.06
412.025	800.06
412.249	810.06
412.472	798.06
412.695	762.06
412.919	772.06
413.142	764.06
413.365	763.06
413.589	780.06
413.812	741.06
414.035	778.06
414.258	772.06
414.482	772.06
414.705	770.06
414.928	758.06
415.151	778.06
415.374	769.06
415.597	785.06
415.821	762.06
416.044	731.06
416.267	734.06
416.49	750.06
416.713	745.06
416.936	752.06
417.159	747.06
417.382	771.06
417.605	710.06
417.828	694.06
418.051	739.06
418.274	728.06
418.497	714.06
418.72	735.06
418.943	719.06
419.166	751.06
419.389	783.06
419.611	798.06
419.834	753.06
420.057	718.06
420.28	738.06
420.503	707.06
420.726	710.06
420.948	682.06
421.171	737.06
421.394	714.06
421.617	750.06
421.839	737.06
422.062	724.06
422.285	723.06
422.507	745.06
422.73	720.06
422.953	735.06
423.175	719.06
423.398	718.06
423.621	706.06
423.843	707.06
424.066	720.06
424.288	732.06
424.511	717.06
424.733	736.06
424.956	728.06
425.178	715.06
425.401	729.06
425.623	728.06
425.846	715.06
426.068	714.06
426.291	706.06
426.513	708.06
426.735	717.06
426.958	686.06
427.18	688.06
427.402	721.06
427.625	708.06
427.847	703.06
428.069	686.06
428.292	689.06
428.514	687.06
428.736	675.06
428.958	702.06
429.181	671.06
429.403	683.06
429.625	681.06
429.847	707.06
430.069	676.06
430.292	675.06
430.514	678.06
430.736	702.06
430.958	691.06
431.18	687.06
431.402	707.06
431.624	697.06
431.846	652.06
432.068	692.06
432.29	700.06
432.512	671.06
432.734	700.06
432.956	682.06
433.178	690.06
433.4	706.06
433.622	712.06
433.844	702.06
434.066	694.06
434.287	707.06
434.509	748.06
434.731	705.06
434.953	723.06
435.175	701.06
435.397	703.06
435.618	733.06
435.84	712.06
436.062	658.06
436.284	674.06
436.505	697.06
436.727	707.06
436.949	658.06
437.17	666.06
437.392	673.06
437.614	683.06
437.835	678.06
438.057	660.06
438.278	664.06
438.5	658.06
438.721	668.06
438.943	656.06
439.165	667.06
439.386	676.06
439.608	654.06
439.829	679.06
440.05	671.06
440.272	669.06
440.493	683.06
440.715	678.06
440.936	681.06
441.158	698.06
441.379	685.06
441.6	714.06
441.822	694.06
442.043	701.06
442.264	698.06
442.486	685.06
442.707	692.06
442.928	697.06
443.149	678.06
443.371	705.06
443.592	682.06
443.813	689.06
444.034	686.06
444.255	703.06
444.476	685.06
444.698	721.06
444.919	745.06
445.14	876.06
445.361	780.06
445.582	745.06
445.803	705.06
446.024	694.06
446.245	696.06
446.466	675.06
446.687	668.06
446.908	678.06
447.129	652.06
447.35	634.06
447.571	632.06
447.792	674.06
448.013	617.06
448.234	631.06
448.455	617.06
448.675	630.06
448.896	637.06
449.117	602.06
449.338	618.06
449.559	618.06
449.779	605.06
450	600.06
450.221	618.06
450.442	606.06
450.662	613.06
450.883	612.06
451.104	615.06
451.324	618.06
451.545	603.06
451.766	618.06
451.986	589.06
452.207	601.06
452.428	619.06
452.648	597.06
452.869	611.06
453.089	614.06
453.31	620.06
453.53	602.06
453.751	607.06
453.971	600.06
454.192	597.06
454.412	607.06
454.633	606.06
454.853	626.06
455.073	606.06
455.294	606.06
455.514	605.06
455.734	588.06
455.955	563.06
456.175	595.06
456.395	595.06
456.616	608.06
456.836	598.06
457.056	589.06
457.276	588.06
457.497	619.06
457.717	617.06
457.937	634.06
458.157	610.06
458.377	607.06
458.598	645.06
458.818	650.06
459.038	622.06
459.258	654.06
459.478	660.06
459.698	675.06
459.918	713.06
460.138	696.06
460.358	710.06
460.578	698.06
460.798	712.06
461.018	743.06
461.238	712.06
461.458	702.06
461.678	706.06
461.898	746.06
462.118	746.06
462.338	753.06
462.558	765.06
462.777	768.06
462.997	783.06
463.217	782.06
463.437	800.06
463.657	804.06
463.876	802.06
464.096	777.06
464.316	763.06
464.536	776.06
464.755	780.06
464.975	750.06
465.195	725.06
465.414	712.06
465.634	705.06
465.854	714.06
466.073	675.06
466.293	692.06
466.512	647.06
466.732	681.06
466.951	678.06
467.171	644.06
467.391	654.06
467.61	659.06
467.829	655.06
468.049	653.06
468.268	646.06
468.488	669.06
468.707	690.06
468.927	684.06
469.146	649.06
469.365	658.06
469.585	661.06
469.804	645.06
470.023	679.06
470.243	648.06
470.462	666.06
470.681	660.06
470.901	670.06
471.12	654.06
471.339	685.06
471.558	659.06
471.777	654.06
471.997	682.06
472.216	669.06
472.435	648.06
472.654	661.06
472.873	672.06
473.092	687.06
473.311	651.06
473.53	639.06
473.749	664.06
473.968	675.06
474.187	659.06
474.406	670.06
474.625	670.06
474.844	661.06
475.063	672.06
475.282	714.06
475.501	695.06
475.72	675.06
475.939	712.06
476.158	672.06
476.377	730.06
476.596	751.06
476.814	778.06
477.033	730.06
477.252	711.06
477.471	737.06
477.69	754.06
477.908	737.06
478.127	738.06
478.346	752.06
478.564	738.06
478.783	764.06
479.002	787.06
479.22	788.06
479.439	824.06
479.658	808.06
479.876	765.06
480.095	798.06
480.313	824.06
480.532	787.06
480.751	823.06
480.969	803.06
481.188	817.06
481.406	851.06
481.624	798.06
481.843	786.06
482.061	792.06
482.28	832.06
482.498	819.06
482.717	808.06
482.935	782.06
483.153	838.06
483.372	826.06
483.59	806.06
483.808	803.06
484.027	828.06
484.245	843.06
484.463	808.06
484.681	844.06
484.9	830.06
485.118	838.06
485.336	833.06
485.554	830.06
485.772	835.06
485.99	834.06
486.209	822.06
486.427	859.06
486.645	859.06
486.863	838.06
487.081	832.06
487.299	847.06
487.517	845.06
487.735	834.06
487.953	845.06
488.171	853.06
488.389	846.06
488.607	852.06
488.825	829.06
489.043	843.06
489.261	824.06
489.479	820.06
489.696	823.06
489.914	835.06
490.132	819.06
490.35	835.06
490.568	836.06
490.786	833.06
491.003	809.06
491.221	851.06
491.439	828.06
491.657	813.06
491.874	844.06
492.092	851.06
492.31	828.06
492.527	848.06
492.745	839.06
492.963	828.06
493.18	844.06
493.398	850.06
493.615	807.06
493.833	826.06
494.05	826.06
494.268	826.06
494.485	835.06
494.703	843.06
494.92	877.06
495.138	851.06
495.355	847.06
495.573	862.06
495.79	888.06
496.008	892.06
496.225	882.06
496.442	898.06
496.66	878.06
496.877	899.06
497.094	916.06
497.312	952.06
497.529	898.06
497.746	948.06
497.963	982.06
498.181	985.06
498.398	1025.06
498.615	1070.06
498.832	1099.06
499.049	1122.06
499.267	1139.06
499.484	1170.06
499.701	1237.06
499.918	1273.06
500.135	1352.06
500.352	1356.06
500.569	1375.06
500.786	1366.06
501.003	1359.06
501.22	1318.06
501.437	1264.06
501.654	1229.06
501.871	1168.06
502.088	1135.06
502.305	1117.06
502.522	1076.06
502.739	1055.06
502.956	986.06
503.172	946.06
503.389	954.06
503.606	940.06
503.823	922.06
504.04	920.06
504.256	902.06
504.473	950.06
504.69	902.06
504.907	880.06
505.123	873.06
505.34	822.06
505.557	826.06
505.773	816.06
505.99	808.06
506.207	810.06
506.423	783.06
506.64	796.06
506.856	762.06
507.073	754.06
507.289	752.06
507.506	784.06
507.722	778.06
507.939	762.06
508.155	753.06
508.372	753.06
508.588	740.06
508.805	706.06
509.021	723.06
509.238	743.06
509.454	712.06
509.67	698.06
509.887	699.06
510.103	714.06
510.319	713.06
510.536	695.06
510.752	696.06
510.968	709.06
511.184	673.06
511.401	711.06
511.617	701.06
511.833	667.06
512.049	690.06
512.265	688.06
512.481	707.06
512.698	662.06
512.914	703.06
513.13	674.06
513.346	690.06
513.562	694.06
513.778	683.06
513.994	683.06
514.21	680.06
514.426	696.06
514.642	685.06
514.858	691.06
515.074	688.06
515.29	698.06
515.506	679.06
515.721	707.06
515.937	738.06
516.153	706.06
516.369	712.06
516.585	711.06
516.801	749.06
517.016	748.06
517.232	748.06
517.448	787.06
517.664	779.06
517.879	772.06
518.095	748.06
518.311	725.06
518.527	726.06
518.742	738.06
518.958	740.06
519.173	731.06
519.389	712.06
519.605	721.06
519.82	722.06
520.036	746.06
520.251	733.06
520.467	686.06
520.682	648.06
520.898	666.06
521.113	653.06
521.329	643.06
521.544	678.06
521.76	684.06
521.975	671.06
522.19	666.06
522.406	642.06
522.621	662.06
522.836	669.06
523.052	650.06
523.267	637.06
523.482	628.06
523.698	625.06
523.913	643.06
524.128	632.06
524.343	634.06
524.559	614.06
524.774	622.06
524.989	643.06
525.204	644.06
525.419	622.06
525.634	620.06
525.849	618.06
526.064	638.06
526.28	637.06
526.495	629.06
526.71	588.06
526.925	644.06
527.14	599.06
527.355	592.06
527.57	599.06
527.785	603.06
527.999	603.06
528.214	591.06
528.429	610.06
528.644	600.06
528.859	602.06
529.074	602.06
529.289	608.06
529.503	608.06
529.718	612.06
529.933	600.06
530.148	578.06
530.363	586.06
530.577	609.06
530.792	583.06
531.007	604.06
531.221	595.06
531.436	601.06
531.651	617.06
531.865	582.06
532.08	585.06
532.295	600.06
532.509	604.06
532.724	590.06
532.938	587.06
533.153	597.06
533.367	592.06
533.582	591.06
533.796	591.06
534.011	604.06
534.225	578.06
534.44	590.06
534.654	590.06
534.868	581.06
535.083	572.06
535.297	554.06
535.511	564.06
535.726	575.06
535.94	588.06
536.154	571.06
536.369	569.06
536.583	572.06
536.797	585.06
537.011	572.06
537.225	578.06
537.44	566.06
537.654	564.06
537.868	554.06
538.082	554.06
538.296	535.06
538.51	556.06
538.724	559.06
538.938	547.06
539.153	559.06
539.367	543.06
539.581	560.06
539.795	536.06
540.009	567.06
540.222	556.06
540.436	549.06
540.65	538.06
540.864	534.06
541.078	533.06
541.292	551.06
541.506	550.06
541.72	541.06
541.934	541.06
542.147	550.06
542.361	562.06
542.575	554.06
542.789	548.06
543.002	562.06
543.216	531.06
543.43	545.06
543.644	535.06
543.857	559.06
544.071	537.06
544.285	536.06
544.498	548.06
544.712	514.06
544.925	537.06
545.139	544.06
545.352	528.06
545.566	560.06
545.779	539.06
545.993	556.06
546.206	558.06
546.42	563.06
546.633	508.06
546.847	529.06
547.06	536.06
547.274	554.06
547.487	547.06
547.7	545.06
547.914	543.06
548.127	562.06
548.34	539.06
548.554	563.06
548.767	548.06
548.98	543.06
549.193	562.06
549.407	550.06
549.62	561.06
549.833	545.06
550.046	561.06
550.259	558.06
550.473	533.06
550.686	554.06
550.899	547.06
551.112	558.06
551.325	536.06
551.538	536.06
551.751	569.06
551.964	516.06
552.177	538.06
552.39	558.06
552.603	553.06
552.816	548.06
553.029	524.06
553.242	539.06
553.455	550.06
553.667	528.06
553.88	539.06
554.093	544.06
554.306	497.06
554.519	520.06
554.732	520.06
554.944	506.06
555.157	524.06
555.37	520.06
555.583	519.06
555.795	515.06
556.008	510.06
556.221	518.06
556.433	489.06
556.646	469.06
556.859	484.06
557.071	482.06
557.284	474.06
557.496	469.06
557.709	474.06
557.921	472.06
558.134	479.06
558.346	480.06
558.559	482.06
558.771	486.06
558.984	473.06
559.196	466.06
559.409	456.06
559.621	461.06
559.833	480.06
560.046	447.06
560.258	459.06
560.47	458.06
560.683	474.06
560.895	458.06
561.107	446.06
561.32	480.06
561.532	455.06
561.744	446.06
561.956	498.06
562.168	459.06
562.381	479.06
562.593	463.06
562.805	461.06
563.017	450.06
563.229	487.06
563.441	477.06
563.653	479.06
563.865	464.06
564.077	472.06
564.289	466.06
564.501	497.06
564.713	493.06
564.925	491.06
565.137	476.06
565.349	522.06
565.561	530.06
565.773	498.06
565.985	536.06
566.197	530.06
566.408	570.06
566.62	572.06
566.832	564.06
567.044	561.06
567.255	576.06
567.467	586.06
567.679	566.06
567.891	594.06
568.102	590.06
568.314	574.06
568.526	534.06
568.737	547.06
568.949	525.06
569.161	503.06
569.372	505.06
569.584	477.06
569.795	486.06
570.007	470.06
570.218	474.06
570.43	440.06
570.641	454.06
570.853	452.06
571.064	443.06
571.276	452.06
571.487	445.06
571.698	433.06
571.91	417.06
572.121	419.06
572.333	408.06
572.544	417.06
572.755	407.06
572.966	394.06
573.178	389.06
573.389	392.06
573.6	381.06
573.811	406.06
574.023	398.06
574.234	394.06
574.445	383.06
574.656	390.06
574.867	386.06
575.078	392.06
575.289	386.06
575.501	392.06
575.712	382.06
575.923	375.06
576.134	369.06
576.345	372.06
576.556	369.06
576.767	378.06
576.978	388.06
577.188	363.06
577.399	378.06
577.61	372.06
577.821	351.06
578.032	353.06
578.243	362.06
578.454	351.06
578.665	374.06
578.875	338.06
579.086	340.06
579.297	355.06
579.508	374.06
579.718	351.06
579.929	353.06
580.14	343.06
580.35	359.06
580.561	320.06
580.772	362.06
580.982	345.06
581.193	350.06
581.403	335.06
581.614	335.06
581.825	327.06
582.035	328.06
582.246	346.06
582.456	333.06
582.667	327.06
582.877	342.06
583.087	316.06
583.298	333.06
583.508	332.06
583.719	344.06
583.929	327.06
584.139	337.06
584.35	351.06
584.56	330.06
584.77	330.06
584.981	330.06
585.191	343.06
585.401	336.06
585.611	308.06
585.821	319.06
586.032	342.06
586.242	326.06
586.452	314.06
586.662	332.06
586.872	323.06
587.082	341.06
587.292	324.06
587.502	343.06
587.713	313.06
587.923	314.06
588.133	314.06
588.343	327.06
588.553	320.06
588.762	319.06
588.972	343.06
589.182	332.06
589.392	363.06
589.602	311.06
589.812	338.06
590.022	332.06
590.232	329.06
590.441	321.06
590.651	328.06
590.861	331.06
591.071	319.06
591.281	314.06
591.49	318.06
591.7	318.06
591.91	303.06
592.119	310.06
592.329	326.06
592.539	353.06
592.748	350.06
592.958	340.06
593.167	335.06
593.377	320.06
593.587	335.06
593.796	338.06
594.006	333.06
594.215	326.06
594.424	335.06
594.634	333.06
594.843	333.06
595.053	315.06
595.262	328.06
595.472	320.06
595.681	303.06
595.89	322.06
596.1	307.06
596.309	305.06
596.518	290.06
596.727	302.06
596.937	299.06
597.146	296.06
597.355	303.06
597.564	310.06
597.774	292.06
597.983	291.06
598.192	299.06
598.401	279.06
598.61	283.06
598.819	276.06
599.028	284.06
599.237	284.06
599.446	274.06
599.655	280.06
599.864	286.06
600.073	282.06
600.282	297.06
600.491	258.06
600.7	262.06
600.909	291.06
601.118	273.06
601.327	291.06
601.536	259.06
601.745	264.06
601.953	266.06
602.162	251.06
602.371	282.06
602.58	277.06
602.789	263.06
602.997	269.06
603.206	283.06
603.415	271.06
603.623	266.06
603.832	279.06
604.041	270.06
604.249	255.06
604.458	248.06
604.666	263.06
604.875	259.06
605.084	252.06
605.292	255.06
605.501	274.06
605.709	243.06
605.918	248.06
606.126	270.06
606.334	259.06
606.543	250.06
606.751	262.06
606.96	256.06
607.168	256.06
607.376	263.06
607.585	255.06
607.793	257.06
608.001	259.06
608.21	272.06
608.418	247.06
608.626	251.06
608.834	243.06
609.043	274.06
609.251	256.06
609.459	249.06
609.667	242.06
609.875	248.06
610.083	237.06
610.291	240.06
610.499	250.06
610.707	241.06
610.916	248.06
611.124	243.06
611.332	276.06
611.54	242.06
611.748	240.06
611.955	250.06
612.163	266.06
612.371	278.06
612.579	228.06
612.787	242.06
612.995	238.06
613.203	254.06
613.411	250.06
613.618	252.06
613.826	259.06
614.034	236.06
614.242	242.06
614.449	241.06
614.657	241.06
614.865	247.06
615.072	260.06
615.28	239.06
615.488	240.06
615.695	226.06
615.903	233.06
616.111	230.06
616.318	240.06
616.526	236.06
616.733	262.06
616.941	251.06
617.148	235.06
617.356	255.06
617.563	234.06
617.771	248.06
617.978	231.06
618.185	231.06
618.393	228.06
618.6	232.06
618.807	257.06
619.015	236.06
619.222	224.06
619.429	247.06
619.637	242.06
619.844	225.06
620.051	234.06
620.258	235.06
620.466	216.06
620.673	222.06
620.88	229.06
621.087	211.06
621.294	207.06
621.501	224.06
621.708	237.06
621.915	241.06
622.122	223.06
622.329	223.06
622.536	227.06
622.743	226.06
622.95	229.06
623.157	214.06
623.364	231.06
623.571	212.06
623.778	210.06
623.985	214.06
624.192	223.06
624.399	224.06
624.606	228.06
624.812	229.06
625.019	228.06
625.226	208.06
625.433	221.06
625.639	211.06
625.846	221.06
626.053	208.06
626.259	204.06
626.466	204.06
626.673	190.06
626.879	199.06
627.086	200.06
627.293	211.06
627.499	212.06
627.706	217.06
627.912	209.06
628.119	231.06
628.325	203.06
628.532	201.06
628.738	219.06
628.945	210.06
629.151	215.06
629.357	208.06
629.564	199.06
629.77	204.06
629.976	191.06
630.183	203.06
630.389	200.06
630.595	208.06
630.802	193.06
631.008	188.06
631.214	204.06
631.42	201.06
631.627	207.06
631.833	210.06
632.039	193.06
632.245	207.06
632.451	198.06
632.657	207.06
632.863	197.06
633.069	201.06
633.275	204.06
633.481	182.06
633.688	192.06
633.893	203.06
634.099	210.06
634.305	204.06
634.511	195.06
634.717	190.06
634.923	180.06
635.129	199.06
635.335	192.06
635.541	180.06
635.747	189.06
635.952	197.06
636.158	188.06
636.364	206.06
636.57	196.06
636.775	194.06
636.981	206.06
637.187	193.06
637.392	198.06
637.598	190.06
637.804	183.06
638.009	190.06
638.215	189.06
638.421	189.06
638.626	184.06
638.832	197.06
639.037	186.06
639.243	195.06
639.448	194.06
639.654	201.06
639.859	179.06
640.065	183.06
640.27	192.06
640.475	187.06
640.681	201.06
640.886	171.06
641.091	187.06
641.297	191.06
641.502	204.06
641.707	193.06
641.913	198.06
642.118	196.06
642.323	202.06
642.528	192.06
642.733	180.06
642.939	210.06
643.144	192.06
643.349	195.06
643.554	200.06
643.759	186.06
643.964	186.06
644.169	178.06
644.374	189.06
644.579	177.06
644.784	171.06
644.989	185.06
645.194	190.06
645.399	186.06
645.604	199.06
645.809	194.06
646.014	188.06
646.219	183.06
646.423	194.06
646.628	202.06
646.833	201.06
647.038	190.06
647.243	201.06
647.447	183.06
647.652	191.06
647.857	186.06
648.062	210.06
648.266	176.06
648.471	200.06
648.676	201.06
648.88	200.06
649.085	218.06
649.289	196.06
649.494	206.06
649.698	191.06
649.903	196.06
650.107	210.06
650.312	188.06
650.516	203.06
650.721	200.06
650.925	179.06
651.13	198.06
651.334	182.06
651.539	189.06
651.743	197.06
651.947	211.06
652.152	194.06
652.356	200.06
652.56	195.06
652.764	171.06
652.969	207.06
653.173	198.06
653.377	206.06
653.581	189.06
653.785	190.06
653.99	201.06
654.194	208.06
654.398	190.06
654.602	187.06
654.806	190.06
655.01	190.06
655.214	206.06
655.418	195.06
655.622	206.06
655.826	199.06
656.03	212.06
656.234	218.06
656.438	239.06
656.642	243.06
656.846	219.06
657.049	190.06
657.253	184.06
657.457	173.06
657.661	168.06
657.865	172.06
658.068	151.06
658.272	159.06
658.476	146.06
658.68	148.06
658.883	132.06
659.087	140.06
659.291	122.06
659.494	128.06
659.698	130.06
659.901	130.06
660.105	113.06
660.309	106.06
660.512	111.06
660.716	115.06
660.919	103.06
661.123	106.06
661.326	111.06
661.53	108.06
661.733	104.06
661.936	103.06
662.14	92.06
662.343	93.06
662.546	90.06
662.75	102.06
662.953	95.06
663.156	98.06
663.36	90.06
663.563	99.06
663.766	102.06
663.969	115.06
664.173	94.06
664.376	94.06
664.579	90.06
664.782	93.06
664.985	103.06
665.188	81.06
665.391	83.06
665.594	81.06
665.797	68.06
666	97.06
666.203	84.06
666.406	105.06
666.609	90.06
666.812	76.06
667.015	75.06
667.218	96.06
667.421	86.06
667.624	91.06
667.827	97.06
668.03	94.06
668.232	79.06
668.435	95.06
668.638	98.06
668.841	105.06
669.043	86.06
669.246	84.06
669.449	78.06
669.651	92.06
669.854	99.06
670.057	92.06
670.259	73.06
670.462	85.06
670.665	70.06
670.867	86.06
671.07	90.06
671.272	87.06
671.475	70.06
671.677	101.06
671.88	78.06
672.082	103.06
672.284	84.06
672.487	87.06
672.689	96.06
672.892	88.06
