Data from Fe(NO3)3@0.0125M.TitratingCurve.Agarose3%dH2O.NegLispCup.LampEnergy10.LIBS07252019_HRD10591_17-00-36-337.txt Node
Date: Thu Jul 25 17:00:36 EDT 2019
User: cochatt
Spectrometer: HR+D1059
Trigger mode: 1
Integration Time (sec): 1.000000E-1
Scans to average: 1
Electric dark correction enabled: true
Nonlinearity correction enabled: false
Boxcar width: 0
XAxis mode: Wavelengths
Number of Pixels in Spectrum: 2048
>>>>>Begin Spectral Data<<<<<
223.165	-12.25
223.4	-12.25
223.635	-12.25
223.869	-28.25
224.104	-11.25
224.338	-12.25
224.573	-24.25
224.808	-3.25
225.042	2.75
225.277	-12.25
225.511	-11.25
225.746	0.75
225.98	2.75
226.215	13.75
226.449	17.75
226.683	17.75
226.918	24.75
227.152	34.75
227.387	30.75
227.621	44.75
227.856	42.75
228.09	45.75
228.324	53.75
228.559	58.75
228.793	66.75
229.027	86.75
229.262	88.75
229.496	103.75
229.73	115.75
229.964	93.75
230.199	102.75
230.433	97.75
230.667	109.75
230.901	90.75
231.136	93.75
231.37	85.75
231.604	98.75
231.838	111.75
232.072	115.75
232.306	104.75
232.541	110.75
232.775	112.75
233.009	120.75
233.243	118.75
233.477	115.75
233.711	105.75
233.945	105.75
234.179	117.75
234.413	109.75
234.647	105.75
234.881	118.75
235.115	118.75
235.349	103.75
235.583	112.75
235.817	105.75
236.051	111.75
236.285	126.75
236.519	110.75
236.753	105.75
236.987	123.75
237.221	104.75
237.455	116.75
237.689	116.75
237.922	102.75
238.156	111.75
238.39	110.75
238.624	118.75
238.858	126.75
239.091	114.75
239.325	111.75
239.559	106.75
239.793	114.75
240.027	119.75
240.26	107.75
240.494	118.75
240.728	125.75
240.961	123.75
241.195	124.75
241.429	132.75
241.662	105.75
241.896	113.75
242.13	125.75
242.363	123.75
242.597	126.75
242.83	130.75
243.064	125.75
243.298	126.75
243.531	124.75
243.765	115.75
243.998	132.75
244.232	138.75
244.465	145.75
244.699	128.75
244.932	119.75
245.166	136.75
245.399	137.75
245.633	140.75
245.866	145.75
246.099	137.75
246.333	138.75
246.566	141.75
246.8	142.75
247.033	135.75
247.266	136.75
247.5	127.75
247.733	136.75
247.966	138.75
248.2	166.75
248.433	145.75
248.666	152.75
248.899	150.75
249.133	157.75
249.366	137.75
249.599	160.75
249.832	149.75
250.066	164.75
250.299	160.75
250.532	158.75
250.765	153.75
250.998	165.75
251.231	153.75
251.465	163.75
251.698	165.75
251.931	154.75
252.164	154.75
252.397	156.75
252.63	163.75
252.863	162.75
253.096	164.75
253.329	169.75
253.562	148.75
253.795	150.75
254.028	162.75
254.261	182.75
254.494	162.75
254.727	154.75
254.96	162.75
255.193	149.75
255.426	164.75
255.659	166.75
255.892	171.75
256.124	175.75
256.357	159.75
256.59	170.75
256.823	161.75
257.056	170.75
257.289	170.75
257.521	164.75
257.754	170.75
257.987	174.75
258.22	158.75
258.452	174.75
258.685	163.75
258.918	172.75
259.151	181.75
259.383	184.75
259.616	192.75
259.849	180.75
260.081	175.75
260.314	198.75
260.547	175.75
260.779	187.75
261.012	187.75
261.244	187.75
261.477	208.75
261.71	178.75
261.942	164.75
262.175	174.75
262.407	190.75
262.64	193.75
262.872	186.75
263.105	184.75
263.337	196.75
263.57	195.75
263.802	182.75
264.035	186.75
264.267	184.75
264.499	182.75
264.732	194.75
264.964	188.75
265.197	192.75
265.429	167.75
265.661	200.75
265.894	204.75
266.126	198.75
266.358	202.75
266.591	198.75
266.823	186.75
267.055	192.75
267.287	199.75
267.52	189.75
267.752	198.75
267.984	194.75
268.216	186.75
268.448	202.75
268.681	211.75
268.913	188.75
269.145	207.75
269.377	193.75
269.609	212.75
269.841	204.75
270.073	185.75
270.306	219.75
270.538	227.75
270.77	200.75
271.002	194.75
271.234	208.75
271.466	222.75
271.698	211.75
271.93	221.75
272.162	212.75
272.394	198.75
272.626	214.75
272.858	224.75
273.09	230.75
273.322	226.75
273.553	227.75
273.785	240.75
274.017	226.75
274.249	240.75
274.481	231.75
274.713	233.75
274.945	220.75
275.176	206.75
275.408	236.75
275.64	244.75
275.872	231.75
276.104	216.75
276.335	214.75
276.567	227.75
276.799	234.75
277.031	239.75
277.262	227.75
277.494	240.75
277.726	228.75
277.957	229.75
278.189	220.75
278.421	227.75
278.652	233.75
278.884	227.75
279.115	223.75
279.347	236.75
279.579	245.75
279.81	230.75
280.042	222.75
280.273	220.75
280.505	261.75
280.736	227.75
280.968	236.75
281.199	254.75
281.431	233.75
281.662	257.75
281.894	254.75
282.125	266.75
282.356	266.75
282.588	252.75
282.819	246.75
283.051	234.75
283.282	248.75
283.513	254.75
283.745	264.75
283.976	247.75
284.207	245.75
284.439	238.75
284.67	238.75
284.901	259.75
285.132	253.75
285.364	254.75
285.595	261.75
285.826	261.75
286.057	246.75
286.288	234.75
286.52	258.75
286.751	263.75
286.982	269.75
287.213	286.75
287.444	279.75
287.675	263.75
287.906	262.75
288.138	268.75
288.369	256.75
288.6	273.75
288.831	276.75
289.062	284.75
289.293	265.75
289.524	267.75
289.755	261.75
289.986	269.75
290.217	263.75
290.448	268.75
290.679	243.75
290.91	268.75
291.141	271.75
291.371	281.75
291.602	260.75
291.833	261.75
292.064	278.75
292.295	263.75
292.526	268.75
292.757	264.75
292.987	268.75
293.218	287.75
293.449	277.75
293.68	262.75
293.91	272.75
294.141	287.75
294.372	261.75
294.603	277.75
294.833	280.75
295.064	281.75
295.295	273.75
295.525	280.75
295.756	284.75
295.987	291.75
296.217	279.75
296.448	276.75
296.679	277.75
296.909	283.75
297.14	272.75
297.37	286.75
297.601	282.75
297.831	287.75
298.062	291.75
298.292	301.75
298.523	309.75
298.753	298.75
298.984	295.75
299.214	296.75
299.445	320.75
299.675	309.75
299.905	292.75
300.136	285.75
300.366	304.75
300.597	309.75
300.827	311.75
301.057	311.75
301.288	305.75
301.518	314.75
301.748	317.75
301.979	330.75
302.209	317.75
302.439	318.75
302.669	304.75
302.9	306.75
303.13	297.75
303.36	304.75
303.59	315.75
303.82	303.75
304.051	306.75
304.281	335.75
304.511	316.75
304.741	312.75
304.971	323.75
305.201	314.75
305.431	306.75
305.661	320.75
305.891	313.75
306.121	325.75
306.352	319.75
306.582	315.75
306.812	311.75
307.042	311.75
307.272	337.75
307.502	318.75
307.731	343.75
307.961	313.75
308.191	313.75
308.421	296.75
308.651	331.75
308.881	332.75
309.111	329.75
309.341	326.75
309.571	312.75
309.8	302.75
310.03	322.75
310.26	336.75
310.49	322.75
310.72	317.75
310.949	330.75
311.179	317.75
311.409	322.75
311.639	326.75
311.868	329.75
312.098	334.75
312.328	317.75
312.557	321.75
312.787	326.75
313.017	351.75
313.246	336.75
313.476	336.75
313.706	333.75
313.935	334.75
314.165	349.75
314.394	344.75
314.624	350.75
314.853	325.75
315.083	343.75
315.312	342.75
315.542	348.75
315.771	345.75
316.001	342.75
316.23	342.75
316.46	336.75
316.689	340.75
316.919	333.75
317.148	331.75
317.377	368.75
317.607	359.75
317.836	346.75
318.065	346.75
318.295	346.75
318.524	351.75
318.753	348.75
318.983	330.75
319.212	346.75
319.441	343.75
319.67	346.75
319.9	357.75
320.129	339.75
320.358	350.75
320.587	354.75
320.816	359.75
321.046	367.75
321.275	358.75
321.504	354.75
321.733	355.75
321.962	355.75
322.191	351.75
322.42	358.75
322.649	350.75
322.878	350.75
323.108	360.75
323.337	359.75
323.566	373.75
323.795	348.75
324.024	355.75
324.253	361.75
324.482	356.75
324.71	362.75
324.939	379.75
325.168	363.75
325.397	375.75
325.626	375.75
325.855	373.75
326.084	371.75
326.313	365.75
326.542	374.75
326.77	385.75
326.999	354.75
327.228	364.75
327.457	367.75
327.686	369.75
327.914	379.75
328.143	376.75
328.372	380.75
328.6	386.75
328.829	379.75
329.058	376.75
329.287	375.75
329.515	371.75
329.744	383.75
329.972	384.75
330.201	379.75
330.43	380.75
330.658	390.75
330.887	379.75
331.115	387.75
331.344	396.75
331.572	403.75
331.801	398.75
332.03	367.75
332.258	406.75
332.486	408.75
332.715	407.75
332.943	413.75
333.172	416.75
333.4	430.75
333.629	399.75
333.857	429.75
334.085	426.75
334.314	452.75
334.542	428.75
334.771	430.75
334.999	414.75
335.227	414.75
335.455	435.75
335.684	422.75
335.912	426.75
336.14	430.75
336.369	444.75
336.597	432.75
336.825	426.75
337.053	440.75
337.281	418.75
337.51	404.75
337.738	418.75
337.966	407.75
338.194	414.75
338.422	408.75
338.65	421.75
338.878	413.75
339.106	420.75
339.334	414.75
339.562	418.75
339.79	394.75
340.018	398.75
340.246	403.75
340.474	413.75
340.702	396.75
340.93	419.75
341.158	414.75
341.386	400.75
341.614	401.75
341.842	402.75
342.07	383.75
342.298	403.75
342.526	384.75
342.754	400.75
342.981	406.75
343.209	409.75
343.437	414.75
343.665	418.75
343.893	439.75
344.12	437.75
344.348	453.75
344.576	413.75
344.804	403.75
345.031	410.75
345.259	431.75
345.487	409.75
345.714	402.75
345.942	409.75
346.17	412.75
346.397	405.75
346.625	401.75
346.853	394.75
347.08	394.75
347.308	392.75
347.535	388.75
347.763	395.75
347.99	379.75
348.218	387.75
348.445	395.75
348.673	383.75
348.9	389.75
349.128	394.75
349.355	392.75
349.583	377.75
349.81	400.75
350.037	403.75
350.265	406.75
350.492	384.75
350.72	374.75
350.947	391.75
351.174	390.75
351.402	364.75
351.629	362.75
351.856	386.75
352.083	387.75
352.311	411.75
352.538	380.75
352.765	381.75
352.992	393.75
353.22	382.75
353.447	380.75
353.674	376.75
353.901	378.75
354.128	383.75
354.355	390.75
354.583	376.75
354.81	389.75
355.037	380.75
355.264	376.75
355.491	394.75
355.718	385.75
355.945	389.75
356.172	389.75
356.399	393.75
356.626	385.75
356.853	392.75
357.08	397.75
357.307	388.75
357.534	399.75
357.761	393.75
357.988	381.75
358.215	391.75
358.441	410.75
358.668	396.75
358.895	382.75
359.122	398.75
359.349	401.75
359.576	408.75
359.802	381.75
360.029	379.75
360.256	399.75
360.483	392.75
360.709	374.75
360.936	392.75
361.163	406.75
361.39	397.75
361.616	384.75
361.843	400.75
362.07	379.75
362.296	380.75
362.523	401.75
362.749	386.75
362.976	412.75
363.203	413.75
363.429	391.75
363.656	406.75
363.882	402.75
364.109	415.75
364.335	392.75
364.562	411.75
364.788	394.75
365.015	383.75
365.241	398.75
365.468	403.75
365.694	412.75
365.92	391.75
366.147	421.75
366.373	406.75
366.599	420.75
366.826	391.75
367.052	396.75
367.278	416.75
367.505	398.75
367.731	401.75
367.957	420.75
368.184	418.75
368.41	402.75
368.636	415.75
368.862	404.75
369.089	423.75
369.315	391.75
369.541	418.75
369.767	411.75
369.993	406.75
370.219	425.75
370.445	435.75
370.672	418.75
370.898	418.75
371.124	407.75
371.35	422.75
371.576	414.75
371.802	417.75
372.028	431.75
372.254	422.75
372.48	443.75
372.706	398.75
372.932	434.75
373.158	443.75
373.384	432.75
373.61	445.75
373.835	430.75
374.061	434.75
374.287	431.75
374.513	447.75
374.739	458.75
374.965	445.75
375.191	452.75
375.416	464.75
375.642	451.75
375.868	454.75
376.094	437.75
376.319	409.75
376.545	454.75
376.771	423.75
376.997	461.75
377.222	419.75
377.448	434.75
377.674	434.75
377.899	419.75
378.125	449.75
378.35	418.75
378.576	407.75
378.802	449.75
379.027	436.75
379.253	426.75
379.478	424.75
379.704	414.75
379.929	411.75
380.155	447.75
380.38	431.75
380.606	414.75
380.831	436.75
381.057	418.75
381.282	432.75
381.507	440.75
381.733	438.75
381.958	439.75
382.184	456.75
382.409	445.75
382.634	436.75
382.86	435.75
383.085	465.75
383.31	433.75
383.535	438.75
383.761	422.75
383.986	438.75
384.211	469.75
384.436	470.75
384.662	468.75
384.887	482.75
385.112	456.75
385.337	468.75
385.562	479.75
385.787	483.75
386.013	520.75
386.238	488.75
386.463	477.75
386.688	488.75
386.913	485.75
387.138	479.75
387.363	486.75
387.588	482.75
387.813	513.75
388.038	464.75
388.263	507.75
388.488	500.75
388.713	485.75
388.938	478.75
389.163	478.75
389.387	491.75
389.612	471.75
389.837	480.75
390.062	508.75
390.287	479.75
390.512	480.75
390.736	506.75
390.961	498.75
391.186	516.75
391.411	512.75
391.636	507.75
391.86	522.75
392.085	504.75
392.31	529.75
392.534	521.75
392.759	522.75
392.984	534.75
393.208	545.75
393.433	529.75
393.658	544.75
393.882	510.75
394.107	529.75
394.331	537.75
394.556	521.75
394.78	521.75
395.005	517.75
395.229	522.75
395.454	536.75
395.678	520.75
395.903	550.75
396.127	538.75
396.352	537.75
396.576	500.75
396.801	518.75
397.025	567.75
397.249	561.75
397.474	551.75
397.698	542.75
397.922	541.75
398.147	545.75
398.371	548.75
398.595	555.75
398.82	589.75
399.044	612.75
399.268	619.75
399.492	651.75
399.717	652.75
399.941	674.75
400.165	651.75
400.389	654.75
400.613	620.75
400.837	596.75
401.062	588.75
401.286	574.75
401.51	593.75
401.734	579.75
401.958	596.75
402.182	608.75
402.406	579.75
402.63	596.75
402.854	578.75
403.078	564.75
403.302	601.75
403.526	612.75
403.75	594.75
403.974	614.75
404.198	587.75
404.422	602.75
404.645	591.75
404.869	608.75
405.093	620.75
405.317	585.75
405.541	598.75
405.765	587.75
405.988	619.75
406.212	598.75
406.436	610.75
406.66	638.75
406.883	632.75
407.107	625.75
407.331	647.75
407.555	671.75
407.778	682.75
408.002	656.75
408.226	657.75
408.449	650.75
408.673	638.75
408.896	634.75
409.12	638.75
409.344	636.75
409.567	589.75
409.791	598.75
410.014	628.75
410.238	639.75
410.461	615.75
410.685	634.75
410.908	623.75
411.132	587.75
411.355	593.75
411.578	586.75
411.802	590.75
412.025	600.75
412.249	595.75
412.472	631.75
412.695	571.75
412.919	576.75
413.142	585.75
413.365	585.75
413.589	592.75
413.812	577.75
414.035	568.75
414.258	611.75
414.482	569.75
414.705	591.75
414.928	580.75
415.151	575.75
415.374	568.75
415.597	614.75
415.821	580.75
416.044	576.75
416.267	552.75
416.49	559.75
416.713	585.75
416.936	556.75
417.159	558.75
417.382	557.75
417.605	573.75
417.828	580.75
418.051	570.75
418.274	558.75
418.497	568.75
418.72	558.75
418.943	550.75
419.166	565.75
419.389	629.75
419.611	607.75
419.834	575.75
420.057	595.75
420.28	591.75
420.503	547.75
420.726	552.75
420.948	581.75
421.171	570.75
421.394	550.75
421.617	544.75
421.839	570.75
422.062	576.75
422.285	559.75
422.507	554.75
422.73	587.75
422.953	591.75
423.175	546.75
423.398	551.75
423.621	553.75
423.843	581.75
424.066	583.75
424.288	569.75
424.511	556.75
424.733	563.75
424.956	535.75
425.178	568.75
425.401	558.75
425.623	574.75
425.846	558.75
426.068	567.75
426.291	558.75
426.513	580.75
426.735	552.75
426.958	579.75
427.18	535.75
427.402	543.75
427.625	565.75
427.847	550.75
428.069	557.75
428.292	548.75
428.514	534.75
428.736	521.75
428.958	526.75
429.181	543.75
429.403	529.75
429.625	527.75
429.847	523.75
430.069	529.75
430.292	538.75
430.514	516.75
430.736	519.75
430.958	535.75
431.18	534.75
431.402	532.75
431.624	553.75
431.846	548.75
432.068	541.75
432.29	536.75
432.512	551.75
432.734	525.75
432.956	550.75
433.178	547.75
433.4	530.75
433.622	542.75
433.844	537.75
434.066	547.75
434.287	545.75
434.509	559.75
434.731	575.75
434.953	559.75
435.175	566.75
435.397	560.75
435.618	540.75
435.84	546.75
436.062	524.75
436.284	547.75
436.505	531.75
436.727	541.75
436.949	539.75
437.17	524.75
437.392	515.75
437.614	517.75
437.835	522.75
438.057	520.75
438.278	517.75
438.5	542.75
438.721	528.75
438.943	490.75
439.165	526.75
439.386	512.75
439.608	555.75
439.829	540.75
440.05	554.75
440.272	540.75
440.493	537.75
440.715	532.75
440.936	517.75
441.158	551.75
441.379	542.75
441.6	574.75
441.822	554.75
442.043	549.75
442.264	567.75
442.486	553.75
442.707	533.75
442.928	554.75
443.149	557.75
443.371	540.75
443.592	551.75
443.813	554.75
444.034	571.75
444.255	568.75
444.476	602.75
444.698	584.75
444.919	589.75
445.14	646.75
445.361	597.75
445.582	571.75
445.803	552.75
446.024	534.75
446.245	570.75
446.466	528.75
446.687	526.75
446.908	530.75
447.129	535.75
447.35	539.75
447.571	527.75
447.792	502.75
448.013	503.75
448.234	498.75
448.455	517.75
448.675	504.75
448.896	503.75
449.117	487.75
449.338	470.75
449.559	493.75
449.779	498.75
450	481.75
450.221	492.75
450.442	497.75
450.662	501.75
450.883	499.75
451.104	516.75
451.324	512.75
451.545	483.75
451.766	490.75
451.986	490.75
452.207	487.75
452.428	502.75
452.648	522.75
452.869	468.75
453.089	487.75
453.31	486.75
453.53	471.75
453.751	492.75
453.971	486.75
454.192	483.75
454.412	480.75
454.633	498.75
454.853	498.75
455.073	482.75
455.294	476.75
455.514	456.75
455.734	490.75
455.955	467.75
456.175	474.75
456.395	492.75
456.616	482.75
456.836	467.75
457.056	470.75
457.276	486.75
457.497	484.75
457.717	495.75
457.937	488.75
458.157	492.75
458.377	511.75
458.598	505.75
458.818	492.75
459.038	521.75
459.258	494.75
459.478	535.75
459.698	520.75
459.918	542.75
460.138	528.75
460.358	549.75
460.578	578.75
460.798	570.75
461.018	580.75
461.238	572.75
461.458	573.75
461.678	572.75
461.898	592.75
462.118	587.75
462.338	602.75
462.558	596.75
462.777	620.75
462.997	619.75
463.217	637.75
463.437	676.75
463.657	646.75
463.876	653.75
464.096	652.75
464.316	618.75
464.536	607.75
464.755	606.75
464.975	608.75
465.195	596.75
465.414	581.75
465.634	567.75
465.854	574.75
466.073	550.75
466.293	551.75
466.512	539.75
466.732	531.75
466.951	534.75
467.171	540.75
467.391	532.75
467.61	516.75
467.829	522.75
468.049	516.75
468.268	517.75
468.488	536.75
468.707	526.75
468.927	538.75
469.146	529.75
469.365	539.75
469.585	542.75
469.804	533.75
470.023	554.75
470.243	558.75
470.462	545.75
470.681	515.75
470.901	552.75
471.12	544.75
471.339	536.75
471.558	528.75
471.777	531.75
471.997	534.75
472.216	528.75
472.435	541.75
472.654	521.75
472.873	523.75
473.092	510.75
473.311	546.75
473.53	538.75
473.749	562.75
473.968	534.75
474.187	521.75
474.406	528.75
474.625	543.75
474.844	518.75
475.063	540.75
475.282	520.75
475.501	540.75
475.72	577.75
475.939	549.75
476.158	552.75
476.377	578.75
476.596	560.75
476.814	576.75
477.033	583.75
477.252	572.75
477.471	597.75
477.69	576.75
477.908	602.75
478.127	587.75
478.346	590.75
478.564	596.75
478.783	617.75
479.002	619.75
479.22	618.75
479.439	644.75
479.658	626.75
479.876	617.75
480.095	633.75
480.313	638.75
480.532	614.75
480.751	601.75
480.969	648.75
481.188	642.75
481.406	638.75
481.624	644.75
481.843	608.75
482.061	612.75
482.28	636.75
482.498	631.75
482.717	613.75
482.935	636.75
483.153	628.75
483.372	615.75
483.59	649.75
483.808	631.75
484.027	636.75
484.245	642.75
484.463	650.75
484.681	632.75
484.9	660.75
485.118	636.75
485.336	643.75
485.554	640.75
485.772	663.75
485.99	632.75
486.209	673.75
486.427	654.75
486.645	644.75
486.863	624.75
487.081	639.75
487.299	658.75
487.517	638.75
487.735	663.75
487.953	631.75
488.171	654.75
488.389	641.75
488.607	661.75
488.825	660.75
489.043	636.75
489.261	657.75
489.479	645.75
489.696	666.75
489.914	649.75
490.132	660.75
490.35	677.75
490.568	664.75
490.786	663.75
491.003	654.75
491.221	660.75
491.439	646.75
491.657	658.75
491.874	648.75
492.092	687.75
492.31	669.75
492.527	686.75
492.745	659.75
492.963	704.75
493.18	670.75
493.398	686.75
493.615	664.75
493.833	679.75
494.05	678.75
494.268	688.75
494.485	688.75
494.703	696.75
494.92	696.75
495.138	718.75
495.355	725.75
495.573	724.75
495.79	695.75
496.008	713.75
496.225	719.75
496.442	707.75
496.66	751.75
496.877	725.75
497.094	721.75
497.312	729.75
497.529	747.75
497.746	750.75
497.963	766.75
498.181	785.75
498.398	822.75
498.615	860.75
498.832	828.75
499.049	904.75
499.267	898.75
499.484	927.75
499.701	982.75
499.918	1032.75
500.135	1067.75
500.352	1183.75
500.569	1149.75
500.786	1130.75
501.003	1125.75
501.22	1040.75
501.437	995.75
501.654	956.75
501.871	941.75
502.088	904.75
502.305	877.75
502.522	850.75
502.739	848.75
502.956	796.75
503.172	802.75
503.389	789.75
503.606	774.75
503.823	774.75
504.04	767.75
504.256	734.75
504.473	749.75
504.69	714.75
504.907	727.75
505.123	720.75
505.34	704.75
505.557	663.75
505.773	687.75
505.99	677.75
506.207	681.75
506.423	652.75
506.64	637.75
506.856	634.75
507.073	622.75
507.289	634.75
507.506	656.75
507.722	623.75
507.939	631.75
508.155	605.75
508.372	634.75
508.588	591.75
508.805	596.75
509.021	613.75
509.238	604.75
509.454	595.75
509.67	579.75
509.887	586.75
510.103	593.75
510.319	598.75
510.536	588.75
510.752	564.75
510.968	574.75
511.184	566.75
511.401	584.75
511.617	579.75
511.833	570.75
512.049	550.75
512.265	547.75
512.481	560.75
512.698	566.75
512.914	571.75
513.13	581.75
513.346	571.75
513.562	556.75
513.778	570.75
513.994	590.75
514.21	573.75
514.426	555.75
514.642	572.75
514.858	578.75
515.074	588.75
515.29	581.75
515.506	583.75
515.721	583.75
515.937	606.75
516.153	622.75
516.369	581.75
516.585	614.75
516.801	611.75
517.016	606.75
517.232	634.75
517.448	657.75
517.664	640.75
517.879	668.75
518.095	646.75
518.311	644.75
518.527	644.75
518.742	628.75
518.958	611.75
519.173	621.75
519.389	606.75
519.605	617.75
519.82	599.75
520.036	610.75
520.251	574.75
520.467	583.75
520.682	579.75
520.898	559.75
521.113	542.75
521.329	572.75
521.544	536.75
521.76	563.75
521.975	555.75
522.19	554.75
522.406	558.75
522.621	567.75
522.836	556.75
523.052	566.75
523.267	554.75
523.482	535.75
523.698	540.75
523.913	558.75
524.128	516.75
524.343	524.75
524.559	527.75
524.774	520.75
524.989	525.75
525.204	523.75
525.419	523.75
525.634	533.75
525.849	509.75
526.064	523.75
526.28	521.75
526.495	521.75
526.71	528.75
526.925	538.75
527.14	519.75
527.355	536.75
527.57	540.75
527.785	530.75
527.999	514.75
528.214	511.75
528.429	515.75
528.644	532.75
528.859	532.75
529.074	528.75
529.289	543.75
529.503	538.75
529.718	515.75
529.933	533.75
530.148	537.75
530.363	508.75
530.577	504.75
530.792	526.75
531.007	527.75
531.221	523.75
531.436	517.75
531.651	502.75
531.865	514.75
532.08	520.75
532.295	503.75
532.509	519.75
532.724	526.75
532.938	506.75
533.153	508.75
533.367	496.75
533.582	525.75
533.796	530.75
534.011	525.75
534.225	504.75
534.44	489.75
534.654	498.75
534.868	502.75
535.083	519.75
535.297	508.75
535.511	501.75
535.726	502.75
535.94	479.75
536.154	495.75
536.369	492.75
536.583	493.75
536.797	505.75
537.011	505.75
537.225	485.75
537.44	500.75
537.654	487.75
537.868	483.75
538.082	477.75
538.296	472.75
538.51	485.75
538.724	523.75
538.938	478.75
539.153	492.75
539.367	514.75
539.581	480.75
539.795	479.75
540.009	482.75
540.222	477.75
540.436	478.75
540.65	475.75
540.864	466.75
541.078	471.75
541.292	494.75
541.506	471.75
541.72	477.75
541.934	464.75
542.147	478.75
542.361	485.75
542.575	478.75
542.789	477.75
543.002	475.75
543.216	482.75
543.43	464.75
543.644	483.75
543.857	470.75
544.071	486.75
544.285	488.75
544.498	490.75
544.712	493.75
544.925	491.75
545.139	483.75
545.352	483.75
545.566	485.75
545.779	482.75
545.993	492.75
546.206	486.75
546.42	491.75
546.633	462.75
546.847	476.75
547.06	486.75
547.274	485.75
547.487	470.75
547.7	479.75
547.914	482.75
548.127	498.75
548.34	478.75
548.554	490.75
548.767	483.75
548.98	497.75
549.193	482.75
549.407	478.75
549.62	502.75
549.833	500.75
550.046	488.75
550.259	500.75
550.473	486.75
550.686	479.75
550.899	463.75
551.112	470.75
551.325	477.75
551.538	491.75
551.751	479.75
551.964	467.75
552.177	480.75
552.39	464.75
552.603	472.75
552.816	474.75
553.029	470.75
553.242	476.75
553.455	482.75
553.667	502.75
553.88	514.75
554.093	467.75
554.306	477.75
554.519	468.75
554.732	461.75
554.944	463.75
555.157	454.75
555.37	474.75
555.583	468.75
555.795	471.75
556.008	461.75
556.221	431.75
556.433	435.75
556.646	443.75
556.859	452.75
557.071	451.75
557.284	434.75
557.496	440.75
557.709	432.75
557.921	448.75
558.134	445.75
558.346	428.75
558.559	452.75
558.771	424.75
558.984	429.75
559.196	447.75
559.409	436.75
559.621	441.75
559.833	429.75
560.046	421.75
560.258	418.75
560.47	432.75
560.683	436.75
560.895	425.75
561.107	444.75
561.32	425.75
561.532	416.75
561.744	421.75
561.956	434.75
562.168	410.75
562.381	408.75
562.593	418.75
562.805	427.75
563.017	424.75
563.229	435.75
563.441	430.75
563.653	416.75
563.865	439.75
564.077	430.75
564.289	441.75
564.501	435.75
564.713	429.75
564.925	440.75
565.137	436.75
565.349	447.75
565.561	439.75
565.773	470.75
565.985	470.75
566.197	487.75
566.408	481.75
566.62	509.75
566.832	514.75
567.044	522.75
567.255	519.75
567.467	515.75
567.679	525.75
567.891	513.75
568.102	514.75
568.314	508.75
568.526	495.75
568.737	489.75
568.949	462.75
569.161	434.75
569.372	430.75
569.584	411.75
569.795	405.75
570.007	425.75
570.218	417.75
570.43	386.75
570.641	408.75
570.853	402.75
571.064	400.75
571.276	392.75
571.487	397.75
571.698	391.75
571.91	376.75
572.121	390.75
572.333	374.75
572.544	366.75
572.755	354.75
572.966	356.75
573.178	360.75
573.389	367.75
573.6	349.75
573.811	349.75
574.023	363.75
574.234	344.75
574.445	347.75
574.656	359.75
574.867	343.75
575.078	357.75
575.289	381.75
575.501	366.75
575.712	363.75
575.923	353.75
576.134	348.75
576.345	330.75
576.556	341.75
576.767	339.75
576.978	361.75
577.188	341.75
577.399	342.75
577.61	332.75
577.821	325.75
578.032	343.75
578.243	330.75
578.454	314.75
578.665	335.75
578.875	320.75
579.086	302.75
579.297	322.75
579.508	332.75
579.718	323.75
579.929	334.75
580.14	325.75
580.35	326.75
580.561	313.75
580.772	311.75
580.982	315.75
581.193	325.75
581.403	312.75
581.614	303.75
581.825	325.75
582.035	310.75
582.246	331.75
582.456	312.75
582.667	314.75
582.877	314.75
583.087	313.75
583.298	320.75
583.508	297.75
583.719	310.75
583.929	310.75
584.139	301.75
584.35	306.75
584.56	292.75
584.77	287.75
584.981	303.75
585.191	314.75
585.401	300.75
585.611	290.75
585.821	293.75
586.032	300.75
586.242	288.75
586.452	292.75
586.662	299.75
586.872	314.75
587.082	299.75
587.292	290.75
587.502	288.75
587.713	300.75
587.923	301.75
588.133	280.75
588.343	295.75
588.553	295.75
588.762	313.75
588.972	324.75
589.182	376.75
589.392	362.75
589.602	330.75
589.812	361.75
590.022	331.75
590.232	300.75
590.441	302.75
590.651	309.75
590.861	296.75
591.071	312.75
591.281	285.75
591.49	303.75
591.7	301.75
591.91	307.75
592.119	294.75
592.329	286.75
592.539	307.75
592.748	297.75
592.958	303.75
593.167	292.75
593.377	287.75
593.587	323.75
593.796	331.75
594.006	306.75
594.215	314.75
594.424	308.75
594.634	313.75
594.843	296.75
595.053	330.75
595.262	310.75
595.472	287.75
595.681	300.75
595.89	298.75
596.1	290.75
596.309	285.75
596.518	291.75
596.727	288.75
596.937	295.75
597.146	271.75
597.355	270.75
597.564	281.75
597.774	271.75
597.983	262.75
598.192	278.75
598.401	253.75
598.61	282.75
598.819	274.75
599.028	279.75
599.237	265.75
599.446	255.75
599.655	256.75
599.864	268.75
600.073	268.75
600.282	271.75
600.491	249.75
600.7	260.75
600.909	265.75
601.118	264.75
601.327	249.75
601.536	250.75
601.745	259.75
601.953	255.75
602.162	250.75
602.371	239.75
602.58	269.75
602.789	246.75
602.997	259.75
603.206	269.75
603.415	253.75
603.623	255.75
603.832	236.75
604.041	229.75
604.249	253.75
604.458	242.75
604.666	256.75
604.875	239.75
605.084	244.75
605.292	240.75
605.501	235.75
605.709	236.75
605.918	239.75
606.126	249.75
606.334	233.75
606.543	230.75
606.751	221.75
606.96	242.75
607.168	246.75
607.376	245.75
607.585	256.75
607.793	248.75
608.001	262.75
608.21	242.75
608.418	242.75
608.626	231.75
608.834	244.75
609.043	237.75
609.251	238.75
609.459	232.75
609.667	257.75
609.875	237.75
610.083	252.75
610.291	250.75
610.499	251.75
610.707	248.75
610.916	232.75
611.124	232.75
611.332	234.75
611.54	242.75
611.748	234.75
611.955	245.75
612.163	242.75
612.371	235.75
612.579	227.75
612.787	231.75
612.995	239.75
613.203	246.75
613.411	237.75
613.618	242.75
613.826	228.75
614.034	244.75
614.242	216.75
614.449	236.75
614.657	260.75
614.865	226.75
615.072	229.75
615.28	217.75
615.488	230.75
615.695	213.75
615.903	215.75
616.111	229.75
616.318	208.75
616.526	231.75
616.733	236.75
616.941	225.75
617.148	227.75
617.356	235.75
617.563	227.75
617.771	222.75
617.978	213.75
618.185	234.75
618.393	227.75
618.6	238.75
618.807	211.75
619.015	221.75
619.222	222.75
619.429	219.75
619.637	221.75
619.844	212.75
620.051	207.75
620.258	221.75
620.466	232.75
620.673	222.75
620.88	211.75
621.087	209.75
621.294	213.75
621.501	231.75
621.708	219.75
621.915	212.75
622.122	222.75
622.329	208.75
622.536	211.75
622.743	221.75
622.95	220.75
623.157	228.75
623.364	208.75
623.571	200.75
623.778	198.75
623.985	210.75
624.192	209.75
624.399	223.75
624.606	217.75
624.812	212.75
625.019	188.75
625.226	203.75
625.433	211.75
625.639	200.75
625.846	193.75
626.053	205.75
626.259	195.75
626.466	197.75
626.673	219.75
626.879	210.75
627.086	219.75
627.293	237.75
627.499	185.75
627.706	199.75
627.912	191.75
628.119	205.75
628.325	192.75
628.532	210.75
628.738	188.75
628.945	189.75
629.151	213.75
629.357	194.75
629.564	192.75
629.77	204.75
629.976	201.75
630.183	186.75
630.389	193.75
630.595	192.75
630.802	201.75
631.008	203.75
631.214	203.75
631.42	195.75
631.627	193.75
631.833	196.75
632.039	175.75
632.245	200.75
632.451	186.75
632.657	198.75
632.863	199.75
633.069	183.75
633.275	191.75
633.481	186.75
633.688	183.75
633.893	187.75
634.099	185.75
634.305	198.75
634.511	180.75
634.717	180.75
634.923	185.75
635.129	183.75
635.335	184.75
635.541	189.75
635.747	188.75
635.952	184.75
636.158	195.75
636.364	173.75
636.57	176.75
636.775	189.75
636.981	200.75
637.187	184.75
637.392	188.75
637.598	174.75
637.804	186.75
638.009	187.75
638.215	187.75
638.421	190.75
638.626	185.75
638.832	190.75
639.037	182.75
639.243	190.75
639.448	168.75
639.654	184.75
639.859	190.75
640.065	184.75
640.27	193.75
640.475	172.75
640.681	182.75
640.886	180.75
641.091	170.75
641.297	184.75
641.502	176.75
641.707	181.75
641.913	188.75
642.118	180.75
642.323	171.75
642.528	162.75
642.733	190.75
642.939	186.75
643.144	162.75
643.349	191.75
643.554	163.75
643.759	175.75
643.964	180.75
644.169	168.75
644.374	187.75
644.579	186.75
644.784	173.75
644.989	181.75
645.194	180.75
645.399	176.75
645.604	165.75
645.809	175.75
646.014	178.75
646.219	162.75
646.423	172.75
646.628	169.75
646.833	178.75
647.038	171.75
647.243	198.75
647.447	169.75
647.652	167.75
647.857	189.75
648.062	198.75
648.266	170.75
648.471	174.75
648.676	187.75
648.88	189.75
649.085	186.75
649.289	184.75
649.494	182.75
649.698	186.75
649.903	173.75
650.107	179.75
650.312	178.75
650.516	162.75
650.721	188.75
650.925	194.75
651.13	180.75
651.334	172.75
651.539	173.75
651.743	163.75
651.947	168.75
652.152	171.75
652.356	164.75
652.56	158.75
652.764	164.75
652.969	150.75
653.173	167.75
653.377	153.75
653.581	166.75
653.785	170.75
653.99	159.75
654.194	168.75
654.398	160.75
654.602	166.75
654.806	158.75
655.01	179.75
655.214	154.75
655.418	170.75
655.622	161.75
655.826	158.75
656.03	161.75
656.234	160.75
656.438	168.75
656.642	168.75
656.846	149.75
657.049	171.75
657.253	139.75
657.457	135.75
657.661	131.75
657.865	121.75
658.068	132.75
658.272	126.75
658.476	124.75
658.68	115.75
658.883	120.75
659.087	114.75
659.291	110.75
659.494	130.75
659.698	104.75
659.901	119.75
660.105	108.75
660.309	107.75
660.512	99.75
660.716	115.75
660.919	102.75
661.123	106.75
661.326	95.75
661.53	92.75
661.733	109.75
661.936	93.75
662.14	88.75
662.343	89.75
662.546	92.75
662.75	85.75
662.953	88.75
663.156	92.75
663.36	86.75
663.563	88.75
663.766	91.75
663.969	80.75
664.173	88.75
664.376	90.75
664.579	75.75
664.782	84.75
664.985	90.75
665.188	80.75
665.391	76.75
665.594	109.75
665.797	81.75
666	86.75
666.203	89.75
666.406	86.75
666.609	73.75
666.812	86.75
667.015	96.75
667.218	86.75
667.421	88.75
667.624	94.75
667.827	91.75
668.03	79.75
668.232	80.75
668.435	78.75
668.638	85.75
668.841	84.75
669.043	80.75
669.246	85.75
669.449	82.75
669.651	90.75
669.854	80.75
670.057	87.75
670.259	77.75
670.462	96.75
670.665	84.75
670.867	90.75
671.07	82.75
671.272	86.75
671.475	69.75
671.677	80.75
671.88	85.75
672.082	82.75
672.284	76.75
672.487	73.75
672.689	76.75
672.892	90.75
