Data from Fe(NO3)3@0.0125M.TitratingCurve.Agarose3%dH2O.NegLispCup.LampEnergy10.LIBS07252019_HRD10591_16-59-58-336.txt Node
Date: Thu Jul 25 16:59:58 EDT 2019
User: cochatt
Spectrometer: HR+D1059
Trigger mode: 1
Integration Time (sec): 1.000000E-1
Scans to average: 1
Electric dark correction enabled: true
Nonlinearity correction enabled: false
Boxcar width: 0
XAxis mode: Wavelengths
Number of Pixels in Spectrum: 2048
>>>>>Begin Spectral Data<<<<<
223.165	-26.94
223.4	-26.94
223.635	-26.94
223.869	-36.94
224.104	-12.94
224.338	-3.94
224.573	-2.94
224.808	-22.94
225.042	4.06
225.277	-9.94
225.511	-5.94
225.746	-11.94
225.98	16.06
226.215	5.06
226.449	26.06
226.683	17.06
226.918	33.06
227.152	33.06
227.387	26.06
227.621	37.06
227.856	52.06
228.09	39.06
228.324	67.06
228.559	55.06
228.793	69.06
229.027	73.06
229.262	99.06
229.496	84.06
229.73	84.06
229.964	82.06
230.199	91.06
230.433	100.06
230.667	97.06
230.901	89.06
231.136	88.06
231.37	90.06
231.604	87.06
231.838	104.06
232.072	99.06
232.306	109.06
232.541	98.06
232.775	104.06
233.009	97.06
233.243	101.06
233.477	107.06
233.711	100.06
233.945	104.06
234.179	90.06
234.413	103.06
234.647	114.06
234.881	112.06
235.115	96.06
235.349	103.06
235.583	94.06
235.817	103.06
236.051	96.06
236.285	89.06
236.519	97.06
236.753	96.06
236.987	93.06
237.221	85.06
237.455	103.06
237.689	103.06
237.922	120.06
238.156	111.06
238.39	111.06
238.624	102.06
238.858	115.06
239.091	114.06
239.325	103.06
239.559	101.06
239.793	106.06
240.027	101.06
240.26	120.06
240.494	120.06
240.728	111.06
240.961	116.06
241.195	103.06
241.429	119.06
241.662	112.06
241.896	113.06
242.13	96.06
242.363	99.06
242.597	111.06
242.83	111.06
243.064	123.06
243.298	119.06
243.531	128.06
243.765	122.06
243.998	106.06
244.232	121.06
244.465	119.06
244.699	118.06
244.932	116.06
245.166	117.06
245.399	107.06
245.633	120.06
245.866	113.06
246.099	118.06
246.333	141.06
246.566	104.06
246.8	125.06
247.033	123.06
247.266	116.06
247.5	117.06
247.733	124.06
247.966	126.06
248.2	109.06
248.433	123.06
248.666	133.06
248.899	129.06
249.133	121.06
249.366	127.06
249.599	134.06
249.832	127.06
250.066	132.06
250.299	120.06
250.532	127.06
250.765	134.06
250.998	143.06
251.231	132.06
251.465	145.06
251.698	139.06
251.931	132.06
252.164	137.06
252.397	138.06
252.63	132.06
252.863	130.06
253.096	133.06
253.329	144.06
253.562	133.06
253.795	141.06
254.028	147.06
254.261	133.06
254.494	136.06
254.727	143.06
254.96	154.06
255.193	149.06
255.426	131.06
255.659	141.06
255.892	148.06
256.124	153.06
256.357	142.06
256.59	136.06
256.823	142.06
257.056	157.06
257.289	147.06
257.521	161.06
257.754	140.06
257.987	149.06
258.22	156.06
258.452	133.06
258.685	152.06
258.918	175.06
259.151	166.06
259.383	171.06
259.616	153.06
259.849	145.06
260.081	161.06
260.314	155.06
260.547	158.06
260.779	179.06
261.012	172.06
261.244	163.06
261.477	173.06
261.71	160.06
261.942	158.06
262.175	156.06
262.407	149.06
262.64	156.06
262.872	162.06
263.105	184.06
263.337	156.06
263.57	170.06
263.802	171.06
264.035	149.06
264.267	156.06
264.499	153.06
264.732	164.06
264.964	166.06
265.197	156.06
265.429	179.06
265.661	175.06
265.894	170.06
266.126	159.06
266.358	159.06
266.591	187.06
266.823	175.06
267.055	161.06
267.287	158.06
267.52	156.06
267.752	174.06
267.984	171.06
268.216	178.06
268.448	186.06
268.681	183.06
268.913	175.06
269.145	189.06
269.377	171.06
269.609	192.06
269.841	162.06
270.073	171.06
270.306	181.06
270.538	172.06
270.77	190.06
271.002	187.06
271.234	191.06
271.466	167.06
271.698	188.06
271.93	173.06
272.162	201.06
272.394	173.06
272.626	189.06
272.858	190.06
273.09	197.06
273.322	175.06
273.553	192.06
273.785	197.06
274.017	196.06
274.249	203.06
274.481	222.06
274.713	215.06
274.945	219.06
275.176	218.06
275.408	208.06
275.64	212.06
275.872	201.06
276.104	199.06
276.335	219.06
276.567	219.06
276.799	187.06
277.031	192.06
277.262	199.06
277.494	198.06
277.726	208.06
277.957	200.06
278.189	201.06
278.421	212.06
278.652	202.06
278.884	212.06
279.115	202.06
279.347	208.06
279.579	197.06
279.81	219.06
280.042	208.06
280.273	215.06
280.505	201.06
280.736	196.06
280.968	209.06
281.199	206.06
281.431	201.06
281.662	206.06
281.894	209.06
282.125	202.06
282.356	218.06
282.588	216.06
282.819	230.06
283.051	212.06
283.282	211.06
283.513	218.06
283.745	221.06
283.976	214.06
284.207	216.06
284.439	239.06
284.67	210.06
284.901	223.06
285.132	223.06
285.364	210.06
285.595	231.06
285.826	233.06
286.057	224.06
286.288	227.06
286.52	224.06
286.751	227.06
286.982	230.06
287.213	218.06
287.444	220.06
287.675	239.06
287.906	230.06
288.138	234.06
288.369	241.06
288.6	233.06
288.831	241.06
289.062	231.06
289.293	228.06
289.524	222.06
289.755	235.06
289.986	242.06
290.217	240.06
290.448	235.06
290.679	235.06
290.91	249.06
291.141	230.06
291.371	223.06
291.602	246.06
291.833	244.06
292.064	233.06
292.295	242.06
292.526	244.06
292.757	221.06
292.987	239.06
293.218	237.06
293.449	249.06
293.68	215.06
293.91	233.06
294.141	241.06
294.372	241.06
294.603	247.06
294.833	237.06
295.064	239.06
295.295	248.06
295.525	240.06
295.756	275.06
295.987	256.06
296.217	244.06
296.448	232.06
296.679	269.06
296.909	252.06
297.14	258.06
297.37	261.06
297.601	267.06
297.831	264.06
298.062	255.06
298.292	261.06
298.523	255.06
298.753	253.06
298.984	250.06
299.214	239.06
299.445	284.06
299.675	245.06
299.905	263.06
300.136	256.06
300.366	249.06
300.597	261.06
300.827	264.06
301.057	291.06
301.288	257.06
301.518	288.06
301.748	264.06
301.979	251.06
302.209	276.06
302.439	271.06
302.669	278.06
302.9	281.06
303.13	269.06
303.36	271.06
303.59	270.06
303.82	279.06
304.051	268.06
304.281	283.06
304.511	283.06
304.741	268.06
304.971	270.06
305.201	288.06
305.431	278.06
305.661	283.06
305.891	273.06
306.121	286.06
306.352	279.06
306.582	273.06
306.812	273.06
307.042	276.06
307.272	283.06
307.502	276.06
307.731	284.06
307.961	258.06
308.191	281.06
308.421	277.06
308.651	276.06
308.881	287.06
309.111	263.06
309.341	270.06
309.571	252.06
309.8	281.06
310.03	311.06
310.26	288.06
310.49	294.06
310.72	306.06
310.949	290.06
311.179	296.06
311.409	291.06
311.639	300.06
311.868	301.06
312.098	304.06
312.328	323.06
312.557	298.06
312.787	299.06
313.017	291.06
313.246	297.06
313.476	313.06
313.706	320.06
313.935	319.06
314.165	311.06
314.394	317.06
314.624	309.06
314.853	297.06
315.083	298.06
315.312	315.06
315.542	289.06
315.771	309.06
316.001	304.06
316.23	317.06
316.46	307.06
316.689	315.06
316.919	317.06
317.148	310.06
317.377	307.06
317.607	318.06
317.836	319.06
318.065	316.06
318.295	324.06
318.524	308.06
318.753	323.06
318.983	311.06
319.212	321.06
319.441	309.06
319.67	306.06
319.9	317.06
320.129	326.06
320.358	315.06
320.587	313.06
320.816	312.06
321.046	319.06
321.275	316.06
321.504	309.06
321.733	323.06
321.962	316.06
322.191	314.06
322.42	311.06
322.649	317.06
322.878	311.06
323.108	332.06
323.337	309.06
323.566	321.06
323.795	321.06
324.024	341.06
324.253	347.06
324.482	345.06
324.71	340.06
324.939	327.06
325.168	317.06
325.397	320.06
325.626	324.06
325.855	337.06
326.084	340.06
326.313	336.06
326.542	336.06
326.77	330.06
326.999	317.06
327.228	334.06
327.457	349.06
327.686	344.06
327.914	336.06
328.143	361.06
328.372	345.06
328.6	342.06
328.829	342.06
329.058	338.06
329.287	346.06
329.515	347.06
329.744	360.06
329.972	340.06
330.201	352.06
330.43	331.06
330.658	341.06
330.887	340.06
331.115	342.06
331.344	359.06
331.572	331.06
331.801	348.06
332.03	363.06
332.258	351.06
332.486	380.06
332.715	356.06
332.943	364.06
333.172	358.06
333.4	360.06
333.629	374.06
333.857	390.06
334.085	395.06
334.314	392.06
334.542	378.06
334.771	369.06
334.999	387.06
335.227	373.06
335.455	342.06
335.684	381.06
335.912	403.06
336.14	380.06
336.369	367.06
336.597	379.06
336.825	382.06
337.053	403.06
337.281	381.06
337.51	380.06
337.738	382.06
337.966	343.06
338.194	359.06
338.422	397.06
338.65	365.06
338.878	383.06
339.106	372.06
339.334	371.06
339.562	376.06
339.79	360.06
340.018	364.06
340.246	370.06
340.474	375.06
340.702	387.06
340.93	383.06
341.158	380.06
341.386	377.06
341.614	359.06
341.842	380.06
342.07	363.06
342.298	367.06
342.526	345.06
342.754	370.06
342.981	369.06
343.209	385.06
343.437	379.06
343.665	385.06
343.893	377.06
344.12	389.06
344.348	369.06
344.576	367.06
344.804	385.06
345.031	389.06
345.259	364.06
345.487	367.06
345.714	369.06
345.942	397.06
346.17	377.06
346.397	365.06
346.625	373.06
346.853	351.06
347.08	367.06
347.308	360.06
347.535	357.06
347.763	367.06
347.99	358.06
348.218	365.06
348.445	349.06
348.673	355.06
348.9	352.06
349.128	353.06
349.355	357.06
349.583	350.06
349.81	350.06
350.037	364.06
350.265	369.06
350.492	347.06
350.72	347.06
350.947	360.06
351.174	351.06
351.402	356.06
351.629	369.06
351.856	349.06
352.083	351.06
352.311	357.06
352.538	351.06
352.765	377.06
352.992	359.06
353.22	365.06
353.447	346.06
353.674	346.06
353.901	365.06
354.128	388.06
354.355	360.06
354.583	361.06
354.81	381.06
355.037	351.06
355.264	367.06
355.491	359.06
355.718	358.06
355.945	355.06
356.172	365.06
356.399	364.06
356.626	365.06
356.853	352.06
357.08	386.06
357.307	369.06
357.534	359.06
357.761	369.06
357.988	375.06
358.215	361.06
358.441	373.06
358.668	353.06
358.895	371.06
359.122	361.06
359.349	389.06
359.576	359.06
359.802	362.06
360.029	351.06
360.256	353.06
360.483	391.06
360.709	363.06
360.936	367.06
361.163	363.06
361.39	371.06
361.616	342.06
361.843	383.06
362.07	377.06
362.296	379.06
362.523	350.06
362.749	383.06
362.976	377.06
363.203	356.06
363.429	370.06
363.656	347.06
363.882	362.06
364.109	361.06
364.335	360.06
364.562	377.06
364.788	360.06
365.015	383.06
365.241	376.06
365.468	379.06
365.694	355.06
365.92	365.06
366.147	386.06
366.373	369.06
366.599	355.06
366.826	368.06
367.052	375.06
367.278	383.06
367.505	383.06
367.731	391.06
367.957	371.06
368.184	395.06
368.41	394.06
368.636	372.06
368.862	387.06
369.089	381.06
369.315	383.06
369.541	389.06
369.767	392.06
369.993	383.06
370.219	381.06
370.445	380.06
370.672	416.06
370.898	384.06
371.124	387.06
371.35	404.06
371.576	399.06
371.802	377.06
372.028	428.06
372.254	392.06
372.48	401.06
372.706	420.06
372.932	398.06
373.158	394.06
373.384	390.06
373.61	408.06
373.835	407.06
374.061	381.06
374.287	404.06
374.513	410.06
374.739	396.06
374.965	405.06
375.191	408.06
375.416	420.06
375.642	411.06
375.868	416.06
376.094	411.06
376.319	397.06
376.545	421.06
376.771	385.06
376.997	390.06
377.222	388.06
377.448	389.06
377.674	386.06
377.899	406.06
378.125	389.06
378.35	417.06
378.576	406.06
378.802	388.06
379.027	412.06
379.253	416.06
379.478	395.06
379.704	388.06
379.929	411.06
380.155	385.06
380.38	395.06
380.606	400.06
380.831	389.06
381.057	402.06
381.282	403.06
381.507	428.06
381.733	407.06
381.958	386.06
382.184	394.06
382.409	421.06
382.634	405.06
382.86	417.06
383.085	413.06
383.31	392.06
383.535	413.06
383.761	417.06
383.986	422.06
384.211	403.06
384.436	410.06
384.662	436.06
384.887	431.06
385.112	440.06
385.337	423.06
385.562	446.06
385.787	420.06
386.013	454.06
386.238	447.06
386.463	445.06
386.688	438.06
386.913	437.06
387.138	444.06
387.363	444.06
387.588	450.06
387.813	447.06
388.038	458.06
388.263	447.06
388.488	461.06
388.713	446.06
388.938	433.06
389.163	455.06
389.387	450.06
389.612	448.06
389.837	452.06
390.062	452.06
390.287	460.06
390.512	446.06
390.736	462.06
390.961	460.06
391.186	456.06
391.411	458.06
391.636	467.06
391.86	451.06
392.085	481.06
392.31	480.06
392.534	476.06
392.759	474.06
392.984	472.06
393.208	446.06
393.433	494.06
393.658	483.06
393.882	459.06
394.107	480.06
394.331	461.06
394.556	462.06
394.78	479.06
395.005	492.06
395.229	473.06
395.454	471.06
395.678	481.06
395.903	467.06
396.127	502.06
396.352	471.06
396.576	498.06
396.801	474.06
397.025	507.06
397.249	508.06
397.474	505.06
397.698	488.06
397.922	518.06
398.147	493.06
398.371	498.06
398.595	497.06
398.82	500.06
399.044	528.06
399.268	524.06
399.492	539.06
399.717	535.06
399.941	549.06
400.165	565.06
400.389	559.06
400.613	524.06
400.837	539.06
401.062	528.06
401.286	526.06
401.51	511.06
401.734	512.06
401.958	509.06
402.182	550.06
402.406	503.06
402.63	501.06
402.854	518.06
403.078	505.06
403.302	503.06
403.526	526.06
403.75	506.06
403.974	536.06
404.198	526.06
404.422	520.06
404.645	515.06
404.869	521.06
405.093	543.06
405.317	519.06
405.541	504.06
405.765	516.06
405.988	519.06
406.212	533.06
406.436	531.06
406.66	565.06
406.883	540.06
407.107	561.06
407.331	561.06
407.555	582.06
407.778	562.06
408.002	567.06
408.226	593.06
408.449	568.06
408.673	556.06
408.896	565.06
409.12	588.06
409.344	554.06
409.567	551.06
409.791	572.06
410.014	556.06
410.238	538.06
410.461	553.06
410.685	547.06
410.908	531.06
411.132	528.06
411.355	532.06
411.578	535.06
411.802	537.06
412.025	561.06
412.249	552.06
412.472	551.06
412.695	547.06
412.919	518.06
413.142	549.06
413.365	519.06
413.589	533.06
413.812	515.06
414.035	525.06
414.258	540.06
414.482	504.06
414.705	508.06
414.928	503.06
415.151	523.06
415.374	531.06
415.597	513.06
415.821	509.06
416.044	518.06
416.267	519.06
416.49	500.06
416.713	500.06
416.936	500.06
417.159	497.06
417.382	524.06
417.605	507.06
417.828	507.06
418.051	514.06
418.274	513.06
418.497	501.06
418.72	475.06
418.943	499.06
419.166	527.06
419.389	542.06
419.611	535.06
419.834	516.06
420.057	523.06
420.28	488.06
420.503	492.06
420.726	482.06
420.948	502.06
421.171	505.06
421.394	502.06
421.617	487.06
421.839	511.06
422.062	493.06
422.285	505.06
422.507	486.06
422.73	508.06
422.953	470.06
423.175	485.06
423.398	490.06
423.621	513.06
423.843	483.06
424.066	484.06
424.288	499.06
424.511	479.06
424.733	483.06
424.956	481.06
425.178	490.06
425.401	501.06
425.623	493.06
425.846	485.06
426.068	497.06
426.291	509.06
426.513	484.06
426.735	503.06
426.958	505.06
427.18	485.06
427.402	513.06
427.625	487.06
427.847	485.06
428.069	499.06
428.292	507.06
428.514	479.06
428.736	485.06
428.958	500.06
429.181	476.06
429.403	482.06
429.625	486.06
429.847	452.06
430.069	464.06
430.292	484.06
430.514	506.06
430.736	478.06
430.958	500.06
431.18	492.06
431.402	499.06
431.624	467.06
431.846	502.06
432.068	457.06
432.29	495.06
432.512	468.06
432.734	485.06
432.956	487.06
433.178	476.06
433.4	504.06
433.622	489.06
433.844	482.06
434.066	497.06
434.287	503.06
434.509	493.06
434.731	507.06
434.953	499.06
435.175	490.06
435.397	500.06
435.618	477.06
435.84	482.06
436.062	488.06
436.284	473.06
436.505	497.06
436.727	472.06
436.949	470.06
437.17	508.06
437.392	462.06
437.614	479.06
437.835	483.06
438.057	488.06
438.278	464.06
438.5	481.06
438.721	472.06
438.943	487.06
439.165	477.06
439.386	479.06
439.608	464.06
439.829	485.06
440.05	495.06
440.272	469.06
440.493	515.06
440.715	491.06
440.936	495.06
441.158	492.06
441.379	483.06
441.6	499.06
441.822	508.06
442.043	500.06
442.264	486.06
442.486	484.06
442.707	498.06
442.928	500.06
443.149	501.06
443.371	496.06
443.592	497.06
443.813	484.06
444.034	491.06
444.255	480.06
444.476	460.06
444.698	527.06
444.919	490.06
445.14	591.06
445.361	531.06
445.582	502.06
445.803	487.06
446.024	473.06
446.245	472.06
446.466	492.06
446.687	480.06
446.908	484.06
447.129	469.06
447.35	466.06
447.571	490.06
447.792	471.06
448.013	460.06
448.234	441.06
448.455	445.06
448.675	458.06
448.896	460.06
449.117	472.06
449.338	452.06
449.559	460.06
449.779	468.06
450	450.06
450.221	449.06
450.442	434.06
450.662	446.06
450.883	451.06
451.104	447.06
451.324	451.06
451.545	441.06
451.766	467.06
451.986	456.06
452.207	465.06
452.428	454.06
452.648	457.06
452.869	446.06
453.089	467.06
453.31	459.06
453.53	455.06
453.751	432.06
453.971	433.06
454.192	427.06
454.412	411.06
454.633	436.06
454.853	439.06
455.073	443.06
455.294	445.06
455.514	447.06
455.734	430.06
455.955	451.06
456.175	439.06
456.395	447.06
456.616	432.06
456.836	439.06
457.056	452.06
457.276	419.06
457.497	434.06
457.717	456.06
457.937	463.06
458.157	444.06
458.377	452.06
458.598	471.06
458.818	468.06
459.038	473.06
459.258	476.06
459.478	464.06
459.698	469.06
459.918	480.06
460.138	504.06
460.358	496.06
460.578	484.06
460.798	494.06
461.018	501.06
461.238	512.06
461.458	496.06
461.678	501.06
461.898	509.06
462.118	547.06
462.338	531.06
462.558	516.06
462.777	532.06
462.997	553.06
463.217	548.06
463.437	548.06
463.657	546.06
463.876	545.06
464.096	553.06
464.316	542.06
464.536	526.06
464.755	511.06
464.975	498.06
465.195	532.06
465.414	508.06
465.634	505.06
465.854	492.06
466.073	509.06
466.293	501.06
466.512	489.06
466.732	476.06
466.951	499.06
467.171	497.06
467.391	488.06
467.61	481.06
467.829	475.06
468.049	480.06
468.268	484.06
468.488	471.06
468.707	509.06
468.927	487.06
469.146	479.06
469.365	470.06
469.585	474.06
469.804	478.06
470.023	487.06
470.243	468.06
470.462	473.06
470.681	498.06
470.901	476.06
471.12	481.06
471.339	464.06
471.558	500.06
471.777	479.06
471.997	502.06
472.216	507.06
472.435	473.06
472.654	497.06
472.873	485.06
473.092	488.06
473.311	483.06
473.53	475.06
473.749	487.06
473.968	497.06
474.187	477.06
474.406	508.06
474.625	487.06
474.844	504.06
475.063	523.06
475.282	516.06
475.501	517.06
475.72	484.06
475.939	522.06
476.158	524.06
476.377	531.06
476.596	547.06
476.814	545.06
477.033	509.06
477.252	540.06
477.471	522.06
477.69	534.06
477.908	530.06
478.127	562.06
478.346	557.06
478.564	545.06
478.783	551.06
479.002	579.06
479.22	549.06
479.439	580.06
479.658	580.06
479.876	579.06
480.095	569.06
480.313	562.06
480.532	583.06
480.751	569.06
480.969	552.06
481.188	610.06
481.406	581.06
481.624	577.06
481.843	587.06
482.061	582.06
482.28	562.06
482.498	597.06
482.717	584.06
482.935	577.06
483.153	594.06
483.372	554.06
483.59	587.06
483.808	601.06
484.027	604.06
484.245	600.06
484.463	586.06
484.681	595.06
484.9	608.06
485.118	596.06
485.336	582.06
485.554	601.06
485.772	600.06
485.99	579.06
486.209	604.06
486.427	593.06
486.645	605.06
486.863	599.06
487.081	604.06
487.299	581.06
487.517	615.06
487.735	584.06
487.953	593.06
488.171	592.06
488.389	616.06
488.607	590.06
488.825	608.06
489.043	602.06
489.261	599.06
489.479	617.06
489.696	600.06
489.914	591.06
490.132	594.06
490.35	590.06
490.568	582.06
490.786	611.06
491.003	594.06
491.221	616.06
491.439	612.06
491.657	632.06
491.874	637.06
492.092	609.06
492.31	626.06
492.527	631.06
492.745	627.06
492.963	625.06
493.18	649.06
493.398	623.06
493.615	646.06
493.833	627.06
494.05	618.06
494.268	632.06
494.485	635.06
494.703	623.06
494.92	627.06
495.138	631.06
495.355	640.06
495.573	650.06
495.79	645.06
496.008	654.06
496.225	651.06
496.442	687.06
496.66	650.06
496.877	663.06
497.094	669.06
497.312	666.06
497.529	697.06
497.746	671.06
497.963	692.06
498.181	730.06
498.398	711.06
498.615	731.06
498.832	743.06
499.049	772.06
499.267	769.06
499.484	788.06
499.701	821.06
499.918	866.06
500.135	873.06
500.352	871.06
500.569	885.06
500.786	901.06
501.003	890.06
501.22	883.06
501.437	853.06
501.654	817.06
501.871	839.06
502.088	806.06
502.305	773.06
502.522	748.06
502.739	749.06
502.956	716.06
503.172	727.06
503.389	689.06
503.606	684.06
503.823	671.06
504.04	662.06
504.256	684.06
504.473	671.06
504.69	682.06
504.907	649.06
505.123	658.06
505.34	621.06
505.557	619.06
505.773	620.06
505.99	603.06
506.207	612.06
506.423	609.06
506.64	583.06
506.856	591.06
507.073	579.06
507.289	575.06
507.506	564.06
507.722	593.06
507.939	585.06
508.155	552.06
508.372	564.06
508.588	572.06
508.805	568.06
509.021	562.06
509.238	559.06
509.454	558.06
509.67	546.06
509.887	548.06
510.103	550.06
510.319	570.06
510.536	537.06
510.752	539.06
510.968	543.06
511.184	546.06
511.401	516.06
511.617	543.06
511.833	543.06
512.049	536.06
512.265	515.06
512.481	538.06
512.698	549.06
512.914	538.06
513.13	508.06
513.346	532.06
513.562	546.06
513.778	552.06
513.994	539.06
514.21	546.06
514.426	528.06
514.642	528.06
514.858	540.06
515.074	561.06
515.29	559.06
515.506	534.06
515.721	549.06
515.937	550.06
516.153	563.06
516.369	545.06
516.585	580.06
516.801	549.06
517.016	559.06
517.232	582.06
517.448	570.06
517.664	560.06
517.879	557.06
518.095	597.06
518.311	572.06
518.527	584.06
518.742	559.06
518.958	533.06
519.173	569.06
519.389	567.06
519.605	547.06
519.82	523.06
520.036	544.06
520.251	561.06
520.467	534.06
520.682	531.06
520.898	518.06
521.113	517.06
521.329	495.06
521.544	533.06
521.76	540.06
521.975	536.06
522.19	534.06
522.406	515.06
522.621	515.06
522.836	508.06
523.052	489.06
523.267	529.06
523.482	517.06
523.698	502.06
523.913	508.06
524.128	512.06
524.343	486.06
524.559	488.06
524.774	495.06
524.989	497.06
525.204	494.06
525.419	500.06
525.634	472.06
525.849	511.06
526.064	497.06
526.28	520.06
526.495	504.06
526.71	485.06
526.925	494.06
527.14	479.06
527.355	491.06
527.57	493.06
527.785	504.06
527.999	487.06
528.214	482.06
528.429	488.06
528.644	484.06
528.859	503.06
529.074	496.06
529.289	501.06
529.503	485.06
529.718	474.06
529.933	498.06
530.148	487.06
530.363	502.06
530.577	482.06
530.792	475.06
531.007	497.06
531.221	490.06
531.436	487.06
531.651	502.06
531.865	479.06
532.08	457.06
532.295	484.06
532.509	474.06
532.724	465.06
532.938	497.06
533.153	470.06
533.367	468.06
533.582	508.06
533.796	480.06
534.011	475.06
534.225	472.06
534.44	465.06
534.654	472.06
534.868	467.06
535.083	459.06
535.297	457.06
535.511	472.06
535.726	493.06
535.94	491.06
536.154	474.06
536.369	456.06
536.583	462.06
536.797	458.06
537.011	447.06
537.225	453.06
537.44	448.06
537.654	468.06
537.868	454.06
538.082	459.06
538.296	434.06
538.51	433.06
538.724	468.06
538.938	448.06
539.153	465.06
539.367	464.06
539.581	455.06
539.795	453.06
540.009	466.06
540.222	466.06
540.436	443.06
540.65	446.06
540.864	434.06
541.078	448.06
541.292	455.06
541.506	461.06
541.72	453.06
541.934	451.06
542.147	456.06
542.361	456.06
542.575	466.06
542.789	454.06
543.002	462.06
543.216	449.06
543.43	443.06
543.644	438.06
543.857	434.06
544.071	445.06
544.285	447.06
544.498	450.06
544.712	446.06
544.925	448.06
545.139	443.06
545.352	449.06
545.566	465.06
545.779	462.06
545.993	455.06
546.206	465.06
546.42	450.06
546.633	453.06
546.847	448.06
547.06	447.06
547.274	464.06
547.487	451.06
547.7	479.06
547.914	452.06
548.127	450.06
548.34	462.06
548.554	452.06
548.767	449.06
548.98	453.06
549.193	456.06
549.407	436.06
549.62	441.06
549.833	457.06
550.046	451.06
550.259	436.06
550.473	454.06
550.686	457.06
550.899	445.06
551.112	442.06
551.325	452.06
551.538	436.06
551.751	444.06
551.964	448.06
552.177	418.06
552.39	452.06
552.603	448.06
552.816	448.06
553.029	434.06
553.242	438.06
553.455	455.06
553.667	434.06
553.88	431.06
554.093	432.06
554.306	424.06
554.519	432.06
554.732	427.06
554.944	444.06
555.157	419.06
555.37	427.06
555.583	407.06
555.795	435.06
556.008	421.06
556.221	406.06
556.433	404.06
556.646	415.06
556.859	414.06
557.071	409.06
557.284	411.06
557.496	409.06
557.709	397.06
557.921	402.06
558.134	396.06
558.346	419.06
558.559	417.06
558.771	413.06
558.984	397.06
559.196	404.06
559.409	386.06
559.621	380.06
559.833	412.06
560.046	393.06
560.258	383.06
560.47	387.06
560.683	381.06
560.895	399.06
561.107	404.06
561.32	405.06
561.532	411.06
561.744	390.06
561.956	391.06
562.168	409.06
562.381	401.06
562.593	395.06
562.805	403.06
563.017	401.06
563.229	403.06
563.441	404.06
563.653	410.06
563.865	400.06
564.077	389.06
564.289	401.06
564.501	380.06
564.713	408.06
564.925	399.06
565.137	413.06
565.349	402.06
565.561	392.06
565.773	419.06
565.985	429.06
566.197	404.06
566.408	421.06
566.62	418.06
566.832	431.06
567.044	451.06
567.255	445.06
567.467	443.06
567.679	423.06
567.891	455.06
568.102	444.06
568.314	422.06
568.526	406.06
568.737	407.06
568.949	410.06
569.161	407.06
569.372	407.06
569.584	390.06
569.795	396.06
570.007	386.06
570.218	383.06
570.43	373.06
570.641	360.06
570.853	373.06
571.064	355.06
571.276	380.06
571.487	364.06
571.698	352.06
571.91	361.06
572.121	361.06
572.333	353.06
572.544	354.06
572.755	335.06
572.966	340.06
573.178	359.06
573.389	339.06
573.6	318.06
573.811	337.06
574.023	336.06
574.234	318.06
574.445	323.06
574.656	331.06
574.867	326.06
575.078	330.06
575.289	334.06
575.501	315.06
575.712	337.06
575.923	333.06
576.134	313.06
576.345	305.06
576.556	327.06
576.767	315.06
576.978	296.06
577.188	303.06
577.399	301.06
577.61	298.06
577.821	301.06
578.032	295.06
578.243	295.06
578.454	300.06
578.665	300.06
578.875	301.06
579.086	296.06
579.297	310.06
579.508	310.06
579.718	298.06
579.929	313.06
580.14	282.06
580.35	295.06
580.561	304.06
580.772	299.06
580.982	269.06
581.193	292.06
581.403	295.06
581.614	275.06
581.825	292.06
582.035	290.06
582.246	299.06
582.456	274.06
582.667	300.06
582.877	293.06
583.087	308.06
583.298	284.06
583.508	293.06
583.719	288.06
583.929	294.06
584.139	296.06
584.35	283.06
584.56	281.06
584.77	277.06
584.981	294.06
585.191	282.06
585.401	286.06
585.611	269.06
585.821	289.06
586.032	287.06
586.242	277.06
586.452	288.06
586.662	265.06
586.872	261.06
587.082	265.06
587.292	283.06
587.502	271.06
587.713	263.06
587.923	271.06
588.133	270.06
588.343	289.06
588.553	268.06
588.762	265.06
588.972	259.06
589.182	308.06
589.392	319.06
589.602	304.06
589.812	315.06
590.022	292.06
590.232	285.06
590.441	261.06
590.651	264.06
590.861	257.06
591.071	283.06
591.281	267.06
591.49	268.06
591.7	275.06
591.91	257.06
592.119	277.06
592.329	285.06
592.539	285.06
592.748	303.06
592.958	292.06
593.167	292.06
593.377	264.06
593.587	280.06
593.796	259.06
594.006	269.06
594.215	284.06
594.424	266.06
594.634	281.06
594.843	241.06
595.053	269.06
595.262	256.06
595.472	279.06
595.681	246.06
595.89	268.06
596.1	262.06
596.309	267.06
596.518	263.06
596.727	252.06
596.937	267.06
597.146	262.06
597.355	258.06
597.564	232.06
597.774	241.06
597.983	262.06
598.192	252.06
598.401	244.06
598.61	239.06
598.819	225.06
599.028	249.06
599.237	254.06
599.446	226.06
599.655	243.06
599.864	254.06
600.073	243.06
600.282	239.06
600.491	246.06
600.7	233.06
600.909	225.06
601.118	256.06
601.327	241.06
601.536	240.06
601.745	225.06
601.953	218.06
602.162	239.06
602.371	234.06
602.58	227.06
602.789	232.06
602.997	219.06
603.206	227.06
603.415	226.06
603.623	221.06
603.832	221.06
604.041	234.06
604.249	220.06
604.458	233.06
604.666	230.06
604.875	231.06
605.084	220.06
605.292	233.06
605.501	231.06
605.709	221.06
605.918	227.06
606.126	223.06
606.334	229.06
606.543	215.06
606.751	213.06
606.96	245.06
607.168	230.06
607.376	219.06
607.585	233.06
607.793	220.06
608.001	216.06
608.21	223.06
608.418	222.06
608.626	220.06
608.834	223.06
609.043	215.06
609.251	224.06
609.459	209.06
609.667	224.06
609.875	224.06
610.083	209.06
610.291	229.06
610.499	229.06
610.707	235.06
610.916	228.06
611.124	217.06
611.332	220.06
611.54	224.06
611.748	218.06
611.955	218.06
612.163	218.06
612.371	222.06
612.579	232.06
612.787	201.06
612.995	213.06
613.203	215.06
613.411	206.06
613.618	212.06
613.826	219.06
614.034	216.06
614.242	223.06
614.449	207.06
614.657	195.06
614.865	227.06
615.072	216.06
615.28	225.06
615.488	204.06
615.695	217.06
615.903	207.06
616.111	207.06
616.318	220.06
616.526	205.06
616.733	225.06
616.941	200.06
617.148	214.06
617.356	208.06
617.563	196.06
617.771	192.06
617.978	206.06
618.185	206.06
618.393	199.06
618.6	201.06
618.807	213.06
619.015	207.06
619.222	198.06
619.429	204.06
619.637	208.06
619.844	213.06
620.051	200.06
620.258	184.06
620.466	202.06
620.673	200.06
620.88	203.06
621.087	190.06
621.294	207.06
621.501	195.06
621.708	187.06
621.915	216.06
622.122	204.06
622.329	228.06
622.536	216.06
622.743	186.06
622.95	191.06
623.157	200.06
623.364	205.06
623.571	200.06
623.778	189.06
623.985	194.06
624.192	191.06
624.399	203.06
624.606	194.06
624.812	183.06
625.019	174.06
625.226	202.06
625.433	198.06
625.639	202.06
625.846	187.06
626.053	208.06
626.259	189.06
626.466	199.06
626.673	191.06
626.879	187.06
627.086	182.06
627.293	193.06
627.499	201.06
627.706	193.06
627.912	182.06
628.119	187.06
628.325	187.06
628.532	184.06
628.738	187.06
628.945	168.06
629.151	191.06
629.357	194.06
629.564	190.06
629.77	192.06
629.976	171.06
630.183	183.06
630.389	188.06
630.595	200.06
630.802	166.06
631.008	166.06
631.214	186.06
631.42	179.06
631.627	170.06
631.833	174.06
632.039	186.06
632.245	191.06
632.451	183.06
632.657	196.06
632.863	184.06
633.069	178.06
633.275	190.06
633.481	178.06
633.688	172.06
633.893	166.06
634.099	164.06
634.305	189.06
634.511	166.06
634.717	173.06
634.923	175.06
635.129	164.06
635.335	181.06
635.541	152.06
635.747	179.06
635.952	171.06
636.158	172.06
636.364	171.06
636.57	163.06
636.775	179.06
636.981	168.06
637.187	190.06
637.392	159.06
637.598	162.06
637.804	165.06
638.009	185.06
638.215	185.06
638.421	170.06
638.626	188.06
638.832	172.06
639.037	161.06
639.243	179.06
639.448	176.06
639.654	170.06
639.859	163.06
640.065	155.06
640.27	177.06
640.475	171.06
640.681	161.06
640.886	176.06
641.091	163.06
641.297	183.06
641.502	159.06
641.707	172.06
641.913	163.06
642.118	156.06
642.323	156.06
642.528	173.06
642.733	179.06
642.939	179.06
643.144	162.06
643.349	155.06
643.554	153.06
643.759	170.06
643.964	167.06
644.169	167.06
644.374	153.06
644.579	175.06
644.784	160.06
644.989	185.06
645.194	147.06
645.399	154.06
645.604	172.06
645.809	159.06
646.014	161.06
646.219	165.06
646.423	170.06
646.628	159.06
646.833	166.06
647.038	172.06
647.243	167.06
647.447	173.06
647.652	163.06
647.857	157.06
648.062	172.06
648.266	153.06
648.471	161.06
648.676	157.06
648.88	149.06
649.085	168.06
649.289	178.06
649.494	164.06
649.698	164.06
649.903	152.06
650.107	168.06
650.312	174.06
650.516	168.06
650.721	163.06
650.925	153.06
651.13	161.06
651.334	157.06
651.539	177.06
651.743	161.06
651.947	170.06
652.152	162.06
652.356	176.06
652.56	157.06
652.764	157.06
652.969	150.06
653.173	153.06
653.377	162.06
653.581	157.06
653.785	164.06
653.99	154.06
654.194	175.06
654.398	162.06
654.602	157.06
654.806	131.06
655.01	150.06
655.214	159.06
655.418	163.06
655.622	159.06
655.826	152.06
656.03	147.06
656.234	155.06
656.438	155.06
656.642	155.06
656.846	152.06
657.049	160.06
657.253	157.06
657.457	129.06
657.661	132.06
657.865	125.06
658.068	114.06
658.272	127.06
658.476	140.06
658.68	113.06
658.883	133.06
659.087	118.06
659.291	102.06
659.494	109.06
659.698	120.06
659.901	102.06
660.105	104.06
660.309	93.06
660.512	94.06
660.716	79.06
660.919	98.06
661.123	94.06
661.326	95.06
661.53	105.06
661.733	88.06
661.936	71.06
662.14	87.06
662.343	94.06
662.546	97.06
662.75	83.06
662.953	85.06
663.156	86.06
663.36	92.06
663.563	80.06
663.766	85.06
663.969	93.06
664.173	82.06
664.376	76.06
664.579	74.06
664.782	104.06
664.985	84.06
665.188	75.06
665.391	90.06
665.594	89.06
665.797	89.06
666	89.06
666.203	87.06
666.406	81.06
666.609	77.06
666.812	80.06
667.015	82.06
667.218	87.06
667.421	66.06
667.624	78.06
667.827	66.06
668.03	77.06
668.232	84.06
668.435	86.06
668.638	77.06
668.841	85.06
669.043	86.06
669.246	84.06
669.449	83.06
669.651	76.06
669.854	76.06
670.057	75.06
670.259	81.06
670.462	83.06
670.665	92.06
670.867	89.06
671.07	97.06
671.272	86.06
671.475	71.06
671.677	95.06
671.88	86.06
672.082	77.06
672.284	76.06
672.487	86.06
672.689	73.06
672.892	70.06
