Data from Fe(NO3)3@0.0125M.TitratingCurve.Agarose3%dH2O.NegLispCup.LampEnergy10.LIBS07252019_HRD10591_16-58-34-336.txt Node
Date: Thu Jul 25 16:58:34 EDT 2019
User: cochatt
Spectrometer: HR+D1059
Trigger mode: 1
Integration Time (sec): 1.000000E-1
Scans to average: 1
Electric dark correction enabled: true
Nonlinearity correction enabled: false
Boxcar width: 0
XAxis mode: Wavelengths
Number of Pixels in Spectrum: 2048
>>>>>Begin Spectral Data<<<<<
223.165	-7.12
223.4	-7.12
223.635	-7.12
223.869	-14.12
224.104	-27.12
224.338	-18.12
224.573	-10.12
224.808	0.88
225.042	-9.12
225.277	-3.12
225.511	2.88
225.746	8.88
225.98	6.88
226.215	7.88
226.449	5.88
226.683	16.88
226.918	16.88
227.152	21.88
227.387	33.88
227.621	34.88
227.856	34.88
228.09	44.88
228.324	51.88
228.559	52.88
228.793	73.88
229.027	94.88
229.262	102.88
229.496	114.88
229.73	109.88
229.964	118.88
230.199	128.88
230.433	110.88
230.667	116.88
230.901	120.88
231.136	128.88
231.37	133.88
231.604	126.88
231.838	127.88
232.072	126.88
232.306	130.88
232.541	130.88
232.775	134.88
233.009	137.88
233.243	129.88
233.477	139.88
233.711	140.88
233.945	137.88
234.179	129.88
234.413	133.88
234.647	152.88
234.881	134.88
235.115	131.88
235.349	130.88
235.583	149.88
235.817	132.88
236.051	154.88
236.285	137.88
236.519	142.88
236.753	135.88
236.987	146.88
237.221	150.88
237.455	155.88
237.689	148.88
237.922	141.88
238.156	148.88
238.39	150.88
238.624	154.88
238.858	156.88
239.091	150.88
239.325	171.88
239.559	150.88
239.793	162.88
240.027	168.88
240.26	165.88
240.494	156.88
240.728	172.88
240.961	168.88
241.195	181.88
241.429	165.88
241.662	164.88
241.896	159.88
242.13	170.88
242.363	171.88
242.597	160.88
242.83	175.88
243.064	172.88
243.298	172.88
243.531	194.88
243.765	180.88
243.998	186.88
244.232	179.88
244.465	178.88
244.699	180.88
244.932	187.88
245.166	189.88
245.399	187.88
245.633	180.88
245.866	182.88
246.099	195.88
246.333	200.88
246.566	194.88
246.8	187.88
247.033	180.88
247.266	190.88
247.5	200.88
247.733	192.88
247.966	184.88
248.2	205.88
248.433	207.88
248.666	210.88
248.899	202.88
249.133	208.88
249.366	221.88
249.599	220.88
249.832	219.88
250.066	218.88
250.299	211.88
250.532	204.88
250.765	210.88
250.998	229.88
251.231	211.88
251.465	223.88
251.698	225.88
251.931	226.88
252.164	219.88
252.397	233.88
252.63	226.88
252.863	212.88
253.096	211.88
253.329	244.88
253.562	231.88
253.795	246.88
254.028	242.88
254.261	238.88
254.494	255.88
254.727	241.88
254.96	241.88
255.193	257.88
255.426	261.88
255.659	236.88
255.892	250.88
256.124	252.88
256.357	254.88
256.59	254.88
256.823	235.88
257.056	256.88
257.289	276.88
257.521	249.88
257.754	257.88
257.987	263.88
258.22	271.88
258.452	260.88
258.685	270.88
258.918	280.88
259.151	274.88
259.383	306.88
259.616	269.88
259.849	279.88
260.081	294.88
260.314	286.88
260.547	281.88
260.779	274.88
261.012	292.88
261.244	282.88
261.477	290.88
261.71	290.88
261.942	283.88
262.175	293.88
262.407	288.88
262.64	298.88
262.872	292.88
263.105	292.88
263.337	298.88
263.57	293.88
263.802	316.88
264.035	310.88
264.267	303.88
264.499	293.88
264.732	308.88
264.964	308.88
265.197	322.88
265.429	315.88
265.661	296.88
265.894	320.88
266.126	316.88
266.358	335.88
266.591	325.88
266.823	333.88
267.055	341.88
267.287	345.88
267.52	320.88
267.752	315.88
267.984	323.88
268.216	332.88
268.448	332.88
268.681	338.88
268.913	327.88
269.145	346.88
269.377	343.88
269.609	340.88
269.841	345.88
270.073	346.88
270.306	348.88
270.538	345.88
270.77	346.88
271.002	369.88
271.234	353.88
271.466	364.88
271.698	365.88
271.93	376.88
272.162	352.88
272.394	368.88
272.626	347.88
272.858	345.88
273.09	357.88
273.322	363.88
273.553	386.88
273.785	378.88
274.017	380.88
274.249	376.88
274.481	387.88
274.713	378.88
274.945	378.88
275.176	389.88
275.408	383.88
275.64	404.88
275.872	401.88
276.104	384.88
276.335	408.88
276.567	395.88
276.799	396.88
277.031	416.88
277.262	394.88
277.494	396.88
277.726	403.88
277.957	411.88
278.189	408.88
278.421	415.88
278.652	434.88
278.884	428.88
279.115	432.88
279.347	434.88
279.579	422.88
279.81	432.88
280.042	415.88
280.273	412.88
280.505	420.88
280.736	423.88
280.968	462.88
281.199	425.88
281.431	432.88
281.662	436.88
281.894	417.88
282.125	447.88
282.356	453.88
282.588	445.88
282.819	424.88
283.051	429.88
283.282	443.88
283.513	455.88
283.745	457.88
283.976	470.88
284.207	453.88
284.439	469.88
284.67	477.88
284.901	467.88
285.132	460.88
285.364	460.88
285.595	466.88
285.826	480.88
286.057	470.88
286.288	480.88
286.52	487.88
286.751	477.88
286.982	504.88
287.213	454.88
287.444	476.88
287.675	466.88
287.906	468.88
288.138	482.88
288.369	494.88
288.6	502.88
288.831	520.88
289.062	491.88
289.293	488.88
289.524	490.88
289.755	515.88
289.986	502.88
290.217	498.88
290.448	508.88
290.679	502.88
290.91	492.88
291.141	491.88
291.371	518.88
291.602	509.88
291.833	502.88
292.064	507.88
292.295	507.88
292.526	512.88
292.757	483.88
292.987	500.88
293.218	514.88
293.449	532.88
293.68	514.88
293.91	525.88
294.141	525.88
294.372	515.88
294.603	512.88
294.833	521.88
295.064	522.88
295.295	534.88
295.525	522.88
295.756	549.88
295.987	517.88
296.217	523.88
296.448	531.88
296.679	535.88
296.909	532.88
297.14	541.88
297.37	561.88
297.601	554.88
297.831	564.88
298.062	548.88
298.292	562.88
298.523	562.88
298.753	553.88
298.984	558.88
299.214	541.88
299.445	566.88
299.675	573.88
299.905	587.88
300.136	569.88
300.366	562.88
300.597	580.88
300.827	568.88
301.057	568.88
301.288	565.88
301.518	570.88
301.748	604.88
301.979	588.88
302.209	569.88
302.439	602.88
302.669	575.88
302.9	607.88
303.13	614.88
303.36	605.88
303.59	587.88
303.82	610.88
304.051	618.88
304.281	622.88
304.511	622.88
304.741	613.88
304.971	599.88
305.201	620.88
305.431	622.88
305.661	626.88
305.891	619.88
306.121	617.88
306.352	622.88
306.582	611.88
306.812	612.88
307.042	602.88
307.272	600.88
307.502	601.88
307.731	612.88
307.961	599.88
308.191	584.88
308.421	609.88
308.651	621.88
308.881	625.88
309.111	628.88
309.341	603.88
309.571	616.88
309.8	625.88
310.03	620.88
310.26	638.88
310.49	638.88
310.72	623.88
310.949	632.88
311.179	642.88
311.409	641.88
311.639	651.88
311.868	644.88
312.098	669.88
312.328	649.88
312.557	665.88
312.787	662.88
313.017	666.88
313.246	650.88
313.476	677.88
313.706	660.88
313.935	674.88
314.165	678.88
314.394	665.88
314.624	669.88
314.853	679.88
315.083	659.88
315.312	705.88
315.542	698.88
315.771	690.88
316.001	675.88
316.23	705.88
316.46	698.88
316.689	671.88
316.919	703.88
317.148	716.88
317.377	694.88
317.607	679.88
317.836	695.88
318.065	692.88
318.295	690.88
318.524	716.88
318.753	678.88
318.983	699.88
319.212	720.88
319.441	697.88
319.67	696.88
319.9	715.88
320.129	714.88
320.358	699.88
320.587	718.88
320.816	716.88
321.046	733.88
321.275	726.88
321.504	711.88
321.733	734.88
321.962	697.88
322.191	736.88
322.42	730.88
322.649	745.88
322.878	726.88
323.108	720.88
323.337	747.88
323.566	744.88
323.795	741.88
324.024	729.88
324.253	733.88
324.482	743.88
324.71	762.88
324.939	754.88
325.168	778.88
325.397	743.88
325.626	740.88
325.855	757.88
326.084	778.88
326.313	779.88
326.542	764.88
326.77	772.88
326.999	778.88
327.228	776.88
327.457	753.88
327.686	756.88
327.914	783.88
328.143	762.88
328.372	772.88
328.6	788.88
328.829	749.88
329.058	768.88
329.287	764.88
329.515	799.88
329.744	791.88
329.972	788.88
330.201	798.88
330.43	794.88
330.658	806.88
330.887	796.88
331.115	799.88
331.344	780.88
331.572	802.88
331.801	783.88
332.03	805.88
332.258	797.88
332.486	828.88
332.715	802.88
332.943	809.88
333.172	848.88
333.4	831.88
333.629	823.88
333.857	817.88
334.085	837.88
334.314	828.88
334.542	875.88
334.771	886.88
334.999	836.88
335.227	846.88
335.455	844.88
335.684	853.88
335.912	838.88
336.14	836.88
336.369	851.88
336.597	867.88
336.825	850.88
337.053	855.88
337.281	851.88
337.51	841.88
337.738	869.88
337.966	841.88
338.194	829.88
338.422	839.88
338.65	834.88
338.878	861.88
339.106	866.88
339.334	849.88
339.562	845.88
339.79	837.88
340.018	835.88
340.246	834.88
340.474	837.88
340.702	845.88
340.93	839.88
341.158	830.88
341.386	833.88
341.614	852.88
341.842	856.88
342.07	818.88
342.298	814.88
342.526	860.88
342.754	847.88
342.981	827.88
343.209	838.88
343.437	846.88
343.665	840.88
343.893	838.88
344.12	869.88
344.348	854.88
344.576	836.88
344.804	850.88
345.031	861.88
345.259	838.88
345.487	861.88
345.714	838.88
345.942	826.88
346.17	852.88
346.397	832.88
346.625	817.88
346.853	804.88
347.08	803.88
347.308	825.88
347.535	832.88
347.763	820.88
347.99	806.88
348.218	813.88
348.445	798.88
348.673	779.88
348.9	822.88
349.128	841.88
349.355	806.88
349.583	793.88
349.81	796.88
350.037	803.88
350.265	797.88
350.492	795.88
350.72	786.88
350.947	809.88
351.174	812.88
351.402	802.88
351.629	801.88
351.856	816.88
352.083	812.88
352.311	810.88
352.538	807.88
352.765	817.88
352.992	790.88
353.22	799.88
353.447	793.88
353.674	818.88
353.901	818.88
354.128	816.88
354.355	785.88
354.583	790.88
354.81	786.88
355.037	805.88
355.264	817.88
355.491	820.88
355.718	789.88
355.945	803.88
356.172	826.88
356.399	806.88
356.626	808.88
356.853	804.88
357.08	796.88
357.307	826.88
357.534	813.88
357.761	790.88
357.988	808.88
358.215	804.88
358.441	809.88
358.668	805.88
358.895	781.88
359.122	796.88
359.349	795.88
359.576	826.88
359.802	790.88
360.029	788.88
360.256	801.88
360.483	819.88
360.709	818.88
360.936	818.88
361.163	843.88
361.39	812.88
361.616	840.88
361.843	813.88
362.07	824.88
362.296	810.88
362.523	813.88
362.749	811.88
362.976	845.88
363.203	824.88
363.429	822.88
363.656	839.88
363.882	857.88
364.109	836.88
364.335	820.88
364.562	808.88
364.788	820.88
365.015	830.88
365.241	819.88
365.468	833.88
365.694	832.88
365.92	805.88
366.147	816.88
366.373	820.88
366.599	845.88
366.826	843.88
367.052	853.88
367.278	821.88
367.505	841.88
367.731	834.88
367.957	828.88
368.184	842.88
368.41	840.88
368.636	860.88
368.862	853.88
369.089	846.88
369.315	842.88
369.541	850.88
369.767	869.88
369.993	849.88
370.219	854.88
370.445	871.88
370.672	884.88
370.898	872.88
371.124	878.88
371.35	880.88
371.576	846.88
371.802	858.88
372.028	864.88
372.254	898.88
372.48	884.88
372.706	921.88
372.932	893.88
373.158	882.88
373.384	885.88
373.61	856.88
373.835	882.88
374.061	870.88
374.287	893.88
374.513	858.88
374.739	867.88
374.965	905.88
375.191	868.88
375.416	894.88
375.642	876.88
375.868	896.88
376.094	893.88
376.319	863.88
376.545	894.88
376.771	882.88
376.997	869.88
377.222	857.88
377.448	848.88
377.674	857.88
377.899	881.88
378.125	875.88
378.35	868.88
378.576	883.88
378.802	853.88
379.027	867.88
379.253	863.88
379.478	862.88
379.704	858.88
379.929	864.88
380.155	875.88
380.38	869.88
380.606	857.88
380.831	848.88
381.057	861.88
381.282	869.88
381.507	874.88
381.733	897.88
381.958	869.88
382.184	882.88
382.409	854.88
382.634	885.88
382.86	895.88
383.085	903.88
383.31	899.88
383.535	891.88
383.761	889.88
383.986	895.88
384.211	910.88
384.436	909.88
384.662	911.88
384.887	898.88
385.112	912.88
385.337	928.88
385.562	920.88
385.787	924.88
386.013	932.88
386.238	932.88
386.463	949.88
386.688	959.88
386.913	927.88
387.138	920.88
387.363	928.88
387.588	938.88
387.813	950.88
388.038	968.88
388.263	981.88
388.488	949.88
388.713	953.88
388.938	960.88
389.163	953.88
389.387	980.88
389.612	961.88
389.837	991.88
390.062	969.88
390.287	975.88
390.512	996.88
390.736	938.88
390.961	980.88
391.186	984.88
391.411	989.88
391.636	959.88
391.86	970.88
392.085	997.88
392.31	993.88
392.534	997.88
392.759	1028.88
392.984	976.88
393.208	980.88
393.433	980.88
393.658	1004.88
393.882	982.88
394.107	968.88
394.331	986.88
394.556	977.88
394.78	985.88
395.005	965.88
395.229	978.88
395.454	1014.88
395.678	995.88
395.903	1008.88
396.127	988.88
396.352	1005.88
396.576	1008.88
396.801	987.88
397.025	986.88
397.249	998.88
397.474	1048.88
397.698	1023.88
397.922	1058.88
398.147	1034.88
398.371	1033.88
398.595	1041.88
398.82	1057.88
399.044	1062.88
399.268	1073.88
399.492	1126.88
399.717	1144.88
399.941	1140.88
400.165	1130.88
400.389	1108.88
400.613	1107.88
400.837	1081.88
401.062	1094.88
401.286	1082.88
401.51	1045.88
401.734	1063.88
401.958	1080.88
402.182	1079.88
402.406	1080.88
402.63	1067.88
402.854	1083.88
403.078	1092.88
403.302	1056.88
403.526	1090.88
403.75	1065.88
403.974	1053.88
404.198	1063.88
404.422	1063.88
404.645	1092.88
404.869	1093.88
405.093	1072.88
405.317	1064.88
405.541	1084.88
405.765	1099.88
405.988	1066.88
406.212	1099.88
406.436	1125.88
406.66	1142.88
406.883	1102.88
407.107	1145.88
407.331	1112.88
407.555	1172.88
407.778	1178.88
408.002	1129.88
408.226	1167.88
408.449	1142.88
408.673	1151.88
408.896	1133.88
409.12	1145.88
409.344	1153.88
409.567	1125.88
409.791	1136.88
410.014	1118.88
410.238	1105.88
410.461	1132.88
410.685	1114.88
410.908	1112.88
411.132	1129.88
411.355	1101.88
411.578	1124.88
411.802	1101.88
412.025	1121.88
412.249	1104.88
412.472	1120.88
412.695	1073.88
412.919	1081.88
413.142	1084.88
413.365	1089.88
413.589	1075.88
413.812	1062.88
414.035	1032.88
414.258	1074.88
414.482	1044.88
414.705	1054.88
414.928	1060.88
415.151	1076.88
415.374	1036.88
415.597	1060.88
415.821	1023.88
416.044	1040.88
416.267	1036.88
416.49	1022.88
416.713	1016.88
416.936	1050.88
417.159	1028.88
417.382	1043.88
417.605	1025.88
417.828	1001.88
418.051	1003.88
418.274	1000.88
418.497	1015.88
418.72	1062.88
418.943	999.88
419.166	1023.88
419.389	1121.88
419.611	1057.88
419.834	1088.88
420.057	1038.88
420.28	1016.88
420.503	981.88
420.726	992.88
420.948	1005.88
421.171	1001.88
421.394	1003.88
421.617	978.88
421.839	995.88
422.062	1005.88
422.285	996.88
422.507	980.88
422.73	1020.88
422.953	996.88
423.175	1003.88
423.398	1041.88
423.621	995.88
423.843	984.88
424.066	980.88
424.288	970.88
424.511	1021.88
424.733	973.88
424.956	971.88
425.178	987.88
425.401	965.88
425.623	979.88
425.846	994.88
426.068	996.88
426.291	985.88
426.513	992.88
426.735	1026.88
426.958	998.88
427.18	980.88
427.402	976.88
427.625	985.88
427.847	1001.88
428.069	978.88
428.292	983.88
428.514	964.88
428.736	964.88
428.958	965.88
429.181	989.88
429.403	972.88
429.625	992.88
429.847	938.88
430.069	979.88
430.292	997.88
430.514	952.88
430.736	1005.88
430.958	997.88
431.18	961.88
431.402	987.88
431.624	970.88
431.846	956.88
432.068	962.88
432.29	975.88
432.512	997.88
432.734	959.88
432.956	958.88
433.178	968.88
433.4	965.88
433.622	985.88
433.844	986.88
434.066	992.88
434.287	968.88
434.509	968.88
434.731	999.88
434.953	968.88
435.175	960.88
435.397	1015.88
435.618	990.88
435.84	973.88
436.062	942.88
436.284	981.88
436.505	948.88
436.727	965.88
436.949	983.88
437.17	941.88
437.392	941.88
437.614	972.88
437.835	934.88
438.057	939.88
438.278	933.88
438.5	957.88
438.721	928.88
438.943	948.88
439.165	945.88
439.386	960.88
439.608	960.88
439.829	957.88
440.05	926.88
440.272	952.88
440.493	961.88
440.715	960.88
440.936	952.88
441.158	964.88
441.379	958.88
441.6	975.88
441.822	928.88
442.043	947.88
442.264	940.88
442.486	952.88
442.707	952.88
442.928	982.88
443.149	973.88
443.371	972.88
443.592	966.88
443.813	968.88
444.034	942.88
444.255	957.88
444.476	973.88
444.698	944.88
444.919	981.88
445.14	1067.88
445.361	1046.88
445.582	956.88
445.803	939.88
446.024	925.88
446.245	968.88
446.466	969.88
446.687	925.88
446.908	942.88
447.129	928.88
447.35	930.88
447.571	939.88
447.792	900.88
448.013	900.88
448.234	906.88
448.455	864.88
448.675	909.88
448.896	912.88
449.117	870.88
449.338	885.88
449.559	898.88
449.779	849.88
450	888.88
450.221	896.88
450.442	896.88
450.662	897.88
450.883	881.88
451.104	890.88
451.324	865.88
451.545	856.88
451.766	844.88
451.986	873.88
452.207	864.88
452.428	882.88
452.648	875.88
452.869	887.88
453.089	857.88
453.31	902.88
453.53	841.88
453.751	847.88
453.971	865.88
454.192	860.88
454.412	845.88
454.633	841.88
454.853	882.88
455.073	856.88
455.294	850.88
455.514	852.88
455.734	862.88
455.955	849.88
456.175	878.88
456.395	859.88
456.616	873.88
456.836	873.88
457.056	873.88
457.276	852.88
457.497	878.88
457.717	843.88
457.937	862.88
458.157	876.88
458.377	894.88
458.598	889.88
458.818	909.88
459.038	918.88
459.258	891.88
459.478	908.88
459.698	948.88
459.918	902.88
460.138	931.88
460.358	919.88
460.578	966.88
460.798	952.88
461.018	974.88
461.238	965.88
461.458	982.88
461.678	959.88
461.898	978.88
462.118	999.88
462.338	993.88
462.558	1007.88
462.777	1026.88
462.997	1044.88
463.217	1012.88
463.437	1009.88
463.657	1008.88
463.876	1026.88
464.096	997.88
464.316	1033.88
464.536	1005.88
464.755	1001.88
464.975	996.88
465.195	1003.88
465.414	970.88
465.634	978.88
465.854	962.88
466.073	960.88
466.293	938.88
466.512	920.88
466.732	933.88
466.951	932.88
467.171	921.88
467.391	930.88
467.61	909.88
467.829	916.88
468.049	927.88
468.268	912.88
468.488	900.88
468.707	900.88
468.927	930.88
469.146	901.88
469.365	912.88
469.585	921.88
469.804	933.88
470.023	918.88
470.243	930.88
470.462	919.88
470.681	925.88
470.901	927.88
471.12	923.88
471.339	967.88
471.558	952.88
471.777	924.88
471.997	927.88
472.216	922.88
472.435	948.88
472.654	915.88
472.873	930.88
473.092	949.88
473.311	948.88
473.53	934.88
473.749	943.88
473.968	948.88
474.187	932.88
474.406	958.88
474.625	959.88
474.844	937.88
475.063	986.88
475.282	974.88
475.501	945.88
475.72	1008.88
475.939	972.88
476.158	977.88
476.377	998.88
476.596	960.88
476.814	1005.88
477.033	994.88
477.252	1018.88
477.471	1016.88
477.69	1018.88
477.908	1040.88
478.127	1029.88
478.346	1049.88
478.564	1066.88
478.783	1051.88
479.002	1054.88
479.22	1095.88
479.439	1070.88
479.658	1050.88
479.876	1093.88
480.095	1064.88
480.313	1105.88
480.532	1099.88
480.751	1084.88
480.969	1066.88
481.188	1074.88
481.406	1109.88
481.624	1105.88
481.843	1079.88
482.061	1099.88
482.28	1114.88
482.498	1129.88
482.717	1095.88
482.935	1085.88
483.153	1140.88
483.372	1110.88
483.59	1105.88
483.808	1119.88
484.027	1122.88
484.245	1109.88
484.463	1108.88
484.681	1159.88
484.9	1136.88
485.118	1140.88
485.336	1137.88
485.554	1112.88
485.772	1144.88
485.99	1128.88
486.209	1144.88
486.427	1156.88
486.645	1140.88
486.863	1134.88
487.081	1122.88
487.299	1110.88
487.517	1126.88
487.735	1163.88
487.953	1170.88
488.171	1130.88
488.389	1156.88
488.607	1156.88
488.825	1148.88
489.043	1153.88
489.261	1174.88
489.479	1166.88
489.696	1140.88
489.914	1176.88
490.132	1141.88
490.35	1152.88
490.568	1142.88
490.786	1176.88
491.003	1162.88
491.221	1184.88
491.439	1190.88
491.657	1172.88
491.874	1172.88
492.092	1183.88
492.31	1170.88
492.527	1195.88
492.745	1193.88
492.963	1172.88
493.18	1184.88
493.398	1177.88
493.615	1179.88
493.833	1192.88
494.05	1196.88
494.268	1179.88
494.485	1188.88
494.703	1216.88
494.92	1225.88
495.138	1220.88
495.355	1208.88
495.573	1230.88
495.79	1232.88
496.008	1272.88
496.225	1251.88
496.442	1235.88
496.66	1259.88
496.877	1268.88
497.094	1257.88
497.312	1312.88
497.529	1259.88
497.746	1300.88
497.963	1331.88
498.181	1352.88
498.398	1382.88
498.615	1394.88
498.832	1397.88
499.049	1448.88
499.267	1478.88
499.484	1448.88
499.701	1501.88
499.918	1544.88
500.135	1550.88
500.352	1590.88
500.569	1568.88
500.786	1554.88
501.003	1537.88
501.22	1543.88
501.437	1510.88
501.654	1461.88
501.871	1467.88
502.088	1427.88
502.305	1419.88
502.522	1382.88
502.739	1373.88
502.956	1322.88
503.172	1343.88
503.389	1320.88
503.606	1273.88
503.823	1284.88
504.04	1268.88
504.256	1262.88
504.473	1252.88
504.69	1241.88
504.907	1250.88
505.123	1218.88
505.34	1202.88
505.557	1175.88
505.773	1147.88
505.99	1164.88
506.207	1145.88
506.423	1106.88
506.64	1114.88
506.856	1128.88
507.073	1157.88
507.289	1099.88
507.506	1102.88
507.722	1107.88
507.939	1097.88
508.155	1073.88
508.372	1067.88
508.588	1065.88
508.805	1048.88
509.021	1046.88
509.238	1054.88
509.454	1058.88
509.67	1046.88
509.887	1032.88
510.103	1046.88
510.319	1009.88
510.536	1026.88
510.752	989.88
510.968	1052.88
511.184	1010.88
511.401	1041.88
511.617	996.88
511.833	1012.88
512.049	1025.88
512.265	987.88
512.481	1022.88
512.698	984.88
512.914	1033.88
513.13	1026.88
513.346	1012.88
513.562	1020.88
513.778	1002.88
513.994	1010.88
514.21	1017.88
514.426	1017.88
514.642	1000.88
514.858	1004.88
515.074	1004.88
515.29	1010.88
515.506	1004.88
515.721	990.88
515.937	1020.88
516.153	982.88
516.369	996.88
516.585	1028.88
516.801	1004.88
517.016	1028.88
517.232	1048.88
517.448	1046.88
517.664	1033.88
517.879	1040.88
518.095	1031.88
518.311	1050.88
518.527	1040.88
518.742	1057.88
518.958	1027.88
519.173	1022.88
519.389	1029.88
519.605	1001.88
519.82	1009.88
520.036	993.88
520.251	970.88
520.467	988.88
520.682	995.88
520.898	970.88
521.113	995.88
521.329	981.88
521.544	956.88
521.76	946.88
521.975	949.88
522.19	949.88
522.406	954.88
522.621	952.88
522.836	941.88
523.052	937.88
523.267	936.88
523.482	929.88
523.698	931.88
523.913	925.88
524.128	921.88
524.343	939.88
524.559	921.88
524.774	895.88
524.989	915.88
525.204	927.88
525.419	902.88
525.634	922.88
525.849	914.88
526.064	908.88
526.28	918.88
526.495	893.88
526.71	900.88
526.925	900.88
527.14	895.88
527.355	888.88
527.57	919.88
527.785	901.88
527.999	884.88
528.214	905.88
528.429	922.88
528.644	870.88
528.859	871.88
529.074	898.88
529.289	909.88
529.503	896.88
529.718	889.88
529.933	914.88
530.148	867.88
530.363	902.88
530.577	872.88
530.792	865.88
531.007	872.88
531.221	866.88
531.436	872.88
531.651	874.88
531.865	877.88
532.08	864.88
532.295	854.88
532.509	866.88
532.724	870.88
532.938	876.88
533.153	865.88
533.367	847.88
533.582	853.88
533.796	859.88
534.011	862.88
534.225	855.88
534.44	854.88
534.654	857.88
534.868	835.88
535.083	868.88
535.297	857.88
535.511	833.88
535.726	863.88
535.94	834.88
536.154	848.88
536.369	836.88
536.583	816.88
536.797	832.88
537.011	797.88
537.225	824.88
537.44	813.88
537.654	834.88
537.868	803.88
538.082	801.88
538.296	816.88
538.51	830.88
538.724	836.88
538.938	822.88
539.153	805.88
539.367	806.88
539.581	806.88
539.795	783.88
540.009	781.88
540.222	808.88
540.436	812.88
540.65	810.88
540.864	795.88
541.078	806.88
541.292	782.88
541.506	796.88
541.72	788.88
541.934	810.88
542.147	821.88
542.361	785.88
542.575	774.88
542.789	781.88
543.002	794.88
543.216	780.88
543.43	789.88
543.644	796.88
543.857	780.88
544.071	786.88
544.285	812.88
544.498	806.88
544.712	780.88
544.925	791.88
545.139	795.88
545.352	792.88
545.566	766.88
545.779	759.88
545.993	756.88
546.206	782.88
546.42	779.88
546.633	791.88
546.847	814.88
547.06	780.88
547.274	762.88
547.487	774.88
547.7	759.88
547.914	743.88
548.127	778.88
548.34	769.88
548.554	752.88
548.767	792.88
548.98	755.88
549.193	800.88
549.407	778.88
549.62	768.88
549.833	753.88
550.046	776.88
550.259	784.88
550.473	729.88
550.686	768.88
550.899	773.88
551.112	739.88
551.325	776.88
551.538	779.88
551.751	755.88
551.964	741.88
552.177	736.88
552.39	756.88
552.603	756.88
552.816	737.88
553.029	741.88
553.242	739.88
553.455	744.88
553.667	746.88
553.88	745.88
554.093	754.88
554.306	746.88
554.519	739.88
554.732	726.88
554.944	730.88
555.157	719.88
555.37	718.88
555.583	701.88
555.795	729.88
556.008	720.88
556.221	685.88
556.433	711.88
556.646	695.88
556.859	717.88
557.071	693.88
557.284	729.88
557.496	724.88
557.709	693.88
557.921	704.88
558.134	704.88
558.346	678.88
558.559	677.88
558.771	676.88
558.984	710.88
559.196	680.88
559.409	655.88
559.621	652.88
559.833	681.88
560.046	667.88
560.258	656.88
560.47	662.88
560.683	663.88
560.895	678.88
561.107	663.88
561.32	666.88
561.532	684.88
561.744	664.88
561.956	659.88
562.168	653.88
562.381	677.88
562.593	685.88
562.805	649.88
563.017	665.88
563.229	675.88
563.441	661.88
563.653	656.88
563.865	681.88
564.077	689.88
564.289	661.88
564.501	680.88
564.713	651.88
564.925	657.88
565.137	700.88
565.349	698.88
565.561	694.88
565.773	708.88
565.985	701.88
566.197	702.88
566.408	668.88
566.62	709.88
566.832	702.88
567.044	706.88
567.255	705.88
567.467	711.88
567.679	705.88
567.891	726.88
568.102	696.88
568.314	663.88
568.526	705.88
568.737	678.88
568.949	654.88
569.161	639.88
569.372	637.88
569.584	636.88
569.795	662.88
570.007	626.88
570.218	611.88
570.43	632.88
570.641	628.88
570.853	624.88
571.064	600.88
571.276	588.88
571.487	581.88
571.698	608.88
571.91	600.88
572.121	584.88
572.333	571.88
572.544	584.88
572.755	569.88
572.966	545.88
573.178	572.88
573.389	563.88
573.6	532.88
573.811	556.88
574.023	548.88
574.234	538.88
574.445	523.88
574.656	540.88
574.867	545.88
575.078	520.88
575.289	532.88
575.501	541.88
575.712	503.88
575.923	521.88
576.134	512.88
576.345	517.88
576.556	520.88
576.767	524.88
576.978	520.88
577.188	516.88
577.399	486.88
577.61	489.88
577.821	499.88
578.032	516.88
578.243	507.88
578.454	512.88
578.665	494.88
578.875	490.88
579.086	491.88
579.297	493.88
579.508	476.88
579.718	489.88
579.929	504.88
580.14	474.88
580.35	480.88
580.561	480.88
580.772	501.88
580.982	491.88
581.193	480.88
581.403	471.88
581.614	487.88
581.825	468.88
582.035	468.88
582.246	457.88
582.456	468.88
582.667	464.88
582.877	470.88
583.087	482.88
583.298	480.88
583.508	455.88
583.719	482.88
583.929	447.88
584.139	457.88
584.35	453.88
584.56	461.88
584.77	453.88
584.981	458.88
585.191	458.88
585.401	439.88
585.611	476.88
585.821	455.88
586.032	463.88
586.242	426.88
586.452	442.88
586.662	450.88
586.872	433.88
587.082	425.88
587.292	426.88
587.502	427.88
587.713	432.88
587.923	442.88
588.133	433.88
588.343	445.88
588.553	445.88
588.762	442.88
588.972	438.88
589.182	444.88
589.392	422.88
589.602	416.88
589.812	428.88
590.022	445.88
590.232	429.88
590.441	438.88
590.651	436.88
590.861	430.88
591.071	445.88
591.281	440.88
591.49	445.88
591.7	438.88
591.91	412.88
592.119	422.88
592.329	427.88
592.539	422.88
592.748	446.88
592.958	444.88
593.167	435.88
593.377	438.88
593.587	414.88
593.796	435.88
594.006	450.88
594.215	398.88
594.424	427.88
594.634	442.88
594.843	412.88
595.053	443.88
595.262	433.88
595.472	423.88
595.681	413.88
595.89	409.88
596.1	403.88
596.309	405.88
596.518	408.88
596.727	390.88
596.937	393.88
597.146	383.88
597.355	380.88
597.564	383.88
597.774	387.88
597.983	395.88
598.192	393.88
598.401	394.88
598.61	389.88
598.819	365.88
599.028	376.88
599.237	376.88
599.446	374.88
599.655	378.88
599.864	368.88
600.073	355.88
600.282	380.88
600.491	361.88
600.7	372.88
600.909	355.88
601.118	354.88
601.327	362.88
601.536	356.88
601.745	356.88
601.953	346.88
602.162	357.88
602.371	340.88
602.58	338.88
602.789	355.88
602.997	340.88
603.206	362.88
603.415	343.88
603.623	357.88
603.832	332.88
604.041	355.88
604.249	339.88
604.458	329.88
604.666	346.88
604.875	337.88
605.084	343.88
605.292	344.88
605.501	341.88
605.709	340.88
605.918	344.88
606.126	342.88
606.334	343.88
606.543	336.88
606.751	339.88
606.96	337.88
607.168	345.88
607.376	330.88
607.585	322.88
607.793	336.88
608.001	331.88
608.21	337.88
608.418	335.88
608.626	316.88
608.834	324.88
609.043	339.88
609.251	347.88
609.459	323.88
609.667	322.88
609.875	330.88
610.083	344.88
610.291	317.88
610.499	324.88
610.707	322.88
610.916	333.88
611.124	306.88
611.332	325.88
611.54	325.88
611.748	314.88
611.955	341.88
612.163	329.88
612.371	326.88
612.579	317.88
612.787	338.88
612.995	331.88
613.203	306.88
613.411	308.88
613.618	321.88
613.826	310.88
614.034	328.88
614.242	324.88
614.449	301.88
614.657	314.88
614.865	313.88
615.072	306.88
615.28	319.88
615.488	312.88
615.695	301.88
615.903	308.88
616.111	306.88
616.318	310.88
616.526	316.88
616.733	305.88
616.941	298.88
617.148	283.88
617.356	299.88
617.563	292.88
617.771	302.88
617.978	304.88
618.185	291.88
618.393	304.88
618.6	292.88
618.807	274.88
619.015	295.88
619.222	302.88
619.429	304.88
619.637	292.88
619.844	283.88
620.051	306.88
620.258	294.88
620.466	266.88
620.673	290.88
620.88	270.88
621.087	286.88
621.294	280.88
621.501	281.88
621.708	286.88
621.915	280.88
622.122	285.88
622.329	285.88
622.536	267.88
622.743	282.88
622.95	283.88
623.157	281.88
623.364	283.88
623.571	278.88
623.778	263.88
623.985	297.88
624.192	285.88
624.399	269.88
624.606	276.88
624.812	269.88
625.019	277.88
625.226	282.88
625.433	285.88
625.639	264.88
625.846	263.88
626.053	260.88
626.259	254.88
626.466	255.88
626.673	252.88
626.879	238.88
627.086	270.88
627.293	288.88
627.499	264.88
627.706	270.88
627.912	273.88
628.119	271.88
628.325	267.88
628.532	254.88
628.738	248.88
628.945	276.88
629.151	262.88
629.357	261.88
629.564	263.88
629.77	248.88
629.976	236.88
630.183	266.88
630.389	277.88
630.595	249.88
630.802	246.88
631.008	253.88
631.214	237.88
631.42	246.88
631.627	256.88
631.833	237.88
632.039	230.88
632.245	232.88
632.451	253.88
632.657	247.88
632.863	246.88
633.069	237.88
633.275	259.88
633.481	256.88
633.688	245.88
633.893	242.88
634.099	248.88
634.305	220.88
634.511	237.88
634.717	237.88
634.923	237.88
635.129	227.88
635.335	223.88
635.541	220.88
635.747	239.88
635.952	242.88
636.158	230.88
636.364	223.88
636.57	244.88
636.775	224.88
636.981	252.88
637.187	224.88
637.392	231.88
637.598	228.88
637.804	228.88
638.009	242.88
638.215	248.88
638.421	209.88
638.626	224.88
638.832	230.88
639.037	204.88
639.243	238.88
639.448	225.88
639.654	227.88
639.859	222.88
640.065	202.88
640.27	222.88
640.475	224.88
640.681	212.88
640.886	218.88
641.091	221.88
641.297	229.88
641.502	206.88
641.707	227.88
641.913	210.88
642.118	220.88
642.323	231.88
642.528	218.88
642.733	225.88
642.939	229.88
643.144	222.88
643.349	227.88
643.554	228.88
643.759	220.88
643.964	210.88
644.169	211.88
644.374	199.88
644.579	213.88
644.784	235.88
644.989	224.88
645.194	219.88
645.399	208.88
645.604	222.88
645.809	221.88
646.014	210.88
646.219	221.88
646.423	213.88
646.628	212.88
646.833	217.88
647.038	222.88
647.243	220.88
647.447	218.88
647.652	195.88
647.857	222.88
648.062	212.88
648.266	211.88
648.471	214.88
648.676	221.88
648.88	220.88
649.085	227.88
649.289	220.88
649.494	208.88
649.698	208.88
649.903	217.88
650.107	196.88
650.312	211.88
650.516	215.88
650.721	218.88
650.925	191.88
651.13	195.88
651.334	205.88
651.539	213.88
651.743	196.88
651.947	199.88
652.152	206.88
652.356	201.88
652.56	189.88
652.764	198.88
652.969	198.88
653.173	184.88
653.377	206.88
653.581	189.88
653.785	205.88
653.99	197.88
654.194	191.88
654.398	182.88
654.602	174.88
654.806	182.88
655.01	180.88
655.214	193.88
655.418	170.88
655.622	178.88
655.826	165.88
656.03	183.88
656.234	180.88
656.438	167.88
656.642	188.88
656.846	168.88
657.049	166.88
657.253	156.88
657.457	154.88
657.661	152.88
657.865	168.88
658.068	129.88
658.272	144.88
658.476	135.88
658.68	136.88
658.883	128.88
659.087	117.88
659.291	124.88
659.494	116.88
659.698	132.88
659.901	132.88
660.105	97.88
660.309	108.88
660.512	100.88
660.716	118.88
660.919	101.88
661.123	101.88
661.326	95.88
661.53	112.88
661.733	96.88
661.936	76.88
662.14	93.88
662.343	108.88
662.546	98.88
662.75	86.88
662.953	89.88
663.156	86.88
663.36	79.88
663.563	91.88
663.766	72.88
663.969	82.88
664.173	77.88
664.376	85.88
664.579	92.88
664.782	92.88
664.985	78.88
665.188	82.88
665.391	78.88
665.594	77.88
665.797	69.88
666	88.88
666.203	82.88
666.406	70.88
666.609	86.88
666.812	88.88
667.015	81.88
667.218	84.88
667.421	72.88
667.624	88.88
667.827	75.88
668.03	84.88
668.232	82.88
668.435	85.88
668.638	75.88
668.841	89.88
669.043	84.88
669.246	88.88
669.449	92.88
669.651	82.88
669.854	78.88
670.057	81.88
670.259	83.88
670.462	84.88
670.665	91.88
670.867	87.88
671.07	91.88
671.272	89.88
671.475	80.88
671.677	70.88
671.88	91.88
672.082	91.88
672.284	77.88
672.487	84.88
672.689	82.88
672.892	73.88
