Data from Fe(NO3)3@0.05M.TitratingCurve.Agarose3%dH2O.NegLispCup.LampEnergy10.LIBS07252019_HRD10591_16-47-30-334.txt Node
Date: Thu Jul 25 16:47:30 EDT 2019
User: cochatt
Spectrometer: HR+D1059
Trigger mode: 1
Integration Time (sec): 1.000000E-1
Scans to average: 1
Electric dark correction enabled: true
Nonlinearity correction enabled: false
Boxcar width: 0
XAxis mode: Wavelengths
Number of Pixels in Spectrum: 2048
>>>>>Begin Spectral Data<<<<<
223.165	-16.94
223.4	-16.94
223.635	-16.94
223.869	-23.94
224.104	-24.94
224.338	-16.94
224.573	-16.94
224.808	-11.94
225.042	-4.94
225.277	11.06
225.511	-5.94
225.746	3.06
225.98	3.06
226.215	13.06
226.449	9.06
226.683	16.06
226.918	36.06
227.152	31.06
227.387	34.06
227.621	42.06
227.856	40.06
228.09	53.06
228.324	50.06
228.559	54.06
228.793	53.06
229.027	75.06
229.262	89.06
229.496	86.06
229.73	90.06
229.964	89.06
230.199	113.06
230.433	116.06
230.667	99.06
230.901	97.06
231.136	110.06
231.37	111.06
231.604	103.06
231.838	96.06
232.072	107.06
232.306	105.06
232.541	114.06
232.775	98.06
233.009	121.06
233.243	110.06
233.477	106.06
233.711	109.06
233.945	101.06
234.179	119.06
234.413	113.06
234.647	116.06
234.881	136.06
235.115	119.06
235.349	118.06
235.583	108.06
235.817	109.06
236.051	119.06
236.285	103.06
236.519	118.06
236.753	123.06
236.987	119.06
237.221	113.06
237.455	117.06
237.689	116.06
237.922	126.06
238.156	123.06
238.39	132.06
238.624	132.06
238.858	121.06
239.091	133.06
239.325	121.06
239.559	118.06
239.793	130.06
240.027	133.06
240.26	124.06
240.494	123.06
240.728	125.06
240.961	141.06
241.195	142.06
241.429	137.06
241.662	126.06
241.896	131.06
242.13	137.06
242.363	116.06
242.597	116.06
242.83	139.06
243.064	143.06
243.298	145.06
243.531	124.06
243.765	142.06
243.998	139.06
244.232	136.06
244.465	142.06
244.699	137.06
244.932	140.06
245.166	141.06
245.399	123.06
245.633	155.06
245.866	147.06
246.099	121.06
246.333	133.06
246.566	152.06
246.8	135.06
247.033	149.06
247.266	141.06
247.5	146.06
247.733	143.06
247.966	159.06
248.2	148.06
248.433	131.06
248.666	141.06
248.899	173.06
249.133	154.06
249.366	165.06
249.599	171.06
249.832	163.06
250.066	155.06
250.299	149.06
250.532	152.06
250.765	155.06
250.998	134.06
251.231	167.06
251.465	175.06
251.698	161.06
251.931	153.06
252.164	170.06
252.397	153.06
252.63	163.06
252.863	174.06
253.096	157.06
253.329	186.06
253.562	176.06
253.795	175.06
254.028	191.06
254.261	185.06
254.494	177.06
254.727	155.06
254.96	181.06
255.193	169.06
255.426	187.06
255.659	177.06
255.892	168.06
256.124	164.06
256.357	173.06
256.59	191.06
256.823	166.06
257.056	187.06
257.289	175.06
257.521	181.06
257.754	181.06
257.987	173.06
258.22	178.06
258.452	177.06
258.685	196.06
258.918	193.06
259.151	181.06
259.383	189.06
259.616	195.06
259.849	202.06
260.081	225.06
260.314	202.06
260.547	191.06
260.779	192.06
261.012	185.06
261.244	183.06
261.477	196.06
261.71	206.06
261.942	207.06
262.175	195.06
262.407	200.06
262.64	207.06
262.872	203.06
263.105	217.06
263.337	220.06
263.57	225.06
263.802	190.06
264.035	190.06
264.267	217.06
264.499	203.06
264.732	211.06
264.964	201.06
265.197	185.06
265.429	216.06
265.661	197.06
265.894	198.06
266.126	213.06
266.358	212.06
266.591	208.06
266.823	203.06
267.055	201.06
267.287	206.06
267.52	199.06
267.752	197.06
267.984	218.06
268.216	225.06
268.448	212.06
268.681	210.06
268.913	210.06
269.145	208.06
269.377	208.06
269.609	220.06
269.841	208.06
270.073	209.06
270.306	197.06
270.538	217.06
270.77	201.06
271.002	209.06
271.234	223.06
271.466	212.06
271.698	214.06
271.93	218.06
272.162	206.06
272.394	224.06
272.626	235.06
272.858	235.06
273.09	236.06
273.322	228.06
273.553	233.06
273.785	229.06
274.017	230.06
274.249	259.06
274.481	249.06
274.713	254.06
274.945	268.06
275.176	261.06
275.408	250.06
275.64	241.06
275.872	246.06
276.104	245.06
276.335	241.06
276.567	237.06
276.799	235.06
277.031	230.06
277.262	253.06
277.494	249.06
277.726	233.06
277.957	241.06
278.189	236.06
278.421	265.06
278.652	269.06
278.884	257.06
279.115	231.06
279.347	247.06
279.579	242.06
279.81	243.06
280.042	267.06
280.273	256.06
280.505	245.06
280.736	269.06
280.968	238.06
281.199	247.06
281.431	243.06
281.662	278.06
281.894	247.06
282.125	279.06
282.356	259.06
282.588	258.06
282.819	267.06
283.051	258.06
283.282	268.06
283.513	261.06
283.745	248.06
283.976	246.06
284.207	257.06
284.439	264.06
284.67	285.06
284.901	276.06
285.132	282.06
285.364	262.06
285.595	262.06
285.826	252.06
286.057	263.06
286.288	265.06
286.52	281.06
286.751	262.06
286.982	265.06
287.213	290.06
287.444	285.06
287.675	270.06
287.906	284.06
288.138	294.06
288.369	278.06
288.6	293.06
288.831	291.06
289.062	282.06
289.293	279.06
289.524	267.06
289.755	283.06
289.986	245.06
290.217	262.06
290.448	275.06
290.679	269.06
290.91	267.06
291.141	284.06
291.371	279.06
291.602	295.06
291.833	291.06
292.064	283.06
292.295	289.06
292.526	290.06
292.757	305.06
292.987	279.06
293.218	287.06
293.449	297.06
293.68	262.06
293.91	284.06
294.141	293.06
294.372	293.06
294.603	270.06
294.833	268.06
295.064	303.06
295.295	278.06
295.525	285.06
295.756	278.06
295.987	291.06
296.217	296.06
296.448	284.06
296.679	302.06
296.909	298.06
297.14	286.06
297.37	296.06
297.601	308.06
297.831	286.06
298.062	311.06
298.292	314.06
298.523	295.06
298.753	316.06
298.984	308.06
299.214	312.06
299.445	314.06
299.675	326.06
299.905	300.06
300.136	312.06
300.366	325.06
300.597	291.06
300.827	297.06
301.057	305.06
301.288	300.06
301.518	309.06
301.748	327.06
301.979	308.06
302.209	314.06
302.439	325.06
302.669	300.06
302.9	309.06
303.13	317.06
303.36	311.06
303.59	296.06
303.82	311.06
304.051	328.06
304.281	331.06
304.511	312.06
304.741	333.06
304.971	306.06
305.201	331.06
305.431	305.06
305.661	321.06
305.891	303.06
306.121	319.06
306.352	311.06
306.582	318.06
306.812	314.06
307.042	309.06
307.272	333.06
307.502	305.06
307.731	297.06
307.961	333.06
308.191	325.06
308.421	327.06
308.651	329.06
308.881	300.06
309.111	312.06
309.341	299.06
309.571	306.06
309.8	305.06
310.03	325.06
310.26	311.06
310.49	306.06
310.72	334.06
310.949	313.06
311.179	328.06
311.409	321.06
311.639	329.06
311.868	318.06
312.098	326.06
312.328	334.06
312.557	327.06
312.787	332.06
313.017	348.06
313.246	338.06
313.476	332.06
313.706	354.06
313.935	328.06
314.165	337.06
314.394	337.06
314.624	364.06
314.853	328.06
315.083	336.06
315.312	347.06
315.542	347.06
315.771	349.06
316.001	353.06
316.23	330.06
316.46	335.06
316.689	334.06
316.919	331.06
317.148	330.06
317.377	332.06
317.607	317.06
317.836	326.06
318.065	322.06
318.295	336.06
318.524	315.06
318.753	326.06
318.983	353.06
319.212	336.06
319.441	346.06
319.67	351.06
319.9	335.06
320.129	331.06
320.358	338.06
320.587	345.06
320.816	334.06
321.046	350.06
321.275	355.06
321.504	346.06
321.733	335.06
321.962	340.06
322.191	346.06
322.42	363.06
322.649	332.06
322.878	346.06
323.108	366.06
323.337	336.06
323.566	342.06
323.795	359.06
324.024	364.06
324.253	344.06
324.482	370.06
324.71	356.06
324.939	385.06
325.168	355.06
325.397	377.06
325.626	366.06
325.855	375.06
326.084	381.06
326.313	361.06
326.542	359.06
326.77	365.06
326.999	350.06
327.228	348.06
327.457	357.06
327.686	350.06
327.914	368.06
328.143	375.06
328.372	363.06
328.6	380.06
328.829	355.06
329.058	383.06
329.287	362.06
329.515	385.06
329.744	360.06
329.972	369.06
330.201	369.06
330.43	375.06
330.658	357.06
330.887	397.06
331.115	379.06
331.344	378.06
331.572	371.06
331.801	402.06
332.03	379.06
332.258	407.06
332.486	397.06
332.715	427.06
332.943	426.06
333.172	431.06
333.4	452.06
333.629	453.06
333.857	458.06
334.085	463.06
334.314	462.06
334.542	463.06
334.771	450.06
334.999	466.06
335.227	467.06
335.455	451.06
335.684	457.06
335.912	453.06
336.14	414.06
336.369	420.06
336.597	429.06
336.825	437.06
337.053	426.06
337.281	453.06
337.51	389.06
337.738	399.06
337.966	397.06
338.194	415.06
338.422	425.06
338.65	411.06
338.878	390.06
339.106	422.06
339.334	399.06
339.562	410.06
339.79	377.06
340.018	385.06
340.246	390.06
340.474	399.06
340.702	378.06
340.93	390.06
341.158	394.06
341.386	399.06
341.614	398.06
341.842	386.06
342.07	381.06
342.298	377.06
342.526	387.06
342.754	403.06
342.981	389.06
343.209	395.06
343.437	405.06
343.665	428.06
343.893	435.06
344.12	447.06
344.348	459.06
344.576	435.06
344.804	417.06
345.031	404.06
345.259	412.06
345.487	411.06
345.714	394.06
345.942	404.06
346.17	383.06
346.397	383.06
346.625	393.06
346.853	387.06
347.08	366.06
347.308	385.06
347.535	379.06
347.763	381.06
347.99	379.06
348.218	387.06
348.445	380.06
348.673	380.06
348.9	396.06
349.128	374.06
349.355	375.06
349.583	384.06
349.81	378.06
350.037	383.06
350.265	365.06
350.492	348.06
350.72	372.06
350.947	366.06
351.174	376.06
351.402	365.06
351.629	377.06
351.856	379.06
352.083	375.06
352.311	348.06
352.538	360.06
352.765	357.06
352.992	356.06
353.22	365.06
353.447	370.06
353.674	380.06
353.901	369.06
354.128	378.06
354.355	353.06
354.583	358.06
354.81	373.06
355.037	375.06
355.264	372.06
355.491	366.06
355.718	366.06
355.945	353.06
356.172	378.06
356.399	369.06
356.626	386.06
356.853	382.06
357.08	399.06
357.307	405.06
357.534	378.06
357.761	385.06
357.988	381.06
358.215	384.06
358.441	387.06
358.668	366.06
358.895	389.06
359.122	366.06
359.349	367.06
359.576	366.06
359.802	380.06
360.029	397.06
360.256	398.06
360.483	385.06
360.709	377.06
360.936	378.06
361.163	379.06
361.39	382.06
361.616	392.06
361.843	381.06
362.07	382.06
362.296	384.06
362.523	381.06
362.749	373.06
362.976	383.06
363.203	389.06
363.429	374.06
363.656	359.06
363.882	376.06
364.109	381.06
364.335	374.06
364.562	375.06
364.788	378.06
365.015	378.06
365.241	376.06
365.468	378.06
365.694	380.06
365.92	378.06
366.147	370.06
366.373	372.06
366.599	388.06
366.826	386.06
367.052	378.06
367.278	380.06
367.505	383.06
367.731	380.06
367.957	383.06
368.184	397.06
368.41	374.06
368.636	391.06
368.862	395.06
369.089	370.06
369.315	399.06
369.541	395.06
369.767	417.06
369.993	411.06
370.219	396.06
370.445	391.06
370.672	417.06
370.898	407.06
371.124	412.06
371.35	423.06
371.576	430.06
371.802	410.06
372.028	422.06
372.254	439.06
372.48	426.06
372.706	415.06
372.932	426.06
373.158	430.06
373.384	425.06
373.61	441.06
373.835	442.06
374.061	433.06
374.287	421.06
374.513	429.06
374.739	441.06
374.965	450.06
375.191	473.06
375.416	448.06
375.642	462.06
375.868	413.06
376.094	440.06
376.319	413.06
376.545	425.06
376.771	445.06
376.997	417.06
377.222	417.06
377.448	404.06
377.674	418.06
377.899	415.06
378.125	413.06
378.35	407.06
378.576	399.06
378.802	414.06
379.027	428.06
379.253	425.06
379.478	422.06
379.704	408.06
379.929	394.06
380.155	428.06
380.38	414.06
380.606	420.06
380.831	411.06
381.057	430.06
381.282	413.06
381.507	431.06
381.733	452.06
381.958	445.06
382.184	427.06
382.409	451.06
382.634	458.06
382.86	449.06
383.085	435.06
383.31	437.06
383.535	457.06
383.761	454.06
383.986	467.06
384.211	490.06
384.436	474.06
384.662	475.06
384.887	475.06
385.112	510.06
385.337	491.06
385.562	484.06
385.787	512.06
386.013	509.06
386.238	502.06
386.463	509.06
386.688	509.06
386.913	481.06
387.138	494.06
387.363	478.06
387.588	504.06
387.813	501.06
388.038	499.06
388.263	501.06
388.488	500.06
388.713	485.06
388.938	494.06
389.163	493.06
389.387	489.06
389.612	474.06
389.837	500.06
390.062	493.06
390.287	486.06
390.512	492.06
390.736	505.06
390.961	513.06
391.186	495.06
391.411	510.06
391.636	514.06
391.86	537.06
392.085	521.06
392.31	535.06
392.534	554.06
392.759	539.06
392.984	533.06
393.208	541.06
393.433	533.06
393.658	539.06
393.882	519.06
394.107	518.06
394.331	532.06
394.556	532.06
394.78	535.06
395.005	533.06
395.229	552.06
395.454	541.06
395.678	556.06
395.903	542.06
396.127	526.06
396.352	534.06
396.576	540.06
396.801	552.06
397.025	547.06
397.249	551.06
397.474	552.06
397.698	550.06
397.922	554.06
398.147	570.06
398.371	571.06
398.595	596.06
398.82	604.06
399.044	621.06
399.268	693.06
399.492	748.06
399.717	796.06
399.941	795.06
400.165	744.06
400.389	702.06
400.613	666.06
400.837	643.06
401.062	633.06
401.286	632.06
401.51	619.06
401.734	619.06
401.958	617.06
402.182	614.06
402.406	637.06
402.63	613.06
402.854	635.06
403.078	647.06
403.302	673.06
403.526	646.06
403.75	656.06
403.974	637.06
404.198	656.06
404.422	657.06
404.645	665.06
404.869	660.06
405.093	640.06
405.317	647.06
405.541	661.06
405.765	676.06
405.988	637.06
406.212	655.06
406.436	670.06
406.66	700.06
406.883	672.06
407.107	709.06
407.331	755.06
407.555	757.06
407.778	760.06
408.002	739.06
408.226	740.06
408.449	709.06
408.673	708.06
408.896	684.06
409.12	702.06
409.344	685.06
409.567	672.06
409.791	678.06
410.014	693.06
410.238	689.06
410.461	661.06
410.685	668.06
410.908	652.06
411.132	649.06
411.355	650.06
411.578	677.06
411.802	645.06
412.025	653.06
412.249	639.06
412.472	646.06
412.695	623.06
412.919	643.06
413.142	638.06
413.365	628.06
413.589	621.06
413.812	617.06
414.035	621.06
414.258	620.06
414.482	636.06
414.705	635.06
414.928	655.06
415.151	622.06
415.374	636.06
415.597	606.06
415.821	605.06
416.044	591.06
416.267	592.06
416.49	590.06
416.713	590.06
416.936	630.06
417.159	607.06
417.382	618.06
417.605	611.06
417.828	612.06
418.051	636.06
418.274	605.06
418.497	620.06
418.72	623.06
418.943	620.06
419.166	638.06
419.389	691.06
419.611	690.06
419.834	637.06
420.057	649.06
420.28	616.06
420.503	595.06
420.726	585.06
420.948	606.06
421.171	599.06
421.394	610.06
421.617	616.06
421.839	615.06
422.062	625.06
422.285	601.06
422.507	614.06
422.73	617.06
422.953	625.06
423.175	618.06
423.398	617.06
423.621	635.06
423.843	662.06
424.066	654.06
424.288	636.06
424.511	622.06
424.733	621.06
424.956	609.06
425.178	613.06
425.401	614.06
425.623	623.06
425.846	591.06
426.068	595.06
426.291	596.06
426.513	597.06
426.735	582.06
426.958	594.06
427.18	584.06
427.402	585.06
427.625	582.06
427.847	582.06
428.069	570.06
428.292	591.06
428.514	580.06
428.736	547.06
428.958	577.06
429.181	574.06
429.403	585.06
429.625	554.06
429.847	541.06
430.069	582.06
430.292	569.06
430.514	549.06
430.736	571.06
430.958	566.06
431.18	569.06
431.402	566.06
431.624	562.06
431.846	585.06
432.068	583.06
432.29	592.06
432.512	585.06
432.734	589.06
432.956	576.06
433.178	593.06
433.4	581.06
433.622	602.06
433.844	582.06
434.066	578.06
434.287	579.06
434.509	583.06
434.731	585.06
434.953	588.06
435.175	609.06
435.397	608.06
435.618	621.06
435.84	587.06
436.062	587.06
436.284	563.06
436.505	583.06
436.727	579.06
436.949	543.06
437.17	577.06
437.392	572.06
437.614	562.06
437.835	550.06
438.057	579.06
438.278	558.06
438.5	562.06
438.721	570.06
438.943	561.06
439.165	559.06
439.386	562.06
439.608	576.06
439.829	573.06
440.05	602.06
440.272	597.06
440.493	572.06
440.715	603.06
440.936	597.06
441.158	597.06
441.379	594.06
441.6	628.06
441.822	625.06
442.043	644.06
442.264	642.06
442.486	589.06
442.707	615.06
442.928	593.06
443.149	604.06
443.371	618.06
443.592	620.06
443.813	627.06
444.034	647.06
444.255	658.06
444.476	665.06
444.698	685.06
444.919	694.06
445.14	767.06
445.361	689.06
445.582	643.06
445.803	635.06
446.024	591.06
446.245	606.06
446.466	594.06
446.687	581.06
446.908	600.06
447.129	572.06
447.35	563.06
447.571	561.06
447.792	558.06
448.013	541.06
448.234	549.06
448.455	543.06
448.675	543.06
448.896	555.06
449.117	539.06
449.338	534.06
449.559	563.06
449.779	533.06
450	519.06
450.221	545.06
450.442	521.06
450.662	523.06
450.883	545.06
451.104	563.06
451.324	551.06
451.545	549.06
451.766	547.06
451.986	546.06
452.207	526.06
452.428	531.06
452.648	522.06
452.869	516.06
453.089	513.06
453.31	510.06
453.53	522.06
453.751	514.06
453.971	503.06
454.192	515.06
454.412	502.06
454.633	510.06
454.853	519.06
455.073	491.06
455.294	492.06
455.514	502.06
455.734	497.06
455.955	501.06
456.175	494.06
456.395	511.06
456.616	499.06
456.836	492.06
457.056	509.06
457.276	528.06
457.497	515.06
457.717	497.06
457.937	509.06
458.157	517.06
458.377	510.06
458.598	526.06
458.818	518.06
459.038	556.06
459.258	561.06
459.478	574.06
459.698	586.06
459.918	591.06
460.138	603.06
460.358	630.06
460.578	622.06
460.798	649.06
461.018	659.06
461.238	642.06
461.458	649.06
461.678	628.06
461.898	664.06
462.118	671.06
462.338	685.06
462.558	709.06
462.777	698.06
462.997	745.06
463.217	799.06
463.437	805.06
463.657	759.06
463.876	738.06
464.096	738.06
464.316	693.06
464.536	725.06
464.755	719.06
464.975	702.06
465.195	654.06
465.414	621.06
465.634	633.06
465.854	590.06
466.073	606.06
466.293	572.06
466.512	580.06
466.732	588.06
466.951	579.06
467.171	551.06
467.391	574.06
467.61	558.06
467.829	557.06
468.049	556.06
468.268	577.06
468.488	533.06
468.707	533.06
468.927	544.06
469.146	552.06
469.365	595.06
469.585	547.06
469.804	587.06
470.023	564.06
470.243	582.06
470.462	567.06
470.681	585.06
470.901	570.06
471.12	573.06
471.339	573.06
471.558	572.06
471.777	548.06
471.997	555.06
472.216	550.06
472.435	555.06
472.654	553.06
472.873	542.06
473.092	547.06
473.311	545.06
473.53	544.06
473.749	551.06
473.968	533.06
474.187	538.06
474.406	522.06
474.625	541.06
474.844	531.06
475.063	527.06
475.282	525.06
475.501	542.06
475.72	553.06
475.939	561.06
476.158	546.06
476.377	566.06
476.596	571.06
476.814	594.06
477.033	567.06
477.252	575.06
477.471	595.06
477.69	595.06
477.908	600.06
478.127	628.06
478.346	610.06
478.564	607.06
478.783	622.06
479.002	655.06
479.22	616.06
479.439	663.06
479.658	633.06
479.876	641.06
480.095	662.06
480.313	684.06
480.532	664.06
480.751	667.06
480.969	642.06
481.188	612.06
481.406	627.06
481.624	639.06
481.843	609.06
482.061	619.06
482.28	641.06
482.498	625.06
482.717	595.06
482.935	627.06
483.153	597.06
483.372	606.06
483.59	621.06
483.808	573.06
484.027	600.06
484.245	641.06
484.463	616.06
484.681	631.06
484.9	629.06
485.118	606.06
485.336	606.06
485.554	643.06
485.772	634.06
485.99	647.06
486.209	647.06
486.427	647.06
486.645	632.06
486.863	633.06
487.081	637.06
487.299	630.06
487.517	639.06
487.735	627.06
487.953	630.06
488.171	637.06
488.389	642.06
488.607	641.06
488.825	614.06
489.043	635.06
489.261	633.06
489.479	609.06
489.696	632.06
489.914	635.06
490.132	638.06
490.35	639.06
490.568	626.06
490.786	639.06
491.003	648.06
491.221	656.06
491.439	638.06
491.657	667.06
491.874	654.06
492.092	678.06
492.31	663.06
492.527	654.06
492.745	673.06
492.963	651.06
493.18	657.06
493.398	664.06
493.615	673.06
493.833	650.06
494.05	686.06
494.268	675.06
494.485	673.06
494.703	654.06
494.92	661.06
495.138	659.06
495.355	673.06
495.573	701.06
495.79	690.06
496.008	706.06
496.225	695.06
496.442	690.06
496.66	706.06
496.877	711.06
497.094	707.06
497.312	741.06
497.529	722.06
497.746	743.06
497.963	772.06
498.181	799.06
498.398	826.06
498.615	842.06
498.832	907.06
499.049	967.06
499.267	993.06
499.484	1060.06
499.701	1155.06
499.918	1225.06
500.135	1349.06
500.352	1425.06
500.569	1483.06
500.786	1486.06
501.003	1438.06
501.22	1311.06
501.437	1249.06
501.654	1119.06
501.871	1035.06
502.088	1020.06
502.305	941.06
502.522	883.06
502.739	874.06
502.956	824.06
503.172	786.06
503.389	756.06
503.606	770.06
503.823	746.06
504.04	745.06
504.256	741.06
504.473	725.06
504.69	732.06
504.907	750.06
505.123	707.06
505.34	694.06
505.557	675.06
505.773	670.06
505.99	656.06
506.207	618.06
506.423	622.06
506.64	612.06
506.856	608.06
507.073	615.06
507.289	606.06
507.506	590.06
507.722	597.06
507.939	594.06
508.155	557.06
508.372	590.06
508.588	580.06
508.805	565.06
509.021	553.06
509.238	587.06
509.454	548.06
509.67	549.06
509.887	569.06
510.103	557.06
510.319	559.06
510.536	550.06
510.752	534.06
510.968	537.06
511.184	545.06
511.401	558.06
511.617	550.06
511.833	557.06
512.049	537.06
512.265	539.06
512.481	550.06
512.698	553.06
512.914	544.06
513.13	543.06
513.346	531.06
513.562	531.06
513.778	512.06
513.994	542.06
514.21	553.06
514.426	533.06
514.642	570.06
514.858	540.06
515.074	556.06
515.29	573.06
515.506	542.06
515.721	547.06
515.937	556.06
516.153	566.06
516.369	586.06
516.585	619.06
516.801	635.06
517.016	626.06
517.232	683.06
517.448	689.06
517.664	695.06
517.879	674.06
518.095	677.06
518.311	667.06
518.527	642.06
518.742	619.06
518.958	628.06
519.173	602.06
519.389	581.06
519.605	585.06
519.82	597.06
520.036	567.06
520.251	572.06
520.467	576.06
520.682	545.06
520.898	539.06
521.113	547.06
521.329	531.06
521.544	537.06
521.76	540.06
521.975	563.06
522.19	516.06
522.406	505.06
522.621	519.06
522.836	532.06
523.052	537.06
523.267	522.06
523.482	511.06
523.698	513.06
523.913	519.06
524.128	506.06
524.343	511.06
524.559	500.06
524.774	500.06
524.989	502.06
525.204	499.06
525.419	470.06
525.634	506.06
525.849	517.06
526.064	497.06
526.28	471.06
526.495	498.06
526.71	502.06
526.925	486.06
527.14	477.06
527.355	511.06
527.57	492.06
527.785	493.06
527.999	468.06
528.214	492.06
528.429	508.06
528.644	503.06
528.859	493.06
529.074	492.06
529.289	502.06
529.503	494.06
529.718	478.06
529.933	485.06
530.148	482.06
530.363	472.06
530.577	486.06
530.792	515.06
531.007	492.06
531.221	487.06
531.436	499.06
531.651	481.06
531.865	499.06
532.08	517.06
532.295	490.06
532.509	486.06
532.724	510.06
532.938	500.06
533.153	485.06
533.367	481.06
533.582	499.06
533.796	493.06
534.011	464.06
534.225	480.06
534.44	471.06
534.654	478.06
534.868	466.06
535.083	489.06
535.297	488.06
535.511	461.06
535.726	461.06
535.94	469.06
536.154	462.06
536.369	476.06
536.583	483.06
536.797	478.06
537.011	461.06
537.225	468.06
537.44	478.06
537.654	453.06
537.868	450.06
538.082	457.06
538.296	435.06
538.51	443.06
538.724	462.06
538.938	455.06
539.153	477.06
539.367	474.06
539.581	450.06
539.795	463.06
540.009	442.06
540.222	440.06
540.436	452.06
540.65	436.06
540.864	447.06
541.078	462.06
541.292	453.06
541.506	438.06
541.72	451.06
541.934	441.06
542.147	459.06
542.361	460.06
542.575	449.06
542.789	439.06
543.002	435.06
543.216	447.06
543.43	425.06
543.644	424.06
543.857	418.06
544.071	451.06
544.285	476.06
544.498	430.06
544.712	428.06
544.925	453.06
545.139	431.06
545.352	460.06
545.566	435.06
545.779	476.06
545.993	453.06
546.206	462.06
546.42	435.06
546.633	445.06
546.847	451.06
547.06	450.06
547.274	430.06
547.487	459.06
547.7	470.06
547.914	454.06
548.127	462.06
548.34	484.06
548.554	464.06
548.767	466.06
548.98	462.06
549.193	468.06
549.407	456.06
549.62	468.06
549.833	479.06
550.046	458.06
550.259	457.06
550.473	465.06
550.686	444.06
550.899	453.06
551.112	447.06
551.325	473.06
551.538	454.06
551.751	438.06
551.964	450.06
552.177	447.06
552.39	454.06
552.603	465.06
552.816	458.06
553.029	473.06
553.242	468.06
553.455	464.06
553.667	483.06
553.88	484.06
554.093	448.06
554.306	474.06
554.519	449.06
554.732	424.06
554.944	435.06
555.157	449.06
555.37	440.06
555.583	414.06
555.795	422.06
556.008	421.06
556.221	399.06
556.433	398.06
556.646	427.06
556.859	405.06
557.071	417.06
557.284	396.06
557.496	400.06
557.709	399.06
557.921	401.06
558.134	390.06
558.346	419.06
558.559	412.06
558.771	391.06
558.984	383.06
559.196	390.06
559.409	398.06
559.621	403.06
559.833	393.06
560.046	389.06
560.258	394.06
560.47	397.06
560.683	371.06
560.895	389.06
561.107	358.06
561.32	386.06
561.532	383.06
561.744	378.06
561.956	376.06
562.168	383.06
562.381	387.06
562.593	374.06
562.805	387.06
563.017	389.06
563.229	391.06
563.441	396.06
563.653	390.06
563.865	386.06
564.077	396.06
564.289	419.06
564.501	414.06
564.713	421.06
564.925	429.06
565.137	431.06
565.349	419.06
565.561	432.06
565.773	447.06
565.985	457.06
566.197	465.06
566.408	487.06
566.62	519.06
566.832	537.06
567.044	558.06
567.255	551.06
567.467	580.06
567.679	565.06
567.891	603.06
568.102	605.06
568.314	551.06
568.526	530.06
568.737	511.06
568.949	471.06
569.161	446.06
569.372	429.06
569.584	425.06
569.795	398.06
570.007	416.06
570.218	387.06
570.43	385.06
570.641	370.06
570.853	375.06
571.064	389.06
571.276	354.06
571.487	369.06
571.698	361.06
571.91	357.06
572.121	370.06
572.333	351.06
572.544	349.06
572.755	341.06
572.966	349.06
573.178	332.06
573.389	329.06
573.6	340.06
573.811	338.06
574.023	316.06
574.234	322.06
574.445	310.06
574.656	309.06
574.867	334.06
575.078	329.06
575.289	308.06
575.501	307.06
575.712	332.06
575.923	307.06
576.134	303.06
576.345	324.06
576.556	310.06
576.767	325.06
576.978	307.06
577.188	299.06
577.399	303.06
577.61	291.06
577.821	312.06
578.032	295.06
578.243	314.06
578.454	301.06
578.665	298.06
578.875	307.06
579.086	291.06
579.297	293.06
579.508	283.06
579.718	294.06
579.929	290.06
580.14	297.06
580.35	281.06
580.561	292.06
580.772	287.06
580.982	291.06
581.193	270.06
581.403	299.06
581.614	295.06
581.825	298.06
582.035	285.06
582.246	269.06
582.456	276.06
582.667	284.06
582.877	283.06
583.087	279.06
583.298	281.06
583.508	284.06
583.719	279.06
583.929	294.06
584.139	277.06
584.35	266.06
584.56	277.06
584.77	268.06
584.981	280.06
585.191	280.06
585.401	276.06
585.611	254.06
585.821	264.06
586.032	278.06
586.242	249.06
586.452	273.06
586.662	269.06
586.872	252.06
587.082	257.06
587.292	281.06
587.502	252.06
587.713	270.06
587.923	282.06
588.133	267.06
588.343	270.06
588.553	277.06
588.762	283.06
588.972	267.06
589.182	285.06
589.392	291.06
589.602	282.06
589.812	280.06
590.022	274.06
590.232	277.06
590.441	266.06
590.651	279.06
590.861	279.06
591.071	277.06
591.281	277.06
591.49	278.06
591.7	281.06
591.91	247.06
592.119	254.06
592.329	294.06
592.539	309.06
592.748	315.06
592.958	315.06
593.167	303.06
593.377	307.06
593.587	301.06
593.796	326.06
594.006	327.06
594.215	294.06
594.424	305.06
594.634	307.06
594.843	290.06
595.053	270.06
595.262	294.06
595.472	273.06
595.681	272.06
595.89	285.06
596.1	278.06
596.309	248.06
596.518	235.06
596.727	260.06
596.937	273.06
597.146	250.06
597.355	251.06
597.564	249.06
597.774	257.06
597.983	238.06
598.192	246.06
598.401	241.06
598.61	229.06
598.819	246.06
599.028	230.06
599.237	231.06
599.446	228.06
599.655	250.06
599.864	241.06
600.073	230.06
600.282	234.06
600.491	230.06
600.7	247.06
600.909	233.06
601.118	232.06
601.327	216.06
601.536	219.06
601.745	201.06
601.953	233.06
602.162	222.06
602.371	219.06
602.58	221.06
602.789	233.06
602.997	229.06
603.206	223.06
603.415	215.06
603.623	224.06
603.832	231.06
604.041	222.06
604.249	213.06
604.458	221.06
604.666	217.06
604.875	221.06
605.084	220.06
605.292	227.06
605.501	221.06
605.709	212.06
605.918	212.06
606.126	223.06
606.334	211.06
606.543	210.06
606.751	200.06
606.96	225.06
607.168	220.06
607.376	217.06
607.585	220.06
607.793	223.06
608.001	222.06
608.21	201.06
608.418	207.06
608.626	196.06
608.834	221.06
609.043	212.06
609.251	212.06
609.459	209.06
609.667	217.06
609.875	221.06
610.083	217.06
610.291	214.06
610.499	206.06
610.707	228.06
610.916	228.06
611.124	217.06
611.332	202.06
611.54	218.06
611.748	213.06
611.955	217.06
612.163	195.06
612.371	213.06
612.579	203.06
612.787	203.06
612.995	211.06
613.203	213.06
613.411	220.06
613.618	194.06
613.826	203.06
614.034	199.06
614.242	227.06
614.449	213.06
614.657	194.06
614.865	204.06
615.072	209.06
615.28	201.06
615.488	198.06
615.695	213.06
615.903	216.06
616.111	196.06
616.318	204.06
616.526	213.06
616.733	215.06
616.941	211.06
617.148	210.06
617.356	200.06
617.563	193.06
617.771	211.06
617.978	196.06
618.185	201.06
618.393	195.06
618.6	196.06
618.807	200.06
619.015	217.06
619.222	205.06
619.429	199.06
619.637	206.06
619.844	191.06
620.051	194.06
620.258	197.06
620.466	191.06
620.673	193.06
620.88	181.06
621.087	191.06
621.294	179.06
621.501	192.06
621.708	191.06
621.915	181.06
622.122	192.06
622.329	200.06
622.536	201.06
622.743	188.06
622.95	196.06
623.157	197.06
623.364	190.06
623.571	186.06
623.778	211.06
623.985	192.06
624.192	196.06
624.399	194.06
624.606	181.06
624.812	201.06
625.019	187.06
625.226	193.06
625.433	189.06
625.639	189.06
625.846	185.06
626.053	186.06
626.259	182.06
626.466	190.06
626.673	184.06
626.879	172.06
627.086	179.06
627.293	181.06
627.499	175.06
627.706	191.06
627.912	181.06
628.119	190.06
628.325	202.06
628.532	174.06
628.738	174.06
628.945	165.06
629.151	173.06
629.357	180.06
629.564	180.06
629.77	175.06
629.976	182.06
630.183	174.06
630.389	172.06
630.595	179.06
630.802	187.06
631.008	174.06
631.214	172.06
631.42	164.06
631.627	179.06
631.833	161.06
632.039	177.06
632.245	178.06
632.451	167.06
632.657	178.06
632.863	186.06
633.069	162.06
633.275	170.06
633.481	168.06
633.688	174.06
633.893	161.06
634.099	180.06
634.305	174.06
634.511	171.06
634.717	191.06
634.923	158.06
635.129	164.06
635.335	155.06
635.541	166.06
635.747	171.06
635.952	163.06
636.158	157.06
636.364	179.06
636.57	165.06
636.775	165.06
636.981	157.06
637.187	162.06
637.392	159.06
637.598	153.06
637.804	166.06
638.009	169.06
638.215	163.06
638.421	159.06
638.626	158.06
638.832	179.06
639.037	161.06
639.243	157.06
639.448	170.06
639.654	150.06
639.859	152.06
640.065	184.06
640.27	164.06
640.475	148.06
640.681	148.06
640.886	157.06
641.091	156.06
641.297	153.06
641.502	155.06
641.707	157.06
641.913	151.06
642.118	153.06
642.323	168.06
642.528	146.06
642.733	155.06
642.939	156.06
643.144	131.06
643.349	159.06
643.554	163.06
643.759	143.06
643.964	157.06
644.169	162.06
644.374	143.06
644.579	168.06
644.784	143.06
644.989	155.06
645.194	178.06
645.399	142.06
645.604	158.06
645.809	138.06
646.014	147.06
646.219	162.06
646.423	137.06
646.628	158.06
646.833	153.06
647.038	149.06
647.243	156.06
647.447	169.06
647.652	165.06
647.857	157.06
648.062	156.06
648.266	168.06
648.471	142.06
648.676	177.06
648.88	158.06
649.085	143.06
649.289	161.06
649.494	151.06
649.698	162.06
649.903	155.06
650.107	167.06
650.312	153.06
650.516	144.06
650.721	144.06
650.925	150.06
651.13	149.06
651.334	153.06
651.539	147.06
651.743	143.06
651.947	148.06
652.152	153.06
652.356	137.06
652.56	148.06
652.764	143.06
652.969	134.06
653.173	133.06
653.377	141.06
653.581	121.06
653.785	134.06
653.99	143.06
654.194	141.06
654.398	139.06
654.602	139.06
654.806	130.06
655.01	139.06
655.214	138.06
655.418	140.06
655.622	141.06
655.826	135.06
656.03	142.06
656.234	130.06
656.438	121.06
656.642	121.06
656.846	125.06
657.049	126.06
657.253	120.06
657.457	101.06
657.661	126.06
657.865	95.06
658.068	125.06
658.272	119.06
658.476	114.06
658.68	121.06
658.883	108.06
659.087	96.06
659.291	89.06
659.494	106.06
659.698	87.06
659.901	100.06
660.105	89.06
660.309	95.06
660.512	88.06
660.716	101.06
660.919	87.06
661.123	100.06
661.326	85.06
661.53	95.06
661.733	98.06
661.936	115.06
662.14	97.06
662.343	81.06
662.546	95.06
662.75	96.06
662.953	73.06
663.156	83.06
663.36	85.06
663.563	93.06
663.766	83.06
663.969	69.06
664.173	85.06
664.376	85.06
664.579	74.06
664.782	85.06
664.985	86.06
665.188	93.06
665.391	85.06
665.594	67.06
665.797	85.06
666	81.06
666.203	83.06
666.406	76.06
666.609	85.06
666.812	76.06
667.015	85.06
667.218	78.06
667.421	79.06
667.624	85.06
667.827	83.06
668.03	86.06
668.232	79.06
668.435	90.06
668.638	81.06
668.841	76.06
669.043	83.06
669.246	94.06
669.449	91.06
669.651	102.06
669.854	82.06
670.057	74.06
670.259	81.06
670.462	82.06
670.665	78.06
670.867	96.06
671.07	101.06
671.272	89.06
671.475	94.06
671.677	85.06
671.88	76.06
672.082	81.06
672.284	94.06
672.487	79.06
672.689	74.06
672.892	66.06
