Data from Fe(NO3)3@0.1M.TitratingCurve.Agarose3%dH2O.NegLispCup.LampEnergy10.LIBS07252019_HRD10591_16-40-48-332.txt Node
Date: Thu Jul 25 16:40:48 EDT 2019
User: cochatt
Spectrometer: HR+D1059
Trigger mode: 1
Integration Time (sec): 1.000000E-1
Scans to average: 1
Electric dark correction enabled: true
Nonlinearity correction enabled: false
Boxcar width: 0
XAxis mode: Wavelengths
Number of Pixels in Spectrum: 2048
>>>>>Begin Spectral Data<<<<<
223.165	-13.62
223.4	-13.62
223.635	-13.62
223.869	5.38
224.104	-31.62
224.338	-18.62
224.573	-5.62
224.808	-3.62
225.042	-14.62
225.277	-22.62
225.511	1.38
225.746	3.38
225.98	-0.62
226.215	1.38
226.449	26.38
226.683	11.38
226.918	25.38
227.152	36.38
227.387	37.38
227.621	35.38
227.856	35.38
228.09	30.38
228.324	45.38
228.559	53.38
228.793	53.38
229.027	76.38
229.262	69.38
229.496	66.38
229.73	88.38
229.964	91.38
230.199	101.38
230.433	90.38
230.667	101.38
230.901	103.38
231.136	92.38
231.37	108.38
231.604	88.38
231.838	108.38
232.072	111.38
232.306	115.38
232.541	102.38
232.775	115.38
233.009	102.38
233.243	119.38
233.477	109.38
233.711	112.38
233.945	102.38
234.179	99.38
234.413	110.38
234.647	113.38
234.881	98.38
235.115	110.38
235.349	120.38
235.583	106.38
235.817	115.38
236.051	105.38
236.285	99.38
236.519	113.38
236.753	115.38
236.987	103.38
237.221	111.38
237.455	115.38
237.689	103.38
237.922	113.38
238.156	117.38
238.39	124.38
238.624	120.38
238.858	114.38
239.091	110.38
239.325	111.38
239.559	118.38
239.793	111.38
240.027	124.38
240.26	137.38
240.494	101.38
240.728	121.38
240.961	120.38
241.195	116.38
241.429	130.38
241.662	127.38
241.896	120.38
242.13	127.38
242.363	123.38
242.597	123.38
242.83	123.38
243.064	118.38
243.298	123.38
243.531	131.38
243.765	123.38
243.998	126.38
244.232	116.38
244.465	132.38
244.699	121.38
244.932	123.38
245.166	123.38
245.399	123.38
245.633	130.38
245.866	119.38
246.099	131.38
246.333	133.38
246.566	135.38
246.8	125.38
247.033	126.38
247.266	125.38
247.5	124.38
247.733	124.38
247.966	130.38
248.2	140.38
248.433	121.38
248.666	130.38
248.899	133.38
249.133	140.38
249.366	131.38
249.599	143.38
249.832	157.38
250.066	141.38
250.299	139.38
250.532	142.38
250.765	141.38
250.998	140.38
251.231	153.38
251.465	146.38
251.698	130.38
251.931	147.38
252.164	145.38
252.397	144.38
252.63	159.38
252.863	146.38
253.096	153.38
253.329	151.38
253.562	152.38
253.795	136.38
254.028	161.38
254.261	155.38
254.494	157.38
254.727	141.38
254.96	152.38
255.193	151.38
255.426	172.38
255.659	171.38
255.892	149.38
256.124	156.38
256.357	142.38
256.59	153.38
256.823	153.38
257.056	150.38
257.289	166.38
257.521	172.38
257.754	170.38
257.987	139.38
258.22	162.38
258.452	156.38
258.685	164.38
258.918	150.38
259.151	187.38
259.383	169.38
259.616	170.38
259.849	181.38
260.081	169.38
260.314	179.38
260.547	169.38
260.779	162.38
261.012	181.38
261.244	170.38
261.477	173.38
261.71	163.38
261.942	157.38
262.175	168.38
262.407	160.38
262.64	177.38
262.872	177.38
263.105	185.38
263.337	166.38
263.57	175.38
263.802	180.38
264.035	159.38
264.267	177.38
264.499	181.38
264.732	164.38
264.964	182.38
265.197	195.38
265.429	181.38
265.661	178.38
265.894	180.38
266.126	171.38
266.358	179.38
266.591	178.38
266.823	192.38
267.055	189.38
267.287	188.38
267.52	185.38
267.752	179.38
267.984	189.38
268.216	194.38
268.448	195.38
268.681	187.38
268.913	202.38
269.145	197.38
269.377	204.38
269.609	197.38
269.841	191.38
270.073	192.38
270.306	192.38
270.538	176.38
270.77	189.38
271.002	210.38
271.234	196.38
271.466	207.38
271.698	193.38
271.93	197.38
272.162	193.38
272.394	203.38
272.626	199.38
272.858	182.38
273.09	199.38
273.322	201.38
273.553	212.38
273.785	209.38
274.017	218.38
274.249	194.38
274.481	207.38
274.713	208.38
274.945	221.38
275.176	227.38
275.408	214.38
275.64	220.38
275.872	216.38
276.104	216.38
276.335	213.38
276.567	205.38
276.799	219.38
277.031	226.38
277.262	212.38
277.494	233.38
277.726	207.38
277.957	221.38
278.189	227.38
278.421	231.38
278.652	236.38
278.884	236.38
279.115	228.38
279.347	209.38
279.579	210.38
279.81	214.38
280.042	225.38
280.273	219.38
280.505	235.38
280.736	235.38
280.968	217.38
281.199	230.38
281.431	224.38
281.662	219.38
281.894	218.38
282.125	233.38
282.356	237.38
282.588	215.38
282.819	229.38
283.051	217.38
283.282	229.38
283.513	238.38
283.745	233.38
283.976	217.38
284.207	213.38
284.439	245.38
284.67	216.38
284.901	244.38
285.132	222.38
285.364	236.38
285.595	232.38
285.826	231.38
286.057	262.38
286.288	257.38
286.52	220.38
286.751	247.38
286.982	243.38
287.213	247.38
287.444	244.38
287.675	243.38
287.906	234.38
288.138	242.38
288.369	240.38
288.6	260.38
288.831	251.38
289.062	268.38
289.293	249.38
289.524	258.38
289.755	247.38
289.986	253.38
290.217	245.38
290.448	261.38
290.679	247.38
290.91	252.38
291.141	249.38
291.371	245.38
291.602	266.38
291.833	274.38
292.064	250.38
292.295	277.38
292.526	264.38
292.757	258.38
292.987	234.38
293.218	253.38
293.449	253.38
293.68	244.38
293.91	251.38
294.141	268.38
294.372	255.38
294.603	237.38
294.833	253.38
295.064	269.38
295.295	281.38
295.525	268.38
295.756	274.38
295.987	272.38
296.217	272.38
296.448	272.38
296.679	267.38
296.909	270.38
297.14	266.38
297.37	271.38
297.601	279.38
297.831	286.38
298.062	276.38
298.292	270.38
298.523	261.38
298.753	272.38
298.984	274.38
299.214	270.38
299.445	294.38
299.675	295.38
299.905	284.38
300.136	268.38
300.366	292.38
300.597	275.38
300.827	292.38
301.057	281.38
301.288	283.38
301.518	269.38
301.748	299.38
301.979	289.38
302.209	286.38
302.439	296.38
302.669	291.38
302.9	282.38
303.13	288.38
303.36	284.38
303.59	269.38
303.82	283.38
304.051	302.38
304.281	295.38
304.511	309.38
304.741	301.38
304.971	277.38
305.201	289.38
305.431	300.38
305.661	289.38
305.891	288.38
306.121	288.38
306.352	304.38
306.582	305.38
306.812	288.38
307.042	280.38
307.272	267.38
307.502	284.38
307.731	277.38
307.961	293.38
308.191	297.38
308.421	290.38
308.651	291.38
308.881	284.38
309.111	279.38
309.341	287.38
309.571	295.38
309.8	283.38
310.03	285.38
310.26	291.38
310.49	293.38
310.72	280.38
310.949	306.38
311.179	296.38
311.409	290.38
311.639	295.38
311.868	295.38
312.098	283.38
312.328	289.38
312.557	307.38
312.787	305.38
313.017	312.38
313.246	309.38
313.476	298.38
313.706	303.38
313.935	316.38
314.165	309.38
314.394	300.38
314.624	299.38
314.853	291.38
315.083	309.38
315.312	300.38
315.542	311.38
315.771	293.38
316.001	329.38
316.23	305.38
316.46	299.38
316.689	323.38
316.919	313.38
317.148	331.38
317.377	314.38
317.607	297.38
317.836	312.38
318.065	321.38
318.295	315.38
318.524	314.38
318.753	320.38
318.983	279.38
319.212	296.38
319.441	309.38
319.67	319.38
319.9	295.38
320.129	309.38
320.358	321.38
320.587	292.38
320.816	317.38
321.046	305.38
321.275	313.38
321.504	300.38
321.733	318.38
321.962	309.38
322.191	328.38
322.42	311.38
322.649	326.38
322.878	318.38
323.108	304.38
323.337	319.38
323.566	317.38
323.795	341.38
324.024	311.38
324.253	319.38
324.482	317.38
324.71	315.38
324.939	326.38
325.168	330.38
325.397	340.38
325.626	317.38
325.855	321.38
326.084	350.38
326.313	338.38
326.542	313.38
326.77	326.38
326.999	332.38
327.228	340.38
327.457	341.38
327.686	340.38
327.914	337.38
328.143	344.38
328.372	338.38
328.6	337.38
328.829	328.38
329.058	344.38
329.287	372.38
329.515	354.38
329.744	351.38
329.972	349.38
330.201	349.38
330.43	352.38
330.658	354.38
330.887	348.38
331.115	339.38
331.344	367.38
331.572	375.38
331.801	353.38
332.03	367.38
332.258	368.38
332.486	393.38
332.715	392.38
332.943	381.38
333.172	376.38
333.4	417.38
333.629	420.38
333.857	408.38
334.085	438.38
334.314	400.38
334.542	413.38
334.771	415.38
334.999	401.38
335.227	429.38
335.455	420.38
335.684	408.38
335.912	410.38
336.14	391.38
336.369	386.38
336.597	404.38
336.825	416.38
337.053	413.38
337.281	388.38
337.51	371.38
337.738	400.38
337.966	383.38
338.194	379.38
338.422	354.38
338.65	365.38
338.878	362.38
339.106	368.38
339.334	364.38
339.562	363.38
339.79	369.38
340.018	364.38
340.246	335.38
340.474	351.38
340.702	360.38
340.93	362.38
341.158	344.38
341.386	355.38
341.614	367.38
341.842	361.38
342.07	357.38
342.298	353.38
342.526	351.38
342.754	355.38
342.981	358.38
343.209	350.38
343.437	397.38
343.665	395.38
343.893	404.38
344.12	431.38
344.348	391.38
344.576	385.38
344.804	380.38
345.031	378.38
345.259	376.38
345.487	369.38
345.714	345.38
345.942	344.38
346.17	344.38
346.397	351.38
346.625	346.38
346.853	342.38
347.08	336.38
347.308	347.38
347.535	340.38
347.763	364.38
347.99	370.38
348.218	364.38
348.445	336.38
348.673	359.38
348.9	367.38
349.128	341.38
349.355	332.38
349.583	351.38
349.81	327.38
350.037	361.38
350.265	341.38
350.492	349.38
350.72	354.38
350.947	333.38
351.174	341.38
351.402	338.38
351.629	331.38
351.856	354.38
352.083	342.38
352.311	331.38
352.538	337.38
352.765	354.38
352.992	340.38
353.22	331.38
353.447	355.38
353.674	325.38
353.901	335.38
354.128	346.38
354.355	346.38
354.583	349.38
354.81	352.38
355.037	331.38
355.264	315.38
355.491	342.38
355.718	346.38
355.945	355.38
356.172	319.38
356.399	336.38
356.626	353.38
356.853	352.38
357.08	365.38
357.307	343.38
357.534	328.38
357.761	346.38
357.988	330.38
358.215	337.38
358.441	353.38
358.668	333.38
358.895	341.38
359.122	330.38
359.349	327.38
359.576	336.38
359.802	336.38
360.029	354.38
360.256	343.38
360.483	343.38
360.709	341.38
360.936	338.38
361.163	352.38
361.39	346.38
361.616	349.38
361.843	350.38
362.07	351.38
362.296	348.38
362.523	348.38
362.749	343.38
362.976	344.38
363.203	340.38
363.429	354.38
363.656	349.38
363.882	333.38
364.109	349.38
364.335	337.38
364.562	340.38
364.788	345.38
365.015	339.38
365.241	352.38
365.468	348.38
365.694	346.38
365.92	346.38
366.147	360.38
366.373	343.38
366.599	349.38
366.826	351.38
367.052	349.38
367.278	348.38
367.505	350.38
367.731	356.38
367.957	361.38
368.184	354.38
368.41	364.38
368.636	351.38
368.862	369.38
369.089	373.38
369.315	354.38
369.541	356.38
369.767	360.38
369.993	349.38
370.219	367.38
370.445	367.38
370.672	384.38
370.898	372.38
371.124	357.38
371.35	379.38
371.576	393.38
371.802	380.38
372.028	378.38
372.254	385.38
372.48	376.38
372.706	383.38
372.932	384.38
373.158	412.38
373.384	387.38
373.61	396.38
373.835	383.38
374.061	375.38
374.287	383.38
374.513	396.38
374.739	406.38
374.965	397.38
375.191	402.38
375.416	396.38
375.642	390.38
375.868	396.38
376.094	400.38
376.319	387.38
376.545	383.38
376.771	388.38
376.997	376.38
377.222	385.38
377.448	388.38
377.674	391.38
377.899	376.38
378.125	370.38
378.35	373.38
378.576	388.38
378.802	354.38
379.027	364.38
379.253	369.38
379.478	379.38
379.704	385.38
379.929	380.38
380.155	392.38
380.38	379.38
380.606	407.38
380.831	359.38
381.057	381.38
381.282	371.38
381.507	376.38
381.733	402.38
381.958	368.38
382.184	390.38
382.409	380.38
382.634	400.38
382.86	407.38
383.085	401.38
383.31	396.38
383.535	415.38
383.761	410.38
383.986	403.38
384.211	416.38
384.436	411.38
384.662	416.38
384.887	435.38
385.112	444.38
385.337	416.38
385.562	449.38
385.787	419.38
386.013	449.38
386.238	444.38
386.463	447.38
386.688	445.38
386.913	432.38
387.138	466.38
387.363	456.38
387.588	433.38
387.813	435.38
388.038	444.38
388.263	440.38
388.488	449.38
388.713	457.38
388.938	460.38
389.163	451.38
389.387	453.38
389.612	432.38
389.837	433.38
390.062	424.38
390.287	446.38
390.512	440.38
390.736	449.38
390.961	438.38
391.186	441.38
391.411	461.38
391.636	491.38
391.86	487.38
392.085	487.38
392.31	476.38
392.534	460.38
392.759	445.38
392.984	468.38
393.208	439.38
393.433	453.38
393.658	471.38
393.882	471.38
394.107	452.38
394.331	461.38
394.556	485.38
394.78	471.38
395.005	466.38
395.229	470.38
395.454	502.38
395.678	511.38
395.903	512.38
396.127	500.38
396.352	480.38
396.576	485.38
396.801	459.38
397.025	471.38
397.249	492.38
397.474	509.38
397.698	486.38
397.922	504.38
398.147	503.38
398.371	520.38
398.595	505.38
398.82	520.38
399.044	598.38
399.268	620.38
399.492	637.38
399.717	675.38
399.941	697.38
400.165	665.38
400.389	619.38
400.613	606.38
400.837	587.38
401.062	561.38
401.286	564.38
401.51	548.38
401.734	544.38
401.958	556.38
402.182	533.38
402.406	551.38
402.63	544.38
402.854	567.38
403.078	544.38
403.302	553.38
403.526	577.38
403.75	581.38
403.974	600.38
404.198	589.38
404.422	579.38
404.645	601.38
404.869	578.38
405.093	562.38
405.317	579.38
405.541	577.38
405.765	565.38
405.988	576.38
406.212	581.38
406.436	580.38
406.66	608.38
406.883	617.38
407.107	610.38
407.331	629.38
407.555	667.38
407.778	681.38
408.002	648.38
408.226	657.38
408.449	668.38
408.673	633.38
408.896	616.38
409.12	610.38
409.344	619.38
409.567	599.38
409.791	603.38
410.014	602.38
410.238	609.38
410.461	614.38
410.685	595.38
410.908	607.38
411.132	603.38
411.355	567.38
411.578	588.38
411.802	576.38
412.025	554.38
412.249	578.38
412.472	578.38
412.695	567.38
412.919	562.38
413.142	577.38
413.365	572.38
413.589	575.38
413.812	560.38
414.035	571.38
414.258	570.38
414.482	561.38
414.705	578.38
414.928	544.38
415.151	551.38
415.374	561.38
415.597	573.38
415.821	553.38
416.044	520.38
416.267	504.38
416.49	553.38
416.713	548.38
416.936	524.38
417.159	544.38
417.382	532.38
417.605	530.38
417.828	531.38
418.051	548.38
418.274	547.38
418.497	562.38
418.72	556.38
418.943	536.38
419.166	584.38
419.389	625.38
419.611	597.38
419.834	587.38
420.057	556.38
420.28	564.38
420.503	548.38
420.726	543.38
420.948	540.38
421.171	553.38
421.394	541.38
421.617	565.38
421.839	547.38
422.062	553.38
422.285	537.38
422.507	557.38
422.73	536.38
422.953	548.38
423.175	564.38
423.398	547.38
423.621	572.38
423.843	569.38
424.066	565.38
424.288	537.38
424.511	546.38
424.733	565.38
424.956	522.38
425.178	541.38
425.401	559.38
425.623	537.38
425.846	512.38
426.068	520.38
426.291	519.38
426.513	529.38
426.735	517.38
426.958	521.38
427.18	521.38
427.402	521.38
427.625	515.38
427.847	485.38
428.069	494.38
428.292	503.38
428.514	483.38
428.736	499.38
428.958	511.38
429.181	495.38
429.403	487.38
429.625	493.38
429.847	505.38
430.069	526.38
430.292	511.38
430.514	485.38
430.736	497.38
430.958	499.38
431.18	485.38
431.402	500.38
431.624	510.38
431.846	524.38
432.068	495.38
432.29	495.38
432.512	491.38
432.734	486.38
432.956	503.38
433.178	492.38
433.4	509.38
433.622	504.38
433.844	515.38
434.066	515.38
434.287	516.38
434.509	532.38
434.731	543.38
434.953	552.38
435.175	551.38
435.397	552.38
435.618	529.38
435.84	524.38
436.062	538.38
436.284	524.38
436.505	510.38
436.727	509.38
436.949	505.38
437.17	492.38
437.392	503.38
437.614	495.38
437.835	457.38
438.057	480.38
438.278	479.38
438.5	490.38
438.721	487.38
438.943	482.38
439.165	509.38
439.386	503.38
439.608	525.38
439.829	500.38
440.05	497.38
440.272	508.38
440.493	505.38
440.715	510.38
440.936	534.38
441.158	509.38
441.379	541.38
441.6	546.38
441.822	570.38
442.043	548.38
442.264	529.38
442.486	537.38
442.707	544.38
442.928	523.38
443.149	536.38
443.371	560.38
443.592	576.38
443.813	568.38
444.034	550.38
444.255	573.38
444.476	572.38
444.698	615.38
444.919	587.38
445.14	698.38
445.361	603.38
445.582	582.38
445.803	546.38
446.024	535.38
446.245	529.38
446.466	536.38
446.687	528.38
446.908	509.38
447.129	507.38
447.35	501.38
447.571	507.38
447.792	488.38
448.013	473.38
448.234	485.38
448.455	466.38
448.675	464.38
448.896	476.38
449.117	483.38
449.338	466.38
449.559	471.38
449.779	479.38
450	465.38
450.221	470.38
450.442	478.38
450.662	461.38
450.883	490.38
451.104	496.38
451.324	469.38
451.545	466.38
451.766	478.38
451.986	478.38
452.207	464.38
452.428	472.38
452.648	474.38
452.869	464.38
453.089	470.38
453.31	466.38
453.53	436.38
453.751	451.38
453.971	438.38
454.192	453.38
454.412	435.38
454.633	464.38
454.853	456.38
455.073	447.38
455.294	472.38
455.514	465.38
455.734	450.38
455.955	441.38
456.175	447.38
456.395	426.38
456.616	424.38
456.836	436.38
457.056	454.38
457.276	447.38
457.497	435.38
457.717	418.38
457.937	460.38
458.157	456.38
458.377	477.38
458.598	446.38
458.818	469.38
459.038	452.38
459.258	490.38
459.478	516.38
459.698	514.38
459.918	513.38
460.138	545.38
460.358	540.38
460.578	548.38
460.798	567.38
461.018	587.38
461.238	551.38
461.458	589.38
461.678	551.38
461.898	555.38
462.118	583.38
462.338	575.38
462.558	617.38
462.777	641.38
462.997	657.38
463.217	661.38
463.437	675.38
463.657	661.38
463.876	647.38
464.096	641.38
464.316	643.38
464.536	634.38
464.755	609.38
464.975	581.38
465.195	578.38
465.414	536.38
465.634	539.38
465.854	510.38
466.073	510.38
466.293	514.38
466.512	476.38
466.732	490.38
466.951	495.38
467.171	477.38
467.391	503.38
467.61	476.38
467.829	485.38
468.049	471.38
468.268	483.38
468.488	507.38
468.707	459.38
468.927	479.38
469.146	483.38
469.365	467.38
469.585	448.38
469.804	481.38
470.023	502.38
470.243	507.38
470.462	480.38
470.681	486.38
470.901	492.38
471.12	491.38
471.339	512.38
471.558	487.38
471.777	479.38
471.997	460.38
472.216	461.38
472.435	476.38
472.654	468.38
472.873	456.38
473.092	456.38
473.311	467.38
473.53	461.38
473.749	452.38
473.968	474.38
474.187	475.38
474.406	465.38
474.625	455.38
474.844	457.38
475.063	450.38
475.282	456.38
475.501	469.38
475.72	488.38
475.939	459.38
476.158	480.38
476.377	475.38
476.596	468.38
476.814	465.38
477.033	467.38
477.252	480.38
477.471	487.38
477.69	529.38
477.908	529.38
478.127	554.38
478.346	519.38
478.564	535.38
478.783	540.38
479.002	555.38
479.22	552.38
479.439	544.38
479.658	539.38
479.876	529.38
480.095	568.38
480.313	561.38
480.532	573.38
480.751	574.38
480.969	538.38
481.188	547.38
481.406	531.38
481.624	532.38
481.843	500.38
482.061	526.38
482.28	498.38
482.498	523.38
482.717	511.38
482.935	492.38
483.153	515.38
483.372	513.38
483.59	529.38
483.808	523.38
484.027	526.38
484.245	503.38
484.463	516.38
484.681	524.38
484.9	520.38
485.118	530.38
485.336	547.38
485.554	534.38
485.772	526.38
485.99	515.38
486.209	527.38
486.427	530.38
486.645	542.38
486.863	553.38
487.081	534.38
487.299	540.38
487.517	531.38
487.735	522.38
487.953	537.38
488.171	545.38
488.389	543.38
488.607	509.38
488.825	511.38
489.043	521.38
489.261	524.38
489.479	543.38
489.696	526.38
489.914	522.38
490.132	524.38
490.35	542.38
490.568	543.38
490.786	536.38
491.003	545.38
491.221	554.38
491.439	545.38
491.657	536.38
491.874	567.38
492.092	575.38
492.31	572.38
492.527	567.38
492.745	551.38
492.963	571.38
493.18	562.38
493.398	561.38
493.615	554.38
493.833	551.38
494.05	553.38
494.268	553.38
494.485	569.38
494.703	566.38
494.92	567.38
495.138	582.38
495.355	560.38
495.573	585.38
495.79	592.38
496.008	591.38
496.225	577.38
496.442	595.38
496.66	589.38
496.877	599.38
497.094	614.38
497.312	620.38
497.529	637.38
497.746	672.38
497.963	660.38
498.181	701.38
498.398	703.38
498.615	741.38
498.832	757.38
499.049	823.38
499.267	861.38
499.484	918.38
499.701	1002.38
499.918	1079.38
500.135	1148.38
500.352	1242.38
500.569	1286.38
500.786	1236.38
501.003	1194.38
501.22	1109.38
501.437	1042.38
501.654	930.38
501.871	888.38
502.088	811.38
502.305	772.38
502.522	741.38
502.739	735.38
502.956	713.38
503.172	692.38
503.389	666.38
503.606	640.38
503.823	635.38
504.04	610.38
504.256	658.38
504.473	645.38
504.69	635.38
504.907	624.38
505.123	597.38
505.34	581.38
505.557	573.38
505.773	565.38
505.99	555.38
506.207	525.38
506.423	522.38
506.64	529.38
506.856	519.38
507.073	512.38
507.289	520.38
507.506	496.38
507.722	512.38
507.939	513.38
508.155	475.38
508.372	508.38
508.588	455.38
508.805	468.38
509.021	482.38
509.238	467.38
509.454	485.38
509.67	448.38
509.887	445.38
510.103	447.38
510.319	447.38
510.536	462.38
510.752	460.38
510.968	460.38
511.184	441.38
511.401	462.38
511.617	470.38
511.833	452.38
512.049	459.38
512.265	457.38
512.481	454.38
512.698	455.38
512.914	445.38
513.13	459.38
513.346	469.38
513.562	457.38
513.778	459.38
513.994	459.38
514.21	471.38
514.426	466.38
514.642	467.38
514.858	468.38
515.074	472.38
515.29	484.38
515.506	468.38
515.721	482.38
515.937	494.38
516.153	492.38
516.369	485.38
516.585	496.38
516.801	509.38
517.016	538.38
517.232	560.38
517.448	581.38
517.664	581.38
517.879	565.38
518.095	597.38
518.311	560.38
518.527	564.38
518.742	562.38
518.958	532.38
519.173	507.38
519.389	496.38
519.605	480.38
519.82	490.38
520.036	497.38
520.251	467.38
520.467	468.38
520.682	447.38
520.898	464.38
521.113	441.38
521.329	454.38
521.544	426.38
521.76	448.38
521.975	442.38
522.19	453.38
522.406	440.38
522.621	432.38
522.836	429.38
523.052	411.38
523.267	441.38
523.482	421.38
523.698	438.38
523.913	440.38
524.128	423.38
524.343	429.38
524.559	419.38
524.774	415.38
524.989	433.38
525.204	427.38
525.419	426.38
525.634	421.38
525.849	422.38
526.064	434.38
526.28	448.38
526.495	425.38
526.71	411.38
526.925	420.38
527.14	417.38
527.355	396.38
527.57	420.38
527.785	406.38
527.999	410.38
528.214	422.38
528.429	416.38
528.644	411.38
528.859	411.38
529.074	412.38
529.289	402.38
529.503	418.38
529.718	419.38
529.933	417.38
530.148	396.38
530.363	401.38
530.577	399.38
530.792	399.38
531.007	408.38
531.221	411.38
531.436	402.38
531.651	436.38
531.865	407.38
532.08	415.38
532.295	429.38
532.509	415.38
532.724	411.38
532.938	404.38
533.153	434.38
533.367	428.38
533.582	401.38
533.796	415.38
534.011	422.38
534.225	406.38
534.44	412.38
534.654	397.38
534.868	400.38
535.083	410.38
535.297	393.38
535.511	421.38
535.726	398.38
535.94	408.38
536.154	384.38
536.369	416.38
536.583	395.38
536.797	396.38
537.011	395.38
537.225	391.38
537.44	385.38
537.654	401.38
537.868	406.38
538.082	388.38
538.296	370.38
538.51	398.38
538.724	383.38
538.938	382.38
539.153	391.38
539.367	390.38
539.581	393.38
539.795	383.38
540.009	382.38
540.222	356.38
540.436	379.38
540.65	387.38
540.864	380.38
541.078	379.38
541.292	386.38
541.506	366.38
541.72	379.38
541.934	385.38
542.147	394.38
542.361	398.38
542.575	382.38
542.789	379.38
543.002	377.38
543.216	368.38
543.43	390.38
543.644	375.38
543.857	388.38
544.071	374.38
544.285	382.38
544.498	383.38
544.712	378.38
544.925	392.38
545.139	389.38
545.352	387.38
545.566	368.38
545.779	381.38
545.993	373.38
546.206	397.38
546.42	374.38
546.633	389.38
546.847	372.38
547.06	384.38
547.274	386.38
547.487	396.38
547.7	405.38
547.914	389.38
548.127	403.38
548.34	408.38
548.554	379.38
548.767	388.38
548.98	403.38
549.193	388.38
549.407	392.38
549.62	394.38
549.833	389.38
550.046	397.38
550.259	409.38
550.473	383.38
550.686	385.38
550.899	393.38
551.112	396.38
551.325	394.38
551.538	397.38
551.751	387.38
551.964	392.38
552.177	391.38
552.39	381.38
552.603	386.38
552.816	397.38
553.029	408.38
553.242	388.38
553.455	385.38
553.667	395.38
553.88	404.38
554.093	383.38
554.306	371.38
554.519	377.38
554.732	371.38
554.944	385.38
555.157	373.38
555.37	376.38
555.583	371.38
555.795	364.38
556.008	353.38
556.221	340.38
556.433	357.38
556.646	356.38
556.859	328.38
557.071	340.38
557.284	351.38
557.496	333.38
557.709	333.38
557.921	331.38
558.134	340.38
558.346	320.38
558.559	352.38
558.771	316.38
558.984	318.38
559.196	328.38
559.409	319.38
559.621	329.38
559.833	320.38
560.046	321.38
560.258	325.38
560.47	340.38
560.683	321.38
560.895	322.38
561.107	336.38
561.32	330.38
561.532	307.38
561.744	317.38
561.956	313.38
562.168	333.38
562.381	330.38
562.593	320.38
562.805	322.38
563.017	334.38
563.229	326.38
563.441	340.38
563.653	319.38
563.865	328.38
564.077	318.38
564.289	344.38
564.501	327.38
564.713	334.38
564.925	350.38
565.137	357.38
565.349	367.38
565.561	377.38
565.773	393.38
565.985	380.38
566.197	422.38
566.408	398.38
566.62	436.38
566.832	446.38
567.044	458.38
567.255	475.38
567.467	451.38
567.679	482.38
567.891	520.38
568.102	530.38
568.314	495.38
568.526	457.38
568.737	431.38
568.949	393.38
569.161	392.38
569.372	370.38
569.584	357.38
569.795	332.38
570.007	341.38
570.218	333.38
570.43	323.38
570.641	333.38
570.853	327.38
571.064	333.38
571.276	328.38
571.487	323.38
571.698	321.38
571.91	310.38
572.121	303.38
572.333	299.38
572.544	303.38
572.755	301.38
572.966	298.38
573.178	288.38
573.389	283.38
573.6	275.38
573.811	275.38
574.023	273.38
574.234	275.38
574.445	287.38
574.656	269.38
574.867	283.38
575.078	297.38
575.289	269.38
575.501	258.38
575.712	276.38
575.923	267.38
576.134	286.38
576.345	277.38
576.556	265.38
576.767	268.38
576.978	269.38
577.188	266.38
577.399	264.38
577.61	257.38
577.821	265.38
578.032	246.38
578.243	242.38
578.454	247.38
578.665	265.38
578.875	257.38
579.086	249.38
579.297	255.38
579.508	252.38
579.718	262.38
579.929	234.38
580.14	256.38
580.35	249.38
580.561	264.38
580.772	240.38
580.982	251.38
581.193	233.38
581.403	242.38
581.614	234.38
581.825	251.38
582.035	256.38
582.246	235.38
582.456	221.38
582.667	234.38
582.877	248.38
583.087	251.38
583.298	227.38
583.508	247.38
583.719	228.38
583.929	256.38
584.139	229.38
584.35	223.38
584.56	255.38
584.77	243.38
584.981	255.38
585.191	208.38
585.401	235.38
585.611	214.38
585.821	235.38
586.032	234.38
586.242	224.38
586.452	211.38
586.662	228.38
586.872	224.38
587.082	221.38
587.292	229.38
587.502	237.38
587.713	249.38
587.923	227.38
588.133	223.38
588.343	226.38
588.553	234.38
588.762	240.38
588.972	226.38
589.182	221.38
589.392	217.38
589.602	229.38
589.812	231.38
590.022	237.38
590.232	237.38
590.441	237.38
590.651	249.38
590.861	220.38
591.071	224.38
591.281	241.38
591.49	230.38
591.7	240.38
591.91	243.38
592.119	240.38
592.329	231.38
592.539	264.38
592.748	260.38
592.958	258.38
593.167	242.38
593.377	249.38
593.587	264.38
593.796	263.38
594.006	266.38
594.215	263.38
594.424	269.38
594.634	266.38
594.843	247.38
595.053	255.38
595.262	227.38
595.472	236.38
595.681	221.38
595.89	227.38
596.1	234.38
596.309	240.38
596.518	229.38
596.727	224.38
596.937	241.38
597.146	223.38
597.355	224.38
597.564	233.38
597.774	198.38
597.983	219.38
598.192	211.38
598.401	209.38
598.61	208.38
598.819	208.38
599.028	204.38
599.237	210.38
599.446	218.38
599.655	218.38
599.864	209.38
600.073	207.38
600.282	193.38
600.491	199.38
600.7	197.38
600.909	212.38
601.118	207.38
601.327	217.38
601.536	200.38
601.745	203.38
601.953	199.38
602.162	195.38
602.371	177.38
602.58	218.38
602.789	177.38
602.997	192.38
603.206	208.38
603.415	204.38
603.623	193.38
603.832	203.38
604.041	177.38
604.249	204.38
604.458	180.38
604.666	186.38
604.875	191.38
605.084	192.38
605.292	176.38
605.501	171.38
605.709	202.38
605.918	175.38
606.126	199.38
606.334	193.38
606.543	196.38
606.751	187.38
606.96	194.38
607.168	177.38
607.376	187.38
607.585	187.38
607.793	187.38
608.001	196.38
608.21	176.38
608.418	177.38
608.626	179.38
608.834	193.38
609.043	194.38
609.251	197.38
609.459	181.38
609.667	192.38
609.875	198.38
610.083	195.38
610.291	198.38
610.499	176.38
610.707	177.38
610.916	179.38
611.124	184.38
611.332	196.38
611.54	183.38
611.748	192.38
611.955	183.38
612.163	191.38
612.371	192.38
612.579	181.38
612.787	167.38
612.995	189.38
613.203	190.38
613.411	181.38
613.618	157.38
613.826	187.38
614.034	195.38
614.242	189.38
614.449	191.38
614.657	177.38
614.865	173.38
615.072	182.38
615.28	172.38
615.488	187.38
615.695	178.38
615.903	196.38
616.111	195.38
616.318	194.38
616.526	179.38
616.733	189.38
616.941	181.38
617.148	171.38
617.356	171.38
617.563	191.38
617.771	198.38
617.978	171.38
618.185	189.38
618.393	168.38
618.6	157.38
618.807	170.38
619.015	178.38
619.222	177.38
619.429	171.38
619.637	172.38
619.844	159.38
620.051	177.38
620.258	181.38
620.466	181.38
620.673	162.38
620.88	160.38
621.087	160.38
621.294	160.38
621.501	176.38
621.708	167.38
621.915	178.38
622.122	165.38
622.329	171.38
622.536	179.38
622.743	189.38
622.95	162.38
623.157	159.38
623.364	161.38
623.571	152.38
623.778	155.38
623.985	159.38
624.192	173.38
624.399	151.38
624.606	163.38
624.812	164.38
625.019	171.38
625.226	166.38
625.433	156.38
625.639	148.38
625.846	166.38
626.053	145.38
626.259	163.38
626.466	167.38
626.673	167.38
626.879	156.38
627.086	154.38
627.293	153.38
627.499	156.38
627.706	153.38
627.912	164.38
628.119	162.38
628.325	165.38
628.532	157.38
628.738	162.38
628.945	177.38
629.151	147.38
629.357	151.38
629.564	172.38
629.77	160.38
629.976	142.38
630.183	157.38
630.389	148.38
630.595	172.38
630.802	150.38
631.008	143.38
631.214	156.38
631.42	158.38
631.627	146.38
631.833	148.38
632.039	152.38
632.245	146.38
632.451	148.38
632.657	143.38
632.863	159.38
633.069	150.38
633.275	143.38
633.481	162.38
633.688	142.38
633.893	151.38
634.099	154.38
634.305	151.38
634.511	147.38
634.717	139.38
634.923	142.38
635.129	139.38
635.335	142.38
635.541	137.38
635.747	149.38
635.952	141.38
636.158	149.38
636.364	137.38
636.57	139.38
636.775	156.38
636.981	148.38
637.187	133.38
637.392	135.38
637.598	142.38
637.804	129.38
638.009	144.38
638.215	143.38
638.421	142.38
638.626	157.38
638.832	155.38
639.037	149.38
639.243	156.38
639.448	164.38
639.654	145.38
639.859	143.38
640.065	138.38
640.27	146.38
640.475	141.38
640.681	152.38
640.886	136.38
641.091	152.38
641.297	148.38
641.502	131.38
641.707	133.38
641.913	130.38
642.118	149.38
642.323	131.38
642.528	143.38
642.733	149.38
642.939	132.38
643.144	132.38
643.349	137.38
643.554	133.38
643.759	134.38
643.964	146.38
644.169	151.38
644.374	137.38
644.579	140.38
644.784	129.38
644.989	153.38
645.194	140.38
645.399	127.38
645.604	117.38
645.809	144.38
646.014	109.38
646.219	128.38
646.423	125.38
646.628	141.38
646.833	146.38
647.038	150.38
647.243	134.38
647.447	146.38
647.652	139.38
647.857	151.38
648.062	131.38
648.266	153.38
648.471	132.38
648.676	145.38
648.88	148.38
649.085	141.38
649.289	133.38
649.494	139.38
649.698	121.38
649.903	120.38
650.107	138.38
650.312	136.38
650.516	127.38
650.721	128.38
650.925	128.38
651.13	136.38
651.334	116.38
651.539	121.38
651.743	133.38
651.947	120.38
652.152	132.38
652.356	147.38
652.56	129.38
652.764	126.38
652.969	132.38
653.173	129.38
653.377	125.38
653.581	137.38
653.785	119.38
653.99	127.38
654.194	120.38
654.398	127.38
654.602	121.38
654.806	115.38
655.01	119.38
655.214	121.38
655.418	127.38
655.622	115.38
655.826	120.38
656.03	105.38
656.234	115.38
656.438	108.38
656.642	121.38
656.846	115.38
657.049	119.38
657.253	120.38
657.457	123.38
657.661	113.38
657.865	114.38
658.068	121.38
658.272	102.38
658.476	91.38
658.68	92.38
658.883	93.38
659.087	92.38
659.291	86.38
659.494	104.38
659.698	95.38
659.901	90.38
660.105	100.38
660.309	81.38
660.512	93.38
660.716	85.38
660.919	89.38
661.123	105.38
661.326	88.38
661.53	96.38
661.733	91.38
661.936	96.38
662.14	69.38
662.343	87.38
662.546	82.38
662.75	87.38
662.953	82.38
663.156	83.38
663.36	104.38
663.563	80.38
663.766	77.38
663.969	69.38
664.173	85.38
664.376	92.38
664.579	76.38
664.782	77.38
664.985	88.38
665.188	83.38
665.391	76.38
665.594	67.38
665.797	63.38
666	100.38
666.203	83.38
666.406	83.38
666.609	80.38
666.812	79.38
667.015	72.38
667.218	100.38
667.421	71.38
667.624	81.38
667.827	96.38
668.03	75.38
668.232	85.38
668.435	88.38
668.638	79.38
668.841	80.38
669.043	78.38
669.246	92.38
669.449	89.38
669.651	86.38
669.854	62.38
670.057	76.38
670.259	87.38
670.462	98.38
670.665	70.38
670.867	78.38
671.07	79.38
671.272	80.38
671.475	74.38
671.677	83.38
671.88	88.38
672.082	83.38
672.284	81.38
672.487	71.38
672.689	66.38
672.892	76.38
