Data from Fe(NO3)3@0.05M.TitratingCurve.Agarose3%dH2O.NegLispCup.LampEnergy10.LIBS07252019_HRD10591_16-46-55-334.txt Node
Date: Thu Jul 25 16:46:55 EDT 2019
User: cochatt
Spectrometer: HR+D1059
Trigger mode: 1
Integration Time (sec): 1.000000E-1
Scans to average: 1
Electric dark correction enabled: true
Nonlinearity correction enabled: false
Boxcar width: 0
XAxis mode: Wavelengths
Number of Pixels in Spectrum: 2048
>>>>>Begin Spectral Data<<<<<
223.165	-11.94
223.4	-11.94
223.635	-11.94
223.869	-13.94
224.104	-28.94
224.338	-7.94
224.573	-12.94
224.808	-12.94
225.042	-6.94
225.277	-12.94
225.511	-5.94
225.746	5.06
225.98	5.06
226.215	12.06
226.449	20.06
226.683	20.06
226.918	28.06
227.152	24.06
227.387	38.06
227.621	39.06
227.856	49.06
228.09	41.06
228.324	43.06
228.559	47.06
228.793	60.06
229.027	103.06
229.262	88.06
229.496	105.06
229.73	119.06
229.964	133.06
230.199	110.06
230.433	125.06
230.667	111.06
230.901	119.06
231.136	122.06
231.37	119.06
231.604	139.06
231.838	149.06
232.072	132.06
232.306	126.06
232.541	134.06
232.775	151.06
233.009	137.06
233.243	130.06
233.477	136.06
233.711	143.06
233.945	134.06
234.179	129.06
234.413	144.06
234.647	152.06
234.881	151.06
235.115	150.06
235.349	149.06
235.583	131.06
235.817	149.06
236.051	142.06
236.285	157.06
236.519	151.06
236.753	150.06
236.987	152.06
237.221	151.06
237.455	150.06
237.689	153.06
237.922	161.06
238.156	155.06
238.39	170.06
238.624	178.06
238.858	172.06
239.091	167.06
239.325	151.06
239.559	148.06
239.793	166.06
240.027	181.06
240.26	161.06
240.494	163.06
240.728	167.06
240.961	181.06
241.195	188.06
241.429	178.06
241.662	185.06
241.896	170.06
242.13	177.06
242.363	179.06
242.597	174.06
242.83	173.06
243.064	185.06
243.298	179.06
243.531	188.06
243.765	183.06
243.998	189.06
244.232	186.06
244.465	193.06
244.699	192.06
244.932	184.06
245.166	202.06
245.399	188.06
245.633	195.06
245.866	193.06
246.099	193.06
246.333	226.06
246.566	211.06
246.8	219.06
247.033	209.06
247.266	219.06
247.5	202.06
247.733	214.06
247.966	213.06
248.2	198.06
248.433	230.06
248.666	228.06
248.899	234.06
249.133	214.06
249.366	234.06
249.599	223.06
249.832	241.06
250.066	231.06
250.299	223.06
250.532	215.06
250.765	237.06
250.998	219.06
251.231	225.06
251.465	251.06
251.698	237.06
251.931	245.06
252.164	241.06
252.397	257.06
252.63	245.06
252.863	240.06
253.096	266.06
253.329	258.06
253.562	258.06
253.795	257.06
254.028	272.06
254.261	275.06
254.494	263.06
254.727	273.06
254.96	257.06
255.193	241.06
255.426	279.06
255.659	257.06
255.892	255.06
256.124	245.06
256.357	281.06
256.59	271.06
256.823	260.06
257.056	264.06
257.289	266.06
257.521	284.06
257.754	263.06
257.987	267.06
258.22	269.06
258.452	292.06
258.685	294.06
258.918	289.06
259.151	262.06
259.383	301.06
259.616	297.06
259.849	275.06
260.081	306.06
260.314	324.06
260.547	283.06
260.779	301.06
261.012	298.06
261.244	301.06
261.477	334.06
261.71	328.06
261.942	305.06
262.175	303.06
262.407	302.06
262.64	309.06
262.872	326.06
263.105	301.06
263.337	318.06
263.57	298.06
263.802	309.06
264.035	309.06
264.267	311.06
264.499	308.06
264.732	299.06
264.964	294.06
265.197	302.06
265.429	321.06
265.661	307.06
265.894	317.06
266.126	307.06
266.358	302.06
266.591	325.06
266.823	327.06
267.055	325.06
267.287	311.06
267.52	330.06
267.752	313.06
267.984	324.06
268.216	310.06
268.448	323.06
268.681	332.06
268.913	341.06
269.145	331.06
269.377	348.06
269.609	329.06
269.841	331.06
270.073	352.06
270.306	341.06
270.538	326.06
270.77	342.06
271.002	349.06
271.234	319.06
271.466	342.06
271.698	326.06
271.93	337.06
272.162	380.06
272.394	354.06
272.626	376.06
272.858	363.06
273.09	349.06
273.322	359.06
273.553	359.06
273.785	372.06
274.017	375.06
274.249	404.06
274.481	392.06
274.713	405.06
274.945	426.06
275.176	433.06
275.408	413.06
275.64	414.06
275.872	389.06
276.104	395.06
276.335	382.06
276.567	383.06
276.799	370.06
277.031	395.06
277.262	382.06
277.494	382.06
277.726	370.06
277.957	385.06
278.189	376.06
278.421	405.06
278.652	375.06
278.884	409.06
279.115	401.06
279.347	396.06
279.579	378.06
279.81	391.06
280.042	391.06
280.273	398.06
280.505	394.06
280.736	407.06
280.968	389.06
281.199	400.06
281.431	407.06
281.662	418.06
281.894	397.06
282.125	406.06
282.356	402.06
282.588	410.06
282.819	390.06
283.051	397.06
283.282	419.06
283.513	407.06
283.745	417.06
283.976	411.06
284.207	417.06
284.439	437.06
284.67	420.06
284.901	446.06
285.132	419.06
285.364	426.06
285.595	440.06
285.826	437.06
286.057	439.06
286.288	434.06
286.52	445.06
286.751	422.06
286.982	443.06
287.213	443.06
287.444	427.06
287.675	455.06
287.906	454.06
288.138	462.06
288.369	439.06
288.6	450.06
288.831	452.06
289.062	456.06
289.293	454.06
289.524	457.06
289.755	446.06
289.986	463.06
290.217	434.06
290.448	456.06
290.679	456.06
290.91	454.06
291.141	455.06
291.371	474.06
291.602	462.06
291.833	466.06
292.064	470.06
292.295	458.06
292.526	463.06
292.757	445.06
292.987	476.06
293.218	452.06
293.449	463.06
293.68	436.06
293.91	469.06
294.141	458.06
294.372	474.06
294.603	480.06
294.833	469.06
295.064	459.06
295.295	473.06
295.525	482.06
295.756	483.06
295.987	475.06
296.217	461.06
296.448	494.06
296.679	476.06
296.909	479.06
297.14	493.06
297.37	490.06
297.601	486.06
297.831	487.06
298.062	497.06
298.292	509.06
298.523	500.06
298.753	497.06
298.984	518.06
299.214	497.06
299.445	507.06
299.675	491.06
299.905	523.06
300.136	492.06
300.366	504.06
300.597	506.06
300.827	498.06
301.057	494.06
301.288	530.06
301.518	501.06
301.748	530.06
301.979	521.06
302.209	541.06
302.439	526.06
302.669	517.06
302.9	531.06
303.13	537.06
303.36	543.06
303.59	530.06
303.82	529.06
304.051	542.06
304.281	510.06
304.511	502.06
304.741	523.06
304.971	523.06
305.201	519.06
305.431	506.06
305.661	513.06
305.891	513.06
306.121	532.06
306.352	519.06
306.582	536.06
306.812	517.06
307.042	533.06
307.272	547.06
307.502	525.06
307.731	525.06
307.961	546.06
308.191	517.06
308.421	482.06
308.651	511.06
308.881	520.06
309.111	537.06
309.341	518.06
309.571	528.06
309.8	522.06
310.03	528.06
310.26	537.06
310.49	549.06
310.72	550.06
310.949	521.06
311.179	520.06
311.409	551.06
311.639	548.06
311.868	535.06
312.098	552.06
312.328	563.06
312.557	537.06
312.787	533.06
313.017	537.06
313.246	576.06
313.476	570.06
313.706	567.06
313.935	546.06
314.165	577.06
314.394	547.06
314.624	555.06
314.853	578.06
315.083	554.06
315.312	590.06
315.542	553.06
315.771	573.06
316.001	545.06
316.23	556.06
316.46	572.06
316.689	558.06
316.919	574.06
317.148	544.06
317.377	562.06
317.607	571.06
317.836	563.06
318.065	549.06
318.295	563.06
318.524	560.06
318.753	578.06
318.983	563.06
319.212	566.06
319.441	571.06
319.67	574.06
319.9	548.06
320.129	541.06
320.358	586.06
320.587	576.06
320.816	555.06
321.046	562.06
321.275	588.06
321.504	573.06
321.733	550.06
321.962	595.06
322.191	570.06
322.42	563.06
322.649	572.06
322.878	585.06
323.108	587.06
323.337	579.06
323.566	587.06
323.795	599.06
324.024	600.06
324.253	605.06
324.482	611.06
324.71	604.06
324.939	588.06
325.168	622.06
325.397	603.06
325.626	597.06
325.855	621.06
326.084	625.06
326.313	594.06
326.542	612.06
326.77	627.06
326.999	603.06
327.228	603.06
327.457	594.06
327.686	615.06
327.914	634.06
328.143	622.06
328.372	635.06
328.6	629.06
328.829	643.06
329.058	650.06
329.287	641.06
329.515	631.06
329.744	590.06
329.972	607.06
330.201	630.06
330.43	649.06
330.658	646.06
330.887	609.06
331.115	643.06
331.344	641.06
331.572	651.06
331.801	666.06
332.03	665.06
332.258	677.06
332.486	675.06
332.715	684.06
332.943	701.06
333.172	693.06
333.4	740.06
333.629	746.06
333.857	768.06
334.085	771.06
334.314	768.06
334.542	757.06
334.771	787.06
334.999	752.06
335.227	764.06
335.455	774.06
335.684	760.06
335.912	743.06
336.14	732.06
336.369	738.06
336.597	723.06
336.825	745.06
337.053	729.06
337.281	726.06
337.51	724.06
337.738	701.06
337.966	699.06
338.194	685.06
338.422	676.06
338.65	672.06
338.878	691.06
339.106	674.06
339.334	686.06
339.562	678.06
339.79	675.06
340.018	654.06
340.246	674.06
340.474	667.06
340.702	663.06
340.93	692.06
341.158	643.06
341.386	650.06
341.614	643.06
341.842	664.06
342.07	659.06
342.298	648.06
342.526	669.06
342.754	669.06
342.981	637.06
343.209	664.06
343.437	699.06
343.665	741.06
343.893	731.06
344.12	772.06
344.348	730.06
344.576	714.06
344.804	726.06
345.031	687.06
345.259	709.06
345.487	683.06
345.714	669.06
345.942	658.06
346.17	643.06
346.397	661.06
346.625	652.06
346.853	639.06
347.08	632.06
347.308	641.06
347.535	648.06
347.763	652.06
347.99	659.06
348.218	621.06
348.445	635.06
348.673	629.06
348.9	641.06
349.128	637.06
349.355	615.06
349.583	643.06
349.81	635.06
350.037	646.06
350.265	620.06
350.492	599.06
350.72	648.06
350.947	631.06
351.174	625.06
351.402	653.06
351.629	622.06
351.856	599.06
352.083	620.06
352.311	595.06
352.538	617.06
352.765	625.06
352.992	607.06
353.22	637.06
353.447	629.06
353.674	628.06
353.901	620.06
354.128	633.06
354.355	628.06
354.583	638.06
354.81	635.06
355.037	635.06
355.264	649.06
355.491	631.06
355.718	601.06
355.945	644.06
356.172	640.06
356.399	641.06
356.626	647.06
356.853	659.06
357.08	631.06
357.307	626.06
357.534	634.06
357.761	621.06
357.988	637.06
358.215	648.06
358.441	643.06
358.668	627.06
358.895	635.06
359.122	645.06
359.349	649.06
359.576	652.06
359.802	649.06
360.029	611.06
360.256	615.06
360.483	639.06
360.709	634.06
360.936	653.06
361.163	643.06
361.39	638.06
361.616	644.06
361.843	651.06
362.07	645.06
362.296	649.06
362.523	645.06
362.749	623.06
362.976	637.06
363.203	649.06
363.429	651.06
363.656	636.06
363.882	641.06
364.109	645.06
364.335	637.06
364.562	648.06
364.788	634.06
365.015	659.06
365.241	636.06
365.468	649.06
365.694	645.06
365.92	640.06
366.147	627.06
366.373	637.06
366.599	635.06
366.826	649.06
367.052	675.06
367.278	649.06
367.505	654.06
367.731	642.06
367.957	636.06
368.184	651.06
368.41	668.06
368.636	661.06
368.862	665.06
369.089	679.06
369.315	659.06
369.541	657.06
369.767	680.06
369.993	665.06
370.219	651.06
370.445	689.06
370.672	675.06
370.898	690.06
371.124	699.06
371.35	679.06
371.576	696.06
371.802	693.06
372.028	709.06
372.254	719.06
372.48	718.06
372.706	719.06
372.932	720.06
373.158	743.06
373.384	738.06
373.61	736.06
373.835	745.06
374.061	708.06
374.287	717.06
374.513	725.06
374.739	748.06
374.965	741.06
375.191	768.06
375.416	777.06
375.642	738.06
375.868	732.06
376.094	720.06
376.319	728.06
376.545	726.06
376.771	723.06
376.997	699.06
377.222	735.06
377.448	709.06
377.674	708.06
377.899	708.06
378.125	692.06
378.35	702.06
378.576	718.06
378.802	709.06
379.027	699.06
379.253	735.06
379.478	694.06
379.704	696.06
379.929	685.06
380.155	708.06
380.38	730.06
380.606	700.06
380.831	686.06
381.057	716.06
381.282	741.06
381.507	729.06
381.733	753.06
381.958	750.06
382.184	757.06
382.409	769.06
382.634	747.06
382.86	777.06
383.085	749.06
383.31	742.06
383.535	743.06
383.761	737.06
383.986	792.06
384.211	752.06
384.436	783.06
384.662	807.06
384.887	788.06
385.112	805.06
385.337	805.06
385.562	843.06
385.787	813.06
386.013	828.06
386.238	867.06
386.463	834.06
386.688	839.06
386.913	827.06
387.138	836.06
387.363	849.06
387.588	820.06
387.813	839.06
388.038	812.06
388.263	845.06
388.488	864.06
388.713	846.06
388.938	850.06
389.163	809.06
389.387	836.06
389.612	820.06
389.837	810.06
390.062	853.06
390.287	833.06
390.512	820.06
390.736	829.06
390.961	863.06
391.186	848.06
391.411	881.06
391.636	915.06
391.86	910.06
392.085	936.06
392.31	901.06
392.534	949.06
392.759	925.06
392.984	917.06
393.208	894.06
393.433	899.06
393.658	890.06
393.882	907.06
394.107	886.06
394.331	881.06
394.556	889.06
394.78	896.06
395.005	905.06
395.229	891.06
395.454	945.06
395.678	907.06
395.903	921.06
396.127	942.06
396.352	927.06
396.576	917.06
396.801	895.06
397.025	918.06
397.249	954.06
397.474	941.06
397.698	941.06
397.922	957.06
398.147	956.06
398.371	991.06
398.595	1002.06
398.82	999.06
399.044	1068.06
399.268	1108.06
399.492	1237.06
399.717	1305.06
399.941	1332.06
400.165	1239.06
400.389	1198.06
400.613	1148.06
400.837	1090.06
401.062	1113.06
401.286	1029.06
401.51	1038.06
401.734	1032.06
401.958	1077.06
402.182	1086.06
402.406	1045.06
402.63	1035.06
402.854	1061.06
403.078	1076.06
403.302	1071.06
403.526	1132.06
403.75	1095.06
403.974	1106.06
404.198	1109.06
404.422	1109.06
404.645	1115.06
404.869	1137.06
405.093	1097.06
405.317	1097.06
405.541	1108.06
405.765	1086.06
405.988	1115.06
406.212	1138.06
406.436	1117.06
406.66	1161.06
406.883	1155.06
407.107	1220.06
407.331	1254.06
407.555	1254.06
407.778	1258.06
408.002	1243.06
408.226	1210.06
408.449	1224.06
408.673	1178.06
408.896	1171.06
409.12	1142.06
409.344	1166.06
409.567	1131.06
409.791	1131.06
410.014	1180.06
410.238	1128.06
410.461	1133.06
410.685	1125.06
410.908	1110.06
411.132	1091.06
411.355	1090.06
411.578	1103.06
411.802	1098.06
412.025	1062.06
412.249	1108.06
412.472	1086.06
412.695	1078.06
412.919	1074.06
413.142	1048.06
413.365	1077.06
413.589	1085.06
413.812	1037.06
414.035	1071.06
414.258	1061.06
414.482	1030.06
414.705	1070.06
414.928	1046.06
415.151	1035.06
415.374	1059.06
415.597	1051.06
415.821	1034.06
416.044	1028.06
416.267	1041.06
416.49	1025.06
416.713	1037.06
416.936	1054.06
417.159	1039.06
417.382	1013.06
417.605	1020.06
417.828	1003.06
418.051	1034.06
418.274	1005.06
418.497	1025.06
418.72	1033.06
418.943	1012.06
419.166	1096.06
419.389	1145.06
419.611	1161.06
419.834	1098.06
420.057	1085.06
420.28	1039.06
420.503	1012.06
420.726	1011.06
420.948	977.06
421.171	997.06
421.394	995.06
421.617	1031.06
421.839	1001.06
422.062	1013.06
422.285	985.06
422.507	1025.06
422.73	1022.06
422.953	1018.06
423.175	1060.06
423.398	1017.06
423.621	1044.06
423.843	1037.06
424.066	1025.06
424.288	1029.06
424.511	1005.06
424.733	1023.06
424.956	1038.06
425.178	1032.06
425.401	1002.06
425.623	1029.06
425.846	990.06
426.068	1003.06
426.291	992.06
426.513	984.06
426.735	971.06
426.958	1018.06
427.18	957.06
427.402	979.06
427.625	975.06
427.847	945.06
428.069	949.06
428.292	959.06
428.514	946.06
428.736	920.06
428.958	958.06
429.181	927.06
429.403	940.06
429.625	941.06
429.847	917.06
430.069	942.06
430.292	938.06
430.514	930.06
430.736	959.06
430.958	934.06
431.18	953.06
431.402	922.06
431.624	931.06
431.846	956.06
432.068	969.06
432.29	947.06
432.512	940.06
432.734	958.06
432.956	961.06
433.178	976.06
433.4	983.06
433.622	961.06
433.844	965.06
434.066	994.06
434.287	975.06
434.509	1007.06
434.731	1002.06
434.953	996.06
435.175	1033.06
435.397	1031.06
435.618	989.06
435.84	963.06
436.062	995.06
436.284	968.06
436.505	951.06
436.727	969.06
436.949	928.06
437.17	934.06
437.392	937.06
437.614	947.06
437.835	915.06
438.057	898.06
438.278	881.06
438.5	930.06
438.721	892.06
438.943	900.06
439.165	915.06
439.386	929.06
439.608	957.06
439.829	923.06
440.05	928.06
440.272	949.06
440.493	949.06
440.715	969.06
440.936	975.06
441.158	942.06
441.379	986.06
441.6	1027.06
441.822	991.06
442.043	1030.06
442.264	1027.06
442.486	1004.06
442.707	1023.06
442.928	1021.06
443.149	1035.06
443.371	997.06
443.592	995.06
443.813	1049.06
444.034	1030.06
444.255	1036.06
444.476	1058.06
444.698	1080.06
444.919	1133.06
445.14	1237.06
445.361	1141.06
445.582	1061.06
445.803	1010.06
446.024	1018.06
446.245	1000.06
446.466	989.06
446.687	965.06
446.908	983.06
447.129	947.06
447.35	927.06
447.571	942.06
447.792	920.06
448.013	926.06
448.234	888.06
448.455	895.06
448.675	902.06
448.896	898.06
449.117	879.06
449.338	899.06
449.559	847.06
449.779	903.06
450	903.06
450.221	890.06
450.442	864.06
450.662	889.06
450.883	885.06
451.104	909.06
451.324	869.06
451.545	914.06
451.766	866.06
451.986	890.06
452.207	873.06
452.428	875.06
452.648	862.06
452.869	849.06
453.089	839.06
453.31	853.06
453.53	867.06
453.751	826.06
453.971	821.06
454.192	837.06
454.412	820.06
454.633	854.06
454.853	838.06
455.073	847.06
455.294	852.06
455.514	823.06
455.734	838.06
455.955	795.06
456.175	810.06
456.395	818.06
456.616	805.06
456.836	835.06
457.056	819.06
457.276	806.06
457.497	859.06
457.717	860.06
457.937	813.06
458.157	861.06
458.377	875.06
458.598	853.06
458.818	899.06
459.038	907.06
459.258	911.06
459.478	947.06
459.698	963.06
459.918	984.06
460.138	1059.06
460.358	1019.06
460.578	1056.06
460.798	1092.06
461.018	1085.06
461.238	1054.06
461.458	1101.06
461.678	1053.06
461.898	1065.06
462.118	1057.06
462.338	1140.06
462.558	1145.06
462.777	1183.06
462.997	1276.06
463.217	1288.06
463.437	1294.06
463.657	1218.06
463.876	1225.06
464.096	1206.06
464.316	1209.06
464.536	1171.06
464.755	1155.06
464.975	1151.06
465.195	1077.06
465.414	1071.06
465.634	1031.06
465.854	1018.06
466.073	958.06
466.293	986.06
466.512	987.06
466.732	906.06
466.951	929.06
467.171	922.06
467.391	903.06
467.61	895.06
467.829	903.06
468.049	913.06
468.268	899.06
468.488	890.06
468.707	896.06
468.927	901.06
469.146	926.06
469.365	911.06
469.585	883.06
469.804	929.06
470.023	952.06
470.243	931.06
470.462	947.06
470.681	910.06
470.901	929.06
471.12	941.06
471.339	922.06
471.558	921.06
471.777	929.06
471.997	926.06
472.216	910.06
472.435	901.06
472.654	889.06
472.873	899.06
473.092	917.06
473.311	878.06
473.53	888.06
473.749	893.06
473.968	876.06
474.187	873.06
474.406	887.06
474.625	895.06
474.844	890.06
475.063	884.06
475.282	891.06
475.501	905.06
475.72	930.06
475.939	896.06
476.158	913.06
476.377	941.06
476.596	942.06
476.814	970.06
477.033	931.06
477.252	969.06
477.471	985.06
477.69	994.06
477.908	1018.06
478.127	1005.06
478.346	991.06
478.564	1046.06
478.783	1068.06
479.002	1056.06
479.22	1063.06
479.439	1090.06
479.658	1079.06
479.876	1073.06
480.095	1088.06
480.313	1087.06
480.532	1090.06
480.751	1108.06
480.969	1066.06
481.188	1069.06
481.406	1071.06
481.624	1034.06
481.843	1004.06
482.061	1006.06
482.28	1039.06
482.498	996.06
482.717	1006.06
482.935	1029.06
483.153	1014.06
483.372	1007.06
483.59	1033.06
483.808	1012.06
484.027	1038.06
484.245	1037.06
484.463	1030.06
484.681	1067.06
484.9	1045.06
485.118	1043.06
485.336	1040.06
485.554	1043.06
485.772	1035.06
485.99	1077.06
486.209	1063.06
486.427	1073.06
486.645	1027.06
486.863	1080.06
487.081	1075.06
487.299	1031.06
487.517	1082.06
487.735	1064.06
487.953	1076.06
488.171	1045.06
488.389	1065.06
488.607	1043.06
488.825	1058.06
489.043	1081.06
489.261	1063.06
489.479	1046.06
489.696	1057.06
489.914	1057.06
490.132	1028.06
490.35	1041.06
490.568	1038.06
490.786	1057.06
491.003	1053.06
491.221	1083.06
491.439	1073.06
491.657	1069.06
491.874	1100.06
492.092	1078.06
492.31	1098.06
492.527	1091.06
492.745	1131.06
492.963	1070.06
493.18	1100.06
493.398	1104.06
493.615	1089.06
493.833	1103.06
494.05	1088.06
494.268	1131.06
494.485	1122.06
494.703	1126.06
494.92	1161.06
495.138	1113.06
495.355	1111.06
495.573	1132.06
495.79	1158.06
496.008	1183.06
496.225	1185.06
496.442	1162.06
496.66	1187.06
496.877	1204.06
497.094	1204.06
497.312	1241.06
497.529	1255.06
497.746	1272.06
497.963	1306.06
498.181	1344.06
498.398	1372.06
498.615	1459.06
498.832	1544.06
499.049	1593.06
499.267	1662.06
499.484	1772.06
499.701	1898.06
499.918	2066.06
500.135	2225.06
500.352	2363.06
500.569	2467.06
500.786	2412.06
501.003	2399.06
501.22	2232.06
501.437	2022.06
501.654	1905.06
501.871	1797.06
502.088	1675.06
502.305	1588.06
502.522	1501.06
502.739	1450.06
502.956	1438.06
503.172	1366.06
503.389	1350.06
503.606	1306.06
503.823	1286.06
504.04	1249.06
504.256	1263.06
504.473	1277.06
504.69	1260.06
504.907	1256.06
505.123	1180.06
505.34	1153.06
505.557	1141.06
505.773	1097.06
505.99	1082.06
506.207	1102.06
506.423	1085.06
506.64	1045.06
506.856	1010.06
507.073	1011.06
507.289	991.06
507.506	1006.06
507.722	1004.06
507.939	979.06
508.155	970.06
508.372	981.06
508.588	945.06
508.805	910.06
509.021	921.06
509.238	921.06
509.454	940.06
509.67	929.06
509.887	913.06
510.103	931.06
510.319	935.06
510.536	905.06
510.752	913.06
510.968	922.06
511.184	913.06
511.401	902.06
511.617	892.06
511.833	922.06
512.049	909.06
512.265	903.06
512.481	908.06
512.698	901.06
512.914	939.06
513.13	918.06
513.346	925.06
513.562	927.06
513.778	902.06
513.994	898.06
514.21	885.06
514.426	915.06
514.642	901.06
514.858	936.06
515.074	907.06
515.29	917.06
515.506	924.06
515.721	941.06
515.937	965.06
516.153	957.06
516.369	953.06
516.585	992.06
516.801	1004.06
517.016	1049.06
517.232	1077.06
517.448	1078.06
517.664	1135.06
517.879	1078.06
518.095	1098.06
518.311	1082.06
518.527	1063.06
518.742	1042.06
518.958	1044.06
519.173	1035.06
519.389	980.06
519.605	989.06
519.82	950.06
520.036	967.06
520.251	931.06
520.467	912.06
520.682	910.06
520.898	883.06
521.113	874.06
521.329	897.06
521.544	841.06
521.76	861.06
521.975	856.06
522.19	847.06
522.406	878.06
522.621	860.06
522.836	863.06
523.052	866.06
523.267	845.06
523.482	853.06
523.698	843.06
523.913	821.06
524.128	850.06
524.343	851.06
524.559	817.06
524.774	824.06
524.989	827.06
525.204	838.06
525.419	843.06
525.634	813.06
525.849	803.06
526.064	847.06
526.28	847.06
526.495	809.06
526.71	824.06
526.925	809.06
527.14	791.06
527.355	795.06
527.57	811.06
527.785	798.06
527.999	794.06
528.214	791.06
528.429	809.06
528.644	796.06
528.859	823.06
529.074	828.06
529.289	817.06
529.503	785.06
529.718	828.06
529.933	806.06
530.148	814.06
530.363	803.06
530.577	804.06
530.792	795.06
531.007	774.06
531.221	777.06
531.436	799.06
531.651	787.06
531.865	801.06
532.08	798.06
532.295	788.06
532.509	784.06
532.724	803.06
532.938	802.06
533.153	782.06
533.367	778.06
533.582	776.06
533.796	780.06
534.011	791.06
534.225	783.06
534.44	779.06
534.654	757.06
534.868	780.06
535.083	755.06
535.297	788.06
535.511	770.06
535.726	753.06
535.94	772.06
536.154	738.06
536.369	755.06
536.583	757.06
536.797	723.06
537.011	749.06
537.225	759.06
537.44	744.06
537.654	739.06
537.868	713.06
538.082	739.06
538.296	730.06
538.51	733.06
538.724	733.06
538.938	741.06
539.153	695.06
539.367	737.06
539.581	727.06
539.795	709.06
540.009	721.06
540.222	740.06
540.436	722.06
540.65	719.06
540.864	731.06
541.078	737.06
541.292	755.06
541.506	718.06
541.72	728.06
541.934	726.06
542.147	730.06
542.361	756.06
542.575	735.06
542.789	721.06
543.002	693.06
543.216	734.06
543.43	718.06
543.644	694.06
543.857	729.06
544.071	711.06
544.285	717.06
544.498	721.06
544.712	719.06
544.925	725.06
545.139	699.06
545.352	748.06
545.566	750.06
545.779	738.06
545.993	743.06
546.206	755.06
546.42	731.06
546.633	729.06
546.847	729.06
547.06	717.06
547.274	731.06
547.487	742.06
547.7	723.06
547.914	723.06
548.127	749.06
548.34	746.06
548.554	724.06
548.767	749.06
548.98	744.06
549.193	738.06
549.407	739.06
549.62	729.06
549.833	728.06
550.046	731.06
550.259	737.06
550.473	737.06
550.686	745.06
550.899	728.06
551.112	705.06
551.325	732.06
551.538	705.06
551.751	679.06
551.964	705.06
552.177	716.06
552.39	726.06
552.603	749.06
552.816	749.06
553.029	741.06
553.242	777.06
553.455	772.06
553.667	755.06
553.88	755.06
554.093	726.06
554.306	716.06
554.519	713.06
554.732	697.06
554.944	709.06
555.157	681.06
555.37	713.06
555.583	683.06
555.795	672.06
556.008	645.06
556.221	629.06
556.433	627.06
556.646	638.06
556.859	641.06
557.071	635.06
557.284	661.06
557.496	627.06
557.709	603.06
557.921	637.06
558.134	631.06
558.346	641.06
558.559	613.06
558.771	617.06
558.984	632.06
559.196	595.06
559.409	603.06
559.621	607.06
559.833	604.06
560.046	576.06
560.258	617.06
560.47	628.06
560.683	611.06
560.895	633.06
561.107	602.06
561.32	592.06
561.532	614.06
561.744	611.06
561.956	599.06
562.168	617.06
562.381	629.06
562.593	627.06
562.805	608.06
563.017	621.06
563.229	636.06
563.441	605.06
563.653	617.06
563.865	597.06
564.077	598.06
564.289	637.06
564.501	641.06
564.713	654.06
564.925	665.06
565.137	665.06
565.349	698.06
565.561	719.06
565.773	734.06
565.985	725.06
566.197	734.06
566.408	776.06
566.62	797.06
566.832	853.06
567.044	835.06
567.255	860.06
567.467	893.06
567.679	890.06
567.891	917.06
568.102	907.06
568.314	890.06
568.526	839.06
568.737	812.06
568.949	769.06
569.161	725.06
569.372	702.06
569.584	694.06
569.795	656.06
570.007	629.06
570.218	619.06
570.43	620.06
570.641	594.06
570.853	604.06
571.064	608.06
571.276	604.06
571.487	580.06
571.698	603.06
571.91	563.06
572.121	573.06
572.333	545.06
572.544	534.06
572.755	541.06
572.966	528.06
573.178	507.06
573.389	523.06
573.6	517.06
573.811	492.06
574.023	505.06
574.234	515.06
574.445	513.06
574.656	492.06
574.867	477.06
575.078	519.06
575.289	495.06
575.501	502.06
575.712	491.06
575.923	494.06
576.134	485.06
576.345	492.06
576.556	467.06
576.767	478.06
576.978	490.06
577.188	485.06
577.399	472.06
577.61	480.06
577.821	466.06
578.032	453.06
578.243	445.06
578.454	461.06
578.665	451.06
578.875	456.06
579.086	445.06
579.297	452.06
579.508	443.06
579.718	460.06
579.929	453.06
580.14	439.06
580.35	444.06
580.561	431.06
580.772	437.06
580.982	417.06
581.193	443.06
581.403	441.06
581.614	436.06
581.825	444.06
582.035	425.06
582.246	437.06
582.456	415.06
582.667	435.06
582.877	421.06
583.087	426.06
583.298	434.06
583.508	422.06
583.719	412.06
583.929	421.06
584.139	410.06
584.35	407.06
584.56	400.06
584.77	411.06
584.981	412.06
585.191	424.06
585.401	406.06
585.611	405.06
585.821	403.06
586.032	413.06
586.242	400.06
586.452	417.06
586.662	398.06
586.872	399.06
587.082	399.06
587.292	414.06
587.502	399.06
587.713	409.06
587.923	407.06
588.133	405.06
588.343	405.06
588.553	418.06
588.762	396.06
588.972	407.06
589.182	443.06
589.392	417.06
589.602	411.06
589.812	423.06
590.022	412.06
590.232	389.06
590.441	392.06
590.651	420.06
590.861	415.06
591.071	417.06
591.281	415.06
591.49	411.06
591.7	442.06
591.91	429.06
592.119	420.06
592.329	420.06
592.539	422.06
592.748	441.06
592.958	433.06
593.167	438.06
593.377	471.06
593.587	466.06
593.796	444.06
594.006	442.06
594.215	453.06
594.424	453.06
594.634	446.06
594.843	439.06
595.053	420.06
595.262	424.06
595.472	431.06
595.681	409.06
595.89	409.06
596.1	408.06
596.309	396.06
596.518	376.06
596.727	379.06
596.937	367.06
597.146	369.06
597.355	365.06
597.564	382.06
597.774	361.06
597.983	362.06
598.192	342.06
598.401	366.06
598.61	347.06
598.819	339.06
599.028	348.06
599.237	335.06
599.446	354.06
599.655	355.06
599.864	348.06
600.073	358.06
600.282	345.06
600.491	341.06
600.7	344.06
600.909	331.06
601.118	354.06
601.327	356.06
601.536	354.06
601.745	340.06
601.953	335.06
602.162	347.06
602.371	316.06
602.58	322.06
602.789	318.06
602.997	319.06
603.206	329.06
603.415	331.06
603.623	318.06
603.832	324.06
604.041	309.06
604.249	323.06
604.458	309.06
604.666	306.06
604.875	330.06
605.084	332.06
605.292	308.06
605.501	322.06
605.709	317.06
605.918	318.06
606.126	325.06
606.334	329.06
606.543	318.06
606.751	322.06
606.96	307.06
607.168	308.06
607.376	317.06
607.585	310.06
607.793	299.06
608.001	303.06
608.21	314.06
608.418	306.06
608.626	302.06
608.834	325.06
609.043	311.06
609.251	308.06
609.459	311.06
609.667	317.06
609.875	317.06
610.083	309.06
610.291	306.06
610.499	286.06
610.707	293.06
610.916	298.06
611.124	309.06
611.332	299.06
611.54	295.06
611.748	305.06
611.955	289.06
612.163	307.06
612.371	291.06
612.579	286.06
612.787	298.06
612.995	311.06
613.203	300.06
613.411	293.06
613.618	294.06
613.826	287.06
614.034	294.06
614.242	283.06
614.449	285.06
614.657	299.06
614.865	298.06
615.072	287.06
615.28	293.06
615.488	301.06
615.695	287.06
615.903	292.06
616.111	292.06
616.318	316.06
616.526	290.06
616.733	306.06
616.941	291.06
617.148	290.06
617.356	306.06
617.563	296.06
617.771	306.06
617.978	302.06
618.185	296.06
618.393	293.06
618.6	287.06
618.807	273.06
619.015	281.06
619.222	278.06
619.429	280.06
619.637	298.06
619.844	286.06
620.051	281.06
620.258	292.06
620.466	270.06
620.673	285.06
620.88	265.06
621.087	279.06
621.294	277.06
621.501	290.06
621.708	257.06
621.915	278.06
622.122	279.06
622.329	266.06
622.536	280.06
622.743	272.06
622.95	269.06
623.157	260.06
623.364	279.06
623.571	275.06
623.778	263.06
623.985	259.06
624.192	278.06
624.399	270.06
624.606	249.06
624.812	263.06
625.019	275.06
625.226	261.06
625.433	271.06
625.639	262.06
625.846	265.06
626.053	258.06
626.259	255.06
626.466	272.06
626.673	263.06
626.879	245.06
627.086	248.06
627.293	259.06
627.499	247.06
627.706	260.06
627.912	259.06
628.119	250.06
628.325	248.06
628.532	251.06
628.738	257.06
628.945	235.06
629.151	234.06
629.357	259.06
629.564	248.06
629.77	229.06
629.976	224.06
630.183	231.06
630.389	234.06
630.595	236.06
630.802	235.06
631.008	234.06
631.214	234.06
631.42	238.06
631.627	234.06
631.833	218.06
632.039	228.06
632.245	236.06
632.451	231.06
632.657	238.06
632.863	235.06
633.069	215.06
633.275	238.06
633.481	214.06
633.688	219.06
633.893	221.06
634.099	242.06
634.305	223.06
634.511	226.06
634.717	219.06
634.923	237.06
635.129	214.06
635.335	230.06
635.541	211.06
635.747	217.06
635.952	210.06
636.158	221.06
636.364	214.06
636.57	210.06
636.775	215.06
636.981	214.06
637.187	218.06
637.392	228.06
637.598	221.06
637.804	224.06
638.009	206.06
638.215	221.06
638.421	224.06
638.626	215.06
638.832	205.06
639.037	209.06
639.243	219.06
639.448	218.06
639.654	207.06
639.859	218.06
640.065	217.06
640.27	217.06
640.475	206.06
640.681	188.06
640.886	210.06
641.091	200.06
641.297	216.06
641.502	217.06
641.707	207.06
641.913	228.06
642.118	217.06
642.323	195.06
642.528	224.06
642.733	208.06
642.939	188.06
643.144	193.06
643.349	212.06
643.554	197.06
643.759	191.06
643.964	207.06
644.169	203.06
644.374	205.06
644.579	223.06
644.784	187.06
644.989	192.06
645.194	210.06
645.399	216.06
645.604	194.06
645.809	206.06
646.014	215.06
646.219	192.06
646.423	204.06
646.628	216.06
646.833	195.06
647.038	202.06
647.243	200.06
647.447	206.06
647.652	209.06
647.857	205.06
648.062	205.06
648.266	209.06
648.471	210.06
648.676	187.06
648.88	217.06
649.085	206.06
649.289	215.06
649.494	202.06
649.698	205.06
649.903	206.06
650.107	197.06
650.312	201.06
650.516	199.06
650.721	181.06
650.925	184.06
651.13	196.06
651.334	185.06
651.539	188.06
651.743	190.06
651.947	181.06
652.152	179.06
652.356	166.06
652.56	176.06
652.764	185.06
652.969	162.06
653.173	167.06
653.377	179.06
653.581	179.06
653.785	171.06
653.99	157.06
654.194	181.06
654.398	179.06
654.602	166.06
654.806	173.06
655.01	174.06
655.214	168.06
655.418	163.06
655.622	164.06
655.826	162.06
656.03	153.06
656.234	152.06
656.438	159.06
656.642	152.06
656.846	150.06
657.049	147.06
657.253	144.06
657.457	135.06
657.661	140.06
657.865	146.06
658.068	137.06
658.272	135.06
658.476	133.06
658.68	138.06
658.883	118.06
659.087	122.06
659.291	119.06
659.494	103.06
659.698	110.06
659.901	124.06
660.105	115.06
660.309	113.06
660.512	119.06
660.716	108.06
660.919	92.06
661.123	85.06
661.326	107.06
661.53	99.06
661.733	107.06
661.936	89.06
662.14	89.06
662.343	96.06
662.546	96.06
662.75	87.06
662.953	94.06
663.156	88.06
663.36	89.06
663.563	79.06
663.766	94.06
663.969	89.06
664.173	80.06
664.376	103.06
664.579	84.06
664.782	67.06
664.985	78.06
665.188	87.06
665.391	84.06
665.594	75.06
665.797	73.06
666	89.06
666.203	84.06
666.406	82.06
666.609	75.06
666.812	105.06
667.015	84.06
667.218	90.06
667.421	93.06
667.624	85.06
667.827	96.06
668.03	80.06
668.232	83.06
668.435	82.06
668.638	95.06
668.841	91.06
669.043	78.06
669.246	77.06
669.449	83.06
669.651	94.06
669.854	72.06
670.057	89.06
670.259	94.06
670.462	84.06
670.665	83.06
670.867	74.06
671.07	85.06
671.272	89.06
671.475	86.06
671.677	89.06
671.88	85.06
672.082	85.06
672.284	78.06
672.487	101.06
672.689	85.06
672.892	83.06
