Data from Fe(NO3)3@0.1M.TitratingCurve.Agarose3%dH2O.NegLispCup.LampEnergy10.LIBS07252019_HRD10591_16-40-34-333.txt Node
Date: Thu Jul 25 16:40:34 EDT 2019
User: cochatt
Spectrometer: HR+D1059
Trigger mode: 1
Integration Time (sec): 1.000000E-1
Scans to average: 1
Electric dark correction enabled: true
Nonlinearity correction enabled: false
Boxcar width: 0
XAxis mode: Wavelengths
Number of Pixels in Spectrum: 2048
>>>>>Begin Spectral Data<<<<<
223.165	-13.31
223.4	-13.31
223.635	-13.31
223.869	1.69
224.104	-31.31
224.338	-16.31
224.573	-17.31
224.808	-17.31
225.042	5.69
225.277	-2.31
225.511	-1.31
225.746	4.69
225.98	6.69
226.215	3.69
226.449	14.69
226.683	0.69
226.918	31.69
227.152	29.69
227.387	38.69
227.621	28.69
227.856	40.69
228.09	41.69
228.324	41.69
228.559	50.69
228.793	61.69
229.027	78.69
229.262	73.69
229.496	110.69
229.73	98.69
229.964	91.69
230.199	97.69
230.433	106.69
230.667	91.69
230.901	82.69
231.136	84.69
231.37	101.69
231.604	99.69
231.838	90.69
232.072	87.69
232.306	92.69
232.541	97.69
232.775	105.69
233.009	96.69
233.243	101.69
233.477	102.69
233.711	114.69
233.945	99.69
234.179	95.69
234.413	101.69
234.647	109.69
234.881	109.69
235.115	104.69
235.349	101.69
235.583	107.69
235.817	86.69
236.051	97.69
236.285	107.69
236.519	99.69
236.753	105.69
236.987	119.69
237.221	105.69
237.455	96.69
237.689	103.69
237.922	122.69
238.156	99.69
238.39	115.69
238.624	88.69
238.858	111.69
239.091	109.69
239.325	110.69
239.559	105.69
239.793	117.69
240.027	114.69
240.26	117.69
240.494	121.69
240.728	109.69
240.961	109.69
241.195	112.69
241.429	114.69
241.662	114.69
241.896	109.69
242.13	121.69
242.363	117.69
242.597	107.69
242.83	125.69
243.064	109.69
243.298	123.69
243.531	122.69
243.765	118.69
243.998	122.69
244.232	111.69
244.465	127.69
244.699	125.69
244.932	122.69
245.166	118.69
245.399	129.69
245.633	127.69
245.866	129.69
246.099	125.69
246.333	130.69
246.566	123.69
246.8	119.69
247.033	128.69
247.266	125.69
247.5	122.69
247.733	130.69
247.966	144.69
248.2	135.69
248.433	136.69
248.666	131.69
248.899	125.69
249.133	133.69
249.366	130.69
249.599	141.69
249.832	137.69
250.066	135.69
250.299	139.69
250.532	135.69
250.765	117.69
250.998	135.69
251.231	148.69
251.465	134.69
251.698	139.69
251.931	139.69
252.164	138.69
252.397	144.69
252.63	139.69
252.863	149.69
253.096	150.69
253.329	127.69
253.562	140.69
253.795	143.69
254.028	150.69
254.261	125.69
254.494	135.69
254.727	146.69
254.96	141.69
255.193	143.69
255.426	151.69
255.659	149.69
255.892	137.69
256.124	170.69
256.357	144.69
256.59	148.69
256.823	150.69
257.056	144.69
257.289	151.69
257.521	151.69
257.754	151.69
257.987	155.69
258.22	161.69
258.452	154.69
258.685	165.69
258.918	155.69
259.151	140.69
259.383	161.69
259.616	165.69
259.849	162.69
260.081	175.69
260.314	175.69
260.547	157.69
260.779	146.69
261.012	163.69
261.244	155.69
261.477	167.69
261.71	173.69
261.942	162.69
262.175	189.69
262.407	170.69
262.64	156.69
262.872	127.69
263.105	159.69
263.337	182.69
263.57	183.69
263.802	168.69
264.035	158.69
264.267	151.69
264.499	164.69
264.732	161.69
264.964	148.69
265.197	160.69
265.429	157.69
265.661	164.69
265.894	174.69
266.126	175.69
266.358	181.69
266.591	180.69
266.823	167.69
267.055	168.69
267.287	173.69
267.52	162.69
267.752	165.69
267.984	185.69
268.216	175.69
268.448	175.69
268.681	167.69
268.913	169.69
269.145	176.69
269.377	173.69
269.609	165.69
269.841	181.69
270.073	186.69
270.306	192.69
270.538	168.69
270.77	184.69
271.002	169.69
271.234	201.69
271.466	190.69
271.698	187.69
271.93	192.69
272.162	195.69
272.394	173.69
272.626	198.69
272.858	187.69
273.09	199.69
273.322	191.69
273.553	198.69
273.785	198.69
274.017	177.69
274.249	210.69
274.481	197.69
274.713	190.69
274.945	184.69
275.176	214.69
275.408	187.69
275.64	186.69
275.872	190.69
276.104	195.69
276.335	194.69
276.567	205.69
276.799	199.69
277.031	169.69
277.262	217.69
277.494	196.69
277.726	209.69
277.957	200.69
278.189	199.69
278.421	185.69
278.652	202.69
278.884	198.69
279.115	211.69
279.347	197.69
279.579	202.69
279.81	193.69
280.042	210.69
280.273	208.69
280.505	206.69
280.736	223.69
280.968	214.69
281.199	206.69
281.431	209.69
281.662	210.69
281.894	214.69
282.125	217.69
282.356	211.69
282.588	209.69
282.819	211.69
283.051	229.69
283.282	233.69
283.513	235.69
283.745	227.69
283.976	225.69
284.207	235.69
284.439	226.69
284.67	222.69
284.901	230.69
285.132	218.69
285.364	214.69
285.595	223.69
285.826	238.69
286.057	222.69
286.288	211.69
286.52	227.69
286.751	226.69
286.982	227.69
287.213	218.69
287.444	225.69
287.675	229.69
287.906	235.69
288.138	235.69
288.369	242.69
288.6	227.69
288.831	227.69
289.062	230.69
289.293	242.69
289.524	222.69
289.755	228.69
289.986	234.69
290.217	246.69
290.448	241.69
290.679	237.69
290.91	225.69
291.141	245.69
291.371	236.69
291.602	227.69
291.833	257.69
292.064	241.69
292.295	231.69
292.526	229.69
292.757	246.69
292.987	221.69
293.218	224.69
293.449	227.69
293.68	235.69
293.91	252.69
294.141	234.69
294.372	219.69
294.603	234.69
294.833	259.69
295.064	232.69
295.295	232.69
295.525	222.69
295.756	221.69
295.987	237.69
296.217	245.69
296.448	261.69
296.679	263.69
296.909	271.69
297.14	246.69
297.37	240.69
297.601	234.69
297.831	253.69
298.062	246.69
298.292	255.69
298.523	262.69
298.753	257.69
298.984	249.69
299.214	249.69
299.445	254.69
299.675	259.69
299.905	242.69
300.136	245.69
300.366	277.69
300.597	260.69
300.827	255.69
301.057	253.69
301.288	263.69
301.518	267.69
301.748	277.69
301.979	276.69
302.209	257.69
302.439	263.69
302.669	250.69
302.9	268.69
303.13	258.69
303.36	261.69
303.59	258.69
303.82	271.69
304.051	274.69
304.281	279.69
304.511	256.69
304.741	257.69
304.971	232.69
305.201	261.69
305.431	270.69
305.661	265.69
305.891	253.69
306.121	272.69
306.352	263.69
306.582	261.69
306.812	274.69
307.042	250.69
307.272	261.69
307.502	246.69
307.731	246.69
307.961	259.69
308.191	241.69
308.421	245.69
308.651	257.69
308.881	259.69
309.111	264.69
309.341	257.69
309.571	275.69
309.8	261.69
310.03	275.69
310.26	266.69
310.49	267.69
310.72	259.69
310.949	262.69
311.179	269.69
311.409	268.69
311.639	296.69
311.868	288.69
312.098	267.69
312.328	290.69
312.557	279.69
312.787	294.69
313.017	287.69
313.246	262.69
313.476	263.69
313.706	270.69
313.935	276.69
314.165	277.69
314.394	279.69
314.624	278.69
314.853	267.69
315.083	286.69
315.312	278.69
315.542	289.69
315.771	270.69
316.001	275.69
316.23	285.69
316.46	283.69
316.689	287.69
316.919	285.69
317.148	277.69
317.377	278.69
317.607	282.69
317.836	279.69
318.065	272.69
318.295	257.69
318.524	284.69
318.753	263.69
318.983	271.69
319.212	283.69
319.441	286.69
319.67	274.69
319.9	268.69
320.129	267.69
320.358	265.69
320.587	280.69
320.816	285.69
321.046	257.69
321.275	282.69
321.504	271.69
321.733	277.69
321.962	284.69
322.191	276.69
322.42	294.69
322.649	293.69
322.878	276.69
323.108	283.69
323.337	272.69
323.566	284.69
323.795	288.69
324.024	274.69
324.253	272.69
324.482	280.69
324.71	269.69
324.939	287.69
325.168	283.69
325.397	296.69
325.626	285.69
325.855	307.69
326.084	294.69
326.313	287.69
326.542	298.69
326.77	303.69
326.999	309.69
327.228	278.69
327.457	290.69
327.686	295.69
327.914	314.69
328.143	291.69
328.372	298.69
328.6	299.69
328.829	314.69
329.058	282.69
329.287	288.69
329.515	293.69
329.744	298.69
329.972	284.69
330.201	305.69
330.43	319.69
330.658	306.69
330.887	305.69
331.115	319.69
331.344	315.69
331.572	321.69
331.801	327.69
332.03	323.69
332.258	342.69
332.486	324.69
332.715	355.69
332.943	355.69
333.172	364.69
333.4	363.69
333.629	358.69
333.857	354.69
334.085	368.69
334.314	379.69
334.542	377.69
334.771	371.69
334.999	345.69
335.227	340.69
335.455	360.69
335.684	361.69
335.912	354.69
336.14	359.69
336.369	353.69
336.597	358.69
336.825	360.69
337.053	345.69
337.281	354.69
337.51	334.69
337.738	330.69
337.966	317.69
338.194	340.69
338.422	334.69
338.65	361.69
338.878	322.69
339.106	327.69
339.334	338.69
339.562	318.69
339.79	298.69
340.018	340.69
340.246	298.69
340.474	330.69
340.702	326.69
340.93	322.69
341.158	326.69
341.386	321.69
341.614	332.69
341.842	321.69
342.07	320.69
342.298	322.69
342.526	309.69
342.754	305.69
342.981	322.69
343.209	315.69
343.437	333.69
343.665	358.69
343.893	352.69
344.12	362.69
344.348	378.69
344.576	346.69
344.804	346.69
345.031	334.69
345.259	322.69
345.487	311.69
345.714	304.69
345.942	297.69
346.17	312.69
346.397	297.69
346.625	287.69
346.853	301.69
347.08	310.69
347.308	301.69
347.535	295.69
347.763	308.69
347.99	307.69
348.218	303.69
348.445	297.69
348.673	320.69
348.9	306.69
349.128	306.69
349.355	292.69
349.583	301.69
349.81	320.69
350.037	283.69
350.265	293.69
350.492	298.69
350.72	297.69
350.947	310.69
351.174	319.69
351.402	307.69
351.629	295.69
351.856	291.69
352.083	293.69
352.311	282.69
352.538	286.69
352.765	295.69
352.992	283.69
353.22	304.69
353.447	291.69
353.674	292.69
353.901	311.69
354.128	295.69
354.355	298.69
354.583	307.69
354.81	295.69
355.037	299.69
355.264	292.69
355.491	316.69
355.718	301.69
355.945	301.69
356.172	302.69
356.399	288.69
356.626	305.69
356.853	301.69
357.08	301.69
357.307	303.69
357.534	290.69
357.761	283.69
357.988	317.69
358.215	305.69
358.441	317.69
358.668	301.69
358.895	291.69
359.122	287.69
359.349	294.69
359.576	317.69
359.802	293.69
360.029	287.69
360.256	291.69
360.483	288.69
360.709	278.69
360.936	305.69
361.163	310.69
361.39	307.69
361.616	301.69
361.843	283.69
362.07	309.69
362.296	298.69
362.523	310.69
362.749	298.69
362.976	329.69
363.203	291.69
363.429	313.69
363.656	303.69
363.882	298.69
364.109	285.69
364.335	296.69
364.562	275.69
364.788	291.69
365.015	303.69
365.241	309.69
365.468	288.69
365.694	297.69
365.92	296.69
366.147	307.69
366.373	304.69
366.599	298.69
366.826	317.69
367.052	307.69
367.278	302.69
367.505	292.69
367.731	307.69
367.957	305.69
368.184	322.69
368.41	308.69
368.636	311.69
368.862	313.69
369.089	302.69
369.315	317.69
369.541	320.69
369.767	337.69
369.993	299.69
370.219	309.69
370.445	307.69
370.672	306.69
370.898	318.69
371.124	321.69
371.35	330.69
371.576	317.69
371.802	328.69
372.028	325.69
372.254	324.69
372.48	334.69
372.706	331.69
372.932	352.69
373.158	341.69
373.384	327.69
373.61	338.69
373.835	342.69
374.061	308.69
374.287	318.69
374.513	346.69
374.739	342.69
374.965	341.69
375.191	321.69
375.416	347.69
375.642	354.69
375.868	353.69
376.094	334.69
376.319	330.69
376.545	358.69
376.771	325.69
376.997	337.69
377.222	319.69
377.448	326.69
377.674	319.69
377.899	321.69
378.125	319.69
378.35	334.69
378.576	311.69
378.802	321.69
379.027	341.69
379.253	334.69
379.478	325.69
379.704	323.69
379.929	340.69
380.155	335.69
380.38	333.69
380.606	321.69
380.831	324.69
381.057	331.69
381.282	321.69
381.507	324.69
381.733	325.69
381.958	328.69
382.184	330.69
382.409	336.69
382.634	327.69
382.86	350.69
383.085	336.69
383.31	344.69
383.535	351.69
383.761	349.69
383.986	352.69
384.211	354.69
384.436	372.69
384.662	361.69
384.887	379.69
385.112	387.69
385.337	399.69
385.562	379.69
385.787	375.69
386.013	406.69
386.238	374.69
386.463	376.69
386.688	377.69
386.913	354.69
387.138	387.69
387.363	382.69
387.588	413.69
387.813	381.69
388.038	394.69
388.263	387.69
388.488	377.69
388.713	384.69
388.938	396.69
389.163	374.69
389.387	343.69
389.612	362.69
389.837	390.69
390.062	369.69
390.287	399.69
390.512	392.69
390.736	386.69
390.961	382.69
391.186	393.69
391.411	413.69
391.636	406.69
391.86	408.69
392.085	419.69
392.31	419.69
392.534	421.69
392.759	407.69
392.984	402.69
393.208	407.69
393.433	382.69
393.658	402.69
393.882	395.69
394.107	412.69
394.331	401.69
394.556	412.69
394.78	409.69
395.005	417.69
395.229	402.69
395.454	409.69
395.678	434.69
395.903	429.69
396.127	434.69
396.352	414.69
396.576	394.69
396.801	406.69
397.025	389.69
397.249	441.69
397.474	439.69
397.698	450.69
397.922	427.69
398.147	442.69
398.371	450.69
398.595	453.69
398.82	479.69
399.044	495.69
399.268	523.69
399.492	616.69
399.717	635.69
399.941	624.69
400.165	590.69
400.389	560.69
400.613	501.69
400.837	501.69
401.062	463.69
401.286	479.69
401.51	466.69
401.734	483.69
401.958	484.69
402.182	478.69
402.406	496.69
402.63	512.69
402.854	493.69
403.078	496.69
403.302	513.69
403.526	511.69
403.75	515.69
403.974	534.69
404.198	503.69
404.422	501.69
404.645	501.69
404.869	520.69
405.093	522.69
405.317	511.69
405.541	521.69
405.765	486.69
405.988	455.69
406.212	521.69
406.436	535.69
406.66	527.69
406.883	545.69
407.107	555.69
407.331	572.69
407.555	577.69
407.778	568.69
408.002	558.69
408.226	565.69
408.449	573.69
408.673	539.69
408.896	539.69
409.12	547.69
409.344	552.69
409.567	499.69
409.791	535.69
410.014	521.69
410.238	512.69
410.461	512.69
410.685	524.69
410.908	510.69
411.132	523.69
411.355	495.69
411.578	509.69
411.802	500.69
412.025	488.69
412.249	531.69
412.472	519.69
412.695	470.69
412.919	505.69
413.142	466.69
413.365	475.69
413.589	464.69
413.812	496.69
414.035	481.69
414.258	485.69
414.482	469.69
414.705	471.69
414.928	486.69
415.151	484.69
415.374	484.69
415.597	499.69
415.821	474.69
416.044	489.69
416.267	477.69
416.49	479.69
416.713	478.69
416.936	477.69
417.159	471.69
417.382	471.69
417.605	471.69
417.828	481.69
418.051	484.69
418.274	466.69
418.497	483.69
418.72	488.69
418.943	459.69
419.166	486.69
419.389	522.69
419.611	506.69
419.834	512.69
420.057	474.69
420.28	489.69
420.503	459.69
420.726	482.69
420.948	467.69
421.171	482.69
421.394	481.69
421.617	486.69
421.839	463.69
422.062	468.69
422.285	458.69
422.507	478.69
422.73	473.69
422.953	479.69
423.175	464.69
423.398	506.69
423.621	506.69
423.843	495.69
424.066	487.69
424.288	502.69
424.511	493.69
424.733	488.69
424.956	461.69
425.178	471.69
425.401	491.69
425.623	488.69
425.846	463.69
426.068	462.69
426.291	445.69
426.513	455.69
426.735	455.69
426.958	438.69
427.18	455.69
427.402	433.69
427.625	437.69
427.847	433.69
428.069	436.69
428.292	442.69
428.514	418.69
428.736	438.69
428.958	451.69
429.181	439.69
429.403	415.69
429.625	433.69
429.847	423.69
430.069	437.69
430.292	415.69
430.514	437.69
430.736	410.69
430.958	413.69
431.18	402.69
431.402	407.69
431.624	436.69
431.846	413.69
432.068	449.69
432.29	425.69
432.512	433.69
432.734	449.69
432.956	424.69
433.178	447.69
433.4	440.69
433.622	446.69
433.844	446.69
434.066	440.69
434.287	440.69
434.509	441.69
434.731	465.69
434.953	467.69
435.175	487.69
435.397	471.69
435.618	448.69
435.84	469.69
436.062	471.69
436.284	452.69
436.505	450.69
436.727	434.69
436.949	433.69
437.17	455.69
437.392	443.69
437.614	441.69
437.835	425.69
438.057	429.69
438.278	415.69
438.5	423.69
438.721	428.69
438.943	426.69
439.165	426.69
439.386	451.69
439.608	444.69
439.829	449.69
440.05	427.69
440.272	451.69
440.493	442.69
440.715	463.69
440.936	456.69
441.158	470.69
441.379	468.69
441.6	493.69
441.822	455.69
442.043	483.69
442.264	502.69
442.486	473.69
442.707	472.69
442.928	484.69
443.149	495.69
443.371	463.69
443.592	463.69
443.813	479.69
444.034	482.69
444.255	501.69
444.476	498.69
444.698	537.69
444.919	522.69
445.14	630.69
445.361	553.69
445.582	529.69
445.803	469.69
446.024	478.69
446.245	471.69
446.466	485.69
446.687	464.69
446.908	443.69
447.129	448.69
447.35	435.69
447.571	432.69
447.792	440.69
448.013	430.69
448.234	441.69
448.455	437.69
448.675	421.69
448.896	419.69
449.117	413.69
449.338	410.69
449.559	417.69
449.779	411.69
450	423.69
450.221	399.69
450.442	427.69
450.662	422.69
450.883	425.69
451.104	418.69
451.324	410.69
451.545	415.69
451.766	421.69
451.986	403.69
452.207	422.69
452.428	415.69
452.648	412.69
452.869	398.69
453.089	406.69
453.31	413.69
453.53	417.69
453.751	412.69
453.971	394.69
454.192	383.69
454.412	377.69
454.633	360.69
454.853	395.69
455.073	407.69
455.294	413.69
455.514	399.69
455.734	377.69
455.955	383.69
456.175	381.69
456.395	389.69
456.616	376.69
456.836	402.69
457.056	395.69
457.276	378.69
457.497	389.69
457.717	401.69
457.937	397.69
458.157	399.69
458.377	377.69
458.598	395.69
458.818	421.69
459.038	419.69
459.258	424.69
459.478	427.69
459.698	445.69
459.918	466.69
460.138	466.69
460.358	499.69
460.578	484.69
460.798	471.69
461.018	503.69
461.238	524.69
461.458	505.69
461.678	496.69
461.898	495.69
462.118	507.69
462.338	519.69
462.558	558.69
462.777	536.69
462.997	583.69
463.217	630.69
463.437	638.69
463.657	583.69
463.876	571.69
464.096	548.69
464.316	554.69
464.536	566.69
464.755	528.69
464.975	529.69
465.195	513.69
465.414	486.69
465.634	450.69
465.854	453.69
466.073	451.69
466.293	443.69
466.512	451.69
466.732	445.69
466.951	441.69
467.171	414.69
467.391	401.69
467.61	409.69
467.829	412.69
468.049	434.69
468.268	410.69
468.488	410.69
468.707	416.69
468.927	433.69
469.146	392.69
469.365	416.69
469.585	415.69
469.804	431.69
470.023	434.69
470.243	443.69
470.462	436.69
470.681	440.69
470.901	421.69
471.12	424.69
471.339	425.69
471.558	401.69
471.777	417.69
471.997	418.69
472.216	414.69
472.435	384.69
472.654	408.69
472.873	410.69
473.092	399.69
473.311	388.69
473.53	389.69
473.749	401.69
473.968	405.69
474.187	396.69
474.406	392.69
474.625	403.69
474.844	396.69
475.063	397.69
475.282	423.69
475.501	397.69
475.72	422.69
475.939	401.69
476.158	404.69
476.377	424.69
476.596	424.69
476.814	422.69
477.033	421.69
477.252	424.69
477.471	424.69
477.69	445.69
477.908	454.69
478.127	481.69
478.346	443.69
478.564	478.69
478.783	456.69
479.002	501.69
479.22	491.69
479.439	495.69
479.658	483.69
479.876	478.69
480.095	484.69
480.313	485.69
480.532	517.69
480.751	490.69
480.969	480.69
481.188	454.69
481.406	463.69
481.624	439.69
481.843	452.69
482.061	457.69
482.28	419.69
482.498	436.69
482.717	453.69
482.935	440.69
483.153	448.69
483.372	430.69
483.59	443.69
483.808	445.69
484.027	443.69
484.245	452.69
484.463	470.69
484.681	468.69
484.9	461.69
485.118	454.69
485.336	459.69
485.554	434.69
485.772	482.69
485.99	465.69
486.209	431.69
486.427	454.69
486.645	464.69
486.863	459.69
487.081	439.69
487.299	471.69
487.517	463.69
487.735	463.69
487.953	467.69
488.171	459.69
488.389	457.69
488.607	447.69
488.825	436.69
489.043	453.69
489.261	464.69
489.479	436.69
489.696	477.69
489.914	455.69
490.132	457.69
490.35	466.69
490.568	449.69
490.786	479.69
491.003	476.69
491.221	463.69
491.439	477.69
491.657	479.69
491.874	493.69
492.092	483.69
492.31	497.69
492.527	479.69
492.745	485.69
492.963	494.69
493.18	493.69
493.398	490.69
493.615	503.69
493.833	479.69
494.05	490.69
494.268	472.69
494.485	481.69
494.703	486.69
494.92	482.69
495.138	472.69
495.355	514.69
495.573	498.69
495.79	519.69
496.008	501.69
496.225	496.69
496.442	521.69
496.66	510.69
496.877	518.69
497.094	529.69
497.312	530.69
497.529	521.69
497.746	555.69
497.963	553.69
498.181	593.69
498.398	597.69
498.615	652.69
498.832	635.69
499.049	691.69
499.267	734.69
499.484	819.69
499.701	903.69
499.918	982.69
500.135	1064.69
500.352	1175.69
500.569	1197.69
500.786	1189.69
501.003	1127.69
501.22	1026.69
501.437	952.69
501.654	862.69
501.871	779.69
502.088	719.69
502.305	687.69
502.522	674.69
502.739	626.69
502.956	619.69
503.172	587.69
503.389	548.69
503.606	561.69
503.823	546.69
504.04	545.69
504.256	544.69
504.473	560.69
504.69	562.69
504.907	544.69
505.123	521.69
505.34	515.69
505.557	514.69
505.773	442.69
505.99	467.69
506.207	467.69
506.423	447.69
506.64	455.69
506.856	446.69
507.073	431.69
507.289	440.69
507.506	438.69
507.722	440.69
507.939	420.69
508.155	417.69
508.372	425.69
508.588	410.69
508.805	422.69
509.021	426.69
509.238	409.69
509.454	409.69
509.67	398.69
509.887	403.69
510.103	395.69
510.319	399.69
510.536	409.69
510.752	390.69
510.968	408.69
511.184	386.69
511.401	405.69
511.617	386.69
511.833	389.69
512.049	389.69
512.265	391.69
512.481	402.69
512.698	407.69
512.914	404.69
513.13	387.69
513.346	404.69
513.562	394.69
513.778	391.69
513.994	409.69
514.21	391.69
514.426	401.69
514.642	386.69
514.858	421.69
515.074	401.69
515.29	427.69
515.506	422.69
515.721	431.69
515.937	434.69
516.153	419.69
516.369	438.69
516.585	408.69
516.801	451.69
517.016	459.69
517.232	465.69
517.448	515.69
517.664	490.69
517.879	521.69
518.095	504.69
518.311	501.69
518.527	493.69
518.742	449.69
518.958	464.69
519.173	424.69
519.389	448.69
519.605	425.69
519.82	417.69
520.036	405.69
520.251	410.69
520.467	410.69
520.682	388.69
520.898	383.69
521.113	394.69
521.329	387.69
521.544	383.69
521.76	390.69
521.975	390.69
522.19	375.69
522.406	394.69
522.621	388.69
522.836	395.69
523.052	355.69
523.267	373.69
523.482	360.69
523.698	356.69
523.913	375.69
524.128	361.69
524.343	359.69
524.559	375.69
524.774	361.69
524.989	373.69
525.204	368.69
525.419	369.69
525.634	360.69
525.849	344.69
526.064	360.69
526.28	370.69
526.495	373.69
526.71	354.69
526.925	361.69
527.14	365.69
527.355	359.69
527.57	339.69
527.785	366.69
527.999	346.69
528.214	350.69
528.429	366.69
528.644	358.69
528.859	357.69
529.074	362.69
529.289	368.69
529.503	367.69
529.718	351.69
529.933	354.69
530.148	376.69
530.363	353.69
530.577	369.69
530.792	337.69
531.007	360.69
531.221	363.69
531.436	353.69
531.651	349.69
531.865	369.69
532.08	347.69
532.295	337.69
532.509	362.69
532.724	365.69
532.938	345.69
533.153	345.69
533.367	358.69
533.582	352.69
533.796	351.69
534.011	342.69
534.225	345.69
534.44	367.69
534.654	344.69
534.868	358.69
535.083	361.69
535.297	349.69
535.511	367.69
535.726	341.69
535.94	339.69
536.154	341.69
536.369	335.69
536.583	336.69
536.797	338.69
537.011	337.69
537.225	333.69
537.44	343.69
537.654	370.69
537.868	332.69
538.082	342.69
538.296	325.69
538.51	333.69
538.724	332.69
538.938	323.69
539.153	337.69
539.367	352.69
539.581	330.69
539.795	327.69
540.009	303.69
540.222	325.69
540.436	315.69
540.65	341.69
540.864	343.69
541.078	340.69
541.292	327.69
541.506	347.69
541.72	335.69
541.934	338.69
542.147	338.69
542.361	330.69
542.575	329.69
542.789	318.69
543.002	327.69
543.216	316.69
543.43	319.69
543.644	331.69
543.857	322.69
544.071	318.69
544.285	355.69
544.498	320.69
544.712	327.69
544.925	329.69
545.139	329.69
545.352	326.69
545.566	326.69
545.779	344.69
545.993	330.69
546.206	333.69
546.42	329.69
546.633	323.69
546.847	337.69
547.06	339.69
547.274	347.69
547.487	339.69
547.7	341.69
547.914	338.69
548.127	336.69
548.34	316.69
548.554	336.69
548.767	344.69
548.98	331.69
549.193	324.69
549.407	330.69
549.62	340.69
549.833	329.69
550.046	344.69
550.259	328.69
550.473	323.69
550.686	333.69
550.899	329.69
551.112	328.69
551.325	315.69
551.538	333.69
551.751	325.69
551.964	328.69
552.177	343.69
552.39	341.69
552.603	353.69
552.816	329.69
553.029	326.69
553.242	356.69
553.455	371.69
553.667	355.69
553.88	366.69
554.093	339.69
554.306	327.69
554.519	345.69
554.732	327.69
554.944	336.69
555.157	308.69
555.37	310.69
555.583	319.69
555.795	314.69
556.008	308.69
556.221	298.69
556.433	292.69
556.646	295.69
556.859	299.69
557.071	312.69
557.284	279.69
557.496	297.69
557.709	271.69
557.921	289.69
558.134	288.69
558.346	302.69
558.559	295.69
558.771	272.69
558.984	311.69
559.196	290.69
559.409	288.69
559.621	306.69
559.833	288.69
560.046	288.69
560.258	277.69
560.47	311.69
560.683	283.69
560.895	291.69
561.107	293.69
561.32	291.69
561.532	289.69
561.744	308.69
561.956	281.69
562.168	289.69
562.381	295.69
562.593	289.69
562.805	291.69
563.017	301.69
563.229	301.69
563.441	278.69
563.653	283.69
563.865	287.69
564.077	307.69
564.289	309.69
564.501	289.69
564.713	302.69
564.925	314.69
565.137	310.69
565.349	332.69
565.561	324.69
565.773	333.69
565.985	327.69
566.197	339.69
566.408	350.69
566.62	379.69
566.832	426.69
567.044	397.69
567.255	401.69
567.467	438.69
567.679	453.69
567.891	470.69
568.102	493.69
568.314	423.69
568.526	426.69
568.737	391.69
568.949	352.69
569.161	337.69
569.372	330.69
569.584	325.69
569.795	314.69
570.007	301.69
570.218	282.69
570.43	305.69
570.641	279.69
570.853	288.69
571.064	273.69
571.276	293.69
571.487	296.69
571.698	281.69
571.91	279.69
572.121	270.69
572.333	254.69
572.544	240.69
572.755	250.69
572.966	252.69
573.178	253.69
573.389	271.69
573.6	235.69
573.811	259.69
574.023	241.69
574.234	244.69
574.445	233.69
574.656	247.69
574.867	238.69
575.078	247.69
575.289	248.69
575.501	252.69
575.712	234.69
575.923	243.69
576.134	231.69
576.345	228.69
576.556	222.69
576.767	250.69
576.978	225.69
577.188	231.69
577.399	208.69
577.61	229.69
577.821	219.69
578.032	226.69
578.243	219.69
578.454	237.69
578.665	216.69
578.875	218.69
579.086	218.69
579.297	226.69
579.508	216.69
579.718	220.69
579.929	209.69
580.14	214.69
580.35	214.69
580.561	230.69
580.772	214.69
580.982	213.69
581.193	215.69
581.403	232.69
581.614	227.69
581.825	212.69
582.035	198.69
582.246	224.69
582.456	192.69
582.667	217.69
582.877	229.69
583.087	209.69
583.298	218.69
583.508	205.69
583.719	209.69
583.929	213.69
584.139	201.69
584.35	212.69
584.56	206.69
584.77	195.69
584.981	194.69
585.191	210.69
585.401	200.69
585.611	219.69
585.821	193.69
586.032	207.69
586.242	222.69
586.452	192.69
586.662	205.69
586.872	194.69
587.082	187.69
587.292	197.69
587.502	201.69
587.713	199.69
587.923	208.69
588.133	205.69
588.343	179.69
588.553	208.69
588.762	222.69
588.972	207.69
589.182	212.69
589.392	218.69
589.602	202.69
589.812	205.69
590.022	205.69
590.232	189.69
590.441	215.69
590.651	208.69
590.861	192.69
591.071	214.69
591.281	205.69
591.49	199.69
591.7	210.69
591.91	203.69
592.119	213.69
592.329	203.69
592.539	220.69
592.748	233.69
592.958	223.69
593.167	239.69
593.377	242.69
593.587	235.69
593.796	239.69
594.006	234.69
594.215	249.69
594.424	224.69
594.634	237.69
594.843	232.69
595.053	253.69
595.262	219.69
595.472	209.69
595.681	208.69
595.89	196.69
596.1	214.69
596.309	199.69
596.518	200.69
596.727	209.69
596.937	186.69
597.146	195.69
597.355	180.69
597.564	187.69
597.774	190.69
597.983	198.69
598.192	189.69
598.401	185.69
598.61	200.69
598.819	195.69
599.028	194.69
599.237	193.69
599.446	165.69
599.655	183.69
599.864	181.69
600.073	176.69
600.282	166.69
600.491	176.69
600.7	177.69
600.909	182.69
601.118	155.69
601.327	183.69
601.536	162.69
601.745	180.69
601.953	179.69
602.162	182.69
602.371	166.69
602.58	180.69
602.789	172.69
602.997	170.69
603.206	179.69
603.415	173.69
603.623	183.69
603.832	167.69
604.041	166.69
604.249	163.69
604.458	168.69
604.666	169.69
604.875	179.69
605.084	181.69
605.292	180.69
605.501	177.69
605.709	158.69
605.918	167.69
606.126	185.69
606.334	170.69
606.543	178.69
606.751	169.69
606.96	172.69
607.168	169.69
607.376	173.69
607.585	185.69
607.793	175.69
608.001	172.69
608.21	163.69
608.418	164.69
608.626	143.69
608.834	161.69
609.043	174.69
609.251	178.69
609.459	183.69
609.667	181.69
609.875	166.69
610.083	179.69
610.291	164.69
610.499	154.69
610.707	165.69
610.916	174.69
611.124	174.69
611.332	172.69
611.54	160.69
611.748	161.69
611.955	165.69
612.163	174.69
612.371	171.69
612.579	176.69
612.787	168.69
612.995	159.69
613.203	167.69
613.411	168.69
613.618	169.69
613.826	148.69
614.034	162.69
614.242	169.69
614.449	160.69
614.657	167.69
614.865	160.69
615.072	177.69
615.28	175.69
615.488	156.69
615.695	153.69
615.903	162.69
616.111	153.69
616.318	159.69
616.526	168.69
616.733	157.69
616.941	159.69
617.148	155.69
617.356	169.69
617.563	157.69
617.771	165.69
617.978	164.69
618.185	166.69
618.393	161.69
618.6	181.69
618.807	162.69
619.015	156.69
619.222	157.69
619.429	134.69
619.637	149.69
619.844	154.69
620.051	162.69
620.258	159.69
620.466	156.69
620.673	144.69
620.88	144.69
621.087	166.69
621.294	159.69
621.501	150.69
621.708	151.69
621.915	152.69
622.122	157.69
622.329	167.69
622.536	153.69
622.743	150.69
622.95	145.69
623.157	159.69
623.364	139.69
623.571	142.69
623.778	160.69
623.985	167.69
624.192	150.69
624.399	149.69
624.606	144.69
624.812	167.69
625.019	140.69
625.226	146.69
625.433	143.69
625.639	159.69
625.846	146.69
626.053	151.69
626.259	137.69
626.466	152.69
626.673	136.69
626.879	123.69
627.086	143.69
627.293	151.69
627.499	148.69
627.706	164.69
627.912	145.69
628.119	133.69
628.325	138.69
628.532	145.69
628.738	150.69
628.945	147.69
629.151	150.69
629.357	145.69
629.564	145.69
629.77	149.69
629.976	135.69
630.183	139.69
630.389	139.69
630.595	147.69
630.802	145.69
631.008	138.69
631.214	149.69
631.42	139.69
631.627	144.69
631.833	143.69
632.039	121.69
632.245	144.69
632.451	140.69
632.657	139.69
632.863	131.69
633.069	150.69
633.275	123.69
633.481	143.69
633.688	132.69
633.893	146.69
634.099	135.69
634.305	126.69
634.511	140.69
634.717	126.69
634.923	144.69
635.129	143.69
635.335	127.69
635.541	139.69
635.747	137.69
635.952	113.69
636.158	135.69
636.364	135.69
636.57	127.69
636.775	139.69
636.981	137.69
637.187	137.69
637.392	137.69
637.598	127.69
637.804	127.69
638.009	123.69
638.215	117.69
638.421	130.69
638.626	138.69
638.832	121.69
639.037	115.69
639.243	113.69
639.448	121.69
639.654	135.69
639.859	136.69
640.065	119.69
640.27	137.69
640.475	133.69
640.681	131.69
640.886	132.69
641.091	122.69
641.297	121.69
641.502	128.69
641.707	119.69
641.913	134.69
642.118	113.69
642.323	124.69
642.528	135.69
642.733	139.69
642.939	116.69
643.144	110.69
643.349	129.69
643.554	126.69
643.759	125.69
643.964	123.69
644.169	123.69
644.374	133.69
644.579	129.69
644.784	118.69
644.989	127.69
645.194	133.69
645.399	127.69
645.604	135.69
645.809	124.69
646.014	131.69
646.219	134.69
646.423	133.69
646.628	118.69
646.833	121.69
647.038	121.69
647.243	133.69
647.447	128.69
647.652	132.69
647.857	130.69
648.062	136.69
648.266	114.69
648.471	127.69
648.676	119.69
648.88	129.69
649.085	137.69
649.289	120.69
649.494	129.69
649.698	129.69
649.903	125.69
650.107	119.69
650.312	127.69
650.516	131.69
650.721	135.69
650.925	122.69
651.13	109.69
651.334	121.69
651.539	121.69
651.743	127.69
651.947	139.69
652.152	126.69
652.356	115.69
652.56	98.69
652.764	119.69
652.969	123.69
653.173	108.69
653.377	121.69
653.581	114.69
653.785	116.69
653.99	115.69
654.194	128.69
654.398	114.69
654.602	109.69
654.806	95.69
655.01	105.69
655.214	111.69
655.418	112.69
655.622	113.69
655.826	102.69
656.03	129.69
656.234	117.69
656.438	106.69
656.642	107.69
656.846	113.69
657.049	103.69
657.253	111.69
657.457	101.69
657.661	106.69
657.865	97.69
658.068	110.69
658.272	117.69
658.476	106.69
658.68	98.69
658.883	104.69
659.087	90.69
659.291	95.69
659.494	90.69
659.698	78.69
659.901	83.69
660.105	87.69
660.309	99.69
660.512	93.69
660.716	82.69
660.919	89.69
661.123	79.69
661.326	97.69
661.53	81.69
661.733	83.69
661.936	76.69
662.14	92.69
662.343	93.69
662.546	85.69
662.75	82.69
662.953	81.69
663.156	85.69
663.36	82.69
663.563	89.69
663.766	84.69
663.969	82.69
664.173	77.69
664.376	81.69
664.579	83.69
664.782	72.69
664.985	87.69
665.188	83.69
665.391	88.69
665.594	85.69
665.797	79.69
666	87.69
666.203	96.69
666.406	88.69
666.609	82.69
666.812	87.69
667.015	81.69
667.218	88.69
667.421	93.69
667.624	83.69
667.827	80.69
668.03	80.69
668.232	81.69
668.435	77.69
668.638	82.69
668.841	88.69
669.043	81.69
669.246	74.69
669.449	88.69
669.651	71.69
669.854	73.69
670.057	75.69
670.259	74.69
670.462	77.69
670.665	79.69
670.867	76.69
671.07	86.69
671.272	94.69
671.475	87.69
671.677	81.69
671.88	87.69
672.082	77.69
672.284	82.69
672.487	95.69
672.689	78.69
672.892	79.69
