Data from Fe(NO3)3@0.0125M.TitratingCurve.Agarose3%dH2O.NegLispCup.LampEnergy10.LIBS07252019_HRD10591_16-58-52-336.txt Node
Date: Thu Jul 25 16:58:52 EDT 2019
User: cochatt
Spectrometer: HR+D1059
Trigger mode: 1
Integration Time (sec): 1.000000E-1
Scans to average: 1
Electric dark correction enabled: true
Nonlinearity correction enabled: false
Boxcar width: 0
XAxis mode: Wavelengths
Number of Pixels in Spectrum: 2048
>>>>>Begin Spectral Data<<<<<
223.165	-8.75
223.4	-8.75
223.635	-8.75
223.869	-11.75
224.104	-14.75
224.338	-23.75
224.573	-21.75
224.808	-19.75
225.042	-13.75
225.277	10.25
225.511	-7.75
225.746	10.25
225.98	3.25
226.215	16.25
226.449	21.25
226.683	10.25
226.918	32.25
227.152	18.25
227.387	54.25
227.621	36.25
227.856	36.25
228.09	37.25
228.324	56.25
228.559	60.25
228.793	81.25
229.027	112.25
229.262	93.25
229.496	115.25
229.73	111.25
229.964	121.25
230.199	116.25
230.433	134.25
230.667	124.25
230.901	140.25
231.136	134.25
231.37	131.25
231.604	130.25
231.838	132.25
232.072	138.25
232.306	140.25
232.541	127.25
232.775	120.25
233.009	134.25
233.243	142.25
233.477	141.25
233.711	149.25
233.945	140.25
234.179	148.25
234.413	155.25
234.647	145.25
234.881	143.25
235.115	146.25
235.349	128.25
235.583	152.25
235.817	151.25
236.051	162.25
236.285	154.25
236.519	157.25
236.753	156.25
236.987	153.25
237.221	153.25
237.455	144.25
237.689	157.25
237.922	142.25
238.156	154.25
238.39	171.25
238.624	160.25
238.858	159.25
239.091	158.25
239.325	169.25
239.559	160.25
239.793	160.25
240.027	157.25
240.26	159.25
240.494	160.25
240.728	182.25
240.961	160.25
241.195	174.25
241.429	181.25
241.662	172.25
241.896	170.25
242.13	187.25
242.363	170.25
242.597	174.25
242.83	177.25
243.064	177.25
243.298	186.25
243.531	201.25
243.765	187.25
243.998	198.25
244.232	195.25
244.465	185.25
244.699	194.25
244.932	194.25
245.166	194.25
245.399	191.25
245.633	193.25
245.866	197.25
246.099	198.25
246.333	193.25
246.566	220.25
246.8	204.25
247.033	201.25
247.266	199.25
247.5	205.25
247.733	202.25
247.966	214.25
248.2	201.25
248.433	225.25
248.666	223.25
248.899	214.25
249.133	231.25
249.366	219.25
249.599	215.25
249.832	221.25
250.066	238.25
250.299	231.25
250.532	231.25
250.765	235.25
250.998	245.25
251.231	245.25
251.465	228.25
251.698	237.25
251.931	234.25
252.164	248.25
252.397	233.25
252.63	240.25
252.863	254.25
253.096	240.25
253.329	257.25
253.562	246.25
253.795	255.25
254.028	256.25
254.261	282.25
254.494	256.25
254.727	272.25
254.96	278.25
255.193	267.25
255.426	273.25
255.659	258.25
255.892	264.25
256.124	269.25
256.357	279.25
256.59	262.25
256.823	293.25
257.056	282.25
257.289	277.25
257.521	290.25
257.754	286.25
257.987	281.25
258.22	270.25
258.452	292.25
258.685	301.25
258.918	295.25
259.151	298.25
259.383	298.25
259.616	289.25
259.849	307.25
260.081	317.25
260.314	326.25
260.547	316.25
260.779	308.25
261.012	316.25
261.244	298.25
261.477	301.25
261.71	314.25
261.942	294.25
262.175	310.25
262.407	321.25
262.64	323.25
262.872	324.25
263.105	312.25
263.337	326.25
263.57	314.25
263.802	330.25
264.035	320.25
264.267	331.25
264.499	313.25
264.732	318.25
264.964	316.25
265.197	333.25
265.429	329.25
265.661	313.25
265.894	333.25
266.126	316.25
266.358	328.25
266.591	328.25
266.823	349.25
267.055	330.25
267.287	334.25
267.52	349.25
267.752	348.25
267.984	337.25
268.216	334.25
268.448	355.25
268.681	352.25
268.913	334.25
269.145	363.25
269.377	338.25
269.609	334.25
269.841	347.25
270.073	352.25
270.306	359.25
270.538	354.25
270.77	365.25
271.002	360.25
271.234	371.25
271.466	364.25
271.698	346.25
271.93	344.25
272.162	363.25
272.394	380.25
272.626	376.25
272.858	377.25
273.09	376.25
273.322	382.25
273.553	398.25
273.785	387.25
274.017	385.25
274.249	401.25
274.481	417.25
274.713	403.25
274.945	421.25
275.176	407.25
275.408	420.25
275.64	400.25
275.872	397.25
276.104	388.25
276.335	393.25
276.567	392.25
276.799	394.25
277.031	414.25
277.262	421.25
277.494	393.25
277.726	399.25
277.957	436.25
278.189	400.25
278.421	432.25
278.652	417.25
278.884	409.25
279.115	437.25
279.347	443.25
279.579	409.25
279.81	435.25
280.042	416.25
280.273	429.25
280.505	430.25
280.736	458.25
280.968	438.25
281.199	446.25
281.431	441.25
281.662	437.25
281.894	461.25
282.125	454.25
282.356	448.25
282.588	449.25
282.819	462.25
283.051	440.25
283.282	442.25
283.513	486.25
283.745	466.25
283.976	467.25
284.207	449.25
284.439	464.25
284.67	462.25
284.901	471.25
285.132	473.25
285.364	470.25
285.595	474.25
285.826	476.25
286.057	475.25
286.288	471.25
286.52	468.25
286.751	473.25
286.982	476.25
287.213	485.25
287.444	486.25
287.675	469.25
287.906	482.25
288.138	505.25
288.369	494.25
288.6	512.25
288.831	492.25
289.062	500.25
289.293	509.25
289.524	497.25
289.755	497.25
289.986	498.25
290.217	469.25
290.448	504.25
290.679	485.25
290.91	509.25
291.141	510.25
291.371	516.25
291.602	484.25
291.833	523.25
292.064	525.25
292.295	492.25
292.526	509.25
292.757	517.25
292.987	518.25
293.218	498.25
293.449	524.25
293.68	510.25
293.91	501.25
294.141	510.25
294.372	527.25
294.603	500.25
294.833	519.25
295.064	516.25
295.295	538.25
295.525	524.25
295.756	528.25
295.987	514.25
296.217	525.25
296.448	552.25
296.679	505.25
296.909	530.25
297.14	522.25
297.37	525.25
297.601	544.25
297.831	533.25
298.062	536.25
298.292	555.25
298.523	527.25
298.753	546.25
298.984	542.25
299.214	582.25
299.445	561.25
299.675	557.25
299.905	588.25
300.136	542.25
300.366	556.25
300.597	541.25
300.827	577.25
301.057	584.25
301.288	580.25
301.518	571.25
301.748	584.25
301.979	587.25
302.209	586.25
302.439	593.25
302.669	565.25
302.9	565.25
303.13	593.25
303.36	589.25
303.59	587.25
303.82	589.25
304.051	607.25
304.281	596.25
304.511	571.25
304.741	558.25
304.971	582.25
305.201	581.25
305.431	600.25
305.661	598.25
305.891	621.25
306.121	604.25
306.352	613.25
306.582	594.25
306.812	580.25
307.042	576.25
307.272	614.25
307.502	602.25
307.731	629.25
307.961	600.25
308.191	630.25
308.421	609.25
308.651	593.25
308.881	591.25
309.111	608.25
309.341	595.25
309.571	633.25
309.8	600.25
310.03	615.25
310.26	612.25
310.49	602.25
310.72	618.25
310.949	630.25
311.179	623.25
311.409	638.25
311.639	618.25
311.868	637.25
312.098	649.25
312.328	651.25
312.557	612.25
312.787	618.25
313.017	621.25
313.246	655.25
313.476	643.25
313.706	663.25
313.935	655.25
314.165	641.25
314.394	644.25
314.624	678.25
314.853	661.25
315.083	662.25
315.312	683.25
315.542	682.25
315.771	674.25
316.001	653.25
316.23	673.25
316.46	649.25
316.689	638.25
316.919	665.25
317.148	642.25
317.377	681.25
317.607	685.25
317.836	667.25
318.065	682.25
318.295	691.25
318.524	683.25
318.753	688.25
318.983	704.25
319.212	706.25
319.441	683.25
319.67	679.25
319.9	696.25
320.129	672.25
320.358	674.25
320.587	689.25
320.816	676.25
321.046	690.25
321.275	673.25
321.504	698.25
321.733	701.25
321.962	705.25
322.191	714.25
322.42	714.25
322.649	721.25
322.878	715.25
323.108	716.25
323.337	697.25
323.566	718.25
323.795	729.25
324.024	698.25
324.253	741.25
324.482	697.25
324.71	712.25
324.939	737.25
325.168	718.25
325.397	733.25
325.626	726.25
325.855	720.25
326.084	744.25
326.313	725.25
326.542	732.25
326.77	735.25
326.999	743.25
327.228	745.25
327.457	733.25
327.686	744.25
327.914	744.25
328.143	731.25
328.372	753.25
328.6	750.25
328.829	762.25
329.058	752.25
329.287	732.25
329.515	728.25
329.744	732.25
329.972	753.25
330.201	783.25
330.43	746.25
330.658	737.25
330.887	776.25
331.115	771.25
331.344	742.25
331.572	774.25
331.801	718.25
332.03	764.25
332.258	781.25
332.486	760.25
332.715	777.25
332.943	770.25
333.172	761.25
333.4	808.25
333.629	774.25
333.857	794.25
334.085	816.25
334.314	808.25
334.542	770.25
334.771	801.25
334.999	802.25
335.227	809.25
335.455	805.25
335.684	810.25
335.912	824.25
336.14	806.25
336.369	831.25
336.597	809.25
336.825	797.25
337.053	821.25
337.281	804.25
337.51	796.25
337.738	791.25
337.966	818.25
338.194	811.25
338.422	801.25
338.65	808.25
338.878	802.25
339.106	816.25
339.334	812.25
339.562	824.25
339.79	809.25
340.018	814.25
340.246	792.25
340.474	790.25
340.702	812.25
340.93	789.25
341.158	804.25
341.386	762.25
341.614	774.25
341.842	804.25
342.07	808.25
342.298	753.25
342.526	774.25
342.754	822.25
342.981	809.25
343.209	780.25
343.437	776.25
343.665	794.25
343.893	836.25
344.12	810.25
344.348	800.25
344.576	811.25
344.804	821.25
345.031	795.25
345.259	793.25
345.487	801.25
345.714	744.25
345.942	778.25
346.17	803.25
346.397	775.25
346.625	752.25
346.853	791.25
347.08	770.25
347.308	795.25
347.535	763.25
347.763	782.25
347.99	787.25
348.218	756.25
348.445	755.25
348.673	755.25
348.9	769.25
349.128	766.25
349.355	774.25
349.583	792.25
349.81	777.25
350.037	776.25
350.265	791.25
350.492	782.25
350.72	779.25
350.947	800.25
351.174	778.25
351.402	759.25
351.629	788.25
351.856	766.25
352.083	774.25
352.311	745.25
352.538	781.25
352.765	769.25
352.992	762.25
353.22	762.25
353.447	732.25
353.674	779.25
353.901	760.25
354.128	772.25
354.355	752.25
354.583	764.25
354.81	777.25
355.037	761.25
355.264	776.25
355.491	774.25
355.718	766.25
355.945	787.25
356.172	770.25
356.399	780.25
356.626	771.25
356.853	738.25
357.08	760.25
357.307	760.25
357.534	759.25
357.761	770.25
357.988	782.25
358.215	758.25
358.441	769.25
358.668	733.25
358.895	749.25
359.122	778.25
359.349	761.25
359.576	780.25
359.802	788.25
360.029	764.25
360.256	750.25
360.483	760.25
360.709	768.25
360.936	797.25
361.163	776.25
361.39	747.25
361.616	769.25
361.843	776.25
362.07	779.25
362.296	752.25
362.523	781.25
362.749	777.25
362.976	782.25
363.203	815.25
363.429	779.25
363.656	775.25
363.882	771.25
364.109	785.25
364.335	787.25
364.562	807.25
364.788	786.25
365.015	793.25
365.241	781.25
365.468	783.25
365.694	774.25
365.92	772.25
366.147	780.25
366.373	788.25
366.599	806.25
366.826	779.25
367.052	769.25
367.278	790.25
367.505	822.25
367.731	787.25
367.957	789.25
368.184	791.25
368.41	819.25
368.636	803.25
368.862	793.25
369.089	801.25
369.315	831.25
369.541	804.25
369.767	813.25
369.993	833.25
370.219	838.25
370.445	828.25
370.672	815.25
370.898	811.25
371.124	829.25
371.35	809.25
371.576	809.25
371.802	835.25
372.028	855.25
372.254	816.25
372.48	816.25
372.706	840.25
372.932	830.25
373.158	842.25
373.384	853.25
373.61	838.25
373.835	835.25
374.061	834.25
374.287	836.25
374.513	847.25
374.739	841.25
374.965	828.25
375.191	821.25
375.416	848.25
375.642	837.25
375.868	882.25
376.094	835.25
376.319	838.25
376.545	822.25
376.771	832.25
376.997	816.25
377.222	803.25
377.448	828.25
377.674	844.25
377.899	830.25
378.125	834.25
378.35	814.25
378.576	819.25
378.802	845.25
379.027	821.25
379.253	828.25
379.478	828.25
379.704	804.25
379.929	829.25
380.155	848.25
380.38	841.25
380.606	824.25
380.831	825.25
381.057	844.25
381.282	869.25
381.507	820.25
381.733	860.25
381.958	844.25
382.184	847.25
382.409	860.25
382.634	868.25
382.86	838.25
383.085	870.25
383.31	864.25
383.535	840.25
383.761	865.25
383.986	872.25
384.211	864.25
384.436	866.25
384.662	870.25
384.887	867.25
385.112	872.25
385.337	866.25
385.562	853.25
385.787	861.25
386.013	867.25
386.238	876.25
386.463	920.25
386.688	900.25
386.913	885.25
387.138	922.25
387.363	893.25
387.588	901.25
387.813	882.25
388.038	884.25
388.263	912.25
388.488	906.25
388.713	923.25
388.938	936.25
389.163	896.25
389.387	897.25
389.612	871.25
389.837	897.25
390.062	880.25
390.287	899.25
390.512	918.25
390.736	907.25
390.961	897.25
391.186	890.25
391.411	923.25
391.636	915.25
391.86	961.25
392.085	959.25
392.31	938.25
392.534	916.25
392.759	911.25
392.984	923.25
393.208	906.25
393.433	930.25
393.658	904.25
393.882	924.25
394.107	906.25
394.331	909.25
394.556	904.25
394.78	939.25
395.005	915.25
395.229	920.25
395.454	929.25
395.678	946.25
395.903	920.25
396.127	928.25
396.352	959.25
396.576	885.25
396.801	915.25
397.025	946.25
397.249	985.25
397.474	957.25
397.698	973.25
397.922	946.25
398.147	966.25
398.371	980.25
398.595	937.25
398.82	987.25
399.044	982.25
399.268	1032.25
399.492	1029.25
399.717	1067.25
399.941	1053.25
400.165	1054.25
400.389	1036.25
400.613	1029.25
400.837	1035.25
401.062	1014.25
401.286	1002.25
401.51	1022.25
401.734	1011.25
401.958	1013.25
402.182	1006.25
402.406	1001.25
402.63	1000.25
402.854	1001.25
403.078	972.25
403.302	1000.25
403.526	1005.25
403.75	1002.25
403.974	998.25
404.198	1009.25
404.422	1058.25
404.645	1004.25
404.869	1020.25
405.093	992.25
405.317	1013.25
405.541	1037.25
405.765	1009.25
405.988	1029.25
406.212	1036.25
406.436	1030.25
406.66	1045.25
406.883	1046.25
407.107	1084.25
407.331	1045.25
407.555	1089.25
407.778	1120.25
408.002	1110.25
408.226	1097.25
408.449	1084.25
408.673	1054.25
408.896	1040.25
409.12	1028.25
409.344	1050.25
409.567	1064.25
409.791	1032.25
410.014	1037.25
410.238	1044.25
410.461	1045.25
410.685	1035.25
410.908	1019.25
411.132	1010.25
411.355	991.25
411.578	1001.25
411.802	994.25
412.025	1014.25
412.249	1021.25
412.472	1014.25
412.695	988.25
412.919	971.25
413.142	1021.25
413.365	1010.25
413.589	1016.25
413.812	988.25
414.035	1010.25
414.258	1016.25
414.482	1014.25
414.705	1010.25
414.928	1008.25
415.151	994.25
415.374	972.25
415.597	974.25
415.821	977.25
416.044	986.25
416.267	976.25
416.49	985.25
416.713	954.25
416.936	965.25
417.159	946.25
417.382	933.25
417.605	962.25
417.828	962.25
418.051	921.25
418.274	959.25
418.497	939.25
418.72	959.25
418.943	919.25
419.166	972.25
419.389	1003.25
419.611	1022.25
419.834	998.25
420.057	957.25
420.28	958.25
420.503	911.25
420.726	920.25
420.948	926.25
421.171	904.25
421.394	951.25
421.617	952.25
421.839	936.25
422.062	940.25
422.285	907.25
422.507	916.25
422.73	919.25
422.953	941.25
423.175	928.25
423.398	933.25
423.621	916.25
423.843	916.25
424.066	940.25
424.288	945.25
424.511	946.25
424.733	942.25
424.956	919.25
425.178	936.25
425.401	937.25
425.623	935.25
425.846	913.25
426.068	936.25
426.291	908.25
426.513	917.25
426.735	947.25
426.958	937.25
427.18	905.25
427.402	921.25
427.625	924.25
427.847	941.25
428.069	910.25
428.292	924.25
428.514	923.25
428.736	916.25
428.958	907.25
429.181	899.25
429.403	938.25
429.625	902.25
429.847	907.25
430.069	916.25
430.292	914.25
430.514	864.25
430.736	907.25
430.958	885.25
431.18	906.25
431.402	903.25
431.624	889.25
431.846	909.25
432.068	901.25
432.29	889.25
432.512	878.25
432.734	924.25
432.956	889.25
433.178	909.25
433.4	919.25
433.622	907.25
433.844	911.25
434.066	912.25
434.287	918.25
434.509	917.25
434.731	896.25
434.953	902.25
435.175	915.25
435.397	909.25
435.618	918.25
435.84	920.25
436.062	907.25
436.284	881.25
436.505	876.25
436.727	896.25
436.949	899.25
437.17	903.25
437.392	900.25
437.614	885.25
437.835	879.25
438.057	893.25
438.278	866.25
438.5	880.25
438.721	875.25
438.943	884.25
439.165	868.25
439.386	880.25
439.608	915.25
439.829	872.25
440.05	869.25
440.272	886.25
440.493	892.25
440.715	899.25
440.936	894.25
441.158	874.25
441.379	900.25
441.6	892.25
441.822	889.25
442.043	903.25
442.264	893.25
442.486	896.25
442.707	898.25
442.928	882.25
443.149	898.25
443.371	907.25
443.592	896.25
443.813	883.25
444.034	884.25
444.255	898.25
444.476	913.25
444.698	907.25
444.919	922.25
445.14	1015.25
445.361	923.25
445.582	888.25
445.803	902.25
446.024	915.25
446.245	898.25
446.466	873.25
446.687	878.25
446.908	865.25
447.129	866.25
447.35	867.25
447.571	876.25
447.792	844.25
448.013	824.25
448.234	835.25
448.455	859.25
448.675	840.25
448.896	844.25
449.117	839.25
449.338	850.25
449.559	811.25
449.779	836.25
450	827.25
450.221	808.25
450.442	813.25
450.662	810.25
450.883	836.25
451.104	836.25
451.324	823.25
451.545	822.25
451.766	835.25
451.986	817.25
452.207	819.25
452.428	823.25
452.648	807.25
452.869	814.25
453.089	788.25
453.31	805.25
453.53	823.25
453.751	806.25
453.971	820.25
454.192	802.25
454.412	783.25
454.633	798.25
454.853	784.25
455.073	787.25
455.294	810.25
455.514	810.25
455.734	797.25
455.955	794.25
456.175	817.25
456.395	816.25
456.616	803.25
456.836	817.25
457.056	804.25
457.276	798.25
457.497	828.25
457.717	784.25
457.937	817.25
458.157	805.25
458.377	805.25
458.598	836.25
458.818	831.25
459.038	817.25
459.258	836.25
459.478	847.25
459.698	869.25
459.918	865.25
460.138	876.25
460.358	872.25
460.578	890.25
460.798	902.25
461.018	901.25
461.238	914.25
461.458	905.25
461.678	931.25
461.898	934.25
462.118	889.25
462.338	941.25
462.558	942.25
462.777	934.25
462.997	950.25
463.217	970.25
463.437	954.25
463.657	935.25
463.876	956.25
464.096	926.25
464.316	941.25
464.536	950.25
464.755	942.25
464.975	916.25
465.195	925.25
465.414	905.25
465.634	890.25
465.854	923.25
466.073	889.25
466.293	902.25
466.512	864.25
466.732	874.25
466.951	882.25
467.171	873.25
467.391	873.25
467.61	848.25
467.829	876.25
468.049	852.25
468.268	843.25
468.488	876.25
468.707	861.25
468.927	853.25
469.146	861.25
469.365	852.25
469.585	858.25
469.804	828.25
470.023	872.25
470.243	874.25
470.462	860.25
470.681	861.25
470.901	893.25
471.12	856.25
471.339	896.25
471.558	894.25
471.777	856.25
471.997	902.25
472.216	873.25
472.435	872.25
472.654	889.25
472.873	886.25
473.092	870.25
473.311	887.25
473.53	897.25
473.749	886.25
473.968	904.25
474.187	909.25
474.406	890.25
474.625	908.25
474.844	859.25
475.063	896.25
475.282	902.25
475.501	948.25
475.72	924.25
475.939	947.25
476.158	945.25
476.377	924.25
476.596	952.25
476.814	961.25
477.033	937.25
477.252	953.25
477.471	957.25
477.69	972.25
477.908	984.25
478.127	979.25
478.346	996.25
478.564	1022.25
478.783	1014.25
479.002	1025.25
479.22	1016.25
479.439	1021.25
479.658	1049.25
479.876	1023.25
480.095	1017.25
480.313	1063.25
480.532	1033.25
480.751	1036.25
480.969	1041.25
481.188	1050.25
481.406	1055.25
481.624	1081.25
481.843	1054.25
482.061	1062.25
482.28	1023.25
482.498	1039.25
482.717	1039.25
482.935	1082.25
483.153	1081.25
483.372	1073.25
483.59	1052.25
483.808	1082.25
484.027	1062.25
484.245	1090.25
484.463	1041.25
484.681	1053.25
484.9	1063.25
485.118	1065.25
485.336	1075.25
485.554	1072.25
485.772	1080.25
485.99	1089.25
486.209	1094.25
486.427	1089.25
486.645	1098.25
486.863	1100.25
487.081	1120.25
487.299	1092.25
487.517	1116.25
487.735	1085.25
487.953	1101.25
488.171	1094.25
488.389	1093.25
488.607	1097.25
488.825	1064.25
489.043	1093.25
489.261	1075.25
489.479	1090.25
489.696	1101.25
489.914	1097.25
490.132	1111.25
490.35	1112.25
490.568	1095.25
490.786	1078.25
491.003	1113.25
491.221	1134.25
491.439	1115.25
491.657	1106.25
491.874	1117.25
492.092	1125.25
492.31	1131.25
492.527	1122.25
492.745	1079.25
492.963	1108.25
493.18	1132.25
493.398	1119.25
493.615	1108.25
493.833	1090.25
494.05	1127.25
494.268	1110.25
494.485	1113.25
494.703	1140.25
494.92	1144.25
495.138	1131.25
495.355	1137.25
495.573	1144.25
495.79	1126.25
496.008	1187.25
496.225	1131.25
496.442	1162.25
496.66	1153.25
496.877	1147.25
497.094	1203.25
497.312	1220.25
497.529	1195.25
497.746	1215.25
497.963	1230.25
498.181	1234.25
498.398	1249.25
498.615	1292.25
498.832	1290.25
499.049	1333.25
499.267	1325.25
499.484	1348.25
499.701	1423.25
499.918	1412.25
500.135	1464.25
500.352	1504.25
500.569	1496.25
500.786	1498.25
501.003	1487.25
501.22	1485.25
501.437	1434.25
501.654	1388.25
501.871	1401.25
502.088	1354.25
502.305	1319.25
502.522	1312.25
502.739	1272.25
502.956	1253.25
503.172	1250.25
503.389	1218.25
503.606	1193.25
503.823	1200.25
504.04	1178.25
504.256	1137.25
504.473	1138.25
504.69	1098.25
504.907	1164.25
505.123	1147.25
505.34	1098.25
505.557	1122.25
505.773	1104.25
505.99	1096.25
506.207	1095.25
506.423	1051.25
506.64	1036.25
506.856	1036.25
507.073	1039.25
507.289	1029.25
507.506	1039.25
507.722	1009.25
507.939	1001.25
508.155	1030.25
508.372	997.25
508.588	1015.25
508.805	997.25
509.021	953.25
509.238	967.25
509.454	947.25
509.67	953.25
509.887	954.25
510.103	981.25
510.319	976.25
510.536	978.25
510.752	962.25
510.968	961.25
511.184	948.25
511.401	931.25
511.617	952.25
511.833	946.25
512.049	940.25
512.265	969.25
512.481	944.25
512.698	950.25
512.914	961.25
513.13	967.25
513.346	925.25
513.562	941.25
513.778	941.25
513.994	916.25
514.21	940.25
514.426	950.25
514.642	926.25
514.858	935.25
515.074	936.25
515.29	952.25
515.506	946.25
515.721	940.25
515.937	964.25
516.153	956.25
516.369	977.25
516.585	953.25
516.801	1002.25
517.016	985.25
517.232	977.25
517.448	995.25
517.664	986.25
517.879	987.25
518.095	972.25
518.311	975.25
518.527	936.25
518.742	974.25
518.958	964.25
519.173	916.25
519.389	954.25
519.605	927.25
519.82	931.25
520.036	977.25
520.251	921.25
520.467	921.25
520.682	899.25
520.898	916.25
521.113	912.25
521.329	908.25
521.544	900.25
521.76	878.25
521.975	898.25
522.19	910.25
522.406	890.25
522.621	877.25
522.836	890.25
523.052	884.25
523.267	860.25
523.482	883.25
523.698	865.25
523.913	875.25
524.128	869.25
524.343	860.25
524.559	867.25
524.774	837.25
524.989	868.25
525.204	855.25
525.419	844.25
525.634	865.25
525.849	871.25
526.064	818.25
526.28	842.25
526.495	859.25
526.71	840.25
526.925	842.25
527.14	825.25
527.355	839.25
527.57	861.25
527.785	843.25
527.999	833.25
528.214	834.25
528.429	848.25
528.644	809.25
528.859	808.25
529.074	829.25
529.289	828.25
529.503	823.25
529.718	809.25
529.933	837.25
530.148	813.25
530.363	838.25
530.577	814.25
530.792	801.25
531.007	814.25
531.221	814.25
531.436	825.25
531.651	820.25
531.865	826.25
532.08	803.25
532.295	830.25
532.509	792.25
532.724	800.25
532.938	796.25
533.153	803.25
533.367	794.25
533.582	808.25
533.796	808.25
534.011	802.25
534.225	780.25
534.44	786.25
534.654	797.25
534.868	790.25
535.083	774.25
535.297	786.25
535.511	786.25
535.726	822.25
535.94	787.25
536.154	797.25
536.369	777.25
536.583	761.25
536.797	772.25
537.011	772.25
537.225	767.25
537.44	765.25
537.654	770.25
537.868	758.25
538.082	737.25
538.296	778.25
538.51	735.25
538.724	774.25
538.938	765.25
539.153	758.25
539.367	756.25
539.581	758.25
539.795	762.25
540.009	745.25
540.222	777.25
540.436	745.25
540.65	737.25
540.864	743.25
541.078	776.25
541.292	745.25
541.506	750.25
541.72	741.25
541.934	756.25
542.147	766.25
542.361	748.25
542.575	755.25
542.789	706.25
543.002	734.25
543.216	729.25
543.43	742.25
543.644	770.25
543.857	733.25
544.071	747.25
544.285	728.25
544.498	733.25
544.712	741.25
544.925	722.25
545.139	728.25
545.352	716.25
545.566	722.25
545.779	749.25
545.993	728.25
546.206	713.25
546.42	732.25
546.633	737.25
546.847	719.25
547.06	720.25
547.274	722.25
547.487	734.25
547.7	718.25
547.914	707.25
548.127	744.25
548.34	742.25
548.554	699.25
548.767	721.25
548.98	721.25
549.193	718.25
549.407	711.25
549.62	731.25
549.833	738.25
550.046	732.25
550.259	733.25
550.473	719.25
550.686	681.25
550.899	735.25
551.112	721.25
551.325	714.25
551.538	716.25
551.751	702.25
551.964	721.25
552.177	720.25
552.39	730.25
552.603	710.25
552.816	713.25
553.029	677.25
553.242	712.25
553.455	719.25
553.667	713.25
553.88	716.25
554.093	712.25
554.306	693.25
554.519	690.25
554.732	677.25
554.944	694.25
555.157	695.25
555.37	654.25
555.583	664.25
555.795	673.25
556.008	662.25
556.221	662.25
556.433	657.25
556.646	660.25
556.859	652.25
557.071	649.25
557.284	647.25
557.496	632.25
557.709	646.25
557.921	635.25
558.134	646.25
558.346	661.25
558.559	644.25
558.771	643.25
558.984	644.25
559.196	644.25
559.409	640.25
559.621	636.25
559.833	630.25
560.046	631.25
560.258	626.25
560.47	612.25
560.683	613.25
560.895	625.25
561.107	636.25
561.32	611.25
561.532	640.25
561.744	639.25
561.956	616.25
562.168	620.25
562.381	639.25
562.593	624.25
562.805	630.25
563.017	624.25
563.229	605.25
563.441	608.25
563.653	628.25
563.865	629.25
564.077	619.25
564.289	612.25
564.501	636.25
564.713	620.25
564.925	626.25
565.137	638.25
565.349	636.25
565.561	631.25
565.773	651.25
565.985	672.25
566.197	651.25
566.408	674.25
566.62	676.25
566.832	670.25
567.044	694.25
567.255	684.25
567.467	676.25
567.679	676.25
567.891	666.25
568.102	665.25
568.314	658.25
568.526	638.25
568.737	628.25
568.949	638.25
569.161	624.25
569.372	616.25
569.584	602.25
569.795	574.25
570.007	589.25
570.218	576.25
570.43	592.25
570.641	561.25
570.853	572.25
571.064	556.25
571.276	575.25
571.487	580.25
571.698	540.25
571.91	550.25
572.121	544.25
572.333	538.25
572.544	523.25
572.755	535.25
572.966	520.25
573.178	535.25
573.389	542.25
573.6	522.25
573.811	508.25
574.023	520.25
574.234	511.25
574.445	489.25
574.656	505.25
574.867	478.25
575.078	482.25
575.289	500.25
575.501	512.25
575.712	493.25
575.923	482.25
576.134	485.25
576.345	475.25
576.556	489.25
576.767	483.25
576.978	501.25
577.188	437.25
577.399	466.25
577.61	476.25
577.821	473.25
578.032	449.25
578.243	444.25
578.454	480.25
578.665	466.25
578.875	461.25
579.086	458.25
579.297	475.25
579.508	433.25
579.718	453.25
579.929	430.25
580.14	465.25
580.35	454.25
580.561	455.25
580.772	465.25
580.982	438.25
581.193	458.25
581.403	449.25
581.614	441.25
581.825	431.25
582.035	448.25
582.246	436.25
582.456	442.25
582.667	448.25
582.877	436.25
583.087	445.25
583.298	454.25
583.508	445.25
583.719	428.25
583.929	432.25
584.139	434.25
584.35	413.25
584.56	424.25
584.77	436.25
584.981	423.25
585.191	407.25
585.401	418.25
585.611	436.25
585.821	420.25
586.032	408.25
586.242	427.25
586.452	409.25
586.662	421.25
586.872	424.25
587.082	403.25
587.292	408.25
587.502	420.25
587.713	390.25
587.923	433.25
588.133	413.25
588.343	423.25
588.553	409.25
588.762	432.25
588.972	412.25
589.182	423.25
589.392	431.25
589.602	396.25
589.812	426.25
590.022	409.25
590.232	415.25
590.441	396.25
590.651	403.25
590.861	403.25
591.071	406.25
591.281	404.25
591.49	396.25
591.7	407.25
591.91	397.25
592.119	382.25
592.329	406.25
592.539	425.25
592.748	393.25
592.958	402.25
593.167	400.25
593.377	419.25
593.587	432.25
593.796	402.25
594.006	402.25
594.215	405.25
594.424	409.25
594.634	394.25
594.843	403.25
595.053	388.25
595.262	407.25
595.472	361.25
595.681	391.25
595.89	392.25
596.1	385.25
596.309	374.25
596.518	391.25
596.727	375.25
596.937	364.25
597.146	363.25
597.355	375.25
597.564	378.25
597.774	378.25
597.983	350.25
598.192	352.25
598.401	369.25
598.61	349.25
598.819	352.25
599.028	350.25
599.237	364.25
599.446	361.25
599.655	362.25
599.864	342.25
600.073	332.25
600.282	345.25
600.491	350.25
600.7	347.25
600.909	339.25
601.118	354.25
601.327	328.25
601.536	347.25
601.745	339.25
601.953	337.25
602.162	348.25
602.371	339.25
602.58	328.25
602.789	343.25
602.997	338.25
603.206	332.25
603.415	331.25
603.623	329.25
603.832	331.25
604.041	330.25
604.249	308.25
604.458	332.25
604.666	316.25
604.875	330.25
605.084	325.25
605.292	325.25
605.501	324.25
605.709	332.25
605.918	316.25
606.126	308.25
606.334	317.25
606.543	323.25
606.751	325.25
606.96	330.25
607.168	296.25
607.376	320.25
607.585	324.25
607.793	311.25
608.001	305.25
608.21	306.25
608.418	333.25
608.626	314.25
608.834	316.25
609.043	308.25
609.251	318.25
609.459	308.25
609.667	309.25
609.875	306.25
610.083	314.25
610.291	290.25
610.499	288.25
610.707	292.25
610.916	301.25
611.124	298.25
611.332	304.25
611.54	311.25
611.748	297.25
611.955	320.25
612.163	306.25
612.371	311.25
612.579	301.25
612.787	288.25
612.995	312.25
613.203	300.25
613.411	305.25
613.618	292.25
613.826	308.25
614.034	301.25
614.242	283.25
614.449	301.25
614.657	283.25
614.865	296.25
615.072	295.25
615.28	288.25
615.488	301.25
615.695	289.25
615.903	305.25
616.111	296.25
616.318	282.25
616.526	294.25
616.733	305.25
616.941	289.25
617.148	306.25
617.356	284.25
617.563	285.25
617.771	290.25
617.978	294.25
618.185	281.25
618.393	288.25
618.6	285.25
618.807	286.25
619.015	286.25
619.222	292.25
619.429	293.25
619.637	290.25
619.844	290.25
620.051	275.25
620.258	264.25
620.466	272.25
620.673	278.25
620.88	268.25
621.087	269.25
621.294	275.25
621.501	261.25
621.708	277.25
621.915	288.25
622.122	274.25
622.329	278.25
622.536	287.25
622.743	271.25
622.95	285.25
623.157	262.25
623.364	272.25
623.571	266.25
623.778	272.25
623.985	271.25
624.192	254.25
624.399	248.25
624.606	265.25
624.812	259.25
625.019	258.25
625.226	280.25
625.433	266.25
625.639	250.25
625.846	266.25
626.053	249.25
626.259	254.25
626.466	262.25
626.673	251.25
626.879	230.25
627.086	244.25
627.293	237.25
627.499	232.25
627.706	248.25
627.912	267.25
628.119	248.25
628.325	245.25
628.532	249.25
628.738	246.25
628.945	240.25
629.151	245.25
629.357	260.25
629.564	246.25
629.77	244.25
629.976	231.25
630.183	227.25
630.389	244.25
630.595	228.25
630.802	225.25
631.008	236.25
631.214	250.25
631.42	248.25
631.627	236.25
631.833	241.25
632.039	242.25
632.245	228.25
632.451	234.25
632.657	225.25
632.863	240.25
633.069	234.25
633.275	240.25
633.481	223.25
633.688	237.25
633.893	234.25
634.099	241.25
634.305	245.25
634.511	242.25
634.717	227.25
634.923	229.25
635.129	206.25
635.335	214.25
635.541	221.25
635.747	205.25
635.952	226.25
636.158	236.25
636.364	225.25
636.57	210.25
636.775	227.25
636.981	217.25
637.187	227.25
637.392	204.25
637.598	221.25
637.804	225.25
638.009	231.25
638.215	217.25
638.421	218.25
638.626	212.25
638.832	214.25
639.037	219.25
639.243	223.25
639.448	203.25
639.654	211.25
639.859	218.25
640.065	225.25
640.27	225.25
640.475	224.25
640.681	218.25
640.886	222.25
641.091	216.25
641.297	216.25
641.502	195.25
641.707	205.25
641.913	219.25
642.118	212.25
642.323	220.25
642.528	212.25
642.733	209.25
642.939	229.25
643.144	225.25
643.349	212.25
643.554	219.25
643.759	205.25
643.964	196.25
644.169	229.25
644.374	213.25
644.579	214.25
644.784	206.25
644.989	203.25
645.194	208.25
645.399	204.25
645.604	198.25
645.809	204.25
646.014	218.25
646.219	228.25
646.423	206.25
646.628	212.25
646.833	217.25
647.038	201.25
647.243	229.25
647.447	224.25
647.652	215.25
647.857	212.25
648.062	213.25
648.266	206.25
648.471	212.25
648.676	216.25
648.88	196.25
649.085	196.25
649.289	219.25
649.494	215.25
649.698	218.25
649.903	224.25
650.107	218.25
650.312	210.25
650.516	211.25
650.721	226.25
650.925	214.25
651.13	204.25
651.334	212.25
651.539	209.25
651.743	182.25
651.947	212.25
652.152	200.25
652.356	219.25
652.56	196.25
652.764	195.25
652.969	183.25
653.173	192.25
653.377	195.25
653.581	189.25
653.785	198.25
653.99	194.25
654.194	201.25
654.398	186.25
654.602	196.25
654.806	177.25
655.01	199.25
655.214	192.25
655.418	190.25
655.622	202.25
655.826	198.25
656.03	195.25
656.234	203.25
656.438	184.25
656.642	195.25
656.846	190.25
657.049	204.25
657.253	170.25
657.457	169.25
657.661	160.25
657.865	158.25
658.068	156.25
658.272	142.25
658.476	149.25
658.68	145.25
658.883	150.25
659.087	127.25
659.291	123.25
659.494	127.25
659.698	128.25
659.901	118.25
660.105	116.25
660.309	111.25
660.512	119.25
660.716	99.25
660.919	100.25
661.123	104.25
661.326	104.25
661.53	101.25
661.733	93.25
661.936	104.25
662.14	80.25
662.343	101.25
662.546	87.25
662.75	86.25
662.953	100.25
663.156	93.25
663.36	87.25
663.563	85.25
663.766	83.25
663.969	95.25
664.173	84.25
664.376	88.25
664.579	80.25
664.782	92.25
664.985	91.25
665.188	89.25
665.391	95.25
665.594	77.25
665.797	85.25
666	80.25
666.203	105.25
666.406	85.25
666.609	89.25
666.812	75.25
667.015	98.25
667.218	76.25
667.421	82.25
667.624	83.25
667.827	91.25
668.03	94.25
668.232	85.25
668.435	93.25
668.638	80.25
668.841	90.25
669.043	81.25
669.246	68.25
669.449	76.25
669.651	97.25
669.854	87.25
670.057	85.25
670.259	88.25
670.462	100.25
670.665	85.25
670.867	88.25
671.07	88.25
671.272	81.25
671.475	95.25
671.677	78.25
671.88	88.25
672.082	90.25
672.284	86.25
672.487	86.25
672.689	88.25
672.892	77.25
