Data from Fe(NO3)3@0.05M.TitratingCurve.Agarose3%dH2O.NegLispCup.LampEnergy10.LIBS07252019_HRD10591_16-46-35-334.txt Node
Date: Thu Jul 25 16:46:35 EDT 2019
User: cochatt
Spectrometer: HR+D1059
Trigger mode: 1
Integration Time (sec): 1.000000E-1
Scans to average: 1
Electric dark correction enabled: true
Nonlinearity correction enabled: false
Boxcar width: 0
XAxis mode: Wavelengths
Number of Pixels in Spectrum: 2048
>>>>>Begin Spectral Data<<<<<
223.165	-3.19
223.4	-3.19
223.635	-3.19
223.869	-13.19
224.104	-24.19
224.338	-21.19
224.573	-5.19
224.808	-21.19
225.042	-2.19
225.277	7.81
225.511	-0.19
225.746	3.81
225.98	-18.19
226.215	-3.19
226.449	17.81
226.683	21.81
226.918	28.81
227.152	31.81
227.387	25.81
227.621	25.81
227.856	50.81
228.09	41.81
228.324	35.81
228.559	45.81
228.793	69.81
229.027	115.81
229.262	115.81
229.496	112.81
229.73	130.81
229.964	138.81
230.199	135.81
230.433	132.81
230.667	133.81
230.901	147.81
231.136	148.81
231.37	153.81
231.604	150.81
231.838	150.81
232.072	160.81
232.306	157.81
232.541	163.81
232.775	170.81
233.009	177.81
233.243	147.81
233.477	178.81
233.711	181.81
233.945	169.81
234.179	161.81
234.413	182.81
234.647	169.81
234.881	179.81
235.115	181.81
235.349	184.81
235.583	163.81
235.817	169.81
236.051	158.81
236.285	179.81
236.519	207.81
236.753	200.81
236.987	183.81
237.221	178.81
237.455	164.81
237.689	185.81
237.922	184.81
238.156	210.81
238.39	214.81
238.624	229.81
238.858	211.81
239.091	190.81
239.325	221.81
239.559	212.81
239.793	216.81
240.027	235.81
240.26	209.81
240.494	224.81
240.728	228.81
240.961	236.81
241.195	232.81
241.429	236.81
241.662	214.81
241.896	216.81
242.13	218.81
242.363	226.81
242.597	221.81
242.83	221.81
243.064	215.81
243.298	234.81
243.531	244.81
243.765	241.81
243.998	252.81
244.232	250.81
244.465	243.81
244.699	264.81
244.932	282.81
245.166	264.81
245.399	263.81
245.633	243.81
245.866	237.81
246.099	248.81
246.333	269.81
246.566	284.81
246.8	265.81
247.033	267.81
247.266	265.81
247.5	265.81
247.733	254.81
247.966	283.81
248.2	307.81
248.433	302.81
248.666	273.81
248.899	283.81
249.133	289.81
249.366	323.81
249.599	314.81
249.832	320.81
250.066	314.81
250.299	311.81
250.532	314.81
250.765	288.81
250.998	299.81
251.231	304.81
251.465	321.81
251.698	313.81
251.931	322.81
252.164	317.81
252.397	317.81
252.63	318.81
252.863	332.81
253.096	330.81
253.329	349.81
253.562	341.81
253.795	330.81
254.028	349.81
254.261	367.81
254.494	338.81
254.727	345.81
254.96	342.81
255.193	343.81
255.426	355.81
255.659	341.81
255.892	319.81
256.124	347.81
256.357	357.81
256.59	369.81
256.823	367.81
257.056	370.81
257.289	352.81
257.521	344.81
257.754	359.81
257.987	367.81
258.22	364.81
258.452	367.81
258.685	365.81
258.918	385.81
259.151	377.81
259.383	387.81
259.616	389.81
259.849	402.81
260.081	444.81
260.314	475.81
260.547	424.81
260.779	405.81
261.012	424.81
261.244	428.81
261.477	418.81
261.71	426.81
261.942	395.81
262.175	402.81
262.407	395.81
262.64	406.81
262.872	429.81
263.105	426.81
263.337	436.81
263.57	428.81
263.802	407.81
264.035	383.81
264.267	407.81
264.499	407.81
264.732	408.81
264.964	401.81
265.197	396.81
265.429	406.81
265.661	413.81
265.894	401.81
266.126	403.81
266.358	416.81
266.591	423.81
266.823	432.81
267.055	425.81
267.287	414.81
267.52	468.81
267.752	424.81
267.984	421.81
268.216	446.81
268.448	445.81
268.681	451.81
268.913	435.81
269.145	430.81
269.377	442.81
269.609	449.81
269.841	452.81
270.073	442.81
270.306	439.81
270.538	461.81
270.77	439.81
271.002	449.81
271.234	459.81
271.466	468.81
271.698	497.81
271.93	474.81
272.162	483.81
272.394	482.81
272.626	467.81
272.858	480.81
273.09	481.81
273.322	489.81
273.553	472.81
273.785	499.81
274.017	519.81
274.249	569.81
274.481	555.81
274.713	556.81
274.945	596.81
275.176	621.81
275.408	576.81
275.64	555.81
275.872	569.81
276.104	561.81
276.335	524.81
276.567	513.81
276.799	528.81
277.031	524.81
277.262	521.81
277.494	516.81
277.726	523.81
277.957	526.81
278.189	548.81
278.421	540.81
278.652	532.81
278.884	524.81
279.115	526.81
279.347	538.81
279.579	530.81
279.81	533.81
280.042	523.81
280.273	532.81
280.505	535.81
280.736	545.81
280.968	527.81
281.199	549.81
281.431	533.81
281.662	546.81
281.894	573.81
282.125	548.81
282.356	547.81
282.588	550.81
282.819	566.81
283.051	564.81
283.282	540.81
283.513	578.81
283.745	581.81
283.976	554.81
284.207	568.81
284.439	569.81
284.67	570.81
284.901	586.81
285.132	592.81
285.364	581.81
285.595	600.81
285.826	588.81
286.057	595.81
286.288	604.81
286.52	609.81
286.751	581.81
286.982	593.81
287.213	582.81
287.444	610.81
287.675	619.81
287.906	580.81
288.138	570.81
288.369	605.81
288.6	595.81
288.831	615.81
289.062	634.81
289.293	608.81
289.524	587.81
289.755	596.81
289.986	611.81
290.217	595.81
290.448	586.81
290.679	589.81
290.91	636.81
291.141	601.81
291.371	625.81
291.602	623.81
291.833	615.81
292.064	631.81
292.295	620.81
292.526	619.81
292.757	625.81
292.987	614.81
293.218	604.81
293.449	626.81
293.68	632.81
293.91	627.81
294.141	634.81
294.372	620.81
294.603	641.81
294.833	651.81
295.064	627.81
295.295	627.81
295.525	616.81
295.756	628.81
295.987	627.81
296.217	629.81
296.448	633.81
296.679	649.81
296.909	644.81
297.14	645.81
297.37	644.81
297.601	680.81
297.831	651.81
298.062	639.81
298.292	645.81
298.523	688.81
298.753	670.81
298.984	688.81
299.214	657.81
299.445	661.81
299.675	651.81
299.905	653.81
300.136	672.81
300.366	669.81
300.597	695.81
300.827	653.81
301.057	683.81
301.288	686.81
301.518	657.81
301.748	700.81
301.979	673.81
302.209	718.81
302.439	722.81
302.669	718.81
302.9	708.81
303.13	700.81
303.36	722.81
303.59	700.81
303.82	704.81
304.051	715.81
304.281	718.81
304.511	709.81
304.741	711.81
304.971	709.81
305.201	712.81
305.431	703.81
305.661	727.81
305.891	739.81
306.121	703.81
306.352	682.81
306.582	694.81
306.812	711.81
307.042	727.81
307.272	710.81
307.502	704.81
307.731	710.81
307.961	708.81
308.191	714.81
308.421	703.81
308.651	720.81
308.881	705.81
309.111	711.81
309.341	702.81
309.571	716.81
309.8	719.81
310.03	713.81
310.26	732.81
310.49	707.81
310.72	739.81
310.949	701.81
311.179	730.81
311.409	737.81
311.639	716.81
311.868	742.81
312.098	734.81
312.328	759.81
312.557	757.81
312.787	763.81
313.017	754.81
313.246	771.81
313.476	755.81
313.706	774.81
313.935	779.81
314.165	753.81
314.394	782.81
314.624	758.81
314.853	778.81
315.083	785.81
315.312	775.81
315.542	773.81
315.771	776.81
316.001	781.81
316.23	776.81
316.46	764.81
316.689	786.81
316.919	793.81
317.148	781.81
317.377	778.81
317.607	782.81
317.836	779.81
318.065	772.81
318.295	805.81
318.524	753.81
318.753	780.81
318.983	774.81
319.212	761.81
319.441	762.81
319.67	785.81
319.9	800.81
320.129	781.81
320.358	827.81
320.587	807.81
320.816	782.81
321.046	799.81
321.275	807.81
321.504	810.81
321.733	807.81
321.962	809.81
322.191	794.81
322.42	803.81
322.649	805.81
322.878	810.81
323.108	829.81
323.337	828.81
323.566	799.81
323.795	840.81
324.024	827.81
324.253	833.81
324.482	832.81
324.71	813.81
324.939	825.81
325.168	847.81
325.397	797.81
325.626	832.81
325.855	835.81
326.084	873.81
326.313	854.81
326.542	868.81
326.77	836.81
326.999	852.81
327.228	851.81
327.457	841.81
327.686	856.81
327.914	837.81
328.143	871.81
328.372	839.81
328.6	860.81
328.829	842.81
329.058	855.81
329.287	857.81
329.515	842.81
329.744	888.81
329.972	877.81
330.201	871.81
330.43	877.81
330.658	859.81
330.887	902.81
331.115	891.81
331.344	888.81
331.572	873.81
331.801	904.81
332.03	897.81
332.258	927.81
332.486	919.81
332.715	940.81
332.943	950.81
333.172	968.81
333.4	960.81
333.629	969.81
333.857	971.81
334.085	1011.81
334.314	1004.81
334.542	1004.81
334.771	981.81
334.999	1004.81
335.227	1003.81
335.455	1009.81
335.684	1011.81
335.912	1008.81
336.14	993.81
336.369	1019.81
336.597	992.81
336.825	983.81
337.053	1011.81
337.281	1003.81
337.51	982.81
337.738	981.81
337.966	979.81
338.194	978.81
338.422	1005.81
338.65	933.81
338.878	953.81
339.106	972.81
339.334	971.81
339.562	945.81
339.79	903.81
340.018	944.81
340.246	925.81
340.474	902.81
340.702	913.81
340.93	931.81
341.158	929.81
341.386	923.81
341.614	933.81
341.842	895.81
342.07	905.81
342.298	925.81
342.526	935.81
342.754	935.81
342.981	929.81
343.209	956.81
343.437	951.81
343.665	980.81
343.893	1009.81
344.12	988.81
344.348	986.81
344.576	1020.81
344.804	988.81
345.031	954.81
345.259	956.81
345.487	928.81
345.714	908.81
345.942	928.81
346.17	931.81
346.397	901.81
346.625	903.81
346.853	865.81
347.08	889.81
347.308	896.81
347.535	888.81
347.763	868.81
347.99	867.81
348.218	886.81
348.445	907.81
348.673	872.81
348.9	856.81
349.128	863.81
349.355	846.81
349.583	870.81
349.81	884.81
350.037	877.81
350.265	871.81
350.492	843.81
350.72	863.81
350.947	875.81
351.174	875.81
351.402	853.81
351.629	879.81
351.856	839.81
352.083	864.81
352.311	890.81
352.538	882.81
352.765	872.81
352.992	872.81
353.22	871.81
353.447	855.81
353.674	863.81
353.901	859.81
354.128	863.81
354.355	864.81
354.583	886.81
354.81	863.81
355.037	860.81
355.264	866.81
355.491	881.81
355.718	856.81
355.945	856.81
356.172	851.81
356.399	868.81
356.626	883.81
356.853	863.81
357.08	894.81
357.307	899.81
357.534	869.81
357.761	885.81
357.988	881.81
358.215	898.81
358.441	888.81
358.668	873.81
358.895	861.81
359.122	882.81
359.349	879.81
359.576	855.81
359.802	845.81
360.029	859.81
360.256	873.81
360.483	862.81
360.709	877.81
360.936	886.81
361.163	883.81
361.39	871.81
361.616	869.81
361.843	889.81
362.07	899.81
362.296	903.81
362.523	876.81
362.749	889.81
362.976	865.81
363.203	899.81
363.429	893.81
363.656	920.81
363.882	904.81
364.109	885.81
364.335	889.81
364.562	869.81
364.788	875.81
365.015	907.81
365.241	895.81
365.468	907.81
365.694	914.81
365.92	878.81
366.147	888.81
366.373	900.81
366.599	931.81
366.826	892.81
367.052	864.81
367.278	921.81
367.505	907.81
367.731	908.81
367.957	897.81
368.184	914.81
368.41	927.81
368.636	909.81
368.862	933.81
369.089	915.81
369.315	938.81
369.541	927.81
369.767	928.81
369.993	932.81
370.219	934.81
370.445	940.81
370.672	933.81
370.898	981.81
371.124	956.81
371.35	950.81
371.576	972.81
371.802	969.81
372.028	988.81
372.254	987.81
372.48	975.81
372.706	995.81
372.932	1004.81
373.158	963.81
373.384	977.81
373.61	1020.81
373.835	1033.81
374.061	970.81
374.287	970.81
374.513	973.81
374.739	1036.81
374.965	1065.81
375.191	1037.81
375.416	1021.81
375.642	1026.81
375.868	1002.81
376.094	994.81
376.319	1029.81
376.545	986.81
376.771	995.81
376.997	998.81
377.222	978.81
377.448	986.81
377.674	956.81
377.899	974.81
378.125	975.81
378.35	940.81
378.576	981.81
378.802	967.81
379.027	965.81
379.253	947.81
379.478	977.81
379.704	956.81
379.929	961.81
380.155	984.81
380.38	974.81
380.606	996.81
380.831	1015.81
381.057	961.81
381.282	987.81
381.507	989.81
381.733	1023.81
381.958	1025.81
382.184	1032.81
382.409	1029.81
382.634	1020.81
382.86	1060.81
383.085	1054.81
383.31	1058.81
383.535	1050.81
383.761	1036.81
383.986	1048.81
384.211	1056.81
384.436	1076.81
384.662	1077.81
384.887	1082.81
385.112	1081.81
385.337	1129.81
385.562	1101.81
385.787	1124.81
386.013	1114.81
386.238	1145.81
386.463	1105.81
386.688	1135.81
386.913	1111.81
387.138	1148.81
387.363	1142.81
387.588	1151.81
387.813	1124.81
388.038	1149.81
388.263	1138.81
388.488	1147.81
388.713	1166.81
388.938	1173.81
389.163	1142.81
389.387	1191.81
389.612	1139.81
389.837	1151.81
390.062	1152.81
390.287	1154.81
390.512	1131.81
390.736	1163.81
390.961	1155.81
391.186	1185.81
391.411	1203.81
391.636	1239.81
391.86	1234.81
392.085	1225.81
392.31	1239.81
392.534	1238.81
392.759	1214.81
392.984	1219.81
393.208	1233.81
393.433	1238.81
393.658	1223.81
393.882	1204.81
394.107	1195.81
394.331	1223.81
394.556	1218.81
394.78	1239.81
395.005	1220.81
395.229	1232.81
395.454	1234.81
395.678	1260.81
395.903	1236.81
396.127	1284.81
396.352	1270.81
396.576	1248.81
396.801	1237.81
397.025	1256.81
397.249	1245.81
397.474	1284.81
397.698	1316.81
397.922	1310.81
398.147	1291.81
398.371	1346.81
398.595	1376.81
398.82	1392.81
399.044	1433.81
399.268	1463.81
399.492	1563.81
399.717	1601.81
399.941	1621.81
400.165	1619.81
400.389	1581.81
400.613	1485.81
400.837	1486.81
401.062	1427.81
401.286	1425.81
401.51	1409.81
401.734	1433.81
401.958	1384.81
402.182	1405.81
402.406	1409.81
402.63	1405.81
402.854	1441.81
403.078	1374.81
403.302	1437.81
403.526	1429.81
403.75	1399.81
403.974	1443.81
404.198	1384.81
404.422	1463.81
404.645	1445.81
404.869	1449.81
405.093	1424.81
405.317	1449.81
405.541	1472.81
405.765	1455.81
405.988	1456.81
406.212	1474.81
406.436	1488.81
406.66	1531.81
406.883	1498.81
407.107	1581.81
407.331	1582.81
407.555	1672.81
407.778	1657.81
408.002	1636.81
408.226	1621.81
408.449	1627.81
408.673	1590.81
408.896	1552.81
409.12	1535.81
409.344	1541.81
409.567	1534.81
409.791	1545.81
410.014	1505.81
410.238	1480.81
410.461	1498.81
410.685	1465.81
410.908	1492.81
411.132	1475.81
411.355	1440.81
411.578	1475.81
411.802	1441.81
412.025	1435.81
412.249	1441.81
412.472	1483.81
412.695	1430.81
412.919	1404.81
413.142	1451.81
413.365	1409.81
413.589	1431.81
413.812	1398.81
414.035	1431.81
414.258	1383.81
414.482	1452.81
414.705	1417.81
414.928	1412.81
415.151	1409.81
415.374	1427.81
415.597	1372.81
415.821	1363.81
416.044	1368.81
416.267	1399.81
416.49	1370.81
416.713	1335.81
416.936	1386.81
417.159	1376.81
417.382	1336.81
417.605	1357.81
417.828	1342.81
418.051	1345.81
418.274	1353.81
418.497	1351.81
418.72	1369.81
418.943	1360.81
419.166	1421.81
419.389	1501.81
419.611	1473.81
419.834	1427.81
420.057	1404.81
420.28	1365.81
420.503	1327.81
420.726	1303.81
420.948	1317.81
421.171	1321.81
421.394	1338.81
421.617	1292.81
421.839	1328.81
422.062	1336.81
422.285	1322.81
422.507	1312.81
422.73	1331.81
422.953	1331.81
423.175	1381.81
423.398	1362.81
423.621	1323.81
423.843	1327.81
424.066	1328.81
424.288	1322.81
424.511	1330.81
424.733	1337.81
424.956	1332.81
425.178	1333.81
425.401	1351.81
425.623	1337.81
425.846	1297.81
426.068	1336.81
426.291	1297.81
426.513	1329.81
426.735	1294.81
426.958	1299.81
427.18	1269.81
427.402	1313.81
427.625	1271.81
427.847	1267.81
428.069	1292.81
428.292	1317.81
428.514	1298.81
428.736	1298.81
428.958	1266.81
429.181	1239.81
429.403	1250.81
429.625	1235.81
429.847	1241.81
430.069	1234.81
430.292	1243.81
430.514	1291.81
430.736	1270.81
430.958	1301.81
431.18	1279.81
431.402	1305.81
431.624	1284.81
431.846	1256.81
432.068	1264.81
432.29	1304.81
432.512	1247.81
432.734	1324.81
432.956	1303.81
433.178	1296.81
433.4	1299.81
433.622	1313.81
433.844	1311.81
434.066	1282.81
434.287	1267.81
434.509	1301.81
434.731	1297.81
434.953	1349.81
435.175	1359.81
435.397	1335.81
435.618	1328.81
435.84	1293.81
436.062	1305.81
436.284	1319.81
436.505	1273.81
436.727	1286.81
436.949	1251.81
437.17	1269.81
437.392	1238.81
437.614	1244.81
437.835	1219.81
438.057	1221.81
438.278	1232.81
438.5	1269.81
438.721	1251.81
438.943	1243.81
439.165	1211.81
439.386	1239.81
439.608	1212.81
439.829	1251.81
440.05	1255.81
440.272	1263.81
440.493	1267.81
440.715	1271.81
440.936	1258.81
441.158	1307.81
441.379	1289.81
441.6	1316.81
441.822	1311.81
442.043	1310.81
442.264	1321.81
442.486	1293.81
442.707	1285.81
442.928	1323.81
443.149	1319.81
443.371	1304.81
443.592	1374.81
443.813	1325.81
444.034	1324.81
444.255	1348.81
444.476	1393.81
444.698	1427.81
444.919	1414.81
445.14	1459.81
445.361	1413.81
445.582	1354.81
445.803	1323.81
446.024	1322.81
446.245	1279.81
446.466	1304.81
446.687	1245.81
446.908	1247.81
447.129	1244.81
447.35	1215.81
447.571	1212.81
447.792	1205.81
448.013	1207.81
448.234	1201.81
448.455	1194.81
448.675	1171.81
448.896	1212.81
449.117	1165.81
449.338	1148.81
449.559	1170.81
449.779	1147.81
450	1138.81
450.221	1165.81
450.442	1155.81
450.662	1115.81
450.883	1147.81
451.104	1148.81
451.324	1166.81
451.545	1146.81
451.766	1169.81
451.986	1110.81
452.207	1152.81
452.428	1155.81
452.648	1154.81
452.869	1082.81
453.089	1111.81
453.31	1137.81
453.53	1089.81
453.751	1102.81
453.971	1108.81
454.192	1127.81
454.412	1056.81
454.633	1119.81
454.853	1098.81
455.073	1076.81
455.294	1118.81
455.514	1094.81
455.734	1128.81
455.955	1077.81
456.175	1095.81
456.395	1071.81
456.616	1103.81
456.836	1113.81
457.056	1099.81
457.276	1081.81
457.497	1089.81
457.717	1111.81
457.937	1116.81
458.157	1139.81
458.377	1167.81
458.598	1209.81
458.818	1172.81
459.038	1221.81
459.258	1187.81
459.478	1228.81
459.698	1249.81
459.918	1285.81
460.138	1267.81
460.358	1339.81
460.578	1342.81
460.798	1329.81
461.018	1380.81
461.238	1357.81
461.458	1379.81
461.678	1393.81
461.898	1399.81
462.118	1389.81
462.338	1427.81
462.558	1435.81
462.777	1480.81
462.997	1555.81
463.217	1556.81
463.437	1576.81
463.657	1549.81
463.876	1570.81
464.096	1522.81
464.316	1509.81
464.536	1479.81
464.755	1433.81
464.975	1479.81
465.195	1413.81
465.414	1379.81
465.634	1338.81
465.854	1295.81
466.073	1268.81
466.293	1276.81
466.512	1249.81
466.732	1239.81
466.951	1235.81
467.171	1220.81
467.391	1208.81
467.61	1207.81
467.829	1203.81
468.049	1206.81
468.268	1184.81
468.488	1187.81
468.707	1223.81
468.927	1217.81
469.146	1232.81
469.365	1203.81
469.585	1216.81
469.804	1218.81
470.023	1260.81
470.243	1215.81
470.462	1256.81
470.681	1247.81
470.901	1235.81
471.12	1219.81
471.339	1210.81
471.558	1237.81
471.777	1269.81
471.997	1223.81
472.216	1254.81
472.435	1232.81
472.654	1232.81
472.873	1194.81
473.092	1193.81
473.311	1217.81
473.53	1184.81
473.749	1213.81
473.968	1215.81
474.187	1187.81
474.406	1191.81
474.625	1246.81
474.844	1227.81
475.063	1235.81
475.282	1269.81
475.501	1235.81
475.72	1263.81
475.939	1245.81
476.158	1267.81
476.377	1280.81
476.596	1292.81
476.814	1376.81
477.033	1337.81
477.252	1323.81
477.471	1317.81
477.69	1329.81
477.908	1361.81
478.127	1396.81
478.346	1382.81
478.564	1373.81
478.783	1406.81
479.002	1408.81
479.22	1433.81
479.439	1495.81
479.658	1453.81
479.876	1439.81
480.095	1459.81
480.313	1498.81
480.532	1487.81
480.751	1468.81
480.969	1468.81
481.188	1457.81
481.406	1427.81
481.624	1487.81
481.843	1500.81
482.061	1427.81
482.28	1453.81
482.498	1442.81
482.717	1442.81
482.935	1440.81
483.153	1419.81
483.372	1442.81
483.59	1437.81
483.808	1410.81
484.027	1424.81
484.245	1481.81
484.463	1430.81
484.681	1491.81
484.9	1480.81
485.118	1480.81
485.336	1440.81
485.554	1460.81
485.772	1495.81
485.99	1473.81
486.209	1490.81
486.427	1452.81
486.645	1460.81
486.863	1477.81
487.081	1502.81
487.299	1475.81
487.517	1485.81
487.735	1480.81
487.953	1487.81
488.171	1453.81
488.389	1457.81
488.607	1460.81
488.825	1476.81
489.043	1498.81
489.261	1490.81
489.479	1477.81
489.696	1506.81
489.914	1507.81
490.132	1472.81
490.35	1477.81
490.568	1510.81
490.786	1479.81
491.003	1498.81
491.221	1503.81
491.439	1522.81
491.657	1492.81
491.874	1486.81
492.092	1505.81
492.31	1557.81
492.527	1484.81
492.745	1533.81
492.963	1561.81
493.18	1531.81
493.398	1549.81
493.615	1540.81
493.833	1539.81
494.05	1537.81
494.268	1554.81
494.485	1539.81
494.703	1583.81
494.92	1556.81
495.138	1562.81
495.355	1611.81
495.573	1594.81
495.79	1589.81
496.008	1592.81
496.225	1586.81
496.442	1657.81
496.66	1615.81
496.877	1676.81
497.094	1662.81
497.312	1708.81
497.529	1689.81
497.746	1735.81
497.963	1764.81
498.181	1855.81
498.398	1860.81
498.615	1922.81
498.832	2025.81
499.049	2091.81
499.267	2147.81
499.484	2245.81
499.701	2371.81
499.918	2477.81
500.135	2606.81
500.352	2719.81
500.569	2789.81
500.786	2756.81
501.003	2706.81
501.22	2653.81
501.437	2487.81
501.654	2335.81
501.871	2264.81
502.088	2177.81
502.305	2111.81
502.522	1984.81
502.739	1946.81
502.956	1882.81
503.172	1817.81
503.389	1785.81
503.606	1720.81
503.823	1724.81
504.04	1699.81
504.256	1662.81
504.473	1686.81
504.69	1679.81
504.907	1652.81
505.123	1596.81
505.34	1604.81
505.557	1508.81
505.773	1507.81
505.99	1485.81
506.207	1426.81
506.423	1441.81
506.64	1435.81
506.856	1391.81
507.073	1407.81
507.289	1370.81
507.506	1323.81
507.722	1333.81
507.939	1367.81
508.155	1360.81
508.372	1351.81
508.588	1315.81
508.805	1338.81
509.021	1289.81
509.238	1265.81
509.454	1261.81
509.67	1247.81
509.887	1254.81
510.103	1222.81
510.319	1252.81
510.536	1245.81
510.752	1247.81
510.968	1234.81
511.184	1219.81
511.401	1217.81
511.617	1233.81
511.833	1218.81
512.049	1197.81
512.265	1223.81
512.481	1225.81
512.698	1248.81
512.914	1220.81
513.13	1228.81
513.346	1204.81
513.562	1228.81
513.778	1247.81
513.994	1221.81
514.21	1213.81
514.426	1203.81
514.642	1234.81
514.858	1250.81
515.074	1261.81
515.29	1261.81
515.506	1248.81
515.721	1267.81
515.937	1261.81
516.153	1287.81
516.369	1315.81
516.585	1295.81
516.801	1323.81
517.016	1356.81
517.232	1381.81
517.448	1383.81
517.664	1409.81
517.879	1407.81
518.095	1365.81
518.311	1411.81
518.527	1359.81
518.742	1353.81
518.958	1349.81
519.173	1275.81
519.389	1293.81
519.605	1278.81
519.82	1318.81
520.036	1288.81
520.251	1281.81
520.467	1233.81
520.682	1197.81
520.898	1207.81
521.113	1198.81
521.329	1209.81
521.544	1157.81
521.76	1160.81
521.975	1153.81
522.19	1124.81
522.406	1172.81
522.621	1178.81
522.836	1156.81
523.052	1154.81
523.267	1104.81
523.482	1129.81
523.698	1125.81
523.913	1134.81
524.128	1097.81
524.343	1101.81
524.559	1072.81
524.774	1091.81
524.989	1115.81
525.204	1128.81
525.419	1099.81
525.634	1100.81
525.849	1083.81
526.064	1098.81
526.28	1106.81
526.495	1086.81
526.71	1076.81
526.925	1101.81
527.14	1078.81
527.355	1089.81
527.57	1064.81
527.785	1066.81
527.999	1100.81
528.214	1092.81
528.429	1052.81
528.644	1079.81
528.859	1068.81
529.074	1047.81
529.289	1058.81
529.503	1037.81
529.718	1028.81
529.933	1037.81
530.148	1067.81
530.363	1061.81
530.577	1034.81
530.792	1013.81
531.007	1047.81
531.221	1034.81
531.436	1031.81
531.651	1053.81
531.865	1060.81
532.08	1061.81
532.295	1040.81
532.509	1027.81
532.724	1027.81
532.938	1068.81
533.153	1026.81
533.367	1015.81
533.582	1029.81
533.796	1029.81
534.011	1038.81
534.225	1026.81
534.44	1019.81
534.654	995.81
534.868	1007.81
535.083	1008.81
535.297	1019.81
535.511	997.81
535.726	1000.81
535.94	989.81
536.154	971.81
536.369	977.81
536.583	983.81
536.797	987.81
537.011	961.81
537.225	982.81
537.44	974.81
537.654	976.81
537.868	993.81
538.082	952.81
538.296	959.81
538.51	951.81
538.724	956.81
538.938	951.81
539.153	936.81
539.367	949.81
539.581	961.81
539.795	945.81
540.009	956.81
540.222	959.81
540.436	931.81
540.65	946.81
540.864	926.81
541.078	941.81
541.292	944.81
541.506	939.81
541.72	942.81
541.934	941.81
542.147	970.81
542.361	954.81
542.575	957.81
542.789	938.81
543.002	920.81
543.216	947.81
543.43	959.81
543.644	927.81
543.857	935.81
544.071	933.81
544.285	947.81
544.498	928.81
544.712	927.81
544.925	933.81
545.139	922.81
545.352	932.81
545.566	952.81
545.779	951.81
545.993	971.81
546.206	975.81
546.42	945.81
546.633	962.81
546.847	928.81
547.06	951.81
547.274	957.81
547.487	921.81
547.7	919.81
547.914	933.81
548.127	972.81
548.34	951.81
548.554	927.81
548.767	936.81
548.98	907.81
549.193	937.81
549.407	919.81
549.62	951.81
549.833	961.81
550.046	940.81
550.259	980.81
550.473	932.81
550.686	972.81
550.899	938.81
551.112	951.81
551.325	949.81
551.538	959.81
551.751	916.81
551.964	901.81
552.177	928.81
552.39	931.81
552.603	932.81
552.816	964.81
553.029	948.81
553.242	939.81
553.455	935.81
553.667	948.81
553.88	923.81
554.093	964.81
554.306	902.81
554.519	903.81
554.732	882.81
554.944	879.81
555.157	902.81
555.37	876.81
555.583	865.81
555.795	855.81
556.008	845.81
556.221	857.81
556.433	858.81
556.646	849.81
556.859	808.81
557.071	822.81
557.284	807.81
557.496	845.81
557.709	841.81
557.921	819.81
558.134	835.81
558.346	801.81
558.559	818.81
558.771	828.81
558.984	798.81
559.196	814.81
559.409	788.81
559.621	801.81
559.833	801.81
560.046	797.81
560.258	783.81
560.47	798.81
560.683	810.81
560.895	795.81
561.107	778.81
561.32	787.81
561.532	791.81
561.744	789.81
561.956	772.81
562.168	785.81
562.381	796.81
562.593	823.81
562.805	792.81
563.017	808.81
563.229	818.81
563.441	805.81
563.653	807.81
563.865	803.81
564.077	804.81
564.289	799.81
564.501	836.81
564.713	841.81
564.925	853.81
565.137	863.81
565.349	866.81
565.561	894.81
565.773	877.81
565.985	933.81
566.197	934.81
566.408	954.81
566.62	981.81
566.832	984.81
567.044	1023.81
567.255	1041.81
567.467	1043.81
567.679	1030.81
567.891	1043.81
568.102	1062.81
568.314	1025.81
568.526	995.81
568.737	968.81
568.949	921.81
569.161	899.81
569.372	852.81
569.584	824.81
569.795	836.81
570.007	816.81
570.218	793.81
570.43	807.81
570.641	769.81
570.853	780.81
571.064	774.81
571.276	747.81
571.487	732.81
571.698	698.81
571.91	695.81
572.121	688.81
572.333	700.81
572.544	693.81
572.755	680.81
572.966	680.81
573.178	675.81
573.389	649.81
573.6	626.81
573.811	649.81
574.023	625.81
574.234	642.81
574.445	644.81
574.656	620.81
574.867	623.81
575.078	635.81
575.289	649.81
575.501	641.81
575.712	595.81
575.923	625.81
576.134	646.81
576.345	625.81
576.556	605.81
576.767	577.81
576.978	582.81
577.188	613.81
577.399	591.81
577.61	595.81
577.821	588.81
578.032	589.81
578.243	566.81
578.454	592.81
578.665	576.81
578.875	585.81
579.086	579.81
579.297	551.81
579.508	563.81
579.718	573.81
579.929	561.81
580.14	552.81
580.35	550.81
580.561	539.81
580.772	563.81
580.982	549.81
581.193	557.81
581.403	559.81
581.614	540.81
581.825	543.81
582.035	527.81
582.246	549.81
582.456	520.81
582.667	530.81
582.877	517.81
583.087	528.81
583.298	519.81
583.508	529.81
583.719	519.81
583.929	543.81
584.139	513.81
584.35	548.81
584.56	526.81
584.77	525.81
584.981	527.81
585.191	502.81
585.401	505.81
585.611	526.81
585.821	529.81
586.032	516.81
586.242	531.81
586.452	521.81
586.662	540.81
586.872	515.81
587.082	511.81
587.292	508.81
587.502	503.81
587.713	524.81
587.923	506.81
588.133	490.81
588.343	525.81
588.553	504.81
588.762	519.81
588.972	522.81
589.182	544.81
589.392	538.81
589.602	532.81
589.812	533.81
590.022	530.81
590.232	519.81
590.441	505.81
590.651	512.81
590.861	506.81
591.071	537.81
591.281	521.81
591.49	512.81
591.7	508.81
591.91	517.81
592.119	522.81
592.329	528.81
592.539	523.81
592.748	554.81
592.958	551.81
593.167	544.81
593.377	544.81
593.587	537.81
593.796	540.81
594.006	547.81
594.215	543.81
594.424	548.81
594.634	534.81
594.843	531.81
595.053	530.81
595.262	539.81
595.472	503.81
595.681	485.81
595.89	503.81
596.1	499.81
596.309	487.81
596.518	489.81
596.727	472.81
596.937	474.81
597.146	461.81
597.355	460.81
597.564	452.81
597.774	453.81
597.983	454.81
598.192	461.81
598.401	449.81
598.61	451.81
598.819	433.81
599.028	438.81
599.237	419.81
599.446	417.81
599.655	432.81
599.864	403.81
600.073	443.81
600.282	420.81
600.491	412.81
600.7	391.81
600.909	421.81
601.118	426.81
601.327	413.81
601.536	421.81
601.745	406.81
601.953	433.81
602.162	413.81
602.371	395.81
602.58	408.81
602.789	407.81
602.997	402.81
603.206	413.81
603.415	423.81
603.623	410.81
603.832	395.81
604.041	390.81
604.249	390.81
604.458	419.81
604.666	379.81
604.875	396.81
605.084	394.81
605.292	393.81
605.501	377.81
605.709	398.81
605.918	379.81
606.126	387.81
606.334	375.81
606.543	377.81
606.751	381.81
606.96	384.81
607.168	383.81
607.376	376.81
607.585	375.81
607.793	400.81
608.001	386.81
608.21	395.81
608.418	378.81
608.626	392.81
608.834	381.81
609.043	379.81
609.251	377.81
609.459	371.81
609.667	380.81
609.875	373.81
610.083	350.81
610.291	385.81
610.499	387.81
610.707	375.81
610.916	373.81
611.124	373.81
611.332	359.81
611.54	380.81
611.748	373.81
611.955	360.81
612.163	377.81
612.371	355.81
612.579	375.81
612.787	371.81
612.995	371.81
613.203	345.81
613.411	363.81
613.618	363.81
613.826	355.81
614.034	367.81
614.242	363.81
614.449	352.81
614.657	367.81
614.865	365.81
615.072	363.81
615.28	360.81
615.488	359.81
615.695	354.81
615.903	343.81
616.111	372.81
616.318	355.81
616.526	362.81
616.733	354.81
616.941	327.81
617.148	362.81
617.356	365.81
617.563	350.81
617.771	348.81
617.978	356.81
618.185	356.81
618.393	349.81
618.6	349.81
618.807	342.81
619.015	340.81
619.222	355.81
619.429	347.81
619.637	336.81
619.844	332.81
620.051	316.81
620.258	348.81
620.466	319.81
620.673	301.81
620.88	314.81
621.087	346.81
621.294	336.81
621.501	339.81
621.708	323.81
621.915	325.81
622.122	348.81
622.329	312.81
622.536	333.81
622.743	327.81
622.95	311.81
623.157	340.81
623.364	312.81
623.571	343.81
623.778	305.81
623.985	335.81
624.192	325.81
624.399	315.81
624.606	324.81
624.812	332.81
625.019	300.81
625.226	313.81
625.433	311.81
625.639	313.81
625.846	305.81
626.053	298.81
626.259	299.81
626.466	289.81
626.673	305.81
626.879	296.81
627.086	298.81
627.293	315.81
627.499	311.81
627.706	301.81
627.912	303.81
628.119	296.81
628.325	295.81
628.532	300.81
628.738	304.81
628.945	286.81
629.151	324.81
629.357	305.81
629.564	287.81
629.77	296.81
629.976	282.81
630.183	293.81
630.389	287.81
630.595	284.81
630.802	290.81
631.008	283.81
631.214	281.81
631.42	274.81
631.627	291.81
631.833	264.81
632.039	281.81
632.245	270.81
632.451	267.81
632.657	284.81
632.863	272.81
633.069	271.81
633.275	275.81
633.481	268.81
633.688	290.81
633.893	285.81
634.099	295.81
634.305	266.81
634.511	275.81
634.717	283.81
634.923	260.81
635.129	275.81
635.335	268.81
635.541	263.81
635.747	275.81
635.952	256.81
636.158	282.81
636.364	259.81
636.57	268.81
636.775	265.81
636.981	260.81
637.187	237.81
637.392	253.81
637.598	248.81
637.804	278.81
638.009	268.81
638.215	269.81
638.421	265.81
638.626	258.81
638.832	249.81
639.037	240.81
639.243	265.81
639.448	248.81
639.654	265.81
639.859	244.81
640.065	269.81
640.27	252.81
640.475	259.81
640.681	245.81
640.886	251.81
641.091	251.81
641.297	250.81
641.502	259.81
641.707	268.81
641.913	255.81
642.118	243.81
642.323	244.81
642.528	269.81
642.733	249.81
642.939	242.81
643.144	245.81
643.349	261.81
643.554	268.81
643.759	248.81
643.964	248.81
644.169	256.81
644.374	244.81
644.579	257.81
644.784	251.81
644.989	244.81
645.194	260.81
645.399	263.81
645.604	252.81
645.809	252.81
646.014	244.81
646.219	241.81
646.423	240.81
646.628	258.81
646.833	255.81
647.038	263.81
647.243	250.81
647.447	248.81
647.652	260.81
647.857	247.81
648.062	255.81
648.266	261.81
648.471	275.81
648.676	256.81
648.88	255.81
649.085	261.81
649.289	263.81
649.494	254.81
649.698	260.81
649.903	233.81
650.107	253.81
650.312	265.81
650.516	239.81
650.721	236.81
650.925	253.81
651.13	239.81
651.334	242.81
651.539	232.81
651.743	243.81
651.947	239.81
652.152	242.81
652.356	232.81
652.56	225.81
652.764	233.81
652.969	235.81
653.173	221.81
653.377	220.81
653.581	224.81
653.785	240.81
653.99	236.81
654.194	228.81
654.398	228.81
654.602	215.81
654.806	212.81
655.01	222.81
655.214	242.81
655.418	243.81
655.622	247.81
655.826	222.81
656.03	239.81
656.234	231.81
656.438	252.81
656.642	243.81
656.846	218.81
657.049	214.81
657.253	227.81
657.457	198.81
657.661	195.81
657.865	167.81
658.068	163.81
658.272	183.81
658.476	161.81
658.68	152.81
658.883	138.81
659.087	149.81
659.291	127.81
659.494	139.81
659.698	129.81
659.901	139.81
660.105	121.81
660.309	121.81
660.512	121.81
660.716	114.81
660.919	119.81
661.123	109.81
661.326	107.81
661.53	117.81
661.733	115.81
661.936	98.81
662.14	96.81
662.343	97.81
662.546	97.81
662.75	75.81
662.953	101.81
663.156	77.81
663.36	84.81
663.563	80.81
663.766	84.81
663.969	80.81
664.173	67.81
664.376	81.81
664.579	88.81
664.782	79.81
664.985	82.81
665.188	79.81
665.391	74.81
665.594	83.81
665.797	88.81
666	70.81
666.203	79.81
666.406	81.81
666.609	89.81
666.812	85.81
667.015	89.81
667.218	79.81
667.421	88.81
667.624	90.81
667.827	81.81
668.03	72.81
668.232	68.81
668.435	81.81
668.638	65.81
668.841	76.81
669.043	86.81
669.246	70.81
669.449	93.81
669.651	73.81
669.854	66.81
670.057	84.81
670.259	83.81
670.462	88.81
670.665	73.81
670.867	97.81
671.07	80.81
671.272	71.81
671.475	73.81
671.677	81.81
671.88	84.81
672.082	80.81
672.284	71.81
672.487	86.81
672.689	89.81
672.892	84.81
