Data from Fe(NO3)3@0.0125M.TitratingCurve.Agarose3%dH2O.NegLispCup.LampEnergy10.LIBS07252019_HRD10591_17-00-43-337.txt Node
Date: Thu Jul 25 17:00:43 EDT 2019
User: cochatt
Spectrometer: HR+D1059
Trigger mode: 1
Integration Time (sec): 1.000000E-1
Scans to average: 1
Electric dark correction enabled: true
Nonlinearity correction enabled: false
Boxcar width: 0
XAxis mode: Wavelengths
Number of Pixels in Spectrum: 2048
>>>>>Begin Spectral Data<<<<<
223.165	-24.12
223.4	-24.12
223.635	-24.12
223.869	-7.12
224.104	-18.12
224.338	-18.12
224.573	-13.12
224.808	-11.12
225.042	-11.12
225.277	2.88
225.511	-2.12
225.746	2.88
225.98	3.88
226.215	27.88
226.449	7.88
226.683	17.88
226.918	14.88
227.152	26.88
227.387	32.88
227.621	38.88
227.856	48.88
228.09	57.88
228.324	46.88
228.559	60.88
228.793	50.88
229.027	73.88
229.262	75.88
229.496	87.88
229.73	94.88
229.964	81.88
230.199	101.88
230.433	90.88
230.667	101.88
230.901	93.88
231.136	102.88
231.37	85.88
231.604	86.88
231.838	90.88
232.072	111.88
232.306	108.88
232.541	109.88
232.775	97.88
233.009	104.88
233.243	106.88
233.477	101.88
233.711	89.88
233.945	108.88
234.179	103.88
234.413	102.88
234.647	106.88
234.881	116.88
235.115	97.88
235.349	97.88
235.583	118.88
235.817	109.88
236.051	122.88
236.285	109.88
236.519	105.88
236.753	114.88
236.987	114.88
237.221	103.88
237.455	101.88
237.689	107.88
237.922	117.88
238.156	114.88
238.39	109.88
238.624	118.88
238.858	116.88
239.091	112.88
239.325	108.88
239.559	99.88
239.793	104.88
240.027	111.88
240.26	117.88
240.494	127.88
240.728	120.88
240.961	110.88
241.195	128.88
241.429	106.88
241.662	131.88
241.896	115.88
242.13	126.88
242.363	124.88
242.597	119.88
242.83	118.88
243.064	119.88
243.298	116.88
243.531	127.88
243.765	141.88
243.998	118.88
244.232	119.88
244.465	132.88
244.699	118.88
244.932	126.88
245.166	122.88
245.399	120.88
245.633	109.88
245.866	128.88
246.099	123.88
246.333	136.88
246.566	125.88
246.8	138.88
247.033	115.88
247.266	128.88
247.5	134.88
247.733	126.88
247.966	119.88
248.2	131.88
248.433	130.88
248.666	156.88
248.899	142.88
249.133	140.88
249.366	143.88
249.599	153.88
249.832	129.88
250.066	137.88
250.299	123.88
250.532	135.88
250.765	134.88
250.998	150.88
251.231	136.88
251.465	144.88
251.698	132.88
251.931	131.88
252.164	130.88
252.397	143.88
252.63	131.88
252.863	156.88
253.096	137.88
253.329	136.88
253.562	144.88
253.795	132.88
254.028	153.88
254.261	154.88
254.494	136.88
254.727	150.88
254.96	162.88
255.193	155.88
255.426	142.88
255.659	144.88
255.892	138.88
256.124	130.88
256.357	145.88
256.59	170.88
256.823	159.88
257.056	152.88
257.289	162.88
257.521	146.88
257.754	159.88
257.987	166.88
258.22	148.88
258.452	149.88
258.685	151.88
258.918	171.88
259.151	171.88
259.383	162.88
259.616	171.88
259.849	150.88
260.081	166.88
260.314	180.88
260.547	167.88
260.779	154.88
261.012	182.88
261.244	173.88
261.477	166.88
261.71	163.88
261.942	176.88
262.175	168.88
262.407	158.88
262.64	165.88
262.872	184.88
263.105	188.88
263.337	180.88
263.57	183.88
263.802	169.88
264.035	159.88
264.267	165.88
264.499	162.88
264.732	176.88
264.964	164.88
265.197	178.88
265.429	156.88
265.661	167.88
265.894	166.88
266.126	175.88
266.358	158.88
266.591	180.88
266.823	171.88
267.055	183.88
267.287	191.88
267.52	175.88
267.752	174.88
267.984	167.88
268.216	171.88
268.448	167.88
268.681	180.88
268.913	187.88
269.145	177.88
269.377	172.88
269.609	191.88
269.841	200.88
270.073	176.88
270.306	195.88
270.538	190.88
270.77	193.88
271.002	193.88
271.234	185.88
271.466	208.88
271.698	191.88
271.93	187.88
272.162	182.88
272.394	190.88
272.626	181.88
272.858	183.88
273.09	202.88
273.322	184.88
273.553	201.88
273.785	206.88
274.017	216.88
274.249	233.88
274.481	208.88
274.713	221.88
274.945	225.88
275.176	222.88
275.408	222.88
275.64	221.88
275.872	221.88
276.104	205.88
276.335	202.88
276.567	196.88
276.799	196.88
277.031	216.88
277.262	215.88
277.494	211.88
277.726	197.88
277.957	198.88
278.189	200.88
278.421	216.88
278.652	228.88
278.884	235.88
279.115	195.88
279.347	209.88
279.579	213.88
279.81	202.88
280.042	211.88
280.273	221.88
280.505	199.88
280.736	191.88
280.968	200.88
281.199	213.88
281.431	218.88
281.662	212.88
281.894	222.88
282.125	216.88
282.356	220.88
282.588	216.88
282.819	222.88
283.051	217.88
283.282	237.88
283.513	243.88
283.745	223.88
283.976	205.88
284.207	208.88
284.439	224.88
284.67	221.88
284.901	231.88
285.132	220.88
285.364	202.88
285.595	238.88
285.826	223.88
286.057	237.88
286.288	216.88
286.52	233.88
286.751	222.88
286.982	210.88
287.213	236.88
287.444	227.88
287.675	250.88
287.906	225.88
288.138	250.88
288.369	245.88
288.6	243.88
288.831	235.88
289.062	251.88
289.293	244.88
289.524	221.88
289.755	235.88
289.986	244.88
290.217	239.88
290.448	242.88
290.679	238.88
290.91	235.88
291.141	236.88
291.371	239.88
291.602	238.88
291.833	234.88
292.064	239.88
292.295	232.88
292.526	260.88
292.757	242.88
292.987	238.88
293.218	253.88
293.449	239.88
293.68	247.88
293.91	223.88
294.141	236.88
294.372	240.88
294.603	246.88
294.833	226.88
295.064	247.88
295.295	258.88
295.525	235.88
295.756	263.88
295.987	247.88
296.217	249.88
296.448	232.88
296.679	248.88
296.909	243.88
297.14	268.88
297.37	248.88
297.601	266.88
297.831	268.88
298.062	251.88
298.292	264.88
298.523	251.88
298.753	268.88
298.984	246.88
299.214	266.88
299.445	263.88
299.675	268.88
299.905	274.88
300.136	275.88
300.366	254.88
300.597	252.88
300.827	271.88
301.057	255.88
301.288	277.88
301.518	270.88
301.748	266.88
301.979	277.88
302.209	272.88
302.439	280.88
302.669	276.88
302.9	266.88
303.13	265.88
303.36	274.88
303.59	275.88
303.82	282.88
304.051	265.88
304.281	278.88
304.511	272.88
304.741	281.88
304.971	280.88
305.201	267.88
305.431	271.88
305.661	284.88
305.891	282.88
306.121	291.88
306.352	283.88
306.582	282.88
306.812	288.88
307.042	280.88
307.272	267.88
307.502	278.88
307.731	289.88
307.961	290.88
308.191	265.88
308.421	275.88
308.651	271.88
308.881	278.88
309.111	281.88
309.341	278.88
309.571	282.88
309.8	283.88
310.03	283.88
310.26	277.88
310.49	296.88
310.72	281.88
310.949	295.88
311.179	285.88
311.409	271.88
311.639	281.88
311.868	289.88
312.098	281.88
312.328	291.88
312.557	281.88
312.787	290.88
313.017	286.88
313.246	290.88
313.476	285.88
313.706	288.88
313.935	294.88
314.165	308.88
314.394	271.88
314.624	296.88
314.853	295.88
315.083	312.88
315.312	304.88
315.542	293.88
315.771	306.88
316.001	310.88
316.23	318.88
316.46	313.88
316.689	307.88
316.919	298.88
317.148	303.88
317.377	302.88
317.607	339.88
317.836	315.88
318.065	303.88
318.295	311.88
318.524	290.88
318.753	290.88
318.983	304.88
319.212	316.88
319.441	297.88
319.67	301.88
319.9	309.88
320.129	315.88
320.358	329.88
320.587	321.88
320.816	302.88
321.046	308.88
321.275	318.88
321.504	297.88
321.733	306.88
321.962	316.88
322.191	308.88
322.42	295.88
322.649	318.88
322.878	311.88
323.108	327.88
323.337	316.88
323.566	330.88
323.795	331.88
324.024	322.88
324.253	331.88
324.482	343.88
324.71	349.88
324.939	343.88
325.168	329.88
325.397	320.88
325.626	326.88
325.855	333.88
326.084	347.88
326.313	332.88
326.542	317.88
326.77	333.88
326.999	331.88
327.228	331.88
327.457	323.88
327.686	338.88
327.914	332.88
328.143	317.88
328.372	335.88
328.6	342.88
328.829	334.88
329.058	340.88
329.287	322.88
329.515	322.88
329.744	338.88
329.972	353.88
330.201	336.88
330.43	344.88
330.658	333.88
330.887	344.88
331.115	363.88
331.344	350.88
331.572	347.88
331.801	359.88
332.03	349.88
332.258	353.88
332.486	360.88
332.715	349.88
332.943	362.88
333.172	371.88
333.4	374.88
333.629	359.88
333.857	366.88
334.085	366.88
334.314	346.88
334.542	375.88
334.771	378.88
334.999	363.88
335.227	374.88
335.455	376.88
335.684	408.88
335.912	377.88
336.14	363.88
336.369	377.88
336.597	382.88
336.825	390.88
337.053	375.88
337.281	378.88
337.51	375.88
337.738	352.88
337.966	366.88
338.194	370.88
338.422	370.88
338.65	357.88
338.878	379.88
339.106	355.88
339.334	370.88
339.562	354.88
339.79	382.88
340.018	356.88
340.246	356.88
340.474	362.88
340.702	359.88
340.93	354.88
341.158	360.88
341.386	341.88
341.614	356.88
341.842	365.88
342.07	343.88
342.298	362.88
342.526	364.88
342.754	357.88
342.981	363.88
343.209	371.88
343.437	379.88
343.665	371.88
343.893	383.88
344.12	375.88
344.348	371.88
344.576	370.88
344.804	370.88
345.031	379.88
345.259	367.88
345.487	362.88
345.714	353.88
345.942	360.88
346.17	349.88
346.397	378.88
346.625	346.88
346.853	383.88
347.08	342.88
347.308	359.88
347.535	342.88
347.763	368.88
347.99	361.88
348.218	351.88
348.445	334.88
348.673	359.88
348.9	351.88
349.128	370.88
349.355	366.88
349.583	363.88
349.81	351.88
350.037	330.88
350.265	339.88
350.492	353.88
350.72	350.88
350.947	346.88
351.174	324.88
351.402	337.88
351.629	349.88
351.856	361.88
352.083	344.88
352.311	345.88
352.538	360.88
352.765	342.88
352.992	342.88
353.22	357.88
353.447	332.88
353.674	334.88
353.901	346.88
354.128	335.88
354.355	347.88
354.583	328.88
354.81	348.88
355.037	352.88
355.264	348.88
355.491	336.88
355.718	387.88
355.945	341.88
356.172	357.88
356.399	355.88
356.626	340.88
356.853	365.88
357.08	343.88
357.307	355.88
357.534	354.88
357.761	346.88
357.988	349.88
358.215	355.88
358.441	367.88
358.668	345.88
358.895	348.88
359.122	352.88
359.349	349.88
359.576	351.88
359.802	357.88
360.029	358.88
360.256	355.88
360.483	363.88
360.709	369.88
360.936	370.88
361.163	360.88
361.39	340.88
361.616	347.88
361.843	358.88
362.07	367.88
362.296	374.88
362.523	357.88
362.749	357.88
362.976	347.88
363.203	358.88
363.429	354.88
363.656	361.88
363.882	360.88
364.109	352.88
364.335	353.88
364.562	336.88
364.788	364.88
365.015	359.88
365.241	365.88
365.468	341.88
365.694	378.88
365.92	372.88
366.147	349.88
366.373	361.88
366.599	372.88
366.826	356.88
367.052	372.88
367.278	378.88
367.505	382.88
367.731	374.88
367.957	362.88
368.184	373.88
368.41	359.88
368.636	368.88
368.862	355.88
369.089	360.88
369.315	364.88
369.541	361.88
369.767	388.88
369.993	356.88
370.219	367.88
370.445	376.88
370.672	362.88
370.898	373.88
371.124	390.88
371.35	405.88
371.576	363.88
371.802	364.88
372.028	393.88
372.254	367.88
372.48	392.88
372.706	386.88
372.932	380.88
373.158	388.88
373.384	394.88
373.61	379.88
373.835	402.88
374.061	395.88
374.287	391.88
374.513	392.88
374.739	389.88
374.965	387.88
375.191	389.88
375.416	382.88
375.642	381.88
375.868	391.88
376.094	387.88
376.319	379.88
376.545	386.88
376.771	410.88
376.997	374.88
377.222	370.88
377.448	370.88
377.674	380.88
377.899	376.88
378.125	388.88
378.35	383.88
378.576	395.88
378.802	375.88
379.027	377.88
379.253	386.88
379.478	379.88
379.704	358.88
379.929	396.88
380.155	378.88
380.38	386.88
380.606	396.88
380.831	405.88
381.057	408.88
381.282	391.88
381.507	376.88
381.733	389.88
381.958	389.88
382.184	400.88
382.409	397.88
382.634	395.88
382.86	401.88
383.085	392.88
383.31	399.88
383.535	414.88
383.761	404.88
383.986	421.88
384.211	427.88
384.436	412.88
384.662	392.88
384.887	414.88
385.112	415.88
385.337	415.88
385.562	423.88
385.787	434.88
386.013	430.88
386.238	442.88
386.463	429.88
386.688	452.88
386.913	428.88
387.138	414.88
387.363	432.88
387.588	420.88
387.813	438.88
388.038	436.88
388.263	438.88
388.488	429.88
388.713	438.88
388.938	422.88
389.163	435.88
389.387	440.88
389.612	410.88
389.837	438.88
390.062	431.88
390.287	427.88
390.512	460.88
390.736	430.88
390.961	435.88
391.186	436.88
391.411	446.88
391.636	460.88
391.86	450.88
392.085	440.88
392.31	451.88
392.534	431.88
392.759	469.88
392.984	448.88
393.208	470.88
393.433	466.88
393.658	459.88
393.882	440.88
394.107	429.88
394.331	458.88
394.556	440.88
394.78	437.88
395.005	448.88
395.229	466.88
395.454	467.88
395.678	460.88
395.903	447.88
396.127	453.88
396.352	466.88
396.576	462.88
396.801	489.88
397.025	479.88
397.249	470.88
397.474	472.88
397.698	491.88
397.922	500.88
398.147	470.88
398.371	477.88
398.595	511.88
398.82	493.88
399.044	515.88
399.268	532.88
399.492	546.88
399.717	540.88
399.941	555.88
400.165	550.88
400.389	542.88
400.613	551.88
400.837	532.88
401.062	518.88
401.286	514.88
401.51	512.88
401.734	504.88
401.958	506.88
402.182	503.88
402.406	517.88
402.63	504.88
402.854	506.88
403.078	512.88
403.302	507.88
403.526	510.88
403.75	506.88
403.974	520.88
404.198	500.88
404.422	504.88
404.645	526.88
404.869	524.88
405.093	520.88
405.317	536.88
405.541	512.88
405.765	530.88
405.988	520.88
406.212	546.88
406.436	547.88
406.66	535.88
406.883	525.88
407.107	563.88
407.331	564.88
407.555	589.88
407.778	576.88
408.002	572.88
408.226	581.88
408.449	559.88
408.673	573.88
408.896	575.88
409.12	541.88
409.344	550.88
409.567	538.88
409.791	552.88
410.014	546.88
410.238	547.88
410.461	534.88
410.685	540.88
410.908	550.88
411.132	548.88
411.355	542.88
411.578	517.88
411.802	537.88
412.025	522.88
412.249	519.88
412.472	513.88
412.695	524.88
412.919	504.88
413.142	526.88
413.365	540.88
413.589	522.88
413.812	502.88
414.035	525.88
414.258	517.88
414.482	508.88
414.705	507.88
414.928	509.88
415.151	512.88
415.374	492.88
415.597	496.88
415.821	490.88
416.044	483.88
416.267	485.88
416.49	495.88
416.713	511.88
416.936	482.88
417.159	462.88
417.382	495.88
417.605	481.88
417.828	505.88
418.051	487.88
418.274	482.88
418.497	476.88
418.72	519.88
418.943	490.88
419.166	486.88
419.389	536.88
419.611	525.88
419.834	493.88
420.057	505.88
420.28	503.88
420.503	475.88
420.726	491.88
420.948	479.88
421.171	493.88
421.394	479.88
421.617	490.88
421.839	495.88
422.062	478.88
422.285	488.88
422.507	503.88
422.73	502.88
422.953	478.88
423.175	488.88
423.398	486.88
423.621	493.88
423.843	482.88
424.066	493.88
424.288	476.88
424.511	467.88
424.733	494.88
424.956	459.88
425.178	463.88
425.401	480.88
425.623	466.88
425.846	484.88
426.068	500.88
426.291	487.88
426.513	502.88
426.735	491.88
426.958	508.88
427.18	481.88
427.402	458.88
427.625	467.88
427.847	467.88
428.069	467.88
428.292	493.88
428.514	467.88
428.736	464.88
428.958	467.88
429.181	462.88
429.403	467.88
429.625	463.88
429.847	484.88
430.069	476.88
430.292	483.88
430.514	462.88
430.736	486.88
430.958	495.88
431.18	479.88
431.402	509.88
431.624	486.88
431.846	466.88
432.068	490.88
432.29	495.88
432.512	490.88
432.734	507.88
432.956	488.88
433.178	466.88
433.4	480.88
433.622	473.88
433.844	473.88
434.066	477.88
434.287	467.88
434.509	460.88
434.731	466.88
434.953	480.88
435.175	479.88
435.397	490.88
435.618	487.88
435.84	471.88
436.062	456.88
436.284	463.88
436.505	446.88
436.727	478.88
436.949	464.88
437.17	455.88
437.392	464.88
437.614	461.88
437.835	450.88
438.057	468.88
438.278	454.88
438.5	464.88
438.721	451.88
438.943	470.88
439.165	466.88
439.386	466.88
439.608	461.88
439.829	463.88
440.05	454.88
440.272	500.88
440.493	477.88
440.715	477.88
440.936	476.88
441.158	476.88
441.379	478.88
441.6	484.88
441.822	495.88
442.043	477.88
442.264	479.88
442.486	452.88
442.707	477.88
442.928	469.88
443.149	482.88
443.371	464.88
443.592	495.88
443.813	484.88
444.034	493.88
444.255	495.88
444.476	482.88
444.698	514.88
444.919	506.88
445.14	580.88
445.361	544.88
445.582	495.88
445.803	485.88
446.024	476.88
446.245	491.88
446.466	479.88
446.687	477.88
446.908	460.88
447.129	452.88
447.35	452.88
447.571	451.88
447.792	435.88
448.013	460.88
448.234	461.88
448.455	443.88
448.675	447.88
448.896	444.88
449.117	439.88
449.338	445.88
449.559	442.88
449.779	448.88
450	438.88
450.221	416.88
450.442	427.88
450.662	439.88
450.883	450.88
451.104	455.88
451.324	447.88
451.545	456.88
451.766	448.88
451.986	440.88
452.207	436.88
452.428	455.88
452.648	450.88
452.869	440.88
453.089	421.88
453.31	426.88
453.53	451.88
453.751	415.88
453.971	423.88
454.192	432.88
454.412	427.88
454.633	423.88
454.853	435.88
455.073	440.88
455.294	436.88
455.514	412.88
455.734	407.88
455.955	436.88
456.175	418.88
456.395	436.88
456.616	434.88
456.836	427.88
457.056	433.88
457.276	428.88
457.497	441.88
457.717	426.88
457.937	427.88
458.157	450.88
458.377	423.88
458.598	460.88
458.818	436.88
459.038	466.88
459.258	451.88
459.478	464.88
459.698	465.88
459.918	480.88
460.138	479.88
460.358	485.88
460.578	494.88
460.798	492.88
461.018	494.88
461.238	495.88
461.458	498.88
461.678	511.88
461.898	524.88
462.118	512.88
462.338	519.88
462.558	548.88
462.777	533.88
462.997	532.88
463.217	562.88
463.437	555.88
463.657	518.88
463.876	547.88
464.096	546.88
464.316	538.88
464.536	528.88
464.755	530.88
464.975	521.88
465.195	515.88
465.414	489.88
465.634	480.88
465.854	488.88
466.073	494.88
466.293	484.88
466.512	470.88
466.732	480.88
466.951	465.88
467.171	471.88
467.391	472.88
467.61	461.88
467.829	468.88
468.049	470.88
468.268	487.88
468.488	455.88
468.707	457.88
468.927	476.88
469.146	476.88
469.365	475.88
469.585	468.88
469.804	481.88
470.023	456.88
470.243	466.88
470.462	485.88
470.681	472.88
470.901	472.88
471.12	465.88
471.339	462.88
471.558	485.88
471.777	458.88
471.997	481.88
472.216	485.88
472.435	452.88
472.654	485.88
472.873	476.88
473.092	470.88
473.311	461.88
473.53	472.88
473.749	468.88
473.968	464.88
474.187	464.88
474.406	471.88
474.625	474.88
474.844	492.88
475.063	477.88
475.282	501.88
475.501	472.88
475.72	503.88
475.939	492.88
476.158	491.88
476.377	511.88
476.596	492.88
476.814	505.88
477.033	521.88
477.252	501.88
477.471	515.88
477.69	531.88
477.908	500.88
478.127	511.88
478.346	544.88
478.564	543.88
478.783	550.88
479.002	543.88
479.22	550.88
479.439	552.88
479.658	550.88
479.876	531.88
480.095	558.88
480.313	554.88
480.532	540.88
480.751	561.88
480.969	551.88
481.188	557.88
481.406	572.88
481.624	562.88
481.843	566.88
482.061	543.88
482.28	555.88
482.498	556.88
482.717	569.88
482.935	558.88
483.153	574.88
483.372	572.88
483.59	564.88
483.808	550.88
484.027	528.88
484.245	568.88
484.463	548.88
484.681	572.88
484.9	587.88
485.118	573.88
485.336	560.88
485.554	568.88
485.772	575.88
485.99	578.88
486.209	574.88
486.427	555.88
486.645	570.88
486.863	566.88
487.081	595.88
487.299	589.88
487.517	603.88
487.735	592.88
487.953	585.88
488.171	590.88
488.389	559.88
488.607	588.88
488.825	557.88
489.043	548.88
489.261	579.88
489.479	593.88
489.696	578.88
489.914	598.88
490.132	589.88
490.35	569.88
490.568	575.88
490.786	574.88
491.003	579.88
491.221	580.88
491.439	592.88
491.657	585.88
491.874	615.88
492.092	600.88
492.31	584.88
492.527	598.88
492.745	590.88
492.963	591.88
493.18	599.88
493.398	587.88
493.615	591.88
493.833	598.88
494.05	599.88
494.268	609.88
494.485	616.88
494.703	592.88
494.92	599.88
495.138	632.88
495.355	632.88
495.573	634.88
495.79	620.88
496.008	615.88
496.225	654.88
496.442	632.88
496.66	619.88
496.877	640.88
497.094	642.88
497.312	644.88
497.529	661.88
497.746	679.88
497.963	695.88
498.181	690.88
498.398	713.88
498.615	742.88
498.832	745.88
499.049	788.88
499.267	808.88
499.484	840.88
499.701	832.88
499.918	847.88
500.135	892.88
500.352	920.88
500.569	919.88
500.786	966.88
501.003	900.88
501.22	903.88
501.437	848.88
501.654	831.88
501.871	806.88
502.088	759.88
502.305	749.88
502.522	747.88
502.739	713.88
502.956	701.88
503.172	695.88
503.389	695.88
503.606	659.88
503.823	659.88
504.04	653.88
504.256	648.88
504.473	646.88
504.69	629.88
504.907	612.88
505.123	593.88
505.34	595.88
505.557	587.88
505.773	573.88
505.99	581.88
506.207	581.88
506.423	555.88
506.64	566.88
506.856	551.88
507.073	570.88
507.289	548.88
507.506	540.88
507.722	539.88
507.939	546.88
508.155	542.88
508.372	548.88
508.588	516.88
508.805	536.88
509.021	537.88
509.238	525.88
509.454	495.88
509.67	503.88
509.887	512.88
510.103	511.88
510.319	515.88
510.536	536.88
510.752	504.88
510.968	534.88
511.184	491.88
511.401	498.88
511.617	508.88
511.833	517.88
512.049	511.88
512.265	523.88
512.481	504.88
512.698	501.88
512.914	517.88
513.13	534.88
513.346	503.88
513.562	514.88
513.778	524.88
513.994	500.88
514.21	515.88
514.426	486.88
514.642	504.88
514.858	506.88
515.074	516.88
515.29	522.88
515.506	527.88
515.721	518.88
515.937	516.88
516.153	516.88
516.369	538.88
516.585	551.88
516.801	523.88
517.016	547.88
517.232	559.88
517.448	552.88
517.664	562.88
517.879	552.88
518.095	553.88
518.311	585.88
518.527	552.88
518.742	554.88
518.958	538.88
519.173	551.88
519.389	520.88
519.605	527.88
519.82	525.88
520.036	535.88
520.251	496.88
520.467	516.88
520.682	503.88
520.898	522.88
521.113	516.88
521.329	501.88
521.544	472.88
521.76	509.88
521.975	493.88
522.19	488.88
522.406	494.88
522.621	505.88
522.836	474.88
523.052	495.88
523.267	458.88
523.482	471.88
523.698	477.88
523.913	458.88
524.128	477.88
524.343	486.88
524.559	478.88
524.774	472.88
524.989	475.88
525.204	489.88
525.419	476.88
525.634	480.88
525.849	459.88
526.064	476.88
526.28	444.88
526.495	482.88
526.71	482.88
526.925	479.88
527.14	442.88
527.355	462.88
527.57	474.88
527.785	449.88
527.999	464.88
528.214	468.88
528.429	481.88
528.644	478.88
528.859	462.88
529.074	478.88
529.289	463.88
529.503	445.88
529.718	468.88
529.933	461.88
530.148	477.88
530.363	477.88
530.577	470.88
530.792	471.88
531.007	449.88
531.221	465.88
531.436	451.88
531.651	482.88
531.865	462.88
532.08	459.88
532.295	443.88
532.509	442.88
532.724	456.88
532.938	459.88
533.153	459.88
533.367	462.88
533.582	459.88
533.796	477.88
534.011	439.88
534.225	452.88
534.44	446.88
534.654	475.88
534.868	438.88
535.083	448.88
535.297	443.88
535.511	436.88
535.726	453.88
535.94	439.88
536.154	436.88
536.369	420.88
536.583	457.88
536.797	434.88
537.011	439.88
537.225	442.88
537.44	448.88
537.654	441.88
537.868	429.88
538.082	446.88
538.296	429.88
538.51	409.88
538.724	421.88
538.938	433.88
539.153	437.88
539.367	406.88
539.581	444.88
539.795	442.88
540.009	425.88
540.222	436.88
540.436	416.88
540.65	450.88
540.864	422.88
541.078	417.88
541.292	437.88
541.506	447.88
541.72	446.88
541.934	431.88
542.147	435.88
542.361	436.88
542.575	444.88
542.789	414.88
543.002	410.88
543.216	418.88
543.43	426.88
543.644	430.88
543.857	416.88
544.071	414.88
544.285	424.88
544.498	443.88
544.712	426.88
544.925	413.88
545.139	426.88
545.352	433.88
545.566	442.88
545.779	445.88
545.993	427.88
546.206	437.88
546.42	434.88
546.633	441.88
546.847	443.88
547.06	438.88
547.274	423.88
547.487	437.88
547.7	442.88
547.914	426.88
548.127	441.88
548.34	426.88
548.554	405.88
548.767	458.88
548.98	432.88
549.193	437.88
549.407	433.88
549.62	431.88
549.833	454.88
550.046	422.88
550.259	422.88
550.473	424.88
550.686	450.88
550.899	422.88
551.112	433.88
551.325	418.88
551.538	440.88
551.751	407.88
551.964	438.88
552.177	433.88
552.39	417.88
552.603	431.88
552.816	443.88
553.029	436.88
553.242	429.88
553.455	420.88
553.667	426.88
553.88	441.88
554.093	443.88
554.306	423.88
554.519	438.88
554.732	398.88
554.944	414.88
555.157	418.88
555.37	423.88
555.583	418.88
555.795	407.88
556.008	400.88
556.221	414.88
556.433	405.88
556.646	409.88
556.859	391.88
557.071	390.88
557.284	406.88
557.496	404.88
557.709	391.88
557.921	381.88
558.134	379.88
558.346	390.88
558.559	376.88
558.771	388.88
558.984	379.88
559.196	361.88
559.409	363.88
559.621	390.88
559.833	399.88
560.046	368.88
560.258	386.88
560.47	390.88
560.683	387.88
560.895	377.88
561.107	392.88
561.32	378.88
561.532	395.88
561.744	384.88
561.956	343.88
562.168	370.88
562.381	378.88
562.593	401.88
562.805	391.88
563.017	370.88
563.229	402.88
563.441	357.88
563.653	386.88
563.865	384.88
564.077	368.88
564.289	398.88
564.501	386.88
564.713	390.88
564.925	399.88
565.137	385.88
565.349	389.88
565.561	410.88
565.773	397.88
565.985	399.88
566.197	401.88
566.408	431.88
566.62	427.88
566.832	452.88
567.044	447.88
567.255	441.88
567.467	451.88
567.679	416.88
567.891	442.88
568.102	418.88
568.314	438.88
568.526	423.88
568.737	407.88
568.949	387.88
569.161	413.88
569.372	392.88
569.584	368.88
569.795	389.88
570.007	374.88
570.218	373.88
570.43	359.88
570.641	360.88
570.853	360.88
571.064	348.88
571.276	341.88
571.487	332.88
571.698	327.88
571.91	339.88
572.121	338.88
572.333	344.88
572.544	333.88
572.755	339.88
572.966	335.88
573.178	328.88
573.389	334.88
573.6	325.88
573.811	311.88
574.023	331.88
574.234	320.88
574.445	323.88
574.656	297.88
574.867	288.88
575.078	317.88
575.289	318.88
575.501	306.88
575.712	310.88
575.923	314.88
576.134	313.88
576.345	298.88
576.556	303.88
576.767	306.88
576.978	306.88
577.188	308.88
577.399	315.88
577.61	285.88
577.821	299.88
578.032	286.88
578.243	289.88
578.454	288.88
578.665	298.88
578.875	302.88
579.086	296.88
579.297	309.88
579.508	291.88
579.718	286.88
579.929	304.88
580.14	291.88
580.35	294.88
580.561	281.88
580.772	276.88
580.982	278.88
581.193	285.88
581.403	286.88
581.614	287.88
581.825	271.88
582.035	290.88
582.246	260.88
582.456	282.88
582.667	275.88
582.877	283.88
583.087	281.88
583.298	283.88
583.508	272.88
583.719	272.88
583.929	281.88
584.139	272.88
584.35	266.88
584.56	263.88
584.77	278.88
584.981	278.88
585.191	284.88
585.401	272.88
585.611	276.88
585.821	282.88
586.032	291.88
586.242	265.88
586.452	270.88
586.662	277.88
586.872	278.88
587.082	259.88
587.292	271.88
587.502	262.88
587.713	260.88
587.923	278.88
588.133	295.88
588.343	284.88
588.553	268.88
588.762	283.88
588.972	278.88
589.182	342.88
589.392	322.88
589.602	298.88
589.812	315.88
590.022	306.88
590.232	273.88
590.441	283.88
590.651	258.88
590.861	270.88
591.071	270.88
591.281	270.88
591.49	262.88
591.7	257.88
591.91	277.88
592.119	290.88
592.329	278.88
592.539	277.88
592.748	272.88
592.958	258.88
593.167	269.88
593.377	260.88
593.587	287.88
593.796	270.88
594.006	263.88
594.215	287.88
594.424	269.88
594.634	283.88
594.843	274.88
595.053	279.88
595.262	285.88
595.472	267.88
595.681	244.88
595.89	248.88
596.1	242.88
596.309	262.88
596.518	259.88
596.727	256.88
596.937	264.88
597.146	264.88
597.355	259.88
597.564	239.88
597.774	237.88
597.983	250.88
598.192	247.88
598.401	230.88
598.61	239.88
598.819	246.88
599.028	250.88
599.237	231.88
599.446	238.88
599.655	229.88
599.864	227.88
600.073	241.88
600.282	245.88
600.491	238.88
600.7	237.88
600.909	247.88
601.118	239.88
601.327	223.88
601.536	258.88
601.745	229.88
601.953	235.88
602.162	231.88
602.371	246.88
602.58	248.88
602.789	220.88
602.997	218.88
603.206	227.88
603.415	241.88
603.623	233.88
603.832	222.88
604.041	218.88
604.249	242.88
604.458	234.88
604.666	218.88
604.875	218.88
605.084	229.88
605.292	220.88
605.501	220.88
605.709	220.88
605.918	235.88
606.126	220.88
606.334	226.88
606.543	215.88
606.751	223.88
606.96	217.88
607.168	214.88
607.376	224.88
607.585	223.88
607.793	239.88
608.001	209.88
608.21	219.88
608.418	237.88
608.626	219.88
608.834	222.88
609.043	218.88
609.251	217.88
609.459	221.88
609.667	215.88
609.875	215.88
610.083	217.88
610.291	227.88
610.499	211.88
610.707	207.88
610.916	228.88
611.124	212.88
611.332	196.88
611.54	216.88
611.748	218.88
611.955	189.88
612.163	208.88
612.371	206.88
612.579	218.88
612.787	219.88
612.995	205.88
613.203	222.88
613.411	208.88
613.618	200.88
613.826	210.88
614.034	217.88
614.242	213.88
614.449	204.88
614.657	200.88
614.865	204.88
615.072	207.88
615.28	218.88
615.488	199.88
615.695	211.88
615.903	208.88
616.111	209.88
616.318	220.88
616.526	206.88
616.733	208.88
616.941	203.88
617.148	195.88
617.356	208.88
617.563	227.88
617.771	204.88
617.978	213.88
618.185	212.88
618.393	200.88
618.6	206.88
618.807	213.88
619.015	203.88
619.222	183.88
619.429	205.88
619.637	194.88
619.844	206.88
620.051	214.88
620.258	201.88
620.466	204.88
620.673	210.88
620.88	199.88
621.087	186.88
621.294	202.88
621.501	205.88
621.708	198.88
621.915	185.88
622.122	210.88
622.329	209.88
622.536	194.88
622.743	199.88
622.95	194.88
623.157	195.88
623.364	195.88
623.571	212.88
623.778	213.88
623.985	184.88
624.192	199.88
624.399	224.88
624.606	204.88
624.812	198.88
625.019	199.88
625.226	194.88
625.433	202.88
625.639	169.88
625.846	183.88
626.053	186.88
626.259	206.88
626.466	187.88
626.673	188.88
626.879	190.88
627.086	176.88
627.293	182.88
627.499	185.88
627.706	197.88
627.912	193.88
628.119	183.88
628.325	195.88
628.532	175.88
628.738	189.88
628.945	198.88
629.151	180.88
629.357	180.88
629.564	197.88
629.77	176.88
629.976	180.88
630.183	182.88
630.389	187.88
630.595	174.88
630.802	175.88
631.008	183.88
631.214	186.88
631.42	164.88
631.627	181.88
631.833	182.88
632.039	170.88
632.245	172.88
632.451	185.88
632.657	166.88
632.863	162.88
633.069	181.88
633.275	195.88
633.481	175.88
633.688	157.88
633.893	179.88
634.099	175.88
634.305	176.88
634.511	171.88
634.717	175.88
634.923	172.88
635.129	171.88
635.335	171.88
635.541	157.88
635.747	156.88
635.952	170.88
636.158	174.88
636.364	187.88
636.57	175.88
636.775	178.88
636.981	172.88
637.187	178.88
637.392	155.88
637.598	166.88
637.804	171.88
638.009	157.88
638.215	166.88
638.421	168.88
638.626	173.88
638.832	172.88
639.037	170.88
639.243	174.88
639.448	153.88
639.654	175.88
639.859	159.88
640.065	161.88
640.27	181.88
640.475	172.88
640.681	159.88
640.886	157.88
641.091	162.88
641.297	171.88
641.502	151.88
641.707	148.88
641.913	161.88
642.118	167.88
642.323	175.88
642.528	176.88
642.733	161.88
642.939	150.88
643.144	145.88
643.349	155.88
643.554	173.88
643.759	165.88
643.964	171.88
644.169	172.88
644.374	176.88
644.579	172.88
644.784	169.88
644.989	176.88
645.194	169.88
645.399	164.88
645.604	165.88
645.809	171.88
646.014	176.88
646.219	162.88
646.423	160.88
646.628	151.88
646.833	144.88
647.038	163.88
647.243	159.88
647.447	172.88
647.652	174.88
647.857	170.88
648.062	168.88
648.266	171.88
648.471	173.88
648.676	157.88
648.88	173.88
649.085	174.88
649.289	173.88
649.494	163.88
649.698	175.88
649.903	174.88
650.107	167.88
650.312	170.88
650.516	171.88
650.721	163.88
650.925	179.88
651.13	171.88
651.334	178.88
651.539	176.88
651.743	161.88
651.947	143.88
652.152	155.88
652.356	165.88
652.56	157.88
652.764	149.88
652.969	157.88
653.173	162.88
653.377	171.88
653.581	145.88
653.785	158.88
653.99	149.88
654.194	157.88
654.398	159.88
654.602	161.88
654.806	168.88
655.01	150.88
655.214	167.88
655.418	148.88
655.622	156.88
655.826	143.88
656.03	159.88
656.234	150.88
656.438	146.88
656.642	160.88
656.846	173.88
657.049	161.88
657.253	143.88
657.457	154.88
657.661	136.88
657.865	126.88
658.068	147.88
658.272	132.88
658.476	110.88
658.68	123.88
658.883	122.88
659.087	109.88
659.291	116.88
659.494	108.88
659.698	124.88
659.901	106.88
660.105	116.88
660.309	113.88
660.512	115.88
660.716	98.88
660.919	106.88
661.123	106.88
661.326	104.88
661.53	94.88
661.733	106.88
661.936	95.88
662.14	84.88
662.343	79.88
662.546	90.88
662.75	92.88
662.953	91.88
663.156	91.88
663.36	91.88
663.563	94.88
663.766	82.88
663.969	94.88
664.173	77.88
664.376	82.88
664.579	93.88
664.782	96.88
664.985	101.88
665.188	94.88
665.391	97.88
665.594	88.88
665.797	97.88
666	90.88
666.203	85.88
666.406	85.88
666.609	75.88
666.812	83.88
667.015	88.88
667.218	96.88
667.421	90.88
667.624	70.88
667.827	77.88
668.03	87.88
668.232	87.88
668.435	84.88
668.638	88.88
668.841	87.88
669.043	86.88
669.246	92.88
669.449	76.88
669.651	79.88
669.854	91.88
670.057	71.88
670.259	83.88
670.462	80.88
670.665	83.88
670.867	85.88
671.07	100.88
671.272	87.88
671.475	90.88
671.677	77.88
671.88	81.88
672.082	75.88
672.284	95.88
672.487	81.88
672.689	94.88
672.892	79.88
