Data from Fe(NO3)3@0.0125M.TitratingCurve.Agarose3%dH2O.NegLispCup.LampEnergy10.LIBS07252019_HRD10591_17-00-31-336.txt Node
Date: Thu Jul 25 17:00:31 EDT 2019
User: cochatt
Spectrometer: HR+D1059
Trigger mode: 1
Integration Time (sec): 1.000000E-1
Scans to average: 1
Electric dark correction enabled: true
Nonlinearity correction enabled: false
Boxcar width: 0
XAxis mode: Wavelengths
Number of Pixels in Spectrum: 2048
>>>>>Begin Spectral Data<<<<<
223.165	-10.12
223.4	-10.12
223.635	-10.12
223.869	-29.12
224.104	-20.12
224.338	-4.12
224.573	-21.12
224.808	-15.12
225.042	-19.12
225.277	7.88
225.511	2.88
225.746	0.88
225.98	23.88
226.215	-1.12
226.449	2.88
226.683	15.88
226.918	28.88
227.152	36.88
227.387	41.88
227.621	29.88
227.856	41.88
228.09	38.88
228.324	40.88
228.559	32.88
228.793	68.88
229.027	91.88
229.262	70.88
229.496	57.88
229.73	96.88
229.964	94.88
230.199	89.88
230.433	87.88
230.667	86.88
230.901	102.88
231.136	90.88
231.37	102.88
231.604	85.88
231.838	96.88
232.072	88.88
232.306	92.88
232.541	98.88
232.775	81.88
233.009	110.88
233.243	95.88
233.477	94.88
233.711	102.88
233.945	96.88
234.179	108.88
234.413	100.88
234.647	98.88
234.881	102.88
235.115	103.88
235.349	102.88
235.583	98.88
235.817	99.88
236.051	93.88
236.285	98.88
236.519	83.88
236.753	90.88
236.987	100.88
237.221	102.88
237.455	100.88
237.689	105.88
237.922	117.88
238.156	107.88
238.39	100.88
238.624	115.88
238.858	112.88
239.091	116.88
239.325	108.88
239.559	113.88
239.793	105.88
240.027	99.88
240.26	102.88
240.494	104.88
240.728	107.88
240.961	113.88
241.195	113.88
241.429	116.88
241.662	110.88
241.896	111.88
242.13	121.88
242.363	84.88
242.597	106.88
242.83	121.88
243.064	108.88
243.298	108.88
243.531	120.88
243.765	110.88
243.998	120.88
244.232	122.88
244.465	107.88
244.699	110.88
244.932	118.88
245.166	106.88
245.399	112.88
245.633	124.88
245.866	118.88
246.099	122.88
246.333	110.88
246.566	127.88
246.8	114.88
247.033	113.88
247.266	121.88
247.5	112.88
247.733	111.88
247.966	135.88
248.2	119.88
248.433	138.88
248.666	133.88
248.899	111.88
249.133	118.88
249.366	123.88
249.599	142.88
249.832	136.88
250.066	142.88
250.299	123.88
250.532	132.88
250.765	130.88
250.998	126.88
251.231	131.88
251.465	126.88
251.698	129.88
251.931	112.88
252.164	117.88
252.397	122.88
252.63	132.88
252.863	141.88
253.096	138.88
253.329	138.88
253.562	137.88
253.795	144.88
254.028	136.88
254.261	134.88
254.494	138.88
254.727	134.88
254.96	139.88
255.193	139.88
255.426	131.88
255.659	154.88
255.892	155.88
256.124	133.88
256.357	136.88
256.59	152.88
256.823	132.88
257.056	163.88
257.289	154.88
257.521	153.88
257.754	138.88
257.987	146.88
258.22	150.88
258.452	154.88
258.685	132.88
258.918	143.88
259.151	128.88
259.383	153.88
259.616	166.88
259.849	137.88
260.081	189.88
260.314	171.88
260.547	151.88
260.779	149.88
261.012	160.88
261.244	152.88
261.477	166.88
261.71	140.88
261.942	160.88
262.175	179.88
262.407	153.88
262.64	146.88
262.872	156.88
263.105	166.88
263.337	168.88
263.57	146.88
263.802	142.88
264.035	177.88
264.267	161.88
264.499	156.88
264.732	167.88
264.964	166.88
265.197	161.88
265.429	165.88
265.661	155.88
265.894	164.88
266.126	158.88
266.358	158.88
266.591	168.88
266.823	169.88
267.055	162.88
267.287	158.88
267.52	164.88
267.752	186.88
267.984	155.88
268.216	169.88
268.448	177.88
268.681	176.88
268.913	170.88
269.145	176.88
269.377	170.88
269.609	161.88
269.841	178.88
270.073	161.88
270.306	170.88
270.538	166.88
270.77	175.88
271.002	185.88
271.234	178.88
271.466	176.88
271.698	190.88
271.93	185.88
272.162	183.88
272.394	182.88
272.626	179.88
272.858	184.88
273.09	190.88
273.322	187.88
273.553	188.88
273.785	178.88
274.017	178.88
274.249	197.88
274.481	198.88
274.713	210.88
274.945	202.88
275.176	196.88
275.408	193.88
275.64	202.88
275.872	179.88
276.104	198.88
276.335	189.88
276.567	193.88
276.799	200.88
277.031	188.88
277.262	216.88
277.494	199.88
277.726	182.88
277.957	180.88
278.189	193.88
278.421	199.88
278.652	196.88
278.884	195.88
279.115	195.88
279.347	198.88
279.579	194.88
279.81	203.88
280.042	205.88
280.273	200.88
280.505	199.88
280.736	190.88
280.968	201.88
281.199	204.88
281.431	204.88
281.662	199.88
281.894	187.88
282.125	224.88
282.356	201.88
282.588	204.88
282.819	198.88
283.051	212.88
283.282	212.88
283.513	185.88
283.745	203.88
283.976	211.88
284.207	212.88
284.439	222.88
284.67	196.88
284.901	211.88
285.132	210.88
285.364	219.88
285.595	216.88
285.826	215.88
286.057	217.88
286.288	204.88
286.52	232.88
286.751	215.88
286.982	227.88
287.213	231.88
287.444	216.88
287.675	215.88
287.906	210.88
288.138	198.88
288.369	223.88
288.6	220.88
288.831	226.88
289.062	215.88
289.293	233.88
289.524	224.88
289.755	209.88
289.986	232.88
290.217	225.88
290.448	217.88
290.679	244.88
290.91	219.88
291.141	229.88
291.371	216.88
291.602	225.88
291.833	226.88
292.064	223.88
292.295	223.88
292.526	230.88
292.757	240.88
292.987	224.88
293.218	244.88
293.449	234.88
293.68	211.88
293.91	239.88
294.141	226.88
294.372	228.88
294.603	233.88
294.833	255.88
295.064	236.88
295.295	225.88
295.525	233.88
295.756	240.88
295.987	246.88
296.217	223.88
296.448	223.88
296.679	234.88
296.909	230.88
297.14	240.88
297.37	238.88
297.601	241.88
297.831	245.88
298.062	249.88
298.292	235.88
298.523	235.88
298.753	239.88
298.984	259.88
299.214	258.88
299.445	243.88
299.675	244.88
299.905	262.88
300.136	252.88
300.366	251.88
300.597	254.88
300.827	262.88
301.057	238.88
301.288	258.88
301.518	255.88
301.748	241.88
301.979	264.88
302.209	263.88
302.439	280.88
302.669	266.88
302.9	257.88
303.13	257.88
303.36	254.88
303.59	250.88
303.82	272.88
304.051	268.88
304.281	278.88
304.511	270.88
304.741	242.88
304.971	265.88
305.201	269.88
305.431	273.88
305.661	262.88
305.891	262.88
306.121	268.88
306.352	260.88
306.582	256.88
306.812	274.88
307.042	276.88
307.272	273.88
307.502	304.88
307.731	278.88
307.961	278.88
308.191	273.88
308.421	285.88
308.651	259.88
308.881	274.88
309.111	278.88
309.341	272.88
309.571	260.88
309.8	290.88
310.03	270.88
310.26	258.88
310.49	284.88
310.72	283.88
310.949	271.88
311.179	281.88
311.409	270.88
311.639	282.88
311.868	273.88
312.098	272.88
312.328	293.88
312.557	302.88
312.787	279.88
313.017	300.88
313.246	270.88
313.476	277.88
313.706	296.88
313.935	295.88
314.165	287.88
314.394	283.88
314.624	291.88
314.853	287.88
315.083	276.88
315.312	310.88
315.542	286.88
315.771	276.88
316.001	314.88
316.23	302.88
316.46	307.88
316.689	283.88
316.919	275.88
317.148	297.88
317.377	312.88
317.607	304.88
317.836	287.88
318.065	302.88
318.295	274.88
318.524	291.88
318.753	296.88
318.983	319.88
319.212	287.88
319.441	290.88
319.67	300.88
319.9	308.88
320.129	308.88
320.358	303.88
320.587	298.88
320.816	308.88
321.046	312.88
321.275	297.88
321.504	299.88
321.733	310.88
321.962	299.88
322.191	303.88
322.42	317.88
322.649	311.88
322.878	332.88
323.108	306.88
323.337	302.88
323.566	306.88
323.795	335.88
324.024	314.88
324.253	321.88
324.482	314.88
324.71	336.88
324.939	320.88
325.168	328.88
325.397	311.88
325.626	303.88
325.855	321.88
326.084	313.88
326.313	319.88
326.542	318.88
326.77	334.88
326.999	308.88
327.228	304.88
327.457	305.88
327.686	342.88
327.914	320.88
328.143	340.88
328.372	310.88
328.6	308.88
328.829	323.88
329.058	329.88
329.287	315.88
329.515	324.88
329.744	329.88
329.972	318.88
330.201	345.88
330.43	341.88
330.658	322.88
330.887	324.88
331.115	337.88
331.344	348.88
331.572	329.88
331.801	342.88
332.03	342.88
332.258	330.88
332.486	360.88
332.715	328.88
332.943	358.88
333.172	363.88
333.4	351.88
333.629	356.88
333.857	363.88
334.085	354.88
334.314	359.88
334.542	359.88
334.771	362.88
334.999	353.88
335.227	361.88
335.455	369.88
335.684	368.88
335.912	374.88
336.14	358.88
336.369	384.88
336.597	358.88
336.825	345.88
337.053	351.88
337.281	348.88
337.51	363.88
337.738	351.88
337.966	359.88
338.194	354.88
338.422	337.88
338.65	357.88
338.878	345.88
339.106	345.88
339.334	367.88
339.562	356.88
339.79	342.88
340.018	346.88
340.246	357.88
340.474	355.88
340.702	347.88
340.93	348.88
341.158	346.88
341.386	329.88
341.614	369.88
341.842	359.88
342.07	344.88
342.298	348.88
342.526	350.88
342.754	338.88
342.981	354.88
343.209	354.88
343.437	377.88
343.665	356.88
343.893	368.88
344.12	371.88
344.348	372.88
344.576	362.88
344.804	369.88
345.031	376.88
345.259	358.88
345.487	355.88
345.714	354.88
345.942	371.88
346.17	336.88
346.397	342.88
346.625	354.88
346.853	324.88
347.08	375.88
347.308	357.88
347.535	357.88
347.763	348.88
347.99	331.88
348.218	346.88
348.445	344.88
348.673	345.88
348.9	346.88
349.128	367.88
349.355	340.88
349.583	366.88
349.81	339.88
350.037	355.88
350.265	328.88
350.492	348.88
350.72	344.88
350.947	345.88
351.174	342.88
351.402	341.88
351.629	334.88
351.856	350.88
352.083	349.88
352.311	346.88
352.538	354.88
352.765	353.88
352.992	370.88
353.22	344.88
353.447	350.88
353.674	350.88
353.901	352.88
354.128	327.88
354.355	345.88
354.583	322.88
354.81	332.88
355.037	351.88
355.264	340.88
355.491	345.88
355.718	334.88
355.945	354.88
356.172	364.88
356.399	361.88
356.626	364.88
356.853	343.88
357.08	357.88
357.307	347.88
357.534	383.88
357.761	341.88
357.988	359.88
358.215	347.88
358.441	354.88
358.668	352.88
358.895	341.88
359.122	347.88
359.349	346.88
359.576	350.88
359.802	343.88
360.029	366.88
360.256	356.88
360.483	360.88
360.709	338.88
360.936	358.88
361.163	371.88
361.39	350.88
361.616	340.88
361.843	356.88
362.07	352.88
362.296	376.88
362.523	369.88
362.749	352.88
362.976	340.88
363.203	356.88
363.429	374.88
363.656	376.88
363.882	344.88
364.109	353.88
364.335	369.88
364.562	340.88
364.788	376.88
365.015	353.88
365.241	358.88
365.468	351.88
365.694	333.88
365.92	355.88
366.147	352.88
366.373	350.88
366.599	355.88
366.826	350.88
367.052	346.88
367.278	342.88
367.505	355.88
367.731	377.88
367.957	371.88
368.184	365.88
368.41	380.88
368.636	369.88
368.862	371.88
369.089	373.88
369.315	386.88
369.541	382.88
369.767	367.88
369.993	356.88
370.219	362.88
370.445	394.88
370.672	378.88
370.898	383.88
371.124	384.88
371.35	396.88
371.576	370.88
371.802	383.88
372.028	379.88
372.254	399.88
372.48	385.88
372.706	384.88
372.932	370.88
373.158	378.88
373.384	389.88
373.61	388.88
373.835	398.88
374.061	386.88
374.287	386.88
374.513	378.88
374.739	408.88
374.965	406.88
375.191	394.88
375.416	397.88
375.642	386.88
375.868	387.88
376.094	406.88
376.319	358.88
376.545	411.88
376.771	384.88
376.997	372.88
377.222	375.88
377.448	380.88
377.674	380.88
377.899	378.88
378.125	360.88
378.35	366.88
378.576	390.88
378.802	387.88
379.027	397.88
379.253	377.88
379.478	388.88
379.704	407.88
379.929	378.88
380.155	386.88
380.38	371.88
380.606	381.88
380.831	387.88
381.057	397.88
381.282	389.88
381.507	396.88
381.733	390.88
381.958	427.88
382.184	406.88
382.409	422.88
382.634	399.88
382.86	405.88
383.085	421.88
383.31	405.88
383.535	415.88
383.761	396.88
383.986	424.88
384.211	407.88
384.436	406.88
384.662	416.88
384.887	407.88
385.112	413.88
385.337	438.88
385.562	413.88
385.787	426.88
386.013	440.88
386.238	439.88
386.463	424.88
386.688	414.88
386.913	419.88
387.138	425.88
387.363	426.88
387.588	438.88
387.813	419.88
388.038	412.88
388.263	433.88
388.488	422.88
388.713	456.88
388.938	457.88
389.163	422.88
389.387	434.88
389.612	412.88
389.837	440.88
390.062	423.88
390.287	446.88
390.512	419.88
390.736	402.88
390.961	427.88
391.186	444.88
391.411	444.88
391.636	447.88
391.86	447.88
392.085	439.88
392.31	460.88
392.534	464.88
392.759	456.88
392.984	430.88
393.208	447.88
393.433	486.88
393.658	475.88
393.882	458.88
394.107	459.88
394.331	456.88
394.556	426.88
394.78	433.88
395.005	432.88
395.229	453.88
395.454	458.88
395.678	443.88
395.903	451.88
396.127	480.88
396.352	462.88
396.576	465.88
396.801	449.88
397.025	457.88
397.249	471.88
397.474	481.88
397.698	462.88
397.922	469.88
398.147	457.88
398.371	496.88
398.595	506.88
398.82	495.88
399.044	517.88
399.268	497.88
399.492	533.88
399.717	530.88
399.941	564.88
400.165	545.88
400.389	517.88
400.613	517.88
400.837	501.88
401.062	513.88
401.286	521.88
401.51	503.88
401.734	491.88
401.958	497.88
402.182	477.88
402.406	506.88
402.63	493.88
402.854	510.88
403.078	487.88
403.302	499.88
403.526	507.88
403.75	488.88
403.974	520.88
404.198	500.88
404.422	524.88
404.645	520.88
404.869	491.88
405.093	503.88
405.317	488.88
405.541	536.88
405.765	496.88
405.988	545.88
406.212	526.88
406.436	540.88
406.66	545.88
406.883	533.88
407.107	568.88
407.331	550.88
407.555	561.88
407.778	550.88
408.002	522.88
408.226	558.88
408.449	535.88
408.673	535.88
408.896	548.88
409.12	561.88
409.344	558.88
409.567	531.88
409.791	538.88
410.014	534.88
410.238	552.88
410.461	534.88
410.685	519.88
410.908	519.88
411.132	531.88
411.355	532.88
411.578	514.88
411.802	521.88
412.025	500.88
412.249	521.88
412.472	509.88
412.695	498.88
412.919	498.88
413.142	502.88
413.365	535.88
413.589	512.88
413.812	518.88
414.035	499.88
414.258	516.88
414.482	508.88
414.705	500.88
414.928	489.88
415.151	494.88
415.374	520.88
415.597	511.88
415.821	499.88
416.044	501.88
416.267	486.88
416.49	500.88
416.713	494.88
416.936	496.88
417.159	487.88
417.382	486.88
417.605	499.88
417.828	494.88
418.051	475.88
418.274	501.88
418.497	495.88
418.72	474.88
418.943	491.88
419.166	505.88
419.389	535.88
419.611	521.88
419.834	502.88
420.057	510.88
420.28	486.88
420.503	469.88
420.726	482.88
420.948	489.88
421.171	500.88
421.394	492.88
421.617	488.88
421.839	487.88
422.062	472.88
422.285	486.88
422.507	489.88
422.73	495.88
422.953	507.88
423.175	480.88
423.398	480.88
423.621	482.88
423.843	493.88
424.066	482.88
424.288	487.88
424.511	491.88
424.733	494.88
424.956	487.88
425.178	515.88
425.401	489.88
425.623	481.88
425.846	469.88
426.068	482.88
426.291	487.88
426.513	482.88
426.735	477.88
426.958	486.88
427.18	455.88
427.402	472.88
427.625	479.88
427.847	473.88
428.069	470.88
428.292	484.88
428.514	480.88
428.736	454.88
428.958	464.88
429.181	451.88
429.403	491.88
429.625	459.88
429.847	469.88
430.069	472.88
430.292	484.88
430.514	457.88
430.736	479.88
430.958	468.88
431.18	474.88
431.402	459.88
431.624	447.88
431.846	468.88
432.068	470.88
432.29	484.88
432.512	478.88
432.734	485.88
432.956	447.88
433.178	486.88
433.4	492.88
433.622	486.88
433.844	478.88
434.066	471.88
434.287	456.88
434.509	453.88
434.731	506.88
434.953	483.88
435.175	466.88
435.397	480.88
435.618	482.88
435.84	470.88
436.062	463.88
436.284	489.88
436.505	451.88
436.727	491.88
436.949	487.88
437.17	478.88
437.392	477.88
437.614	496.88
437.835	451.88
438.057	442.88
438.278	471.88
438.5	464.88
438.721	472.88
438.943	464.88
439.165	474.88
439.386	444.88
439.608	460.88
439.829	475.88
440.05	471.88
440.272	484.88
440.493	475.88
440.715	472.88
440.936	481.88
441.158	480.88
441.379	483.88
441.6	482.88
441.822	471.88
442.043	502.88
442.264	468.88
442.486	462.88
442.707	468.88
442.928	515.88
443.149	490.88
443.371	483.88
443.592	485.88
443.813	482.88
444.034	506.88
444.255	500.88
444.476	482.88
444.698	490.88
444.919	479.88
445.14	578.88
445.361	542.88
445.582	494.88
445.803	460.88
446.024	478.88
446.245	478.88
446.466	480.88
446.687	492.88
446.908	468.88
447.129	463.88
447.35	459.88
447.571	464.88
447.792	451.88
448.013	454.88
448.234	440.88
448.455	471.88
448.675	443.88
448.896	453.88
449.117	442.88
449.338	451.88
449.559	444.88
449.779	439.88
450	427.88
450.221	443.88
450.442	448.88
450.662	448.88
450.883	484.88
451.104	439.88
451.324	435.88
451.545	446.88
451.766	434.88
451.986	434.88
452.207	446.88
452.428	440.88
452.648	440.88
452.869	434.88
453.089	439.88
453.31	430.88
453.53	445.88
453.751	440.88
453.971	433.88
454.192	443.88
454.412	427.88
454.633	452.88
454.853	447.88
455.073	449.88
455.294	438.88
455.514	416.88
455.734	443.88
455.955	430.88
456.175	433.88
456.395	393.88
456.616	445.88
456.836	428.88
457.056	429.88
457.276	425.88
457.497	443.88
457.717	448.88
457.937	444.88
458.157	457.88
458.377	434.88
458.598	438.88
458.818	448.88
459.038	479.88
459.258	488.88
459.478	483.88
459.698	467.88
459.918	468.88
460.138	461.88
460.358	478.88
460.578	484.88
460.798	503.88
461.018	479.88
461.238	487.88
461.458	489.88
461.678	490.88
461.898	498.88
462.118	535.88
462.338	518.88
462.558	527.88
462.777	546.88
462.997	532.88
463.217	537.88
463.437	552.88
463.657	534.88
463.876	543.88
464.096	513.88
464.316	531.88
464.536	526.88
464.755	553.88
464.975	510.88
465.195	516.88
465.414	490.88
465.634	490.88
465.854	491.88
466.073	482.88
466.293	491.88
466.512	480.88
466.732	489.88
466.951	503.88
467.171	470.88
467.391	478.88
467.61	469.88
467.829	476.88
468.049	507.88
468.268	490.88
468.488	458.88
468.707	472.88
468.927	475.88
469.146	462.88
469.365	473.88
469.585	470.88
469.804	512.88
470.023	479.88
470.243	494.88
470.462	470.88
470.681	478.88
470.901	476.88
471.12	467.88
471.339	487.88
471.558	473.88
471.777	491.88
471.997	500.88
472.216	467.88
472.435	476.88
472.654	476.88
472.873	487.88
473.092	481.88
473.311	488.88
473.53	500.88
473.749	480.88
473.968	492.88
474.187	486.88
474.406	483.88
474.625	482.88
474.844	487.88
475.063	479.88
475.282	498.88
475.501	508.88
475.72	504.88
475.939	519.88
476.158	516.88
476.377	510.88
476.596	533.88
476.814	525.88
477.033	528.88
477.252	518.88
477.471	514.88
477.69	534.88
477.908	553.88
478.127	547.88
478.346	539.88
478.564	549.88
478.783	554.88
479.002	582.88
479.22	566.88
479.439	563.88
479.658	564.88
479.876	573.88
480.095	578.88
480.313	574.88
480.532	571.88
480.751	586.88
480.969	582.88
481.188	570.88
481.406	555.88
481.624	599.88
481.843	594.88
482.061	582.88
482.28	573.88
482.498	588.88
482.717	565.88
482.935	551.88
483.153	562.88
483.372	577.88
483.59	566.88
483.808	563.88
484.027	601.88
484.245	583.88
484.463	576.88
484.681	600.88
484.9	576.88
485.118	590.88
485.336	575.88
485.554	601.88
485.772	607.88
485.99	591.88
486.209	592.88
486.427	584.88
486.645	591.88
486.863	605.88
487.081	606.88
487.299	596.88
487.517	616.88
487.735	607.88
487.953	605.88
488.171	620.88
488.389	574.88
488.607	595.88
488.825	588.88
489.043	599.88
489.261	601.88
489.479	606.88
489.696	616.88
489.914	597.88
490.132	614.88
490.35	608.88
490.568	604.88
490.786	618.88
491.003	607.88
491.221	607.88
491.439	611.88
491.657	626.88
491.874	606.88
492.092	611.88
492.31	596.88
492.527	613.88
492.745	611.88
492.963	602.88
493.18	637.88
493.398	612.88
493.615	624.88
493.833	624.88
494.05	630.88
494.268	617.88
494.485	636.88
494.703	631.88
494.92	631.88
495.138	642.88
495.355	632.88
495.573	618.88
495.79	640.88
496.008	648.88
496.225	644.88
496.442	636.88
496.66	664.88
496.877	673.88
497.094	671.88
497.312	657.88
497.529	668.88
497.746	678.88
497.963	690.88
498.181	688.88
498.398	732.88
498.615	732.88
498.832	731.88
499.049	778.88
499.267	801.88
499.484	796.88
499.701	828.88
499.918	859.88
500.135	878.88
500.352	907.88
500.569	899.88
500.786	912.88
501.003	896.88
501.22	887.88
501.437	862.88
501.654	834.88
501.871	801.88
502.088	777.88
502.305	770.88
502.522	751.88
502.739	722.88
502.956	727.88
503.172	729.88
503.389	677.88
503.606	664.88
503.823	665.88
504.04	650.88
504.256	653.88
504.473	665.88
504.69	661.88
504.907	663.88
505.123	630.88
505.34	618.88
505.557	627.88
505.773	612.88
505.99	616.88
506.207	599.88
506.423	573.88
506.64	584.88
506.856	584.88
507.073	581.88
507.289	583.88
507.506	587.88
507.722	587.88
507.939	582.88
508.155	556.88
508.372	577.88
508.588	561.88
508.805	581.88
509.021	572.88
509.238	558.88
509.454	559.88
509.67	554.88
509.887	569.88
510.103	544.88
510.319	545.88
510.536	539.88
510.752	536.88
510.968	549.88
511.184	542.88
511.401	546.88
511.617	538.88
511.833	522.88
512.049	539.88
512.265	546.88
512.481	552.88
512.698	520.88
512.914	536.88
513.13	533.88
513.346	526.88
513.562	543.88
513.778	547.88
513.994	570.88
514.21	539.88
514.426	539.88
514.642	524.88
514.858	529.88
515.074	532.88
515.29	552.88
515.506	557.88
515.721	543.88
515.937	548.88
516.153	554.88
516.369	555.88
516.585	542.88
516.801	565.88
517.016	557.88
517.232	566.88
517.448	567.88
517.664	591.88
517.879	590.88
518.095	573.88
518.311	564.88
518.527	548.88
518.742	557.88
518.958	572.88
519.173	558.88
519.389	578.88
519.605	542.88
519.82	558.88
520.036	568.88
520.251	534.88
520.467	527.88
520.682	527.88
520.898	544.88
521.113	534.88
521.329	549.88
521.544	523.88
521.76	536.88
521.975	508.88
522.19	518.88
522.406	520.88
522.621	514.88
522.836	507.88
523.052	515.88
523.267	537.88
523.482	500.88
523.698	519.88
523.913	519.88
524.128	512.88
524.343	495.88
524.559	486.88
524.774	514.88
524.989	510.88
525.204	516.88
525.419	496.88
525.634	493.88
525.849	499.88
526.064	507.88
526.28	497.88
526.495	513.88
526.71	495.88
526.925	509.88
527.14	519.88
527.355	520.88
527.57	536.88
527.785	483.88
527.999	513.88
528.214	500.88
528.429	490.88
528.644	497.88
528.859	508.88
529.074	483.88
529.289	507.88
529.503	505.88
529.718	496.88
529.933	497.88
530.148	487.88
530.363	476.88
530.577	486.88
530.792	523.88
531.007	491.88
531.221	495.88
531.436	490.88
531.651	505.88
531.865	502.88
532.08	490.88
532.295	488.88
532.509	483.88
532.724	503.88
532.938	490.88
533.153	504.88
533.367	454.88
533.582	484.88
533.796	494.88
534.011	485.88
534.225	488.88
534.44	480.88
534.654	497.88
534.868	475.88
535.083	486.88
535.297	472.88
535.511	460.88
535.726	479.88
535.94	466.88
536.154	483.88
536.369	464.88
536.583	481.88
536.797	457.88
537.011	473.88
537.225	450.88
537.44	459.88
537.654	464.88
537.868	486.88
538.082	459.88
538.296	453.88
538.51	467.88
538.724	464.88
538.938	442.88
539.153	474.88
539.367	456.88
539.581	470.88
539.795	466.88
540.009	457.88
540.222	459.88
540.436	473.88
540.65	459.88
540.864	463.88
541.078	464.88
541.292	468.88
541.506	473.88
541.72	469.88
541.934	474.88
542.147	468.88
542.361	451.88
542.575	459.88
542.789	453.88
543.002	465.88
543.216	467.88
543.43	437.88
543.644	449.88
543.857	452.88
544.071	463.88
544.285	479.88
544.498	473.88
544.712	462.88
544.925	458.88
545.139	458.88
545.352	449.88
545.566	475.88
545.779	454.88
545.993	459.88
546.206	466.88
546.42	442.88
546.633	471.88
546.847	465.88
547.06	448.88
547.274	445.88
547.487	471.88
547.7	464.88
547.914	450.88
548.127	467.88
548.34	455.88
548.554	473.88
548.767	470.88
548.98	470.88
549.193	437.88
549.407	475.88
549.62	479.88
549.833	482.88
550.046	450.88
550.259	442.88
550.473	457.88
550.686	451.88
550.899	455.88
551.112	452.88
551.325	456.88
551.538	447.88
551.751	445.88
551.964	432.88
552.177	470.88
552.39	440.88
552.603	459.88
552.816	459.88
553.029	461.88
553.242	460.88
553.455	461.88
553.667	460.88
553.88	464.88
554.093	444.88
554.306	461.88
554.519	456.88
554.732	460.88
554.944	446.88
555.157	418.88
555.37	446.88
555.583	434.88
555.795	436.88
556.008	414.88
556.221	404.88
556.433	416.88
556.646	405.88
556.859	401.88
557.071	420.88
557.284	425.88
557.496	418.88
557.709	404.88
557.921	430.88
558.134	412.88
558.346	408.88
558.559	415.88
558.771	411.88
558.984	405.88
559.196	393.88
559.409	416.88
559.621	411.88
559.833	390.88
560.046	418.88
560.258	395.88
560.47	409.88
560.683	404.88
560.895	410.88
561.107	410.88
561.32	395.88
561.532	417.88
561.744	415.88
561.956	390.88
562.168	402.88
562.381	411.88
562.593	395.88
562.805	377.88
563.017	398.88
563.229	408.88
563.441	394.88
563.653	406.88
563.865	418.88
564.077	404.88
564.289	388.88
564.501	414.88
564.713	412.88
564.925	404.88
565.137	403.88
565.349	413.88
565.561	456.88
565.773	426.88
565.985	441.88
566.197	430.88
566.408	418.88
566.62	427.88
566.832	429.88
567.044	444.88
567.255	449.88
567.467	471.88
567.679	443.88
567.891	464.88
568.102	455.88
568.314	433.88
568.526	437.88
568.737	408.88
568.949	434.88
569.161	422.88
569.372	401.88
569.584	399.88
569.795	387.88
570.007	377.88
570.218	376.88
570.43	370.88
570.641	374.88
570.853	358.88
571.064	374.88
571.276	359.88
571.487	374.88
571.698	363.88
571.91	355.88
572.121	357.88
572.333	349.88
572.544	363.88
572.755	349.88
572.966	338.88
573.178	346.88
573.389	352.88
573.6	319.88
573.811	336.88
574.023	341.88
574.234	347.88
574.445	338.88
574.656	341.88
574.867	316.88
575.078	328.88
575.289	343.88
575.501	313.88
575.712	329.88
575.923	343.88
576.134	346.88
576.345	322.88
576.556	331.88
576.767	306.88
576.978	315.88
577.188	316.88
577.399	312.88
577.61	331.88
577.821	337.88
578.032	312.88
578.243	322.88
578.454	314.88
578.665	309.88
578.875	315.88
579.086	303.88
579.297	323.88
579.508	324.88
579.718	312.88
579.929	314.88
580.14	311.88
580.35	289.88
580.561	296.88
580.772	309.88
580.982	308.88
581.193	302.88
581.403	307.88
581.614	292.88
581.825	288.88
582.035	306.88
582.246	298.88
582.456	278.88
582.667	284.88
582.877	309.88
583.087	308.88
583.298	304.88
583.508	290.88
583.719	300.88
583.929	317.88
584.139	290.88
584.35	298.88
584.56	293.88
584.77	280.88
584.981	282.88
585.191	281.88
585.401	290.88
585.611	280.88
585.821	291.88
586.032	290.88
586.242	293.88
586.452	287.88
586.662	282.88
586.872	280.88
587.082	278.88
587.292	273.88
587.502	285.88
587.713	289.88
587.923	284.88
588.133	283.88
588.343	299.88
588.553	274.88
588.762	298.88
588.972	303.88
589.182	355.88
589.392	345.88
589.602	293.88
589.812	346.88
590.022	316.88
590.232	282.88
590.441	271.88
590.651	286.88
590.861	287.88
591.071	259.88
591.281	276.88
591.49	270.88
591.7	279.88
591.91	278.88
592.119	282.88
592.329	272.88
592.539	289.88
592.748	292.88
592.958	290.88
593.167	276.88
593.377	283.88
593.587	303.88
593.796	288.88
594.006	281.88
594.215	289.88
594.424	275.88
594.634	294.88
594.843	282.88
595.053	281.88
595.262	262.88
595.472	283.88
595.681	272.88
595.89	262.88
596.1	280.88
596.309	262.88
596.518	265.88
596.727	287.88
596.937	253.88
597.146	263.88
597.355	268.88
597.564	271.88
597.774	244.88
597.983	266.88
598.192	259.88
598.401	252.88
598.61	252.88
598.819	269.88
599.028	259.88
599.237	265.88
599.446	238.88
599.655	243.88
599.864	250.88
600.073	246.88
600.282	224.88
600.491	236.88
600.7	267.88
600.909	261.88
601.118	259.88
601.327	246.88
601.536	234.88
601.745	263.88
601.953	253.88
602.162	261.88
602.371	239.88
602.58	239.88
602.789	223.88
602.997	235.88
603.206	250.88
603.415	225.88
603.623	235.88
603.832	246.88
604.041	250.88
604.249	233.88
604.458	219.88
604.666	231.88
604.875	240.88
605.084	235.88
605.292	229.88
605.501	231.88
605.709	231.88
605.918	244.88
606.126	244.88
606.334	240.88
606.543	231.88
606.751	229.88
606.96	220.88
607.168	232.88
607.376	244.88
607.585	238.88
607.793	231.88
608.001	208.88
608.21	230.88
608.418	222.88
608.626	232.88
608.834	219.88
609.043	233.88
609.251	239.88
609.459	223.88
609.667	229.88
609.875	227.88
610.083	231.88
610.291	227.88
610.499	228.88
610.707	236.88
610.916	229.88
611.124	258.88
611.332	223.88
611.54	220.88
611.748	226.88
611.955	237.88
612.163	217.88
612.371	218.88
612.579	212.88
612.787	219.88
612.995	221.88
613.203	239.88
613.411	208.88
613.618	222.88
613.826	216.88
614.034	216.88
614.242	210.88
614.449	226.88
614.657	227.88
614.865	231.88
615.072	209.88
615.28	212.88
615.488	223.88
615.695	239.88
615.903	234.88
616.111	220.88
616.318	234.88
616.526	192.88
616.733	207.88
616.941	219.88
617.148	231.88
617.356	207.88
617.563	206.88
617.771	206.88
617.978	209.88
618.185	213.88
618.393	218.88
618.6	215.88
618.807	222.88
619.015	221.88
619.222	211.88
619.429	214.88
619.637	214.88
619.844	222.88
620.051	206.88
620.258	206.88
620.466	207.88
620.673	194.88
620.88	211.88
621.087	210.88
621.294	205.88
621.501	220.88
621.708	194.88
621.915	206.88
622.122	218.88
622.329	216.88
622.536	199.88
622.743	187.88
622.95	211.88
623.157	211.88
623.364	221.88
623.571	213.88
623.778	215.88
623.985	189.88
624.192	218.88
624.399	199.88
624.606	214.88
624.812	202.88
625.019	198.88
625.226	206.88
625.433	218.88
625.639	204.88
625.846	210.88
626.053	206.88
626.259	192.88
626.466	184.88
626.673	191.88
626.879	196.88
627.086	187.88
627.293	191.88
627.499	204.88
627.706	192.88
627.912	199.88
628.119	200.88
628.325	202.88
628.532	180.88
628.738	182.88
628.945	195.88
629.151	178.88
629.357	180.88
629.564	183.88
629.77	172.88
629.976	182.88
630.183	180.88
630.389	181.88
630.595	190.88
630.802	193.88
631.008	188.88
631.214	194.88
631.42	181.88
631.627	196.88
631.833	196.88
632.039	184.88
632.245	181.88
632.451	163.88
632.657	192.88
632.863	175.88
633.069	180.88
633.275	164.88
633.481	180.88
633.688	194.88
633.893	187.88
634.099	180.88
634.305	183.88
634.511	182.88
634.717	158.88
634.923	175.88
635.129	178.88
635.335	175.88
635.541	185.88
635.747	167.88
635.952	176.88
636.158	188.88
636.364	164.88
636.57	190.88
636.775	185.88
636.981	203.88
637.187	171.88
637.392	179.88
637.598	190.88
637.804	177.88
638.009	169.88
638.215	172.88
638.421	165.88
638.626	197.88
638.832	180.88
639.037	171.88
639.243	174.88
639.448	173.88
639.654	178.88
639.859	171.88
640.065	176.88
640.27	198.88
640.475	173.88
640.681	165.88
640.886	176.88
641.091	168.88
641.297	187.88
641.502	168.88
641.707	183.88
641.913	196.88
642.118	180.88
642.323	171.88
642.528	178.88
642.733	174.88
642.939	182.88
643.144	176.88
643.349	183.88
643.554	170.88
643.759	176.88
643.964	170.88
644.169	164.88
644.374	186.88
644.579	165.88
644.784	166.88
644.989	165.88
645.194	164.88
645.399	169.88
645.604	174.88
645.809	170.88
646.014	178.88
646.219	182.88
646.423	176.88
646.628	165.88
646.833	176.88
647.038	174.88
647.243	171.88
647.447	169.88
647.652	164.88
647.857	172.88
648.062	178.88
648.266	169.88
648.471	177.88
648.676	179.88
648.88	182.88
649.085	168.88
649.289	178.88
649.494	166.88
649.698	176.88
649.903	155.88
650.107	187.88
650.312	164.88
650.516	179.88
650.721	167.88
650.925	159.88
651.13	161.88
651.334	168.88
651.539	154.88
651.743	166.88
651.947	173.88
652.152	160.88
652.356	170.88
652.56	152.88
652.764	161.88
652.969	153.88
653.173	166.88
653.377	154.88
653.581	167.88
653.785	158.88
653.99	145.88
654.194	151.88
654.398	147.88
654.602	162.88
654.806	155.88
655.01	149.88
655.214	147.88
655.418	150.88
655.622	154.88
655.826	166.88
656.03	163.88
656.234	162.88
656.438	158.88
656.642	142.88
656.846	154.88
657.049	145.88
657.253	155.88
657.457	154.88
657.661	142.88
657.865	126.88
658.068	150.88
658.272	112.88
658.476	121.88
658.68	128.88
658.883	121.88
659.087	118.88
659.291	123.88
659.494	124.88
659.698	125.88
659.901	102.88
660.105	114.88
660.309	89.88
660.512	101.88
660.716	91.88
660.919	106.88
661.123	113.88
661.326	104.88
661.53	99.88
661.733	102.88
661.936	84.88
662.14	93.88
662.343	92.88
662.546	93.88
662.75	91.88
662.953	92.88
663.156	93.88
663.36	87.88
663.563	87.88
663.766	95.88
663.969	78.88
664.173	94.88
664.376	83.88
664.579	90.88
664.782	74.88
664.985	72.88
665.188	62.88
665.391	78.88
665.594	78.88
665.797	74.88
666	95.88
666.203	89.88
666.406	83.88
666.609	82.88
666.812	70.88
667.015	69.88
667.218	84.88
667.421	83.88
667.624	72.88
667.827	96.88
668.03	84.88
668.232	71.88
668.435	90.88
668.638	71.88
668.841	95.88
669.043	76.88
669.246	73.88
669.449	85.88
669.651	89.88
669.854	87.88
670.057	84.88
670.259	80.88
670.462	77.88
670.665	87.88
670.867	79.88
671.07	78.88
671.272	72.88
671.475	91.88
671.677	77.88
671.88	84.88
672.082	72.88
672.284	74.88
672.487	79.88
672.689	77.88
672.892	84.88
