Data from Fe(NO3)3@0.1M.TitratingCurve.Agarose3%dH2O.NegLispCup.LampEnergy10.LIBS07252019_HRD10591_16-41-29-333.txt Node
Date: Thu Jul 25 16:41:29 EDT 2019
User: cochatt
Spectrometer: HR+D1059
Trigger mode: 1
Integration Time (sec): 1.000000E-1
Scans to average: 1
Electric dark correction enabled: true
Nonlinearity correction enabled: false
Boxcar width: 0
XAxis mode: Wavelengths
Number of Pixels in Spectrum: 2048
>>>>>Begin Spectral Data<<<<<
223.165	-27.12
223.4	-27.12
223.635	-27.12
223.869	-28.12
224.104	4.88
224.338	-15.12
224.573	-14.12
224.808	-21.12
225.042	-4.12
225.277	1.88
225.511	-2.12
225.746	8.88
225.98	12.88
226.215	16.88
226.449	-3.12
226.683	17.88
226.918	21.88
227.152	29.88
227.387	45.88
227.621	31.88
227.856	38.88
228.09	42.88
228.324	45.88
228.559	49.88
228.793	57.88
229.027	55.88
229.262	74.88
229.496	69.88
229.73	74.88
229.964	83.88
230.199	75.88
230.433	81.88
230.667	89.88
230.901	98.88
231.136	83.88
231.37	83.88
231.604	90.88
231.838	86.88
232.072	85.88
232.306	87.88
232.541	102.88
232.775	97.88
233.009	102.88
233.243	95.88
233.477	92.88
233.711	96.88
233.945	88.88
234.179	88.88
234.413	108.88
234.647	87.88
234.881	103.88
235.115	87.88
235.349	90.88
235.583	99.88
235.817	96.88
236.051	79.88
236.285	94.88
236.519	88.88
236.753	95.88
236.987	96.88
237.221	101.88
237.455	97.88
237.689	100.88
237.922	110.88
238.156	113.88
238.39	101.88
238.624	96.88
238.858	85.88
239.091	81.88
239.325	103.88
239.559	99.88
239.793	90.88
240.027	97.88
240.26	87.88
240.494	87.88
240.728	87.88
240.961	82.88
241.195	99.88
241.429	86.88
241.662	106.88
241.896	104.88
242.13	106.88
242.363	98.88
242.597	99.88
242.83	94.88
243.064	102.88
243.298	103.88
243.531	97.88
243.765	93.88
243.998	98.88
244.232	122.88
244.465	97.88
244.699	112.88
244.932	110.88
245.166	111.88
245.399	111.88
245.633	104.88
245.866	106.88
246.099	103.88
246.333	96.88
246.566	103.88
246.8	111.88
247.033	119.88
247.266	94.88
247.5	96.88
247.733	106.88
247.966	100.88
248.2	107.88
248.433	111.88
248.666	118.88
248.899	98.88
249.133	107.88
249.366	111.88
249.599	103.88
249.832	104.88
250.066	114.88
250.299	116.88
250.532	119.88
250.765	110.88
250.998	87.88
251.231	113.88
251.465	117.88
251.698	105.88
251.931	109.88
252.164	120.88
252.397	121.88
252.63	122.88
252.863	119.88
253.096	113.88
253.329	113.88
253.562	113.88
253.795	115.88
254.028	119.88
254.261	116.88
254.494	117.88
254.727	115.88
254.96	111.88
255.193	120.88
255.426	120.88
255.659	112.88
255.892	123.88
256.124	120.88
256.357	118.88
256.59	121.88
256.823	105.88
257.056	139.88
257.289	118.88
257.521	124.88
257.754	123.88
257.987	112.88
258.22	130.88
258.452	127.88
258.685	125.88
258.918	104.88
259.151	129.88
259.383	123.88
259.616	116.88
259.849	125.88
260.081	117.88
260.314	129.88
260.547	134.88
260.779	120.88
261.012	121.88
261.244	119.88
261.477	140.88
261.71	131.88
261.942	126.88
262.175	145.88
262.407	113.88
262.64	119.88
262.872	139.88
263.105	115.88
263.337	139.88
263.57	120.88
263.802	138.88
264.035	136.88
264.267	128.88
264.499	125.88
264.732	136.88
264.964	129.88
265.197	129.88
265.429	133.88
265.661	146.88
265.894	133.88
266.126	129.88
266.358	126.88
266.591	126.88
266.823	134.88
267.055	149.88
267.287	134.88
267.52	123.88
267.752	140.88
267.984	141.88
268.216	157.88
268.448	150.88
268.681	145.88
268.913	131.88
269.145	145.88
269.377	141.88
269.609	142.88
269.841	138.88
270.073	151.88
270.306	144.88
270.538	138.88
270.77	139.88
271.002	141.88
271.234	135.88
271.466	146.88
271.698	143.88
271.93	163.88
272.162	135.88
272.394	155.88
272.626	146.88
272.858	152.88
273.09	147.88
273.322	150.88
273.553	150.88
273.785	138.88
274.017	153.88
274.249	145.88
274.481	140.88
274.713	149.88
274.945	135.88
275.176	150.88
275.408	152.88
275.64	141.88
275.872	146.88
276.104	134.88
276.335	171.88
276.567	155.88
276.799	150.88
277.031	147.88
277.262	143.88
277.494	154.88
277.726	145.88
277.957	151.88
278.189	154.88
278.421	169.88
278.652	153.88
278.884	158.88
279.115	148.88
279.347	157.88
279.579	141.88
279.81	147.88
280.042	143.88
280.273	151.88
280.505	169.88
280.736	140.88
280.968	168.88
281.199	166.88
281.431	163.88
281.662	169.88
281.894	171.88
282.125	160.88
282.356	178.88
282.588	152.88
282.819	167.88
283.051	151.88
283.282	166.88
283.513	167.88
283.745	166.88
283.976	163.88
284.207	171.88
284.439	173.88
284.67	152.88
284.901	163.88
285.132	167.88
285.364	179.88
285.595	163.88
285.826	173.88
286.057	189.88
286.288	180.88
286.52	158.88
286.751	165.88
286.982	166.88
287.213	165.88
287.444	165.88
287.675	171.88
287.906	172.88
288.138	161.88
288.369	177.88
288.6	163.88
288.831	166.88
289.062	172.88
289.293	171.88
289.524	173.88
289.755	173.88
289.986	165.88
290.217	178.88
290.448	184.88
290.679	193.88
290.91	175.88
291.141	177.88
291.371	178.88
291.602	181.88
291.833	165.88
292.064	177.88
292.295	186.88
292.526	189.88
292.757	170.88
292.987	177.88
293.218	175.88
293.449	186.88
293.68	177.88
293.91	187.88
294.141	167.88
294.372	174.88
294.603	179.88
294.833	181.88
295.064	179.88
295.295	187.88
295.525	201.88
295.756	199.88
295.987	196.88
296.217	176.88
296.448	190.88
296.679	181.88
296.909	183.88
297.14	176.88
297.37	197.88
297.601	187.88
297.831	190.88
298.062	186.88
298.292	194.88
298.523	194.88
298.753	198.88
298.984	199.88
299.214	204.88
299.445	194.88
299.675	183.88
299.905	183.88
300.136	206.88
300.366	195.88
300.597	197.88
300.827	200.88
301.057	203.88
301.288	202.88
301.518	193.88
301.748	199.88
301.979	184.88
302.209	202.88
302.439	206.88
302.669	195.88
302.9	207.88
303.13	207.88
303.36	203.88
303.59	196.88
303.82	215.88
304.051	189.88
304.281	196.88
304.511	198.88
304.741	196.88
304.971	186.88
305.201	190.88
305.431	189.88
305.661	193.88
305.891	182.88
306.121	202.88
306.352	222.88
306.582	196.88
306.812	199.88
307.042	198.88
307.272	194.88
307.502	199.88
307.731	221.88
307.961	205.88
308.191	203.88
308.421	205.88
308.651	206.88
308.881	208.88
309.111	206.88
309.341	203.88
309.571	207.88
309.8	206.88
310.03	203.88
310.26	184.88
310.49	213.88
310.72	193.88
310.949	193.88
311.179	212.88
311.409	200.88
311.639	194.88
311.868	201.88
312.098	201.88
312.328	216.88
312.557	197.88
312.787	205.88
313.017	212.88
313.246	197.88
313.476	217.88
313.706	217.88
313.935	214.88
314.165	219.88
314.394	221.88
314.624	221.88
314.853	210.88
315.083	222.88
315.312	222.88
315.542	206.88
315.771	208.88
316.001	206.88
316.23	192.88
316.46	222.88
316.689	212.88
316.919	217.88
317.148	221.88
317.377	229.88
317.607	221.88
317.836	206.88
318.065	218.88
318.295	203.88
318.524	206.88
318.753	202.88
318.983	213.88
319.212	215.88
319.441	215.88
319.67	205.88
319.9	196.88
320.129	210.88
320.358	214.88
320.587	197.88
320.816	201.88
321.046	212.88
321.275	221.88
321.504	209.88
321.733	211.88
321.962	212.88
322.191	218.88
322.42	211.88
322.649	209.88
322.878	217.88
323.108	232.88
323.337	209.88
323.566	211.88
323.795	230.88
324.024	216.88
324.253	203.88
324.482	197.88
324.71	221.88
324.939	225.88
325.168	226.88
325.397	219.88
325.626	242.88
325.855	229.88
326.084	232.88
326.313	234.88
326.542	220.88
326.77	219.88
326.999	218.88
327.228	229.88
327.457	232.88
327.686	243.88
327.914	232.88
328.143	222.88
328.372	233.88
328.6	243.88
328.829	231.88
329.058	240.88
329.287	231.88
329.515	244.88
329.744	246.88
329.972	211.88
330.201	228.88
330.43	239.88
330.658	243.88
330.887	232.88
331.115	242.88
331.344	261.88
331.572	257.88
331.801	254.88
332.03	254.88
332.258	251.88
332.486	262.88
332.715	262.88
332.943	276.88
333.172	274.88
333.4	291.88
333.629	299.88
333.857	285.88
334.085	298.88
334.314	283.88
334.542	281.88
334.771	285.88
334.999	266.88
335.227	272.88
335.455	277.88
335.684	267.88
335.912	277.88
336.14	265.88
336.369	249.88
336.597	266.88
336.825	261.88
337.053	282.88
337.281	258.88
337.51	270.88
337.738	265.88
337.966	253.88
338.194	256.88
338.422	260.88
338.65	262.88
338.878	270.88
339.106	254.88
339.334	263.88
339.562	255.88
339.79	241.88
340.018	223.88
340.246	237.88
340.474	237.88
340.702	256.88
340.93	243.88
341.158	233.88
341.386	227.88
341.614	230.88
341.842	224.88
342.07	238.88
342.298	271.88
342.526	246.88
342.754	238.88
342.981	238.88
343.209	258.88
343.437	251.88
343.665	270.88
343.893	275.88
344.12	272.88
344.348	274.88
344.576	278.88
344.804	265.88
345.031	259.88
345.259	246.88
345.487	245.88
345.714	233.88
345.942	245.88
346.17	232.88
346.397	243.88
346.625	253.88
346.853	224.88
347.08	242.88
347.308	244.88
347.535	241.88
347.763	228.88
347.99	239.88
348.218	221.88
348.445	229.88
348.673	229.88
348.9	229.88
349.128	240.88
349.355	233.88
349.583	234.88
349.81	233.88
350.037	232.88
350.265	230.88
350.492	207.88
350.72	231.88
350.947	233.88
351.174	218.88
351.402	234.88
351.629	223.88
351.856	215.88
352.083	231.88
352.311	237.88
352.538	230.88
352.765	232.88
352.992	241.88
353.22	240.88
353.447	238.88
353.674	249.88
353.901	224.88
354.128	234.88
354.355	237.88
354.583	225.88
354.81	237.88
355.037	225.88
355.264	237.88
355.491	226.88
355.718	250.88
355.945	244.88
356.172	230.88
356.399	232.88
356.626	230.88
356.853	255.88
357.08	223.88
357.307	229.88
357.534	226.88
357.761	222.88
357.988	238.88
358.215	234.88
358.441	237.88
358.668	235.88
358.895	240.88
359.122	245.88
359.349	241.88
359.576	223.88
359.802	226.88
360.029	230.88
360.256	253.88
360.483	205.88
360.709	228.88
360.936	228.88
361.163	231.88
361.39	234.88
361.616	239.88
361.843	243.88
362.07	250.88
362.296	264.88
362.523	234.88
362.749	242.88
362.976	211.88
363.203	247.88
363.429	217.88
363.656	252.88
363.882	257.88
364.109	237.88
364.335	235.88
364.562	247.88
364.788	235.88
365.015	227.88
365.241	229.88
365.468	215.88
365.694	234.88
365.92	231.88
366.147	248.88
366.373	243.88
366.599	241.88
366.826	253.88
367.052	218.88
367.278	218.88
367.505	234.88
367.731	253.88
367.957	239.88
368.184	227.88
368.41	249.88
368.636	247.88
368.862	246.88
369.089	236.88
369.315	260.88
369.541	254.88
369.767	243.88
369.993	235.88
370.219	234.88
370.445	233.88
370.672	245.88
370.898	241.88
371.124	261.88
371.35	257.88
371.576	253.88
371.802	255.88
372.028	248.88
372.254	248.88
372.48	249.88
372.706	264.88
372.932	263.88
373.158	262.88
373.384	258.88
373.61	257.88
373.835	266.88
374.061	263.88
374.287	267.88
374.513	278.88
374.739	272.88
374.965	271.88
375.191	277.88
375.416	271.88
375.642	279.88
375.868	279.88
376.094	278.88
376.319	255.88
376.545	243.88
376.771	256.88
376.997	274.88
377.222	254.88
377.448	261.88
377.674	260.88
377.899	241.88
378.125	242.88
378.35	265.88
378.576	244.88
378.802	218.88
379.027	250.88
379.253	270.88
379.478	265.88
379.704	255.88
379.929	273.88
380.155	239.88
380.38	268.88
380.606	261.88
380.831	267.88
381.057	265.88
381.282	250.88
381.507	278.88
381.733	256.88
381.958	263.88
382.184	273.88
382.409	259.88
382.634	277.88
382.86	261.88
383.085	262.88
383.31	280.88
383.535	277.88
383.761	270.88
383.986	294.88
384.211	282.88
384.436	304.88
384.662	294.88
384.887	298.88
385.112	286.88
385.337	287.88
385.562	298.88
385.787	298.88
386.013	305.88
386.238	286.88
386.463	285.88
386.688	294.88
386.913	297.88
387.138	283.88
387.363	305.88
387.588	294.88
387.813	307.88
388.038	294.88
388.263	301.88
388.488	314.88
388.713	293.88
388.938	275.88
389.163	294.88
389.387	288.88
389.612	290.88
389.837	298.88
390.062	291.88
390.287	308.88
390.512	305.88
390.736	278.88
390.961	296.88
391.186	303.88
391.411	313.88
391.636	322.88
391.86	336.88
392.085	329.88
392.31	317.88
392.534	318.88
392.759	308.88
392.984	313.88
393.208	311.88
393.433	303.88
393.658	303.88
393.882	321.88
394.107	295.88
394.331	303.88
394.556	313.88
394.78	318.88
395.005	327.88
395.229	318.88
395.454	318.88
395.678	326.88
395.903	315.88
396.127	334.88
396.352	299.88
396.576	289.88
396.801	318.88
397.025	312.88
397.249	330.88
397.474	331.88
397.698	329.88
397.922	347.88
398.147	349.88
398.371	339.88
398.595	347.88
398.82	344.88
399.044	396.88
399.268	447.88
399.492	480.88
399.717	513.88
399.941	466.88
400.165	442.88
400.389	410.88
400.613	375.88
400.837	374.88
401.062	369.88
401.286	356.88
401.51	357.88
401.734	358.88
401.958	379.88
402.182	369.88
402.406	374.88
402.63	372.88
402.854	358.88
403.078	388.88
403.302	385.88
403.526	396.88
403.75	416.88
403.974	403.88
404.198	393.88
404.422	412.88
404.645	390.88
404.869	409.88
405.093	406.88
405.317	384.88
405.541	402.88
405.765	388.88
405.988	375.88
406.212	391.88
406.436	398.88
406.66	423.88
406.883	395.88
407.107	421.88
407.331	452.88
407.555	444.88
407.778	419.88
408.002	432.88
408.226	417.88
408.449	434.88
408.673	409.88
408.896	385.88
409.12	402.88
409.344	419.88
409.567	386.88
409.791	412.88
410.014	410.88
410.238	381.88
410.461	384.88
410.685	385.88
410.908	395.88
411.132	382.88
411.355	366.88
411.578	353.88
411.802	381.88
412.025	379.88
412.249	383.88
412.472	363.88
412.695	369.88
412.919	369.88
413.142	376.88
413.365	370.88
413.589	352.88
413.812	355.88
414.035	344.88
414.258	359.88
414.482	356.88
414.705	371.88
414.928	358.88
415.151	359.88
415.374	382.88
415.597	387.88
415.821	369.88
416.044	358.88
416.267	367.88
416.49	351.88
416.713	367.88
416.936	373.88
417.159	357.88
417.382	352.88
417.605	359.88
417.828	365.88
418.051	369.88
418.274	369.88
418.497	367.88
418.72	351.88
418.943	360.88
419.166	375.88
419.389	391.88
419.611	395.88
419.834	373.88
420.057	371.88
420.28	358.88
420.503	373.88
420.726	360.88
420.948	345.88
421.171	355.88
421.394	354.88
421.617	358.88
421.839	350.88
422.062	361.88
422.285	350.88
422.507	352.88
422.73	366.88
422.953	359.88
423.175	371.88
423.398	389.88
423.621	373.88
423.843	390.88
424.066	384.88
424.288	386.88
424.511	373.88
424.733	373.88
424.956	360.88
425.178	352.88
425.401	372.88
425.623	361.88
425.846	342.88
426.068	350.88
426.291	336.88
426.513	341.88
426.735	348.88
426.958	349.88
427.18	327.88
427.402	363.88
427.625	348.88
427.847	351.88
428.069	356.88
428.292	326.88
428.514	329.88
428.736	331.88
428.958	339.88
429.181	325.88
429.403	325.88
429.625	335.88
429.847	336.88
430.069	326.88
430.292	335.88
430.514	330.88
430.736	337.88
430.958	331.88
431.18	346.88
431.402	341.88
431.624	330.88
431.846	347.88
432.068	320.88
432.29	341.88
432.512	334.88
432.734	322.88
432.956	320.88
433.178	352.88
433.4	359.88
433.622	336.88
433.844	341.88
434.066	345.88
434.287	335.88
434.509	350.88
434.731	351.88
434.953	365.88
435.175	353.88
435.397	354.88
435.618	370.88
435.84	344.88
436.062	343.88
436.284	350.88
436.505	354.88
436.727	344.88
436.949	344.88
437.17	341.88
437.392	330.88
437.614	323.88
437.835	322.88
438.057	329.88
438.278	329.88
438.5	321.88
438.721	333.88
438.943	339.88
439.165	330.88
439.386	337.88
439.608	344.88
439.829	339.88
440.05	342.88
440.272	355.88
440.493	353.88
440.715	337.88
440.936	352.88
441.158	360.88
441.379	371.88
441.6	377.88
441.822	390.88
442.043	374.88
442.264	385.88
442.486	375.88
442.707	348.88
442.928	387.88
443.149	389.88
443.371	372.88
443.592	389.88
443.813	380.88
444.034	377.88
444.255	393.88
444.476	412.88
444.698	432.88
444.919	444.88
445.14	497.88
445.361	438.88
445.582	397.88
445.803	371.88
446.024	362.88
446.245	365.88
446.466	352.88
446.687	345.88
446.908	360.88
447.129	343.88
447.35	335.88
447.571	351.88
447.792	350.88
448.013	335.88
448.234	336.88
448.455	326.88
448.675	326.88
448.896	317.88
449.117	324.88
449.338	314.88
449.559	326.88
449.779	323.88
450	325.88
450.221	334.88
450.442	336.88
450.662	324.88
450.883	312.88
451.104	318.88
451.324	309.88
451.545	337.88
451.766	326.88
451.986	321.88
452.207	310.88
452.428	303.88
452.648	316.88
452.869	317.88
453.089	301.88
453.31	318.88
453.53	315.88
453.751	290.88
453.971	305.88
454.192	291.88
454.412	302.88
454.633	305.88
454.853	302.88
455.073	289.88
455.294	312.88
455.514	311.88
455.734	305.88
455.955	281.88
456.175	308.88
456.395	291.88
456.616	287.88
456.836	307.88
457.056	286.88
457.276	293.88
457.497	305.88
457.717	297.88
457.937	299.88
458.157	305.88
458.377	302.88
458.598	309.88
458.818	331.88
459.038	331.88
459.258	330.88
459.478	321.88
459.698	331.88
459.918	347.88
460.138	366.88
460.358	375.88
460.578	374.88
460.798	394.88
461.018	380.88
461.238	375.88
461.458	377.88
461.678	376.88
461.898	381.88
462.118	381.88
462.338	400.88
462.558	429.88
462.777	407.88
462.997	441.88
463.217	477.88
463.437	459.88
463.657	442.88
463.876	403.88
464.096	450.88
464.316	429.88
464.536	421.88
464.755	420.88
464.975	400.88
465.195	386.88
465.414	363.88
465.634	341.88
465.854	344.88
466.073	351.88
466.293	331.88
466.512	337.88
466.732	340.88
466.951	337.88
467.171	343.88
467.391	323.88
467.61	349.88
467.829	322.88
468.049	308.88
468.268	336.88
468.488	321.88
468.707	321.88
468.927	326.88
469.146	331.88
469.365	314.88
469.585	310.88
469.804	337.88
470.023	340.88
470.243	336.88
470.462	342.88
470.681	328.88
470.901	336.88
471.12	333.88
471.339	305.88
471.558	321.88
471.777	324.88
471.997	329.88
472.216	322.88
472.435	321.88
472.654	310.88
472.873	305.88
473.092	311.88
473.311	291.88
473.53	311.88
473.749	325.88
473.968	287.88
474.187	312.88
474.406	313.88
474.625	305.88
474.844	314.88
475.063	319.88
475.282	295.88
475.501	312.88
475.72	319.88
475.939	315.88
476.158	336.88
476.377	329.88
476.596	294.88
476.814	307.88
477.033	322.88
477.252	338.88
477.471	335.88
477.69	331.88
477.908	337.88
478.127	367.88
478.346	340.88
478.564	341.88
478.783	364.88
479.002	372.88
479.22	381.88
479.439	363.88
479.658	362.88
479.876	363.88
480.095	351.88
480.313	389.88
480.532	381.88
480.751	371.88
480.969	367.88
481.188	366.88
481.406	350.88
481.624	337.88
481.843	338.88
482.061	335.88
482.28	323.88
482.498	336.88
482.717	321.88
482.935	328.88
483.153	357.88
483.372	350.88
483.59	338.88
483.808	336.88
484.027	344.88
484.245	349.88
484.463	357.88
484.681	351.88
484.9	345.88
485.118	361.88
485.336	347.88
485.554	354.88
485.772	347.88
485.99	346.88
486.209	356.88
486.427	371.88
486.645	353.88
486.863	351.88
487.081	360.88
487.299	362.88
487.517	362.88
487.735	354.88
487.953	367.88
488.171	362.88
488.389	337.88
488.607	327.88
488.825	327.88
489.043	343.88
489.261	350.88
489.479	326.88
489.696	350.88
489.914	367.88
490.132	365.88
490.35	355.88
490.568	341.88
490.786	357.88
491.003	355.88
491.221	373.88
491.439	381.88
491.657	360.88
491.874	365.88
492.092	369.88
492.31	379.88
492.527	373.88
492.745	369.88
492.963	358.88
493.18	369.88
493.398	377.88
493.615	375.88
493.833	355.88
494.05	362.88
494.268	351.88
494.485	380.88
494.703	380.88
494.92	386.88
495.138	383.88
495.355	383.88
495.573	368.88
495.79	361.88
496.008	383.88
496.225	388.88
496.442	392.88
496.66	382.88
496.877	379.88
497.094	404.88
497.312	401.88
497.529	398.88
497.746	403.88
497.963	422.88
498.181	433.88
498.398	461.88
498.615	474.88
498.832	501.88
499.049	509.88
499.267	585.88
499.484	598.88
499.701	651.88
499.918	702.88
500.135	795.88
500.352	913.88
500.569	945.88
500.786	886.88
501.003	812.88
501.22	740.88
501.437	702.88
501.654	608.88
501.871	577.88
502.088	538.88
502.305	491.88
502.522	469.88
502.739	455.88
502.956	468.88
503.172	429.88
503.389	411.88
503.606	418.88
503.823	392.88
504.04	408.88
504.256	403.88
504.473	410.88
504.69	408.88
504.907	403.88
505.123	381.88
505.34	374.88
505.557	385.88
505.773	343.88
505.99	337.88
506.207	350.88
506.423	343.88
506.64	340.88
506.856	324.88
507.073	330.88
507.289	345.88
507.506	329.88
507.722	323.88
507.939	327.88
508.155	335.88
508.372	307.88
508.588	332.88
508.805	321.88
509.021	303.88
509.238	310.88
509.454	300.88
509.67	308.88
509.887	318.88
510.103	309.88
510.319	303.88
510.536	304.88
510.752	320.88
510.968	307.88
511.184	295.88
511.401	315.88
511.617	293.88
511.833	298.88
512.049	297.88
512.265	317.88
512.481	306.88
512.698	314.88
512.914	318.88
513.13	319.88
513.346	313.88
513.562	296.88
513.778	311.88
513.994	303.88
514.21	317.88
514.426	306.88
514.642	301.88
514.858	290.88
515.074	318.88
515.29	317.88
515.506	335.88
515.721	343.88
515.937	325.88
516.153	312.88
516.369	318.88
516.585	338.88
516.801	352.88
517.016	351.88
517.232	382.88
517.448	385.88
517.664	402.88
517.879	409.88
518.095	386.88
518.311	389.88
518.527	352.88
518.742	379.88
518.958	356.88
519.173	327.88
519.389	330.88
519.605	347.88
519.82	327.88
520.036	329.88
520.251	312.88
520.467	297.88
520.682	309.88
520.898	289.88
521.113	291.88
521.329	305.88
521.544	288.88
521.76	296.88
521.975	295.88
522.19	317.88
522.406	287.88
522.621	302.88
522.836	278.88
523.052	275.88
523.267	302.88
523.482	301.88
523.698	282.88
523.913	285.88
524.128	268.88
524.343	282.88
524.559	280.88
524.774	279.88
524.989	309.88
525.204	289.88
525.419	281.88
525.634	283.88
525.849	287.88
526.064	285.88
526.28	280.88
526.495	279.88
526.71	278.88
526.925	275.88
527.14	278.88
527.355	266.88
527.57	285.88
527.785	275.88
527.999	276.88
528.214	281.88
528.429	307.88
528.644	280.88
528.859	285.88
529.074	271.88
529.289	263.88
529.503	294.88
529.718	289.88
529.933	288.88
530.148	273.88
530.363	281.88
530.577	262.88
530.792	265.88
531.007	291.88
531.221	283.88
531.436	285.88
531.651	269.88
531.865	294.88
532.08	289.88
532.295	297.88
532.509	280.88
532.724	268.88
532.938	297.88
533.153	281.88
533.367	276.88
533.582	303.88
533.796	273.88
534.011	274.88
534.225	268.88
534.44	272.88
534.654	275.88
534.868	271.88
535.083	267.88
535.297	287.88
535.511	298.88
535.726	266.88
535.94	272.88
536.154	271.88
536.369	277.88
536.583	256.88
536.797	271.88
537.011	256.88
537.225	258.88
537.44	265.88
537.654	273.88
537.868	275.88
538.082	257.88
538.296	259.88
538.51	274.88
538.724	266.88
538.938	251.88
539.153	264.88
539.367	260.88
539.581	247.88
539.795	265.88
540.009	266.88
540.222	266.88
540.436	267.88
540.65	237.88
540.864	262.88
541.078	248.88
541.292	262.88
541.506	268.88
541.72	261.88
541.934	248.88
542.147	258.88
542.361	257.88
542.575	248.88
542.789	281.88
543.002	275.88
543.216	262.88
543.43	253.88
543.644	272.88
543.857	253.88
544.071	251.88
544.285	261.88
544.498	244.88
544.712	254.88
544.925	272.88
545.139	270.88
545.352	247.88
545.566	253.88
545.779	266.88
545.993	277.88
546.206	258.88
546.42	268.88
546.633	277.88
546.847	270.88
547.06	267.88
547.274	286.88
547.487	259.88
547.7	250.88
547.914	278.88
548.127	247.88
548.34	264.88
548.554	248.88
548.767	262.88
548.98	279.88
549.193	263.88
549.407	277.88
549.62	279.88
549.833	267.88
550.046	294.88
550.259	280.88
550.473	265.88
550.686	258.88
550.899	266.88
551.112	241.88
551.325	240.88
551.538	262.88
551.751	262.88
551.964	260.88
552.177	270.88
552.39	277.88
552.603	266.88
552.816	280.88
553.029	271.88
553.242	283.88
553.455	286.88
553.667	276.88
553.88	277.88
554.093	277.88
554.306	260.88
554.519	271.88
554.732	253.88
554.944	262.88
555.157	249.88
555.37	255.88
555.583	256.88
555.795	238.88
556.008	257.88
556.221	244.88
556.433	229.88
556.646	227.88
556.859	233.88
557.071	243.88
557.284	244.88
557.496	223.88
557.709	247.88
557.921	248.88
558.134	230.88
558.346	217.88
558.559	219.88
558.771	232.88
558.984	214.88
559.196	239.88
559.409	232.88
559.621	219.88
559.833	224.88
560.046	217.88
560.258	232.88
560.47	225.88
560.683	219.88
560.895	225.88
561.107	226.88
561.32	231.88
561.532	233.88
561.744	226.88
561.956	229.88
562.168	225.88
562.381	242.88
562.593	221.88
562.805	237.88
563.017	238.88
563.229	227.88
563.441	221.88
563.653	229.88
563.865	226.88
564.077	220.88
564.289	227.88
564.501	236.88
564.713	230.88
564.925	232.88
565.137	245.88
565.349	245.88
565.561	253.88
565.773	262.88
565.985	254.88
566.197	269.88
566.408	283.88
566.62	319.88
566.832	319.88
567.044	320.88
567.255	336.88
567.467	340.88
567.679	334.88
567.891	346.88
568.102	372.88
568.314	353.88
568.526	322.88
568.737	296.88
568.949	283.88
569.161	265.88
569.372	261.88
569.584	233.88
569.795	232.88
570.007	240.88
570.218	235.88
570.43	225.88
570.641	231.88
570.853	241.88
571.064	241.88
571.276	244.88
571.487	210.88
571.698	206.88
571.91	218.88
572.121	217.88
572.333	195.88
572.544	206.88
572.755	203.88
572.966	207.88
573.178	207.88
573.389	201.88
573.6	206.88
573.811	190.88
574.023	203.88
574.234	175.88
574.445	199.88
574.656	204.88
574.867	207.88
575.078	200.88
575.289	186.88
575.501	186.88
575.712	188.88
575.923	201.88
576.134	202.88
576.345	186.88
576.556	183.88
576.767	185.88
576.978	183.88
577.188	194.88
577.399	187.88
577.61	189.88
577.821	181.88
578.032	170.88
578.243	177.88
578.454	192.88
578.665	174.88
578.875	196.88
579.086	175.88
579.297	186.88
579.508	186.88
579.718	175.88
579.929	187.88
580.14	174.88
580.35	178.88
580.561	177.88
580.772	190.88
580.982	177.88
581.193	184.88
581.403	159.88
581.614	177.88
581.825	189.88
582.035	173.88
582.246	177.88
582.456	190.88
582.667	197.88
582.877	182.88
583.087	169.88
583.298	166.88
583.508	177.88
583.719	169.88
583.929	179.88
584.139	171.88
584.35	161.88
584.56	161.88
584.77	170.88
584.981	179.88
585.191	181.88
585.401	170.88
585.611	190.88
585.821	185.88
586.032	152.88
586.242	166.88
586.452	170.88
586.662	168.88
586.872	191.88
587.082	172.88
587.292	161.88
587.502	181.88
587.713	165.88
587.923	163.88
588.133	168.88
588.343	142.88
588.553	176.88
588.762	174.88
588.972	160.88
589.182	147.88
589.392	162.88
589.602	158.88
589.812	181.88
590.022	164.88
590.232	176.88
590.441	169.88
590.651	183.88
590.861	167.88
591.071	169.88
591.281	175.88
591.49	170.88
591.7	167.88
591.91	178.88
592.119	184.88
592.329	173.88
592.539	179.88
592.748	181.88
592.958	193.88
593.167	192.88
593.377	192.88
593.587	203.88
593.796	206.88
594.006	207.88
594.215	187.88
594.424	201.88
594.634	207.88
594.843	181.88
595.053	197.88
595.262	191.88
595.472	179.88
595.681	165.88
595.89	181.88
596.1	162.88
596.309	181.88
596.518	157.88
596.727	168.88
596.937	154.88
597.146	167.88
597.355	155.88
597.564	152.88
597.774	175.88
597.983	164.88
598.192	149.88
598.401	164.88
598.61	157.88
598.819	147.88
599.028	153.88
599.237	158.88
599.446	153.88
599.655	152.88
599.864	153.88
600.073	143.88
600.282	159.88
600.491	171.88
600.7	165.88
600.909	157.88
601.118	147.88
601.327	166.88
601.536	144.88
601.745	154.88
601.953	149.88
602.162	147.88
602.371	155.88
602.58	144.88
602.789	150.88
602.997	152.88
603.206	156.88
603.415	151.88
603.623	138.88
603.832	156.88
604.041	133.88
604.249	142.88
604.458	134.88
604.666	143.88
604.875	147.88
605.084	147.88
605.292	149.88
605.501	141.88
605.709	137.88
605.918	155.88
606.126	127.88
606.334	153.88
606.543	145.88
606.751	145.88
606.96	144.88
607.168	147.88
607.376	145.88
607.585	143.88
607.793	148.88
608.001	148.88
608.21	134.88
608.418	144.88
608.626	141.88
608.834	155.88
609.043	143.88
609.251	136.88
609.459	135.88
609.667	145.88
609.875	130.88
610.083	144.88
610.291	137.88
610.499	134.88
610.707	149.88
610.916	151.88
611.124	142.88
611.332	153.88
611.54	145.88
611.748	133.88
611.955	146.88
612.163	125.88
612.371	129.88
612.579	141.88
612.787	138.88
612.995	153.88
613.203	145.88
613.411	138.88
613.618	162.88
613.826	144.88
614.034	154.88
614.242	140.88
614.449	142.88
614.657	150.88
614.865	148.88
615.072	127.88
615.28	133.88
615.488	147.88
615.695	154.88
615.903	134.88
616.111	142.88
616.318	137.88
616.526	135.88
616.733	139.88
616.941	125.88
617.148	147.88
617.356	151.88
617.563	137.88
617.771	139.88
617.978	126.88
618.185	143.88
618.393	140.88
618.6	149.88
618.807	136.88
619.015	130.88
619.222	142.88
619.429	137.88
619.637	145.88
619.844	140.88
620.051	139.88
620.258	127.88
620.466	143.88
620.673	132.88
620.88	143.88
621.087	131.88
621.294	134.88
621.501	139.88
621.708	130.88
621.915	130.88
622.122	122.88
622.329	126.88
622.536	123.88
622.743	133.88
622.95	133.88
623.157	132.88
623.364	122.88
623.571	132.88
623.778	134.88
623.985	131.88
624.192	123.88
624.399	138.88
624.606	120.88
624.812	130.88
625.019	132.88
625.226	139.88
625.433	126.88
625.639	138.88
625.846	131.88
626.053	116.88
626.259	125.88
626.466	129.88
626.673	141.88
626.879	130.88
627.086	149.88
627.293	123.88
627.499	129.88
627.706	146.88
627.912	126.88
628.119	134.88
628.325	126.88
628.532	125.88
628.738	127.88
628.945	121.88
629.151	131.88
629.357	125.88
629.564	123.88
629.77	121.88
629.976	110.88
630.183	129.88
630.389	113.88
630.595	122.88
630.802	129.88
631.008	122.88
631.214	105.88
631.42	121.88
631.627	127.88
631.833	136.88
632.039	126.88
632.245	123.88
632.451	113.88
632.657	113.88
632.863	124.88
633.069	123.88
633.275	119.88
633.481	119.88
633.688	119.88
633.893	115.88
634.099	131.88
634.305	102.88
634.511	99.88
634.717	125.88
634.923	121.88
635.129	119.88
635.335	107.88
635.541	128.88
635.747	117.88
635.952	100.88
636.158	121.88
636.364	114.88
636.57	119.88
636.775	139.88
636.981	127.88
637.187	114.88
637.392	116.88
637.598	106.88
637.804	109.88
638.009	113.88
638.215	112.88
638.421	113.88
638.626	114.88
638.832	111.88
639.037	106.88
639.243	115.88
639.448	114.88
639.654	131.88
639.859	119.88
640.065	110.88
640.27	129.88
640.475	122.88
640.681	117.88
640.886	122.88
641.091	118.88
641.297	122.88
641.502	109.88
641.707	109.88
641.913	121.88
642.118	120.88
642.323	115.88
642.528	119.88
642.733	102.88
642.939	115.88
643.144	106.88
643.349	99.88
643.554	115.88
643.759	112.88
643.964	101.88
644.169	127.88
644.374	110.88
644.579	97.88
644.784	99.88
644.989	119.88
645.194	109.88
645.399	118.88
645.604	114.88
645.809	116.88
646.014	101.88
646.219	114.88
646.423	119.88
646.628	104.88
646.833	114.88
647.038	119.88
647.243	107.88
647.447	129.88
647.652	113.88
647.857	116.88
648.062	127.88
648.266	125.88
648.471	122.88
648.676	115.88
648.88	112.88
649.085	113.88
649.289	116.88
649.494	120.88
649.698	113.88
649.903	106.88
650.107	113.88
650.312	125.88
650.516	123.88
650.721	115.88
650.925	114.88
651.13	98.88
651.334	104.88
651.539	113.88
651.743	104.88
651.947	106.88
652.152	103.88
652.356	101.88
652.56	97.88
652.764	98.88
652.969	111.88
653.173	111.88
653.377	95.88
653.581	100.88
653.785	119.88
653.99	113.88
654.194	109.88
654.398	109.88
654.602	105.88
654.806	93.88
655.01	92.88
655.214	98.88
655.418	134.88
655.622	96.88
655.826	107.88
656.03	85.88
656.234	100.88
656.438	104.88
656.642	96.88
656.846	110.88
657.049	105.88
657.253	92.88
657.457	95.88
657.661	97.88
657.865	98.88
658.068	102.88
658.272	100.88
658.476	85.88
658.68	99.88
658.883	93.88
659.087	87.88
659.291	75.88
659.494	97.88
659.698	97.88
659.901	93.88
660.105	87.88
660.309	83.88
660.512	88.88
660.716	96.88
660.919	81.88
661.123	96.88
661.326	81.88
661.53	75.88
661.733	85.88
661.936	81.88
662.14	72.88
662.343	86.88
662.546	83.88
662.75	88.88
662.953	88.88
663.156	70.88
663.36	81.88
663.563	85.88
663.766	75.88
663.969	84.88
664.173	78.88
664.376	69.88
664.579	74.88
664.782	89.88
664.985	90.88
665.188	82.88
665.391	67.88
665.594	78.88
665.797	78.88
666	82.88
666.203	75.88
666.406	81.88
666.609	81.88
666.812	62.88
667.015	83.88
667.218	66.88
667.421	82.88
667.624	85.88
667.827	72.88
668.03	78.88
668.232	73.88
668.435	86.88
668.638	90.88
668.841	68.88
669.043	82.88
669.246	71.88
669.449	82.88
669.651	80.88
669.854	72.88
670.057	81.88
670.259	68.88
670.462	94.88
670.665	81.88
670.867	81.88
671.07	88.88
671.272	86.88
671.475	89.88
671.677	83.88
671.88	83.88
672.082	79.88
672.284	73.88
672.487	82.88
672.689	81.88
672.892	80.88
